	Time	Channel 1	Channel 2	Channel 3	Channel 4
0	0.0	-0.844444444444	-12.2936507937	-9.88	-7.17959183673
1	0.0005	10.8	-17.9952380952	-1.12	-5.74693877551
2	0.001	-0.844444444444	-22.2714285714	0.34	-7.17959183673
3	0.0015	0.611111111111	-15.1444444444	0.34	-1.44897959184
4	0.002	-0.844444444444	-12.2936507937	3.26	-15.7755102041
5	0.0025	-2.3	-13.719047619	-1.12	-10.0448979592
6	0.003	-5.21111111111	-10.8682539683	1.8	-7.17959183673
7	0.0035	0.611111111111	-12.2936507937	-11.34	-8.61224489796
8	0.004	-0.844444444444	-16.5698412698	-4.04	-7.17959183673
9	0.0045	0.611111111111	-13.719047619	1.8	8.57959183673
10	0.005	0.611111111111	-9.44285714286	4.72	-5.74693877551
11	0.0055	-0.844444444444	-8.01746031746	-1.12	-4.31428571429
12	0.006	-0.844444444444	-12.2936507937	3.26	-7.17959183673
13	0.0065	-0.844444444444	-12.2936507937	0.34	-5.74693877551
14	0.007	-0.844444444444	-16.5698412698	0.34	-5.74693877551
15	0.0075	10.8	-9.44285714286	0.34	-8.61224489796
16	0.008	0.611111111111	-8.01746031746	1.8	-8.61224489796
17	0.0085	2.06666666667	-6.59206349206	3.26	-10.0448979592
18	0.009	-2.3	-12.2936507937	0.34	-1.44897959184
19	0.0095	-0.844444444444	-9.44285714286	0.34	-7.17959183673
20	0.01	-3.75555555556	-3.74126984127	1.8	-5.74693877551
21	0.0105	13.7111111111	-0.890476190476	0.34	-8.61224489796
22	0.011	-0.844444444444	-2.31587301587	-1.12	-12.9102040816
23	0.0115	-0.844444444444	-0.890476190476	-6.96	-5.74693877551
24	0.012	-2.3	-3.74126984127	-5.5	-5.74693877551
25	0.0125	0.611111111111	10.5126984127	-1.12	-2.88163265306
26	0.013	-6.66666666667	-0.890476190476	0.34	-2.88163265306
27	0.0135	-6.66666666667	-3.74126984127	0.34	-2.88163265306
28	0.014	0.611111111111	-3.74126984127	-1.12	-5.74693877551
29	0.0145	2.06666666667	-2.31587301587	-1.12	-7.17959183673
30	0.015	3.52222222222	-10.8682539683	0.34	-5.74693877551
31	0.0155	-0.844444444444	-10.8682539683	0.34	-8.61224489796
32	0.016	15.1666666667	-8.01746031746	0.34	-10.0448979592
33	0.0165	0.611111111111	-10.8682539683	-1.12	-12.9102040816
34	0.017	0.611111111111	-9.44285714286	0.34	-15.7755102041
35	0.0175	0.611111111111	-20.846031746	1.8	-8.61224489796
36	0.018	0.611111111111	-22.2714285714	1.8	-7.17959183673
37	0.0185	4.97777777778	-13.719047619	-1.12	-7.17959183673
38	0.019	-0.844444444444	-13.719047619	-1.12	-17.2081632653
39	0.0195	-2.3	-15.1444444444	-9.88	-5.74693877551
40	0.02	0.611111111111	-16.5698412698	-4.04	-8.61224489796
41	0.0205	-0.844444444444	-25.1222222222	1.8	-8.61224489796
42	0.021	3.52222222222	-13.719047619	1.8	-8.61224489796
43	0.0215	18.0777777778	-12.2936507937	0.34	-10.0448979592
44	0.022	-5.21111111111	-13.719047619	4.72	-11.4775510204
45	0.0225	-0.844444444444	-13.719047619	4.72	-10.0448979592
46	0.023	-0.844444444444	-25.1222222222	0.34	-4.31428571429
47	0.0235	-0.844444444444	-22.2714285714	0.34	-7.17959183673
48	0.024	3.52222222222	-17.9952380952	-1.12	-7.17959183673
49	0.0245	19.5333333333	-8.01746031746	-2.58	-7.17959183673
50	0.025	0.611111111111	-10.8682539683	-4.04	-11.4775510204
51	0.0255	0.611111111111	-6.59206349206	-5.5	-2.88163265306
52	0.026	0.611111111111	-6.59206349206	-6.96	-5.74693877551
53	0.0265	-0.844444444444	6.23650793651	-1.12	-7.17959183673
54	0.027	-15.4	-8.01746031746	0.34	-2.88163265306
55	0.0275	-6.66666666667	-5.16666666667	-1.12	4.28163265306
56	0.028	0.611111111111	-6.59206349206	-1.12	1.41632653061
57	0.0285	-0.844444444444	-5.16666666667	-1.12	-5.74693877551
58	0.029	-0.844444444444	4.81111111111	0.34	-7.17959183673
59	0.0295	-3.75555555556	-12.2936507937	4.72	-8.61224489796
60	0.03	-6.66666666667	-8.01746031746	0.34	-7.17959183673
61	0.0305	-3.75555555556	-10.8682539683	6.18	-10.0448979592
62	0.031	-0.844444444444	-10.8682539683	3.26	-4.31428571429
63	0.0315	-2.3	-23.6968253968	-1.12	-5.74693877551
64	0.032	3.52222222222	-10.8682539683	0.34	-10.0448979592
65	0.0325	3.52222222222	-13.719047619	0.34	-8.61224489796
66	0.033	-2.3	-16.5698412698	3.26	-7.17959183673
67	0.0335	-0.844444444444	-13.719047619	-5.5	-12.9102040816
68	0.034	-3.75555555556	-17.9952380952	-2.58	-14.3428571429
69	0.0345	-0.844444444444	-12.2936507937	3.26	-8.61224489796
70	0.035	-0.844444444444	-22.2714285714	1.8	-8.61224489796
71	0.0355	-11.0333333333	-20.846031746	0.34	-8.61224489796
72	0.036	0.611111111111	-16.5698412698	1.8	-8.61224489796
73	0.0365	-0.844444444444	-16.5698412698	12.02	-8.61224489796
74	0.037	0.611111111111	-16.5698412698	1.8	-7.17959183673
75	0.0375	-0.844444444444	-0.890476190476	1.8	-10.0448979592
76	0.038	-3.75555555556	-6.59206349206	1.8	-10.0448979592
77	0.0385	-9.57777777778	-15.1444444444	1.8	7.14693877551
78	0.039	0.611111111111	-17.9952380952	3.26	8.57959183673
79	0.0395	0.611111111111	-16.5698412698	19.32	-8.61224489796
80	0.04	2.06666666667	-29.3984126984	0.34	-5.74693877551
81	0.0405	-2.3	-16.5698412698	0.34	-5.74693877551
82	0.041	-11.0333333333	-16.5698412698	0.34	-7.17959183673
83	0.0415	-9.57777777778	-16.5698412698	-1.12	-5.74693877551
84	0.042	-0.844444444444	-10.8682539683	0.34	-12.9102040816
85	0.0425	-0.844444444444	-10.8682539683	-1.12	-7.17959183673
86	0.043	-2.3	-10.8682539683	1.8	-4.31428571429
87	0.0435	-12.4888888889	-10.8682539683	0.34	-1.44897959184
88	0.044	-5.21111111111	-9.44285714286	3.26	-1.44897959184
89	0.0445	0.611111111111	-8.01746031746	4.72	-7.17959183673
90	0.045	-0.844444444444	-6.59206349206	19.32	-5.74693877551
91	0.0455	0.611111111111	-16.5698412698	0.34	-7.17959183673
92	0.046	-2.3	-12.2936507937	-1.12	-4.31428571429
93	0.0465	-12.4888888889	-9.44285714286	0.34	-5.74693877551
94	0.047	-0.844444444444	-9.44285714286	7.64	-14.3428571429
95	0.0475	-2.3	-10.8682539683	19.32	-5.74693877551
96	0.048	-0.844444444444	-12.2936507937	19.32	-7.17959183673
97	0.0485	0.611111111111	-10.8682539683	0.34	-8.61224489796
98	0.049	-5.21111111111	-10.8682539683	0.34	-10.0448979592
99	0.0495	4.97777777778	-12.2936507937	1.8	-8.61224489796
100	0.05	0.611111111111	-13.719047619	-4.04	-14.3428571429
101	0.0505	-3.75555555556	-13.719047619	-5.5	-15.7755102041
102	0.051	-0.844444444444	-10.8682539683	-1.12	-11.4775510204
103	0.0515	-3.75555555556	-20.846031746	-1.12	-10.0448979592
104	0.052	-11.0333333333	-16.5698412698	0.34	-7.17959183673
105	0.0525	-0.844444444444	-17.9952380952	-1.12	-8.61224489796
106	0.053	-0.844444444444	-16.5698412698	0.34	-12.9102040816
107	0.0535	-0.844444444444	-17.9952380952	-2.58	-10.0448979592
108	0.054	0.611111111111	-17.9952380952	-2.58	-7.17959183673
109	0.0545	4.97777777778	-13.719047619	-1.12	-10.0448979592
110	0.055	19.5333333333	-16.5698412698	-1.12	-12.9102040816
111	0.0555	0.611111111111	-15.1444444444	0.34	5.71428571429
112	0.056	-2.3	-10.8682539683	-8.42	-8.61224489796
113	0.0565	2.06666666667	-10.8682539683	-9.88	-11.4775510204
114	0.057	0.611111111111	1.96031746032	0.34	-10.0448979592
115	0.0575	0.611111111111	6.23650793651	0.34	-10.0448979592
116	0.058	-9.57777777778	-12.2936507937	1.8	7.14693877551
117	0.0585	0.611111111111	-10.8682539683	3.26	7.14693877551
118	0.059	-2.3	-8.01746031746	19.32	-8.61224489796
119	0.0595	0.611111111111	-17.9952380952	0.34	-8.61224489796
120	0.06	-2.3	-16.5698412698	3.26	-7.17959183673
121	0.0605	-11.0333333333	-8.01746031746	-1.12	-5.74693877551
122	0.061	0.611111111111	-8.01746031746	4.72	-15.7755102041
123	0.0615	2.06666666667	-6.59206349206	1.8	-15.7755102041
124	0.062	0.611111111111	-5.16666666667	-6.96	-11.4775510204
125	0.0625	3.52222222222	7.6619047619	3.26	-11.4775510204
126	0.063	0.611111111111	-8.01746031746	0.34	-11.4775510204
127	0.0635	15.1666666667	-6.59206349206	1.8	-15.7755102041
128	0.064	-0.844444444444	-6.59206349206	0.34	4.28163265306
129	0.0645	-0.844444444444	-3.74126984127	-4.04	-12.9102040816
130	0.065	-2.3	-6.59206349206	-6.96	-12.9102040816
131	0.0655	-0.844444444444	-8.01746031746	1.8	-11.4775510204
132	0.066	-11.0333333333	-8.01746031746	1.8	-10.0448979592
133	0.0665	-8.12222222222	-12.2936507937	0.34	-11.4775510204
134	0.067	-0.844444444444	-13.719047619	-9.88	-12.9102040816
135	0.0675	-0.844444444444	-9.44285714286	-1.12	-10.0448979592
136	0.068	0.611111111111	-9.44285714286	1.8	-10.0448979592
137	0.0685	-3.75555555556	-16.5698412698	3.26	-7.17959183673
138	0.069	-12.4888888889	-16.5698412698	0.34	-8.61224489796
139	0.0695	0.611111111111	-13.719047619	-9.88	-10.0448979592
140	0.07	0.611111111111	-13.719047619	-14.26	-8.61224489796
141	0.0705	-0.844444444444	-12.2936507937	-1.12	-12.9102040816
142	0.071	0.611111111111	-10.8682539683	3.26	-11.4775510204
143	0.0715	-8.12222222222	-13.719047619	0.34	-8.61224489796
144	0.072	-8.12222222222	-10.8682539683	1.8	-8.61224489796
145	0.0725	2.06666666667	-10.8682539683	-1.12	-7.17959183673
146	0.073	-0.844444444444	-12.2936507937	0.34	-8.61224489796
147	0.0735	0.611111111111	-3.74126984127	-1.12	-7.17959183673
148	0.074	0.611111111111	-9.44285714286	0.34	-8.61224489796
149	0.0745	3.52222222222	-9.44285714286	0.34	-4.31428571429
150	0.075	0.611111111111	-8.01746031746	-2.58	-0.0163265306122
151	0.0755	0.611111111111	-6.59206349206	4.72	-5.74693877551
152	0.076	-0.844444444444	-12.2936507937	0.34	-7.17959183673
153	0.0765	-0.844444444444	-0.890476190476	0.34	-4.31428571429
154	0.077	3.52222222222	-3.74126984127	1.8	-11.4775510204
155	0.0775	-3.75555555556	-2.31587301587	1.8	-10.0448979592
156	0.078	0.611111111111	-0.890476190476	9.1	-4.31428571429
157	0.0785	-2.3	-2.31587301587	-2.58	-7.17959183673
158	0.079	-0.844444444444	3.38571428571	0.34	-5.74693877551
159	0.0795	-6.66666666667	0.534920634921	-1.12	-7.17959183673
160	0.08	10.8	0.534920634921	1.8	-4.31428571429
161	0.0805	0.611111111111	0.534920634921	4.72	-7.17959183673
162	0.081	0.611111111111	-0.890476190476	-2.58	-8.61224489796
163	0.0815	-0.844444444444	10.5126984127	3.26	-7.17959183673
164	0.082	-0.844444444444	-3.74126984127	1.8	-8.61224489796
165	0.0825	-11.0333333333	-0.890476190476	1.8	-7.17959183673
166	0.083	4.97777777778	-3.74126984127	0.34	-10.0448979592
167	0.0835	2.06666666667	-2.31587301587	14.94	-10.0448979592
168	0.084	-0.844444444444	-6.59206349206	20.78	-12.9102040816
169	0.0845	-0.844444444444	-8.01746031746	3.26	-11.4775510204
170	0.085	0.611111111111	-10.8682539683	0.34	-12.9102040816
171	0.0855	19.5333333333	-9.44285714286	3.26	-12.9102040816
172	0.086	0.611111111111	-6.59206349206	4.72	-14.3428571429
173	0.0865	0.611111111111	-6.59206349206	7.64	-10.0448979592
174	0.087	0.611111111111	-23.6968253968	1.8	-8.61224489796
175	0.0875	4.97777777778	-15.1444444444	1.8	-11.4775510204
176	0.088	4.97777777778	-6.59206349206	0.34	-10.0448979592
177	0.0885	-0.844444444444	-8.01746031746	3.26	-21.506122449
178	0.089	0.611111111111	-5.16666666667	1.8	-4.31428571429
179	0.0895	2.06666666667	-2.31587301587	-5.5	-5.74693877551
180	0.09	0.611111111111	-5.16666666667	-1.12	-10.0448979592
181	0.0905	-3.75555555556	-10.8682539683	1.8	-8.61224489796
182	0.091	-5.21111111111	-10.8682539683	-1.12	-5.74693877551
183	0.0915	0.611111111111	-5.16666666667	1.8	-7.17959183673
184	0.092	-0.844444444444	0.534920634921	-1.12	-7.17959183673
185	0.0925	0.611111111111	-0.890476190476	-2.58	-8.61224489796
186	0.093	0.611111111111	-2.31587301587	1.8	-7.17959183673
187	0.0935	-8.12222222222	0.534920634921	3.26	-5.74693877551
188	0.094	0.611111111111	-2.31587301587	4.72	-14.3428571429
189	0.0945	-3.75555555556	0.534920634921	-1.12	-14.3428571429
190	0.095	0.611111111111	-0.890476190476	-4.04	-5.74693877551
191	0.0955	2.06666666667	-10.8682539683	0.34	-4.31428571429
192	0.096	2.06666666667	-8.01746031746	-1.12	-5.74693877551
193	0.0965	20.9888888889	0.534920634921	-1.12	-15.7755102041
194	0.097	-0.844444444444	0.534920634921	-1.12	-8.61224489796
195	0.0975	-0.844444444444	-2.31587301587	-8.42	-7.17959183673
196	0.098	0.611111111111	-0.890476190476	-2.58	-5.74693877551
197	0.0985	2.06666666667	-6.59206349206	-1.12	-4.31428571429
198	0.099	4.97777777778	-0.890476190476	1.8	-4.31428571429
199	0.0995	19.5333333333	-2.31587301587	-1.12	-7.17959183673
200	0.1	-3.75555555556	-9.44285714286	-1.12	-15.7755102041
201	0.1005	-0.844444444444	-5.16666666667	-6.96	-8.61224489796
202	0.101	0.611111111111	-5.16666666667	0.34	-5.74693877551
203	0.1015	-0.844444444444	-6.59206349206	0.34	-7.17959183673
204	0.102	-12.4888888889	-9.44285714286	0.34	-2.88163265306
205	0.1025	-0.844444444444	-10.8682539683	3.26	-2.88163265306
206	0.103	-0.844444444444	-9.44285714286	0.34	2.84897959184
207	0.1035	-0.844444444444	-10.8682539683	6.18	-4.31428571429
208	0.104	0.611111111111	-16.5698412698	-1.12	-2.88163265306
209	0.1045	2.06666666667	-13.719047619	0.34	-2.88163265306
210	0.105	0.611111111111	-9.44285714286	0.34	-1.44897959184
211	0.1055	-11.0333333333	-8.01746031746	0.34	-0.0163265306122
212	0.106	2.06666666667	-8.01746031746	4.72	-1.44897959184
213	0.1065	0.611111111111	-9.44285714286	17.86	-1.44897959184
214	0.107	-0.844444444444	-13.719047619	0.34	-1.44897959184
215	0.1075	-0.844444444444	-12.2936507937	1.8	-2.88163265306
216	0.108	23.9	-2.31587301587	0.34	-1.44897959184
217	0.1085	2.06666666667	-2.31587301587	3.26	-5.74693877551
218	0.109	-0.844444444444	0.534920634921	17.86	-1.44897959184
219	0.1095	3.52222222222	-0.890476190476	0.34	-4.31428571429
220	0.11	2.06666666667	-3.74126984127	-1.12	-2.88163265306
221	0.1105	4.97777777778	-6.59206349206	-1.12	-0.0163265306122
222	0.111	-2.3	0.534920634921	-1.12	-12.9102040816
223	0.1115	0.611111111111	0.534920634921	-9.88	-4.31428571429
224	0.112	2.06666666667	-0.890476190476	-1.12	-0.0163265306122
225	0.1125	-2.3	-9.44285714286	1.8	-0.0163265306122
226	0.113	4.97777777778	-0.890476190476	0.34	-0.0163265306122
227	0.1135	16.6222222222	0.534920634921	1.8	-2.88163265306
228	0.114	-5.21111111111	-0.890476190476	0.34	-5.74693877551
229	0.1145	-0.844444444444	0.534920634921	-6.96	-2.88163265306
230	0.115	-0.844444444444	0.534920634921	-2.58	-2.88163265306
231	0.1155	0.611111111111	-2.31587301587	3.26	-4.31428571429
232	0.116	-13.9444444444	-5.16666666667	0.34	-4.31428571429
233	0.1165	-3.75555555556	-6.59206349206	3.26	-4.31428571429
234	0.117	-0.844444444444	-9.44285714286	1.8	-2.88163265306
235	0.1175	-0.844444444444	-8.01746031746	0.34	-4.31428571429
236	0.118	-2.3	-16.5698412698	-4.04	-5.74693877551
237	0.1185	-2.3	-2.31587301587	1.8	-4.31428571429
238	0.119	-3.75555555556	-10.8682539683	0.34	-4.31428571429
239	0.1195	-8.12222222222	-12.2936507937	1.8	14.3102040816
240	0.12	-2.3	-10.8682539683	-1.12	12.8775510204
241	0.1205	-2.3	-8.01746031746	3.26	-1.44897959184
242	0.121	0.611111111111	6.23650793651	1.8	-4.31428571429
243	0.1215	-2.3	6.23650793651	1.8	-4.31428571429
244	0.122	-6.66666666667	-6.59206349206	4.72	-1.44897959184
245	0.1225	0.611111111111	-10.8682539683	3.26	5.71428571429
246	0.123	0.611111111111	-6.59206349206	7.64	-8.61224489796
247	0.1235	-0.844444444444	-10.8682539683	-4.04	-4.31428571429
248	0.124	0.611111111111	-12.2936507937	1.8	-0.0163265306122
249	0.1245	-6.66666666667	-5.16666666667	0.34	-0.0163265306122
250	0.125	15.1666666667	-8.01746031746	-1.12	-0.0163265306122
251	0.1255	0.611111111111	-3.74126984127	16.4	-1.44897959184
252	0.126	-0.844444444444	-5.16666666667	17.86	-1.44897959184
253	0.1265	0.611111111111	-16.5698412698	0.34	-0.0163265306122
254	0.127	2.06666666667	-5.16666666667	1.8	-2.88163265306
255	0.1275	19.5333333333	-3.74126984127	1.8	-2.88163265306
256	0.128	2.06666666667	-5.16666666667	3.26	-10.0448979592
257	0.1285	0.611111111111	-2.31587301587	4.72	-7.17959183673
258	0.129	-0.844444444444	-15.1444444444	0.34	-4.31428571429
259	0.1295	2.06666666667	-19.4206349206	-1.12	-4.31428571429
260	0.13	0.611111111111	-5.16666666667	3.26	-1.44897959184
261	0.1305	-2.3	-6.59206349206	3.26	1.41632653061
262	0.131	-0.844444444444	-5.16666666667	3.26	4.28163265306
263	0.1315	0.611111111111	-8.01746031746	-6.96	-2.88163265306
264	0.132	-0.844444444444	-12.2936507937	0.34	-1.44897959184
265	0.1325	-3.75555555556	-9.44285714286	0.34	-1.44897959184
266	0.133	15.1666666667	-10.8682539683	0.34	-1.44897959184
267	0.1335	0.611111111111	-10.8682539683	-1.12	-14.3428571429
268	0.134	0.611111111111	-10.8682539683	-9.88	-1.44897959184
269	0.1345	-0.844444444444	-10.8682539683	3.26	-1.44897959184
270	0.135	0.611111111111	-10.8682539683	-1.12	-2.88163265306
271	0.1355	-0.844444444444	-15.1444444444	0.34	-0.0163265306122
272	0.136	-5.21111111111	-16.5698412698	0.34	5.71428571429
273	0.1365	0.611111111111	-13.719047619	0.34	-8.61224489796
274	0.137	-0.844444444444	-12.2936507937	-1.12	-0.0163265306122
275	0.1375	0.611111111111	-20.846031746	-1.12	-1.44897959184
276	0.138	2.06666666667	-13.719047619	-1.12	-1.44897959184
277	0.1385	19.5333333333	-10.8682539683	1.8	-4.31428571429
278	0.139	0.611111111111	-10.8682539683	-1.12	-12.9102040816
279	0.1395	-0.844444444444	-12.2936507937	-9.88	-2.88163265306
280	0.14	2.06666666667	-22.2714285714	1.8	-1.44897959184
281	0.1405	0.611111111111	-9.44285714286	3.26	-2.88163265306
282	0.141	2.06666666667	-2.31587301587	0.34	-0.0163265306122
283	0.1415	-6.66666666667	-9.44285714286	1.8	4.28163265306
284	0.142	-0.844444444444	-9.44285714286	3.26	18.6081632653
285	0.1425	-0.844444444444	-6.59206349206	16.4	2.84897959184
286	0.143	0.611111111111	-17.9952380952	-1.12	2.84897959184
287	0.1435	-5.21111111111	-12.2936507937	-1.12	2.84897959184
288	0.144	-15.4	-6.59206349206	-1.12	4.28163265306
289	0.1445	-0.844444444444	-6.59206349206	3.26	11.4448979592
290	0.145	-0.844444444444	-3.74126984127	6.18	-2.88163265306
291	0.1455	0.611111111111	-6.59206349206	1.8	-1.44897959184
292	0.146	0.611111111111	-13.719047619	0.34	-1.44897959184
293	0.1465	0.611111111111	0.534920634921	1.8	1.41632653061
294	0.147	3.52222222222	-6.59206349206	1.8	-4.31428571429
295	0.1475	-0.844444444444	-8.01746031746	0.34	10.012244898
296	0.148	0.611111111111	-8.01746031746	-6.96	-0.0163265306122
297	0.1485	-0.844444444444	-9.44285714286	-4.04	-0.0163265306122
298	0.149	0.611111111111	3.38571428571	-1.12	-0.0163265306122
299	0.1495	10.8	-10.8682539683	-1.12	-1.44897959184
300	0.15	0.611111111111	-12.2936507937	-2.58	-11.4775510204
301	0.1505	-2.3	-13.719047619	-1.12	-10.0448979592
302	0.151	0.611111111111	-13.719047619	-9.88	-4.31428571429
303	0.1515	-0.844444444444	-10.8682539683	1.8	-4.31428571429
304	0.152	-5.21111111111	-16.5698412698	0.34	-1.44897959184
305	0.1525	-13.9444444444	-12.2936507937	1.8	-2.88163265306
306	0.153	0.611111111111	-16.5698412698	-11.34	-2.88163265306
307	0.1535	0.611111111111	-16.5698412698	-9.88	-0.0163265306122
308	0.154	0.611111111111	-16.5698412698	0.34	-1.44897959184
309	0.1545	-5.21111111111	-19.4206349206	0.34	-0.0163265306122
310	0.155	-12.4888888889	-16.5698412698	0.34	4.28163265306
311	0.1555	-0.844444444444	-15.1444444444	0.34	1.41632653061
312	0.156	0.611111111111	-13.719047619	4.72	2.84897959184
313	0.1565	-0.844444444444	-13.719047619	-1.12	-1.44897959184
314	0.157	-2.3	-9.44285714286	0.34	1.41632653061
315	0.1575	-2.3	-16.5698412698	0.34	-0.0163265306122
316	0.158	3.52222222222	-9.44285714286	0.34	-0.0163265306122
317	0.1585	-9.57777777778	-6.59206349206	1.8	15.7428571429
318	0.159	0.611111111111	-6.59206349206	-1.12	14.3102040816
319	0.1595	-0.844444444444	-5.16666666667	0.34	-2.88163265306
320	0.16	-2.3	11.9380952381	-1.12	-1.44897959184
321	0.1605	-11.0333333333	-5.16666666667	-1.12	-1.44897959184
322	0.161	-12.4888888889	-5.16666666667	0.34	-1.44897959184
323	0.1615	0.611111111111	-2.31587301587	3.26	7.14693877551
324	0.162	-2.3	-5.16666666667	20.78	-2.88163265306
325	0.1625	0.611111111111	-13.719047619	1.8	-7.17959183673
326	0.163	3.52222222222	-12.2936507937	0.34	-5.74693877551
327	0.1635	0.611111111111	-6.59206349206	0.34	-7.17959183673
328	0.164	0.611111111111	-6.59206349206	1.8	-12.9102040816
329	0.1645	-0.844444444444	-6.59206349206	4.72	-14.3428571429
330	0.165	-0.844444444444	-10.8682539683	1.8	-2.88163265306
331	0.1655	-2.3	-8.01746031746	0.34	-5.74693877551
332	0.166	2.06666666667	-10.8682539683	1.8	-8.61224489796
333	0.1665	19.5333333333	-10.8682539683	1.8	-8.61224489796
334	0.167	-0.844444444444	-10.8682539683	4.72	-14.3428571429
335	0.1675	-2.3	-10.8682539683	1.8	-8.61224489796
336	0.168	2.06666666667	-23.6968253968	1.8	-1.44897959184
337	0.1685	2.06666666667	0.534920634921	3.26	-1.44897959184
338	0.169	-13.9444444444	-16.5698412698	-2.58	-1.44897959184
339	0.1695	-2.3	-16.5698412698	0.34	-4.31428571429
340	0.17	-0.844444444444	-17.9952380952	3.26	2.84897959184
341	0.1705	0.611111111111	-17.9952380952	12.02	-2.88163265306
342	0.171	-0.844444444444	-26.5476190476	-2.58	-4.31428571429
343	0.1715	-3.75555555556	-19.4206349206	0.34	-1.44897959184
344	0.172	-2.3	-15.1444444444	1.8	-5.74693877551
345	0.1725	0.611111111111	-17.9952380952	1.8	-1.44897959184
346	0.173	0.611111111111	-13.719047619	4.72	-5.74693877551
347	0.1735	0.611111111111	-13.719047619	-2.58	-1.44897959184
348	0.174	0.611111111111	-19.4206349206	3.26	-5.74693877551
349	0.1745	0.611111111111	-13.719047619	3.26	-2.88163265306
350	0.175	19.5333333333	-12.2936507937	4.72	-10.0448979592
351	0.1755	0.611111111111	-10.8682539683	6.18	-10.0448979592
352	0.176	-0.844444444444	-12.2936507937	4.72	-10.0448979592
353	0.1765	2.06666666667	-22.2714285714	0.34	-4.31428571429
354	0.177	2.06666666667	-22.2714285714	0.34	-0.0163265306122
355	0.1775	4.97777777778	-16.5698412698	3.26	-1.44897959184
356	0.178	0.611111111111	-10.8682539683	7.64	-8.61224489796
357	0.1785	0.611111111111	-8.01746031746	7.64	-5.74693877551
358	0.179	0.611111111111	-8.01746031746	0.34	-0.0163265306122
359	0.1795	-0.844444444444	-15.1444444444	0.34	-0.0163265306122
360	0.18	4.97777777778	-9.44285714286	3.26	-0.0163265306122
361	0.1805	16.6222222222	-9.44285714286	6.18	-8.61224489796
362	0.181	-3.75555555556	-8.01746031746	0.34	-8.61224489796
363	0.1815	0.611111111111	-10.8682539683	-8.42	-0.0163265306122
364	0.182	-0.844444444444	-22.2714285714	-1.12	-1.44897959184
365	0.1825	2.06666666667	-19.4206349206	1.8	1.41632653061
366	0.183	18.0777777778	-15.1444444444	0.34	-4.31428571429
367	0.1835	0.611111111111	-13.719047619	0.34	-15.7755102041
368	0.184	0.611111111111	-12.2936507937	-2.58	-8.61224489796
369	0.1845	2.06666666667	-13.719047619	-5.5	-4.31428571429
370	0.185	0.611111111111	0.534920634921	1.8	-2.88163265306
371	0.1855	-3.75555555556	1.96031746032	0.34	-4.31428571429
372	0.186	-9.57777777778	-17.9952380952	1.8	1.41632653061
373	0.1865	0.611111111111	-17.9952380952	0.34	14.3102040816
374	0.187	0.611111111111	-17.9952380952	20.78	-2.88163265306
375	0.1875	0.611111111111	-2.31587301587	1.8	-2.88163265306
376	0.188	-2.3	-17.9952380952	0.34	-4.31428571429
377	0.1885	-8.12222222222	-17.9952380952	3.26	-2.88163265306
378	0.189	-2.3	-16.5698412698	3.26	7.14693877551
379	0.1895	-0.844444444444	-13.719047619	1.8	-14.3428571429
380	0.19	-2.3	-17.9952380952	0.34	-1.44897959184
381	0.1905	-0.844444444444	-23.6968253968	1.8	-4.31428571429
382	0.191	0.611111111111	-23.6968253968	-1.12	-1.44897959184
383	0.1915	19.5333333333	-13.719047619	-1.12	-12.9102040816
384	0.192	-0.844444444444	-13.719047619	1.8	-1.44897959184
385	0.1925	0.611111111111	-9.44285714286	17.86	-4.31428571429
386	0.193	0.611111111111	3.38571428571	-1.12	-4.31428571429
387	0.1935	-2.3	-12.2936507937	-1.12	1.41632653061
388	0.194	-11.0333333333	-12.2936507937	-1.12	-1.44897959184
389	0.1945	-11.0333333333	-12.2936507937	-1.12	15.7428571429
390	0.195	-0.844444444444	-10.8682539683	-12.8	-1.44897959184
391	0.1955	-0.844444444444	-6.59206349206	1.8	-4.31428571429
392	0.196	2.06666666667	6.23650793651	0.34	-1.44897959184
393	0.1965	2.06666666667	-10.8682539683	-1.12	-1.44897959184
394	0.197	22.4444444444	-10.8682539683	0.34	-12.9102040816
395	0.1975	-0.844444444444	-10.8682539683	1.8	-15.7755102041
396	0.198	-0.844444444444	-12.2936507937	-1.12	-4.31428571429
397	0.1985	0.611111111111	-12.2936507937	-1.12	-4.31428571429
398	0.199	2.06666666667	-20.846031746	-1.12	-4.31428571429
399	0.1995	22.4444444444	-10.8682539683	1.8	-12.9102040816
400	0.2	2.06666666667	-13.719047619	1.8	-17.2081632653
401	0.2005	-0.844444444444	-13.719047619	3.26	-10.0448979592
402	0.201	-0.844444444444	-23.6968253968	-1.12	-2.88163265306
403	0.2015	2.06666666667	-19.4206349206	-1.12	-5.74693877551
404	0.202	3.52222222222	-12.2936507937	1.8	-7.17959183673
405	0.2025	18.0777777778	-12.2936507937	0.34	-12.9102040816
406	0.203	0.611111111111	-15.1444444444	16.4	-2.88163265306
407	0.2035	-0.844444444444	-15.1444444444	7.64	-1.44897959184
408	0.204	-0.844444444444	-22.2714285714	1.8	-5.74693877551
409	0.2045	0.611111111111	-22.2714285714	1.8	-7.17959183673
410	0.205	3.52222222222	-16.5698412698	3.26	-8.61224489796
411	0.2055	-5.21111111111	-16.5698412698	3.26	-5.74693877551
412	0.206	0.611111111111	-16.5698412698	3.26	-5.74693877551
413	0.2065	-2.3	-20.846031746	0.34	-4.31428571429
414	0.207	-0.844444444444	-17.9952380952	1.8	-5.74693877551
415	0.2075	3.52222222222	-15.1444444444	0.34	-4.31428571429
416	0.208	9.34444444444	-12.2936507937	3.26	-8.61224489796
417	0.2085	-0.844444444444	-12.2936507937	12.02	-4.31428571429
418	0.209	-0.844444444444	-12.2936507937	4.72	-1.44897959184
419	0.2095	2.06666666667	-19.4206349206	0.34	-1.44897959184
420	0.21	0.611111111111	-10.8682539683	1.8	-2.88163265306
421	0.2105	0.611111111111	-10.8682539683	1.8	-2.88163265306
422	0.211	-6.66666666667	-8.01746031746	-1.12	11.4448979592
423	0.2115	-3.75555555556	-8.01746031746	-1.12	14.3102040816
424	0.212	-0.844444444444	-10.8682539683	-1.12	-1.44897959184
425	0.2125	2.06666666667	0.534920634921	1.8	-5.74693877551
426	0.213	0.611111111111	-6.59206349206	0.34	-2.88163265306
427	0.2135	-5.21111111111	-5.16666666667	0.34	-7.17959183673
428	0.214	-2.3	-8.01746031746	3.26	11.4448979592
429	0.2145	-2.3	-8.01746031746	0.34	-4.31428571429
430	0.215	-0.844444444444	-9.44285714286	4.72	-4.31428571429
431	0.2155	-0.844444444444	-16.5698412698	0.34	-4.31428571429
432	0.216	-5.21111111111	-19.4206349206	0.34	-5.74693877551
433	0.2165	-2.3	-12.2936507937	-4.04	-14.3428571429
434	0.217	0.611111111111	-15.1444444444	-1.12	-12.9102040816
435	0.2175	-2.3	-13.719047619	16.4	-7.17959183673
436	0.218	-0.844444444444	-23.6968253968	-1.12	-7.17959183673
437	0.2185	-3.75555555556	-23.6968253968	-1.12	-5.74693877551
438	0.219	9.34444444444	-16.5698412698	-1.12	-8.61224489796
439	0.2195	-0.844444444444	-13.719047619	1.8	-11.4775510204
440	0.22	0.611111111111	-15.1444444444	-4.04	-4.31428571429
441	0.2205	-2.3	-13.719047619	0.34	-7.17959183673
442	0.221	-3.75555555556	-16.5698412698	1.8	-5.74693877551
443	0.2215	-6.66666666667	-13.719047619	0.34	-7.17959183673
444	0.222	2.06666666667	-15.1444444444	-2.58	-10.0448979592
445	0.2225	0.611111111111	-15.1444444444	-4.04	-12.9102040816
446	0.223	-0.844444444444	-13.719047619	0.34	-2.88163265306
447	0.2235	0.611111111111	-12.2936507937	1.8	-4.31428571429
448	0.224	-11.0333333333	-13.719047619	3.26	-2.88163265306
449	0.2245	4.97777777778	-13.719047619	3.26	-1.44897959184
450	0.225	2.06666666667	-10.8682539683	0.34	-8.61224489796
451	0.2255	-0.844444444444	-9.44285714286	-6.96	-2.88163265306
452	0.226	-0.844444444444	-10.8682539683	-1.12	-1.44897959184
453	0.2265	-0.844444444444	-10.8682539683	3.26	-2.88163265306
454	0.227	10.8	-6.59206349206	1.8	-5.74693877551
455	0.2275	-3.75555555556	-8.01746031746	1.8	-10.0448979592
456	0.228	-3.75555555556	-5.16666666667	0.34	-15.7755102041
457	0.2285	0.611111111111	-6.59206349206	-2.58	-8.61224489796
458	0.229	-0.844444444444	1.96031746032	0.34	-5.74693877551
459	0.2295	-6.66666666667	-6.59206349206	-2.58	-4.31428571429
460	0.23	18.0777777778	-6.59206349206	-1.12	-5.74693877551
461	0.2305	-0.844444444444	-8.01746031746	-1.12	12.8775510204
462	0.231	-0.844444444444	-9.44285714286	-11.34	-4.31428571429
463	0.2315	-2.3	-8.01746031746	3.26	-1.44897959184
464	0.232	-3.75555555556	6.23650793651	0.34	-2.88163265306
465	0.2325	-15.4	-10.8682539683	-1.12	-1.44897959184
466	0.233	-2.3	-10.8682539683	-1.12	11.4448979592
467	0.2335	-2.3	-12.2936507937	-1.12	4.28163265306
468	0.234	-3.75555555556	-9.44285714286	-1.12	-7.17959183673
469	0.2345	-3.75555555556	0.534920634921	0.34	-4.31428571429
470	0.235	-2.3	-15.1444444444	0.34	-2.88163265306
471	0.2355	-12.4888888889	-17.9952380952	1.8	-7.17959183673
472	0.236	-0.844444444444	-16.5698412698	4.72	-0.0163265306122
473	0.2365	-2.3	-13.719047619	9.1	-8.61224489796
474	0.237	0.611111111111	-15.1444444444	0.34	-7.17959183673
475	0.2375	-2.3	-20.846031746	-1.12	-4.31428571429
476	0.238	-11.0333333333	-17.9952380952	1.8	-5.74693877551
477	0.2385	-2.3	-15.1444444444	0.34	2.84897959184
478	0.239	-0.844444444444	-13.719047619	-1.12	5.71428571429
479	0.2395	-2.3	-13.719047619	1.8	-2.88163265306
480	0.24	0.611111111111	3.38571428571	-1.12	-7.17959183673
481	0.2405	3.52222222222	-13.719047619	-1.12	-2.88163265306
482	0.241	-12.4888888889	-16.5698412698	3.26	-4.31428571429
483	0.2415	0.611111111111	-13.719047619	4.72	12.8775510204
484	0.242	0.611111111111	-10.8682539683	17.86	-5.74693877551
485	0.2425	0.611111111111	-6.59206349206	-1.12	-2.88163265306
486	0.243	-0.844444444444	-16.5698412698	-2.58	-4.31428571429
487	0.2435	-6.66666666667	-8.01746031746	1.8	-5.74693877551
488	0.244	16.6222222222	-8.01746031746	0.34	-10.0448979592
489	0.2445	0.611111111111	-8.01746031746	13.48	-5.74693877551
490	0.245	-2.3	-6.59206349206	14.94	-5.74693877551
491	0.2455	-0.844444444444	-13.719047619	-1.12	-1.44897959184
492	0.246	0.611111111111	-15.1444444444	-1.12	-5.74693877551
493	0.2465	16.6222222222	-6.59206349206	1.8	-14.3428571429
494	0.247	2.06666666667	-6.59206349206	1.8	-12.9102040816
495	0.2475	-0.844444444444	-9.44285714286	3.26	-12.9102040816
496	0.248	-2.3	-16.5698412698	0.34	-7.17959183673
497	0.2485	3.52222222222	-17.9952380952	-1.12	-7.17959183673
498	0.249	0.611111111111	-9.44285714286	-1.12	-7.17959183673
499	0.2495	16.6222222222	-10.8682539683	1.8	-8.61224489796
500	0.25	-2.3	-13.719047619	-1.12	-15.7755102041
501	0.2505	0.611111111111	-12.2936507937	-9.88	-7.17959183673
502	0.251	-0.844444444444	-12.2936507937	-8.42	-10.0448979592
503	0.2515	-2.3	1.96031746032	0.34	-8.61224489796
504	0.252	-9.57777777778	-13.719047619	3.26	-5.74693877551
505	0.2525	-9.57777777778	-13.719047619	0.34	-1.44897959184
506	0.253	-2.3	-10.8682539683	19.32	-5.74693877551
507	0.2535	-0.844444444444	-15.1444444444	0.34	-4.31428571429
508	0.254	-0.844444444444	1.96031746032	1.8	-7.17959183673
509	0.2545	-6.66666666667	-13.719047619	0.34	-4.31428571429
510	0.255	-8.12222222222	-13.719047619	1.8	-1.44897959184
511	0.2555	-2.3	-15.1444444444	1.8	-15.7755102041
512	0.256	-0.844444444444	-10.8682539683	-5.5	-5.74693877551
513	0.2565	-0.844444444444	-19.4206349206	1.8	-2.88163265306
514	0.257	0.611111111111	-10.8682539683	1.8	-5.74693877551
515	0.2575	15.1666666667	-12.2936507937	1.8	-7.17959183673
516	0.258	-2.3	-12.2936507937	3.26	-8.61224489796
517	0.2585	0.611111111111	-10.8682539683	-4.04	-5.74693877551
518	0.259	-2.3	-8.01746031746	0.34	-2.88163265306
519	0.2595	0.611111111111	6.23650793651	0.34	-7.17959183673
520	0.26	-3.75555555556	-5.16666666667	0.34	-5.74693877551
521	0.2605	-8.12222222222	-5.16666666667	1.8	4.28163265306
522	0.261	-2.3	-5.16666666667	-1.12	8.57959183673
523	0.2615	-2.3	-2.31587301587	-6.96	-7.17959183673
524	0.262	0.611111111111	3.38571428571	0.34	-7.17959183673
525	0.2625	0.611111111111	6.23650793651	0.34	-4.31428571429
526	0.263	3.52222222222	-5.16666666667	0.34	-11.4775510204
527	0.2635	-3.75555555556	-5.16666666667	-1.12	-10.0448979592
528	0.264	-0.844444444444	-6.59206349206	1.8	-5.74693877551
529	0.2645	-0.844444444444	-16.5698412698	-1.12	-5.74693877551
530	0.265	2.06666666667	-13.719047619	-1.12	-5.74693877551
531	0.2655	19.5333333333	-9.44285714286	0.34	-5.74693877551
532	0.266	-8.12222222222	-8.01746031746	-1.12	-2.88163265306
533	0.2665	0.611111111111	-10.8682539683	-9.88	-8.61224489796
534	0.267	0.611111111111	-12.2936507937	-9.88	-8.61224489796
535	0.2675	-0.844444444444	4.81111111111	0.34	-8.61224489796
536	0.268	-3.75555555556	-12.2936507937	4.72	-4.31428571429
537	0.2685	-6.66666666667	-13.719047619	0.34	-4.31428571429
538	0.269	-8.12222222222	-12.2936507937	3.26	5.71428571429
539	0.2695	-2.3	-15.1444444444	-4.04	-8.61224489796
540	0.27	2.06666666667	-12.2936507937	-4.04	-7.17959183673
541	0.2705	-0.844444444444	-8.01746031746	4.72	-7.17959183673
542	0.271	7.88888888889	-13.719047619	4.72	-4.31428571429
543	0.2715	-5.21111111111	-9.44285714286	-1.12	-1.44897959184
544	0.272	-0.844444444444	-10.8682539683	-6.96	-7.17959183673
545	0.2725	2.06666666667	-9.44285714286	-1.12	-2.88163265306
546	0.273	-0.844444444444	-10.8682539683	-1.12	-2.88163265306
547	0.2735	-0.844444444444	-15.1444444444	-2.58	-1.44897959184
548	0.274	-3.75555555556	-9.44285714286	0.34	4.28163265306
549	0.2745	0.611111111111	-10.8682539683	-9.88	-2.88163265306
550	0.275	-0.844444444444	-10.8682539683	-9.88	-5.74693877551
551	0.2755	0.611111111111	-5.16666666667	0.34	-1.44897959184
552	0.276	-0.844444444444	-5.16666666667	1.8	-1.44897959184
553	0.2765	-11.0333333333	-6.59206349206	-2.58	1.41632653061
554	0.277	-5.21111111111	-6.59206349206	0.34	-0.0163265306122
555	0.2775	-0.844444444444	-6.59206349206	1.8	-4.31428571429
556	0.278	-0.844444444444	-0.890476190476	0.34	-2.88163265306
557	0.2785	0.611111111111	10.5126984127	0.34	-2.88163265306
558	0.279	-3.75555555556	-3.74126984127	0.34	-4.31428571429
559	0.2795	-11.0333333333	-6.59206349206	-1.12	-2.88163265306
560	0.28	-0.844444444444	-6.59206349206	4.72	-5.74693877551
561	0.2805	-0.844444444444	-6.59206349206	19.32	-5.74693877551
562	0.281	0.611111111111	-2.31587301587	0.34	-4.31428571429
563	0.2815	-0.844444444444	-5.16666666667	0.34	-4.31428571429
564	0.282	-13.9444444444	-9.44285714286	0.34	-1.44897959184
565	0.2825	-5.21111111111	-9.44285714286	-1.12	-5.74693877551
566	0.283	0.611111111111	-6.59206349206	-6.96	-4.31428571429
567	0.2835	0.611111111111	-8.01746031746	1.8	-2.88163265306
568	0.284	0.611111111111	-2.31587301587	-1.12	-2.88163265306
569	0.2845	-2.3	-10.8682539683	0.34	-1.44897959184
570	0.285	-8.12222222222	-12.2936507937	0.34	-1.44897959184
571	0.2855	0.611111111111	-12.2936507937	0.34	-0.0163265306122
572	0.286	-0.844444444444	-12.2936507937	13.48	-8.61224489796
573	0.2865	-3.75555555556	-12.2936507937	-1.12	-4.31428571429
574	0.287	-2.3	-3.74126984127	0.34	-2.88163265306
575	0.2875	-12.4888888889	-16.5698412698	1.8	-4.31428571429
576	0.288	2.06666666667	-13.719047619	0.34	-4.31428571429
577	0.2885	2.06666666667	-12.2936507937	1.8	-8.61224489796
578	0.289	0.611111111111	-15.1444444444	-4.04	-2.88163265306
579	0.2895	2.06666666667	-16.5698412698	3.26	-4.31428571429
580	0.29	3.52222222222	-16.5698412698	0.34	-2.88163265306
581	0.2905	0.611111111111	-17.9952380952	1.8	-2.88163265306
582	0.291	15.1666666667	-10.8682539683	-1.12	-8.61224489796
583	0.2915	2.06666666667	-9.44285714286	7.64	-5.74693877551
584	0.292	-2.3	-6.59206349206	6.18	-7.17959183673
585	0.2925	0.611111111111	-2.31587301587	0.34	-7.17959183673
586	0.293	-9.57777777778	-6.59206349206	0.34	-2.88163265306
587	0.2935	7.88888888889	-8.01746031746	0.34	-4.31428571429
588	0.294	-0.844444444444	-3.74126984127	-1.12	-5.74693877551
589	0.2945	-0.844444444444	-5.16666666667	0.34	-4.31428571429
590	0.295	0.611111111111	-9.44285714286	1.8	-2.88163265306
591	0.2955	0.611111111111	7.6619047619	-1.12	-7.17959183673
592	0.296	-0.844444444444	9.0873015873	0.34	-7.17959183673
593	0.2965	-9.57777777778	-6.59206349206	0.34	12.8775510204
594	0.297	-0.844444444444	-6.59206349206	-8.42	-4.31428571429
595	0.2975	-0.844444444444	-6.59206349206	-8.42	-4.31428571429
596	0.298	0.611111111111	-5.16666666667	-5.5	-4.31428571429
597	0.2985	-5.21111111111	-8.01746031746	1.8	-2.88163265306
598	0.299	-11.0333333333	-10.8682539683	0.34	-2.88163265306
599	0.2995	-8.12222222222	-10.8682539683	1.8	-1.44897959184
600	0.3	-0.844444444444	-10.8682539683	0.34	-4.31428571429
601	0.3005	0.611111111111	-13.719047619	-1.12	-5.74693877551
602	0.301	-2.3	-20.846031746	-1.12	-4.31428571429
603	0.3015	-0.844444444444	-22.2714285714	-1.12	-7.17959183673
604	0.302	18.0777777778	-13.719047619	0.34	-8.61224489796
605	0.3025	-0.844444444444	-12.2936507937	-1.12	-14.3428571429
606	0.303	-0.844444444444	-12.2936507937	0.34	-11.4775510204
607	0.3035	0.611111111111	-15.1444444444	-1.12	-1.44897959184
608	0.304	2.06666666667	-17.9952380952	1.8	-5.74693877551
609	0.3045	-5.21111111111	-10.8682539683	0.34	-5.74693877551
610	0.305	0.611111111111	-8.01746031746	4.72	-10.0448979592
611	0.3055	-0.844444444444	-5.16666666667	4.72	-8.61224489796
612	0.306	0.611111111111	-3.74126984127	-4.04	-4.31428571429
613	0.3065	0.611111111111	-5.16666666667	0.34	-5.74693877551
614	0.307	-8.12222222222	-3.74126984127	0.34	-4.31428571429
615	0.3075	2.06666666667	-5.16666666667	1.8	-4.31428571429
616	0.308	-0.844444444444	-6.59206349206	6.18	-2.88163265306
617	0.3085	0.611111111111	-6.59206349206	-4.04	-4.31428571429
618	0.309	0.611111111111	-17.9952380952	1.8	-5.74693877551
619	0.3095	3.52222222222	-13.719047619	-1.12	-7.17959183673
620	0.31	0.611111111111	-2.31587301587	1.8	-10.0448979592
621	0.3105	0.611111111111	-6.59206349206	0.34	-10.0448979592
622	0.311	0.611111111111	-5.16666666667	-1.12	4.28163265306
623	0.3115	-0.844444444444	-5.16666666667	-4.04	-4.31428571429
624	0.312	0.611111111111	1.96031746032	3.26	-5.74693877551
625	0.3125	3.52222222222	3.38571428571	3.26	-5.74693877551
626	0.313	6.43333333333	-6.59206349206	3.26	-12.9102040816
627	0.3135	-8.12222222222	-5.16666666667	0.34	-10.0448979592
628	0.314	0.611111111111	-5.16666666667	-5.5	-4.31428571429
629	0.3145	-2.3	-5.16666666667	4.72	-2.88163265306
630	0.315	0.611111111111	-0.890476190476	3.26	-2.88163265306
631	0.3155	-15.4	-10.8682539683	0.34	1.41632653061
632	0.316	-6.66666666667	-12.2936507937	0.34	-1.44897959184
633	0.3165	-0.844444444444	-10.8682539683	-11.34	-5.74693877551
634	0.317	0.611111111111	-15.1444444444	-11.34	-4.31428571429
635	0.3175	-0.844444444444	0.534920634921	-1.12	-1.44897959184
636	0.318	-0.844444444444	-15.1444444444	-1.12	-4.31428571429
637	0.3185	-3.75555555556	-16.5698412698	1.8	-1.44897959184
638	0.319	-2.3	-16.5698412698	-4.04	1.41632653061
639	0.3195	0.611111111111	-17.9952380952	6.18	-2.88163265306
640	0.32	0.611111111111	-25.1222222222	1.8	-5.74693877551
641	0.3205	2.06666666667	-16.5698412698	1.8	-7.17959183673
642	0.321	15.1666666667	-16.5698412698	-1.12	-14.3428571429
643	0.3215	-2.3	-16.5698412698	-1.12	-15.7755102041
644	0.322	0.611111111111	-16.5698412698	-11.34	-5.74693877551
645	0.3225	-0.844444444444	-16.5698412698	-9.88	-5.74693877551
646	0.323	0.611111111111	3.38571428571	3.26	-5.74693877551
647	0.3235	-3.75555555556	-12.2936507937	-1.12	-5.74693877551
648	0.324	-6.66666666667	-10.8682539683	3.26	-4.31428571429
649	0.3245	-2.3	-8.01746031746	-2.58	8.57959183673
650	0.325	-0.844444444444	-9.44285714286	9.1	-4.31428571429
651	0.3255	0.611111111111	-12.2936507937	0.34	-4.31428571429
652	0.326	2.06666666667	-5.16666666667	1.8	-5.74693877551
653	0.3265	10.8	-6.59206349206	1.8	-7.17959183673
654	0.327	-2.3	-8.01746031746	-1.12	7.14693877551
655	0.3275	3.52222222222	-6.59206349206	-1.12	8.57959183673
656	0.328	-0.844444444444	-5.16666666667	1.8	-8.61224489796
657	0.3285	-2.3	10.5126984127	0.34	-4.31428571429
658	0.329	-0.844444444444	-15.1444444444	-1.12	-2.88163265306
659	0.3295	13.7111111111	-5.16666666667	0.34	-5.74693877551
660	0.33	0.611111111111	-5.16666666667	-2.58	-8.61224489796
661	0.3305	-0.844444444444	-5.16666666667	-4.04	-8.61224489796
662	0.331	0.611111111111	-16.5698412698	-1.12	-5.74693877551
663	0.3315	-3.75555555556	-12.2936507937	3.26	-5.74693877551
664	0.332	-15.4	-5.16666666667	-1.12	-10.0448979592
665	0.3325	0.611111111111	-8.01746031746	1.8	-14.3428571429
666	0.333	0.611111111111	-6.59206349206	-1.12	-12.9102040816
667	0.3335	-2.3	-5.16666666667	0.34	-5.74693877551
668	0.334	-2.3	0.534920634921	0.34	-4.31428571429
669	0.3345	-3.75555555556	1.96031746032	-1.12	-5.74693877551
670	0.335	-9.57777777778	-9.44285714286	3.26	-1.44897959184
671	0.3355	0.611111111111	-10.8682539683	1.8	7.14693877551
672	0.336	-0.844444444444	-13.719047619	6.18	-7.17959183673
673	0.3365	-0.844444444444	-12.2936507937	3.26	-2.88163265306
674	0.337	2.06666666667	-22.2714285714	3.26	-5.74693877551
675	0.3375	0.611111111111	-22.2714285714	0.34	-7.17959183673
676	0.338	0.611111111111	-12.2936507937	0.34	-11.4775510204
677	0.3385	0.611111111111	-10.8682539683	-2.58	-10.0448979592
678	0.339	0.611111111111	-10.8682539683	-5.5	-2.88163265306
679	0.3395	-0.844444444444	-8.01746031746	0.34	-1.44897959184
680	0.34	-5.21111111111	-10.8682539683	0.34	-1.44897959184
681	0.3405	10.8	-10.8682539683	3.26	-4.31428571429
682	0.341	0.611111111111	-10.8682539683	0.34	-7.17959183673
683	0.3415	-0.844444444444	-10.8682539683	0.34	-1.44897959184
684	0.342	-0.844444444444	-16.5698412698	-8.42	-2.88163265306
685	0.3425	0.611111111111	-8.01746031746	1.8	-1.44897959184
686	0.343	10.8	-6.59206349206	-1.12	-8.61224489796
687	0.3435	-0.844444444444	-6.59206349206	-1.12	-8.61224489796
688	0.344	0.611111111111	-8.01746031746	12.02	-2.88163265306
689	0.3445	0.611111111111	-5.16666666667	17.86	-2.88163265306
690	0.345	2.06666666667	-12.2936507937	1.8	-1.44897959184
691	0.3455	0.611111111111	-13.719047619	1.8	-1.44897959184
692	0.346	18.0777777778	-5.16666666667	-2.58	-2.88163265306
693	0.3465	0.611111111111	-5.16666666667	-2.58	-11.4775510204
694	0.347	-0.844444444444	-3.74126984127	-6.96	-1.44897959184
695	0.3475	-0.844444444444	-2.31587301587	-1.12	-1.44897959184
696	0.348	-8.12222222222	-6.59206349206	-1.12	-2.88163265306
697	0.3485	0.611111111111	-5.16666666667	0.34	-10.0448979592
698	0.349	-3.75555555556	-6.59206349206	3.26	-8.61224489796
699	0.3495	-0.844444444444	-9.44285714286	-6.96	-4.31428571429
700	0.35	0.611111111111	-20.846031746	1.8	-4.31428571429
701	0.3505	2.06666666667	-17.9952380952	3.26	-2.88163265306
702	0.351	4.97777777778	-10.8682539683	0.34	-5.74693877551
703	0.3515	2.06666666667	-9.44285714286	4.72	-8.61224489796
704	0.352	2.06666666667	-10.8682539683	1.8	-8.61224489796
705	0.3525	0.611111111111	-12.2936507937	3.26	-2.88163265306
706	0.353	-0.844444444444	-13.719047619	1.8	-2.88163265306
707	0.3535	0.611111111111	-10.8682539683	1.8	-2.88163265306
708	0.354	18.0777777778	-9.44285714286	0.34	-2.88163265306
709	0.3545	-2.3	-9.44285714286	1.8	-10.0448979592
710	0.355	0.611111111111	-12.2936507937	4.72	-2.88163265306
711	0.3555	0.611111111111	-10.8682539683	1.8	-2.88163265306
712	0.356	0.611111111111	-13.719047619	-1.12	-2.88163265306
713	0.3565	-5.21111111111	-10.8682539683	0.34	-2.88163265306
714	0.357	0.611111111111	-6.59206349206	-5.5	-8.61224489796
715	0.3575	3.52222222222	-2.31587301587	3.26	-2.88163265306
716	0.358	-2.3	-3.74126984127	-4.04	-4.31428571429
717	0.3585	0.611111111111	-5.16666666667	-1.12	-1.44897959184
718	0.359	-15.4	-3.74126984127	-1.12	-0.0163265306122
719	0.3595	-5.21111111111	-2.31587301587	-2.58	8.57959183673
720	0.36	0.611111111111	-2.31587301587	-2.58	7.14693877551
721	0.3605	-0.844444444444	0.534920634921	0.34	-4.31428571429
722	0.361	0.611111111111	1.96031746032	-1.12	-1.44897959184
723	0.3615	-2.3	-2.31587301587	1.8	-2.88163265306
724	0.362	-13.9444444444	-0.890476190476	-1.12	-2.88163265306
725	0.3625	-0.844444444444	-5.16666666667	3.26	12.8775510204
726	0.363	0.611111111111	-2.31587301587	12.02	-4.31428571429
727	0.3635	-0.844444444444	-6.59206349206	-2.58	-5.74693877551
728	0.364	0.611111111111	4.81111111111	-2.58	-4.31428571429
729	0.3645	-0.844444444444	-3.74126984127	0.34	-1.44897959184
730	0.365	-5.21111111111	-3.74126984127	0.34	-2.88163265306
731	0.3655	-0.844444444444	-2.31587301587	13.48	-8.61224489796
732	0.366	-3.75555555556	-5.16666666667	-2.58	-5.74693877551
733	0.3665	-5.21111111111	6.23650793651	-2.58	-8.61224489796
734	0.367	-3.75555555556	-9.44285714286	1.8	-7.17959183673
735	0.3675	-9.57777777778	-8.01746031746	0.34	10.012244898
736	0.368	-0.844444444444	-12.2936507937	1.8	5.71428571429
737	0.3685	-0.844444444444	-9.44285714286	1.8	-4.31428571429
738	0.369	0.611111111111	-0.890476190476	-1.12	-5.74693877551
739	0.3695	-3.75555555556	0.534920634921	0.34	-2.88163265306
740	0.37	-12.4888888889	-10.8682539683	-1.12	-1.44897959184
741	0.3705	-9.57777777778	-13.719047619	1.8	-0.0163265306122
742	0.371	-0.844444444444	-10.8682539683	17.86	-4.31428571429
743	0.3715	-0.844444444444	-9.44285714286	0.34	-2.88163265306
744	0.372	0.611111111111	0.534920634921	-2.58	-2.88163265306
745	0.3725	-0.844444444444	-10.8682539683	0.34	-4.31428571429
746	0.373	-6.66666666667	-10.8682539683	-1.12	7.14693877551
747	0.3735	-0.844444444444	-10.8682539683	-2.58	12.8775510204
748	0.374	2.06666666667	-8.01746031746	17.86	-2.88163265306
749	0.3745	-0.844444444444	-9.44285714286	-1.12	-0.0163265306122
750	0.375	2.06666666667	-10.8682539683	0.34	-2.88163265306
751	0.3755	-6.66666666667	-6.59206349206	0.34	-1.44897959184
752	0.376	2.06666666667	-5.16666666667	3.26	-1.44897959184
753	0.3765	-0.844444444444	-3.74126984127	13.48	-2.88163265306
754	0.377	-0.844444444444	-2.31587301587	-1.12	-1.44897959184
755	0.3775	-0.844444444444	10.5126984127	1.8	-2.88163265306
756	0.378	-11.0333333333	-5.16666666667	0.34	-1.44897959184
757	0.3785	-8.12222222222	-5.16666666667	0.34	-5.74693877551
758	0.379	0.611111111111	-5.16666666667	-11.34	-12.9102040816
759	0.3795	-0.844444444444	-6.59206349206	-5.5	-1.44897959184
760	0.38	2.06666666667	-8.01746031746	-1.12	1.41632653061
761	0.3805	0.611111111111	-13.719047619	-1.12	-4.31428571429
762	0.381	0.611111111111	-8.01746031746	0.34	5.71428571429
763	0.3815	0.611111111111	-8.01746031746	-9.88	-5.74693877551
764	0.382	0.611111111111	-10.8682539683	-6.96	-2.88163265306
765	0.3825	-0.844444444444	-10.8682539683	-8.42	-7.17959183673
766	0.383	-3.75555555556	-13.719047619	-2.58	-2.88163265306
767	0.3835	-11.0333333333	-13.719047619	-2.58	-1.44897959184
768	0.384	-6.66666666667	-16.5698412698	0.34	-1.44897959184
769	0.3845	0.611111111111	-16.5698412698	3.26	11.4448979592
770	0.385	0.611111111111	-16.5698412698	16.4	-7.17959183673
771	0.3855	-0.844444444444	-22.2714285714	0.34	-7.17959183673
772	0.386	-0.844444444444	-22.2714285714	-1.12	-7.17959183673
773	0.3865	15.1666666667	-17.9952380952	0.34	-14.3428571429
774	0.387	-0.844444444444	-19.4206349206	-2.58	-14.3428571429
775	0.3875	-2.3	-17.9952380952	0.34	-15.7755102041
776	0.388	-3.75555555556	-20.846031746	0.34	-7.17959183673
777	0.3885	-0.844444444444	-25.1222222222	1.8	-5.74693877551
778	0.389	0.611111111111	-16.5698412698	0.34	-7.17959183673
779	0.3895	-0.844444444444	-16.5698412698	0.34	-15.7755102041
780	0.39	-0.844444444444	-16.5698412698	-2.58	-12.9102040816
781	0.3905	0.611111111111	-12.2936507937	-8.42	-2.88163265306
782	0.391	0.611111111111	-25.1222222222	0.34	-4.31428571429
783	0.3915	4.97777777778	-13.719047619	3.26	-7.17959183673
784	0.392	18.0777777778	-10.8682539683	0.34	-8.61224489796
785	0.3925	-2.3	-10.8682539683	-4.04	-15.7755102041
786	0.393	-0.844444444444	-9.44285714286	-11.34	-10.0448979592
787	0.3935	-0.844444444444	-6.59206349206	-5.5	-4.31428571429
788	0.394	0.611111111111	4.81111111111	3.26	-5.74693877551
789	0.3945	3.52222222222	-9.44285714286	0.34	-4.31428571429
790	0.395	-0.844444444444	-9.44285714286	-2.58	-10.0448979592
791	0.3955	0.611111111111	-5.16666666667	-1.12	-8.61224489796
792	0.396	-0.844444444444	-8.01746031746	-9.88	-4.31428571429
793	0.3965	-0.844444444444	-2.31587301587	-8.42	-4.31428571429
794	0.397	-3.75555555556	10.5126984127	0.34	-4.31428571429
795	0.3975	-12.4888888889	-6.59206349206	-1.12	-1.44897959184
796	0.398	-8.12222222222	-6.59206349206	-1.12	-1.44897959184
797	0.3985	0.611111111111	-8.01746031746	-6.96	-2.88163265306
798	0.399	-2.3	-10.8682539683	0.34	-8.61224489796
799	0.3995	-0.844444444444	-3.74126984127	1.8	-7.17959183673
800	0.4	-0.844444444444	0.534920634921	1.8	-7.17959183673
801	0.4005	-9.57777777778	-12.2936507937	-1.12	1.41632653061
802	0.401	-0.844444444444	-12.2936507937	0.34	-7.17959183673
803	0.4015	-2.3	-13.719047619	-1.12	-4.31428571429
804	0.402	2.06666666667	-13.719047619	-1.12	-4.31428571429
805	0.4025	0.611111111111	-16.5698412698	0.34	-5.74693877551
806	0.403	12.2555555556	-16.5698412698	-1.12	-4.31428571429
807	0.4035	-5.21111111111	-16.5698412698	3.26	-12.9102040816
808	0.404	-2.3	-19.4206349206	-1.12	-5.74693877551
809	0.4045	-0.844444444444	-16.5698412698	-1.12	-5.74693877551
810	0.405	3.52222222222	-27.973015873	1.8	-7.17959183673
811	0.4055	19.5333333333	-19.4206349206	3.26	-15.7755102041
812	0.406	0.611111111111	-16.5698412698	-1.12	-15.7755102041
813	0.4065	-2.3	-16.5698412698	16.4	-4.31428571429
814	0.407	-2.3	-16.5698412698	17.86	-4.31428571429
815	0.4075	0.611111111111	-19.4206349206	4.72	-4.31428571429
816	0.408	-2.3	-17.9952380952	1.8	-2.88163265306
817	0.4085	12.2555555556	-8.01746031746	4.72	-10.0448979592
818	0.409	-2.3	-10.8682539683	-2.58	-1.44897959184
819	0.4095	-0.844444444444	-8.01746031746	4.72	-1.44897959184
820	0.41	0.611111111111	-5.16666666667	-1.12	-1.44897959184
821	0.4105	3.52222222222	-5.16666666667	-1.12	-2.88163265306
822	0.411	12.2555555556	-6.59206349206	1.8	-11.4775510204
823	0.4115	-3.75555555556	-3.74126984127	3.26	1.41632653061
824	0.412	0.611111111111	-5.16666666667	-2.58	-4.31428571429
825	0.4125	-0.844444444444	-8.01746031746	-1.12	-4.31428571429
826	0.413	2.06666666667	-9.44285714286	0.34	-4.31428571429
827	0.4135	2.06666666667	-3.74126984127	-1.12	-7.17959183673
828	0.414	-0.844444444444	-5.16666666667	3.26	-15.7755102041
829	0.4145	2.06666666667	-6.59206349206	19.32	-5.74693877551
830	0.415	0.611111111111	-9.44285714286	16.4	-5.74693877551
831	0.4155	-0.844444444444	-10.8682539683	-2.58	-5.74693877551
832	0.416	2.06666666667	-8.01746031746	-1.12	-8.61224489796
833	0.4165	18.0777777778	-10.8682539683	-1.12	-8.61224489796
834	0.417	-2.3	-10.8682539683	-1.12	-17.2081632653
835	0.4175	0.611111111111	-15.1444444444	-6.96	-7.17959183673
836	0.418	-2.3	-20.846031746	0.34	-5.74693877551
837	0.4185	0.611111111111	-20.846031746	0.34	-2.88163265306
838	0.419	16.6222222222	-16.5698412698	-1.12	-2.88163265306
839	0.4195	-8.12222222222	-15.1444444444	-2.58	14.3102040816
840	0.42	-3.75555555556	-13.719047619	-2.58	14.3102040816
841	0.4205	-3.75555555556	-16.5698412698	-1.12	-1.44897959184
842	0.421	0.611111111111	-3.74126984127	-1.12	-1.44897959184
843	0.4215	-3.75555555556	-2.31587301587	-1.12	-2.88163265306
844	0.422	-8.12222222222	-16.5698412698	0.34	-4.31428571429
845	0.4225	-0.844444444444	-16.5698412698	-5.5	-7.17959183673
846	0.423	-2.3	-16.5698412698	-4.04	-8.61224489796
847	0.4235	-2.3	-19.4206349206	0.34	-4.31428571429
848	0.424	0.611111111111	-15.1444444444	-1.12	-4.31428571429
849	0.4245	0.611111111111	-16.5698412698	-2.58	-4.31428571429
850	0.425	-3.75555555556	-12.2936507937	0.34	2.84897959184
851	0.4255	-0.844444444444	-15.1444444444	3.26	-2.88163265306
852	0.426	0.611111111111	-20.846031746	1.8	-4.31428571429
853	0.4265	0.611111111111	-19.4206349206	3.26	-2.88163265306
854	0.427	2.06666666667	-10.8682539683	4.72	-2.88163265306
855	0.4275	13.7111111111	-12.2936507937	6.18	-12.9102040816
856	0.428	-0.844444444444	-13.719047619	23.7	-4.31428571429
857	0.4285	-0.844444444444	-10.8682539683	22.24	-2.88163265306
858	0.429	-0.844444444444	-12.2936507937	3.26	-0.0163265306122
859	0.4295	2.06666666667	-22.2714285714	4.72	-0.0163265306122
860	0.43	18.0777777778	-12.2936507937	1.8	-7.17959183673
861	0.4305	-0.844444444444	-12.2936507937	-1.12	-1.44897959184
862	0.431	-0.844444444444	-15.1444444444	-4.04	-1.44897959184
863	0.4315	0.611111111111	-12.2936507937	7.64	-4.31428571429
864	0.432	-0.844444444444	-19.4206349206	-2.58	-1.44897959184
865	0.4325	-11.0333333333	-17.9952380952	0.34	-1.44897959184
866	0.433	-5.21111111111	-12.2936507937	-1.12	-2.88163265306
867	0.4335	-0.844444444444	-13.719047619	-12.8	-8.61224489796
868	0.434	-2.3	-9.44285714286	-4.04	-2.88163265306
869	0.4345	-5.21111111111	-10.8682539683	-1.12	-4.31428571429
870	0.435	-0.844444444444	-15.1444444444	-4.04	-4.31428571429
871	0.4355	-11.0333333333	-16.5698412698	-2.58	-7.17959183673
872	0.436	-0.844444444444	-13.719047619	1.8	7.14693877551
873	0.4365	-0.844444444444	-12.2936507937	16.4	-7.17959183673
874	0.437	-0.844444444444	-12.2936507937	0.34	-7.17959183673
875	0.4375	-0.844444444444	-22.2714285714	-1.12	-5.74693877551
876	0.438	-8.12222222222	-16.5698412698	0.34	-5.74693877551
877	0.4385	-8.12222222222	-15.1444444444	1.8	-8.61224489796
878	0.439	-0.844444444444	-17.9952380952	-4.04	1.41632653061
879	0.4395	0.611111111111	-12.2936507937	0.34	-5.74693877551
880	0.44	0.611111111111	-5.16666666667	1.8	-5.74693877551
881	0.4405	-3.75555555556	-8.01746031746	1.8	-4.31428571429
882	0.441	-6.66666666667	-16.5698412698	-1.12	-1.44897959184
883	0.4415	0.611111111111	-15.1444444444	3.26	11.4448979592
884	0.442	-2.3	-17.9952380952	-1.12	-0.0163265306122
885	0.4425	2.06666666667	-22.2714285714	1.8	-1.44897959184
886	0.443	2.06666666667	-20.846031746	-1.12	-2.88163265306
887	0.4435	-9.57777777778	-16.5698412698	-1.12	-0.0163265306122
888	0.444	0.611111111111	-9.44285714286	-9.88	-7.17959183673
889	0.4445	2.06666666667	-13.719047619	-6.96	-7.17959183673
890	0.445	-0.844444444444	-6.59206349206	-1.12	-2.88163265306
891	0.4455	-0.844444444444	-6.59206349206	-1.12	-4.31428571429
892	0.446	-12.4888888889	-10.8682539683	1.8	-2.88163265306
893	0.4465	-9.57777777778	-9.44285714286	4.72	-2.88163265306
894	0.447	-0.844444444444	-10.8682539683	1.8	8.57959183673
895	0.4475	0.611111111111	-8.01746031746	17.86	-5.74693877551
896	0.448	-0.844444444444	-12.2936507937	1.8	-5.74693877551
897	0.4485	2.06666666667	-13.719047619	0.34	-5.74693877551
898	0.449	12.2555555556	-9.44285714286	1.8	-8.61224489796
899	0.4495	0.611111111111	-9.44285714286	0.34	-15.7755102041
900	0.45	0.611111111111	-9.44285714286	-4.04	-12.9102040816
901	0.4505	0.611111111111	-10.8682539683	-8.42	-4.31428571429
902	0.451	0.611111111111	6.23650793651	1.8	-4.31428571429
903	0.4515	-0.844444444444	-10.8682539683	1.8	-4.31428571429
904	0.452	-0.844444444444	-9.44285714286	0.34	-11.4775510204
905	0.4525	-0.844444444444	-9.44285714286	-1.12	-4.31428571429
906	0.453	0.611111111111	-9.44285714286	-8.42	-4.31428571429
907	0.4535	-0.844444444444	-9.44285714286	1.8	-0.0163265306122
908	0.454	-5.21111111111	-6.59206349206	1.8	-1.44897959184
909	0.4545	6.43333333333	-8.01746031746	3.26	1.41632653061
910	0.455	-0.844444444444	-2.31587301587	3.26	-4.31428571429
911	0.4555	0.611111111111	-0.890476190476	9.1	-0.0163265306122
912	0.456	0.611111111111	-10.8682539683	-1.12	1.41632653061
913	0.4565	0.611111111111	-2.31587301587	0.34	2.84897959184
914	0.457	-13.9444444444	1.96031746032	3.26	2.84897959184
915	0.4575	3.52222222222	6.23650793651	0.34	-2.88163265306
916	0.458	2.06666666667	6.23650793651	12.02	-0.0163265306122
917	0.4585	-0.844444444444	6.23650793651	4.72	4.28163265306
918	0.459	0.611111111111	9.0873015873	-1.12	5.71428571429
919	0.4595	4.97777777778	14.7888888889	-1.12	5.71428571429
920	0.46	15.1666666667	16.2142857143	-1.12	4.28163265306
921	0.4605	-3.75555555556	14.7888888889	0.34	1.41632653061
922	0.461	2.06666666667	14.7888888889	-5.5	8.57959183673
923	0.4615	0.611111111111	14.7888888889	-4.04	8.57959183673
924	0.462	0.611111111111	17.6396825397	-1.12	14.3102040816
925	0.4625	9.34444444444	17.6396825397	-1.12	11.4448979592
926	0.463	-5.21111111111	21.9158730159	-1.12	11.4448979592
927	0.4635	0.611111111111	19.0650793651	-9.88	17.1755102041
928	0.464	0.611111111111	23.3412698413	-11.34	12.8775510204
929	0.4645	2.06666666667	37.5952380952	-1.12	12.8775510204
930	0.465	3.52222222222	19.0650793651	-1.12	12.8775510204
931	0.4655	23.9	20.4904761905	-1.12	8.57959183673
932	0.466	0.611111111111	17.6396825397	-4.04	22.906122449
933	0.4665	0.611111111111	17.6396825397	-6.96	15.7428571429
934	0.467	0.611111111111	20.4904761905	1.8	14.3102040816
935	0.4675	0.611111111111	13.3634920635	1.8	14.3102040816
936	0.468	-6.66666666667	10.5126984127	-1.12	18.6081632653
937	0.4685	9.34444444444	13.3634920635	-2.58	12.8775510204
938	0.469	0.611111111111	14.7888888889	-1.12	7.14693877551
939	0.4695	0.611111111111	9.0873015873	-8.42	15.7428571429
940	0.47	2.06666666667	1.96031746032	-1.12	11.4448979592
941	0.4705	2.06666666667	0.534920634921	1.8	11.4448979592
942	0.471	22.4444444444	14.7888888889	-1.12	7.14693877551
943	0.4715	0.611111111111	13.3634920635	-1.12	-7.17959183673
944	0.472	-0.844444444444	13.3634920635	-11.34	-0.0163265306122
945	0.4725	3.52222222222	-0.890476190476	1.8	-2.88163265306
946	0.473	4.97777777778	3.38571428571	0.34	-7.17959183673
947	0.4735	3.52222222222	6.23650793651	0.34	-8.61224489796
948	0.474	16.6222222222	3.38571428571	0.34	-12.9102040816
949	0.4745	-0.844444444444	3.38571428571	-8.42	-14.3428571429
950	0.475	0.611111111111	4.81111111111	-11.34	-14.3428571429
951	0.4755	-5.21111111111	4.81111111111	-5.5	-17.2081632653
952	0.476	-0.844444444444	0.534920634921	0.34	-18.6408163265
953	0.4765	-15.4	0.534920634921	0.34	-18.6408163265
954	0.477	-9.57777777778	0.534920634921	0.34	-18.6408163265
955	0.4775	0.611111111111	-3.74126984127	4.72	-31.5346938776
956	0.478	-0.844444444444	-6.59206349206	-6.96	-24.3714285714
957	0.4785	0.611111111111	7.6619047619	0.34	-24.3714285714
958	0.479	-3.75555555556	-3.74126984127	0.34	-22.9387755102
959	0.4795	10.8	-8.01746031746	1.8	-21.506122449
960	0.48	-2.3	-8.01746031746	-1.12	-12.9102040816
961	0.4805	0.611111111111	-8.01746031746	-1.12	-18.6408163265
962	0.481	-2.3	-13.719047619	0.34	-18.6408163265
963	0.4815	0.611111111111	-0.890476190476	-1.12	-18.6408163265
964	0.482	-3.75555555556	-13.719047619	3.26	-17.2081632653
965	0.4825	-0.844444444444	-15.1444444444	-1.12	-2.88163265306
966	0.483	-2.3	-17.9952380952	0.34	-1.44897959184
967	0.4835	-0.844444444444	-22.2714285714	0.34	-17.2081632653
968	0.484	-3.75555555556	-12.2936507937	0.34	-17.2081632653
969	0.4845	-2.3	-22.2714285714	0.34	-15.7755102041
970	0.485	-6.66666666667	-23.6968253968	-2.58	-15.7755102041
971	0.4855	-2.3	-23.6968253968	-2.58	-2.88163265306
972	0.486	-3.75555555556	-25.1222222222	-6.96	-7.17959183673
973	0.4865	-2.3	-26.5476190476	-1.12	-5.74693877551
974	0.487	-5.21111111111	-29.3984126984	-2.58	-1.44897959184
975	0.4875	-11.0333333333	-26.5476190476	-1.12	-1.44897959184
976	0.488	-0.844444444444	-27.973015873	-12.8	-1.44897959184
977	0.4885	-0.844444444444	-27.973015873	-14.26	-0.0163265306122
978	0.489	-3.75555555556	-27.973015873	-2.58	-1.44897959184
979	0.4895	-2.3	-30.8238095238	-1.12	-1.44897959184
980	0.49	7.88888888889	-29.3984126984	-2.58	-1.44897959184
981	0.4905	-6.66666666667	-27.973015873	-2.58	-11.4775510204
982	0.491	-3.75555555556	-27.973015873	-8.42	-4.31428571429
983	0.4915	-2.3	-30.8238095238	-6.96	-5.74693877551
984	0.492	-2.3	-10.8682539683	0.34	-2.88163265306
985	0.4925	0.611111111111	-25.1222222222	-2.58	-8.61224489796
986	0.493	18.0777777778	-25.1222222222	-2.58	-8.61224489796
987	0.4935	-2.3	-26.5476190476	-12.8	-2.88163265306
988	0.494	-0.844444444444	-23.6968253968	-11.34	-5.74693877551
989	0.4945	-0.844444444444	-20.846031746	-1.12	-4.31428571429
990	0.495	-3.75555555556	-30.8238095238	-1.12	-4.31428571429
991	0.4955	-9.57777777778	-20.846031746	-1.12	-4.31428571429
992	0.496	-0.844444444444	-20.846031746	-1.12	-8.61224489796
993	0.4965	-3.75555555556	-23.6968253968	1.8	-1.44897959184
994	0.497	-2.3	-22.2714285714	-6.96	-1.44897959184
995	0.4975	0.611111111111	-17.9952380952	0.34	-1.44897959184
996	0.498	-11.0333333333	-23.6968253968	0.34	-0.0163265306122
997	0.4985	-0.844444444444	-22.2714285714	-1.12	-0.0163265306122
998	0.499	-3.75555555556	-27.973015873	0.34	-5.74693877551
999	0.4995	-0.844444444444	-25.1222222222	-1.12	-2.88163265306
1000	0.5	-2.3	-33.6746031746	-1.12	-2.88163265306
1001	0.5005	-2.3	-30.8238095238	-1.12	-2.88163265306
1002	0.501	-3.75555555556	-26.5476190476	1.8	-4.31428571429
1003	0.5015	3.52222222222	-25.1222222222	-1.12	-5.74693877551
1004	0.502	-3.75555555556	-23.6968253968	7.64	-8.61224489796
1005	0.5025	-3.75555555556	-22.2714285714	-2.58	-4.31428571429
1006	0.503	0.611111111111	-9.44285714286	0.34	-7.17959183673
1007	0.5035	-12.4888888889	-22.2714285714	0.34	-5.74693877551
1008	0.504	-6.66666666667	-23.6968253968	1.8	5.71428571429
1009	0.5045	-2.3	-20.846031746	-1.12	8.57959183673
1010	0.505	0.611111111111	-22.2714285714	4.72	-14.3428571429
1011	0.5055	0.611111111111	-32.2492063492	-2.58	-8.61224489796
1012	0.506	0.611111111111	-29.3984126984	0.34	-10.0448979592
1013	0.5065	3.52222222222	-16.5698412698	0.34	-8.61224489796
1014	0.507	-2.3	-19.4206349206	0.34	-17.2081632653
1015	0.5075	-2.3	-19.4206349206	-2.58	-12.9102040816
1016	0.508	-0.844444444444	-17.9952380952	-6.96	-7.17959183673
1017	0.5085	0.611111111111	0.534920634921	1.8	-8.61224489796
1018	0.509	-3.75555555556	-16.5698412698	0.34	-7.17959183673
1019	0.5095	15.1666666667	-13.719047619	-1.12	-7.17959183673
1020	0.51	-0.844444444444	-15.1444444444	-2.58	1.41632653061
1021	0.5105	-0.844444444444	-13.719047619	12.02	-8.61224489796
1022	0.511	-0.844444444444	-22.2714285714	3.26	-7.17959183673
1023	0.5115	0.611111111111	-16.5698412698	1.8	-5.74693877551
1024	0.512	15.1666666667	-13.719047619	1.8	-11.4775510204
1025	0.5125	-5.21111111111	-10.8682539683	3.26	2.84897959184
1026	0.513	-0.844444444444	-10.8682539683	1.8	7.14693877551
1027	0.5135	0.611111111111	-13.719047619	-4.04	-2.88163265306
1028	0.514	2.06666666667	-16.5698412698	0.34	-4.31428571429
1029	0.5145	-0.844444444444	-15.1444444444	1.8	-4.31428571429
1030	0.515	-11.0333333333	-17.9952380952	-1.12	-8.61224489796
1031	0.5155	0.611111111111	-16.5698412698	1.8	7.14693877551
1032	0.516	-0.844444444444	-16.5698412698	17.86	-12.9102040816
1033	0.5165	-0.844444444444	-15.1444444444	-1.12	-10.0448979592
1034	0.517	-3.75555555556	-23.6968253968	-1.12	-10.0448979592
1035	0.5175	-13.9444444444	-22.2714285714	0.34	-10.0448979592
1036	0.518	-0.844444444444	-22.2714285714	1.8	-5.74693877551
1037	0.5185	-2.3	-22.2714285714	4.72	-17.2081632653
1038	0.519	-0.844444444444	-22.2714285714	-6.96	-7.17959183673
1039	0.5195	0.611111111111	-22.2714285714	0.34	-11.4775510204
1040	0.52	-2.3	-25.1222222222	1.8	-8.61224489796
1041	0.5205	3.52222222222	-23.6968253968	0.34	-7.17959183673
1042	0.521	-0.844444444444	-23.6968253968	3.26	-7.17959183673
1043	0.5215	-2.3	-23.6968253968	4.72	-17.2081632653
1044	0.522	-2.3	-25.1222222222	-2.58	-8.61224489796
1045	0.5225	0.611111111111	-25.1222222222	0.34	-11.4775510204
1046	0.523	2.06666666667	-25.1222222222	3.26	-8.61224489796
1047	0.5235	-3.75555555556	-22.2714285714	3.26	-12.9102040816
1048	0.524	0.611111111111	-22.2714285714	4.72	-4.31428571429
1049	0.5245	0.611111111111	-23.6968253968	-4.04	-8.61224489796
1050	0.525	-2.3	-29.3984126984	-4.04	-8.61224489796
1051	0.5255	0.611111111111	-16.5698412698	3.26	-8.61224489796
1052	0.526	9.34444444444	-16.5698412698	1.8	-15.7755102041
1053	0.5265	-3.75555555556	-15.1444444444	3.26	-12.9102040816
1054	0.527	-3.75555555556	-15.1444444444	9.1	-8.61224489796
1055	0.5275	0.611111111111	-6.59206349206	-1.12	-10.0448979592
1056	0.528	-2.3	-17.9952380952	1.8	-4.31428571429
1057	0.5285	-11.0333333333	-12.2936507937	-1.12	-5.74693877551
1058	0.529	3.52222222222	-13.719047619	-1.12	-5.74693877551
1059	0.5295	0.611111111111	-12.2936507937	9.1	-7.17959183673
1060	0.53	-0.844444444444	-13.719047619	1.8	-8.61224489796
1061	0.5305	-0.844444444444	-15.1444444444	4.72	-8.61224489796
1062	0.531	-3.75555555556	-16.5698412698	3.26	-7.17959183673
1063	0.5315	12.2555555556	-16.5698412698	3.26	-11.4775510204
1064	0.532	-2.3	-19.4206349206	0.34	-18.6408163265
1065	0.5325	-0.844444444444	-19.4206349206	-8.42	-7.17959183673
1066	0.533	-2.3	-16.5698412698	-4.04	-7.17959183673
1067	0.5335	-0.844444444444	-8.01746031746	-1.12	-7.17959183673
1068	0.534	-6.66666666667	-22.2714285714	1.8	-5.74693877551
1069	0.5345	-11.0333333333	-25.1222222222	-1.12	11.4448979592
1070	0.535	-2.3	-25.1222222222	3.26	8.57959183673
1071	0.5355	-2.3	-23.6968253968	4.72	-10.0448979592
1072	0.536	0.611111111111	-12.2936507937	1.8	-7.17959183673
1073	0.5365	-3.75555555556	-29.3984126984	-1.12	-5.74693877551
1074	0.537	-6.66666666667	-27.973015873	0.34	-4.31428571429
1075	0.5375	-3.75555555556	-29.3984126984	1.8	4.28163265306
1076	0.538	-2.3	-27.973015873	-1.12	-5.74693877551
1077	0.5385	-0.844444444444	-27.973015873	0.34	-5.74693877551
1078	0.539	0.611111111111	-32.2492063492	0.34	-7.17959183673
1079	0.5395	-5.21111111111	-30.8238095238	-2.58	-5.74693877551
1080	0.54	0.611111111111	-22.2714285714	-4.04	-12.9102040816
1081	0.5405	2.06666666667	-25.1222222222	-2.58	-14.3428571429
1082	0.541	-2.3	-26.5476190476	-5.5	-2.88163265306
1083	0.5415	-0.844444444444	-12.2936507937	1.8	-7.17959183673
1084	0.542	-2.3	-19.4206349206	-1.12	-5.74693877551
1085	0.5425	-11.0333333333	-22.2714285714	0.34	-2.88163265306
1086	0.543	-0.844444444444	-20.846031746	4.72	12.8775510204
1087	0.5435	-2.3	-16.5698412698	17.86	-8.61224489796
1088	0.544	-0.844444444444	-30.8238095238	1.8	-5.74693877551
1089	0.5445	-0.844444444444	-27.973015873	-1.12	-5.74693877551
1090	0.545	-13.9444444444	-17.9952380952	0.34	-2.88163265306
1091	0.5455	-0.844444444444	-19.4206349206	4.72	8.57959183673
1092	0.546	0.611111111111	-16.5698412698	17.86	-8.61224489796
1093	0.5465	0.611111111111	-15.1444444444	0.34	-5.74693877551
1094	0.547	-0.844444444444	-16.5698412698	0.34	-7.17959183673
1095	0.5475	-15.4	-20.846031746	-1.12	-4.31428571429
1096	0.548	-9.57777777778	-19.4206349206	0.34	-4.31428571429
1097	0.5485	-0.844444444444	-19.4206349206	-9.88	-7.17959183673
1098	0.549	-3.75555555556	-22.2714285714	-11.34	-10.0448979592
1099	0.5495	0.611111111111	-8.01746031746	0.34	-8.61224489796
1100	0.55	-2.3	-25.1222222222	0.34	-5.74693877551
1101	0.5505	-6.66666666667	-23.6968253968	4.72	-5.74693877551
1102	0.551	-9.57777777778	-23.6968253968	3.26	-7.17959183673
1103	0.5515	-3.75555555556	-23.6968253968	-1.12	-7.17959183673
1104	0.552	-2.3	-25.1222222222	12.02	-7.17959183673
1105	0.5525	-0.844444444444	-26.5476190476	0.34	-8.61224489796
1106	0.553	-2.3	-22.2714285714	0.34	-10.0448979592
1107	0.5535	-9.57777777778	-25.1222222222	4.72	-4.31428571429
1108	0.554	-0.844444444444	-23.6968253968	4.72	4.28163265306
1109	0.5545	-2.3	-22.2714285714	20.78	-10.0448979592
1110	0.555	-0.844444444444	-32.2492063492	1.8	-5.74693877551
1111	0.5555	-2.3	-26.5476190476	-1.12	-4.31428571429
1112	0.556	-11.0333333333	-19.4206349206	-2.58	-7.17959183673
1113	0.5565	-2.3	-20.846031746	1.8	-15.7755102041
1114	0.557	0.611111111111	-19.4206349206	16.4	-7.17959183673
1115	0.5575	2.06666666667	-19.4206349206	16.4	-4.31428571429
1116	0.558	0.611111111111	-25.1222222222	-4.04	-5.74693877551
1117	0.5585	2.06666666667	-23.6968253968	-1.12	-4.31428571429
1118	0.559	19.5333333333	-15.1444444444	3.26	-17.2081632653
1119	0.5595	0.611111111111	-17.9952380952	1.8	-4.31428571429
1120	0.56	-0.844444444444	-20.846031746	-2.58	-7.17959183673
1121	0.5605	-0.844444444444	-13.719047619	-1.12	-2.88163265306
1122	0.561	0.611111111111	-22.2714285714	-1.12	-7.17959183673
1123	0.5615	19.5333333333	-16.5698412698	-1.12	-8.61224489796
1124	0.562	-0.844444444444	-15.1444444444	0.34	-8.61224489796
1125	0.5625	0.611111111111	-12.2936507937	13.48	-11.4775510204
1126	0.563	-0.844444444444	-17.9952380952	0.34	-8.61224489796
1127	0.5635	0.611111111111	-9.44285714286	0.34	-8.61224489796
1128	0.564	0.611111111111	-13.719047619	-1.12	-10.0448979592
1129	0.5645	-3.75555555556	-12.2936507937	-1.12	-14.3428571429
1130	0.565	0.611111111111	-16.5698412698	-8.42	-11.4775510204
1131	0.5655	-0.844444444444	-13.719047619	-8.42	-7.17959183673
1132	0.566	-0.844444444444	-15.1444444444	-1.12	-10.0448979592
1133	0.5665	-5.21111111111	-16.5698412698	0.34	-8.61224489796
1134	0.567	-13.9444444444	-19.4206349206	1.8	-11.4775510204
1135	0.5675	0.611111111111	-17.9952380952	3.26	-12.9102040816
1136	0.568	-0.844444444444	-19.4206349206	19.32	-12.9102040816
1137	0.5685	-0.844444444444	-17.9952380952	0.34	-8.61224489796
1138	0.569	-0.844444444444	-8.01746031746	1.8	-8.61224489796
1139	0.5695	-2.3	-22.2714285714	0.34	-7.17959183673
1140	0.57	-5.21111111111	-20.846031746	3.26	-1.44897959184
1141	0.5705	0.611111111111	-22.2714285714	3.26	-2.88163265306
1142	0.571	0.611111111111	-22.2714285714	1.8	-4.31428571429
1143	0.5715	-2.3	-22.2714285714	-1.12	-7.17959183673
1144	0.572	4.97777777778	-22.2714285714	1.8	-10.0448979592
1145	0.5725	18.0777777778	-23.6968253968	0.34	-11.4775510204
1146	0.573	-0.844444444444	-22.2714285714	-1.12	-12.9102040816
1147	0.5735	-0.844444444444	-20.846031746	-9.88	-11.4775510204
1148	0.574	-2.3	-16.5698412698	-6.96	-10.0448979592
1149	0.5745	2.06666666667	-0.890476190476	0.34	-8.61224489796
1150	0.575	2.06666666667	-16.5698412698	-1.12	-8.61224489796
1151	0.5755	-9.57777777778	-16.5698412698	-1.12	-7.17959183673
1152	0.576	0.611111111111	-13.719047619	1.8	5.71428571429
1153	0.5765	0.611111111111	-15.1444444444	12.02	-10.0448979592
1154	0.577	0.611111111111	-12.2936507937	3.26	-12.9102040816
1155	0.5775	-0.844444444444	-20.846031746	0.34	-7.17959183673
1156	0.578	-0.844444444444	-23.6968253968	-1.12	-8.61224489796
1157	0.5785	-2.3	-13.719047619	0.34	-14.3428571429
1158	0.579	0.611111111111	-15.1444444444	13.48	-7.17959183673
1159	0.5795	0.611111111111	-15.1444444444	14.94	-8.61224489796
1160	0.58	0.611111111111	-20.846031746	1.8	-7.17959183673
1161	0.5805	-2.3	-12.2936507937	1.8	-8.61224489796
1162	0.581	16.6222222222	-12.2936507937	-1.12	-12.9102040816
1163	0.5815	0.611111111111	-12.2936507937	-1.12	-15.7755102041
1164	0.582	-0.844444444444	-13.719047619	-9.88	-8.61224489796
1165	0.5825	-3.75555555556	-12.2936507937	-6.96	-10.0448979592
1166	0.583	0.611111111111	-0.890476190476	3.26	-8.61224489796
1167	0.5835	-12.4888888889	-15.1444444444	-1.12	-5.74693877551
1168	0.584	-8.12222222222	-17.9952380952	-1.12	-5.74693877551
1169	0.5845	-2.3	-19.4206349206	-4.04	-8.61224489796
1170	0.585	0.611111111111	-19.4206349206	0.34	-8.61224489796
1171	0.5855	-2.3	-17.9952380952	-2.58	-8.61224489796
1172	0.586	-15.4	-17.9952380952	1.8	-7.17959183673
1173	0.5865	-5.21111111111	-22.2714285714	4.72	-8.61224489796
1174	0.587	2.06666666667	-22.2714285714	4.72	-8.61224489796
1175	0.5875	0.611111111111	-19.4206349206	16.4	-8.61224489796
1176	0.588	2.06666666667	-32.2492063492	0.34	-8.61224489796
1177	0.5885	-3.75555555556	-29.3984126984	0.34	-8.61224489796
1178	0.589	4.97777777778	-29.3984126984	1.8	-8.61224489796
1179	0.5895	0.611111111111	-20.846031746	-1.12	-12.9102040816
1180	0.59	0.611111111111	-22.2714285714	19.32	-8.61224489796
1181	0.5905	-0.844444444444	-22.2714285714	16.4	-7.17959183673
1182	0.591	2.06666666667	-30.8238095238	1.8	-4.31428571429
1183	0.5915	4.97777777778	-19.4206349206	-1.12	-8.61224489796
1184	0.592	16.6222222222	-17.9952380952	0.34	-4.31428571429
1185	0.5925	0.611111111111	-16.5698412698	0.34	-12.9102040816
1186	0.593	2.06666666667	-16.5698412698	-5.5	-5.74693877551
1187	0.5935	-2.3	-22.2714285714	1.8	-7.17959183673
1188	0.594	3.52222222222	-19.4206349206	0.34	-5.74693877551
1189	0.5945	15.1666666667	-13.719047619	1.8	-17.2081632653
1190	0.595	-0.844444444444	-13.719047619	-1.12	-14.3428571429
1191	0.5955	0.611111111111	-16.5698412698	-8.42	-4.31428571429
1192	0.596	-0.844444444444	-15.1444444444	1.8	-7.17959183673
1193	0.5965	0.611111111111	-22.2714285714	1.8	-8.61224489796
1194	0.597	2.06666666667	-12.2936507937	-1.12	-8.61224489796
1195	0.5975	16.6222222222	-13.719047619	-1.12	-7.17959183673
1196	0.598	-0.844444444444	-10.8682539683	0.34	-12.9102040816
1197	0.5985	0.611111111111	-12.2936507937	-4.04	-5.74693877551
1198	0.599	0.611111111111	-17.9952380952	1.8	-7.17959183673
1199	0.5995	-0.844444444444	-23.6968253968	1.8	-7.17959183673
1200	0.6	9.34444444444	-20.846031746	-1.12	-7.17959183673
1201	0.6005	-2.3	-17.9952380952	-2.58	-15.7755102041
1202	0.601	0.611111111111	-17.9952380952	-8.42	-10.0448979592
1203	0.6015	-2.3	-15.1444444444	0.34	-7.17959183673
1204	0.602	-3.75555555556	-15.1444444444	-1.12	-8.61224489796
1205	0.6025	-3.75555555556	-19.4206349206	-1.12	-4.31428571429
1206	0.603	-13.9444444444	-19.4206349206	-1.12	-4.31428571429
1207	0.6035	-0.844444444444	-19.4206349206	-8.42	-5.74693877551
1208	0.604	0.611111111111	-23.6968253968	-6.96	-4.31428571429
1209	0.6045	-2.3	-17.9952380952	-5.5	-5.74693877551
1210	0.605	2.06666666667	-5.16666666667	0.34	-8.61224489796
1211	0.6055	-15.4	-20.846031746	1.8	-5.74693877551
1212	0.606	-9.57777777778	-20.846031746	1.8	-2.88163265306
1213	0.6065	-0.844444444444	-17.9952380952	1.8	-11.4775510204
1214	0.607	0.611111111111	-17.9952380952	1.8	-10.0448979592
1215	0.6075	-0.844444444444	-26.5476190476	-1.12	-7.17959183673
1216	0.608	-2.3	-23.6968253968	3.26	-5.74693877551
1217	0.6085	-12.4888888889	-13.719047619	3.26	-7.17959183673
1218	0.609	0.611111111111	-10.8682539683	0.34	-14.3428571429
1219	0.6095	-0.844444444444	-10.8682539683	-2.58	-11.4775510204
1220	0.61	0.611111111111	-8.01746031746	1.8	-4.31428571429
1221	0.6105	0.611111111111	-6.59206349206	0.34	-7.17959183673
1222	0.611	-12.4888888889	-6.59206349206	0.34	-2.88163265306
1223	0.6115	-9.57777777778	-8.01746031746	1.8	-5.74693877551
1224	0.612	-0.844444444444	-6.59206349206	3.26	-4.31428571429
1225	0.6125	-2.3	-10.8682539683	0.34	-5.74693877551
1226	0.613	-0.844444444444	-0.890476190476	1.8	-10.0448979592
1227	0.6135	4.97777777778	-9.44285714286	-1.12	-5.74693877551
1228	0.614	13.7111111111	-8.01746031746	1.8	-10.0448979592
1229	0.6145	0.611111111111	-10.8682539683	-11.34	-8.61224489796
1230	0.615	2.06666666667	-10.8682539683	-12.8	-10.0448979592
1231	0.6155	-0.844444444444	-10.8682539683	1.8	-7.17959183673
1232	0.616	-2.3	-13.719047619	-1.12	-8.61224489796
1233	0.6165	0.611111111111	-15.1444444444	-1.12	-8.61224489796
1234	0.617	-3.75555555556	-17.9952380952	-1.12	-4.31428571429
1235	0.6175	0.611111111111	-17.9952380952	-8.42	-5.74693877551
1236	0.618	-2.3	-12.2936507937	-1.12	-7.17959183673
1237	0.6185	-0.844444444444	-2.31587301587	1.8	-7.17959183673
1238	0.619	3.52222222222	-16.5698412698	4.72	-7.17959183673
1239	0.6195	-9.57777777778	-19.4206349206	3.26	-4.31428571429
1240	0.62	-3.75555555556	-20.846031746	-2.58	-4.31428571429
1241	0.6205	0.611111111111	-17.9952380952	-6.96	-5.74693877551
1242	0.621	-2.3	-16.5698412698	-4.04	-5.74693877551
1243	0.6215	0.611111111111	-13.719047619	0.34	-7.17959183673
1244	0.622	10.8	-13.719047619	3.26	-11.4775510204
1245	0.6225	-5.21111111111	-16.5698412698	-1.12	-12.9102040816
1246	0.623	0.611111111111	-12.2936507937	-6.96	-5.74693877551
1247	0.6235	3.52222222222	-15.1444444444	-5.5	-5.74693877551
1248	0.624	2.06666666667	4.81111111111	0.34	-4.31428571429
1249	0.6245	0.611111111111	-0.890476190476	-1.12	-5.74693877551
1250	0.625	-5.21111111111	-8.01746031746	0.34	-5.74693877551
1251	0.6255	-0.844444444444	-8.01746031746	-11.34	-7.17959183673
1252	0.626	-0.844444444444	-8.01746031746	-8.42	-8.61224489796
1253	0.6265	2.06666666667	10.5126984127	-1.12	-8.61224489796
1254	0.627	-0.844444444444	9.0873015873	-1.12	-8.61224489796
1255	0.6275	-3.75555555556	-8.01746031746	3.26	-11.4775510204
1256	0.628	-6.66666666667	-3.74126984127	1.8	-18.6408163265
1257	0.6285	-0.844444444444	-3.74126984127	-4.04	-11.4775510204
1258	0.629	0.611111111111	-15.1444444444	1.8	-10.0448979592
1259	0.6295	0.611111111111	14.7888888889	0.34	-10.0448979592
1260	0.63	-11.0333333333	-2.31587301587	0.34	-7.17959183673
1261	0.6305	-8.12222222222	-0.890476190476	1.8	-7.17959183673
1262	0.631	-0.844444444444	-3.74126984127	-5.5	-8.61224489796
1263	0.6315	0.611111111111	-2.31587301587	9.1	-10.0448979592
1264	0.632	-2.3	-2.31587301587	-1.12	-8.61224489796
1265	0.6325	-8.12222222222	-6.59206349206	1.8	-5.74693877551
1266	0.633	-2.3	-8.01746031746	0.34	-4.31428571429
1267	0.6335	-0.844444444444	-6.59206349206	0.34	1.41632653061
1268	0.634	-0.844444444444	-9.44285714286	-6.96	-7.17959183673
1269	0.6345	-0.844444444444	7.6619047619	1.8	-8.61224489796
1270	0.635	-2.3	4.81111111111	1.8	-7.17959183673
1271	0.6355	-11.0333333333	-12.2936507937	0.34	-5.74693877551
1272	0.636	-6.66666666667	-10.8682539683	-1.12	-4.31428571429
1273	0.6365	2.06666666667	-10.8682539683	13.48	-8.61224489796
1274	0.637	-0.844444444444	-17.9952380952	3.26	-8.61224489796
1275	0.6375	3.52222222222	-6.59206349206	3.26	-7.17959183673
1276	0.638	2.06666666667	-13.719047619	0.34	-5.74693877551
1277	0.6385	-3.75555555556	-15.1444444444	1.8	-15.7755102041
1278	0.639	0.611111111111	-15.1444444444	-12.8	-7.17959183673
1279	0.6395	0.611111111111	-12.2936507937	-8.42	-8.61224489796
1280	0.64	-0.844444444444	-13.719047619	1.8	-8.61224489796
1281	0.6405	2.06666666667	-15.1444444444	-1.12	-10.0448979592
1282	0.641	3.52222222222	-13.719047619	0.34	-10.0448979592
1283	0.6415	-2.3	-13.719047619	-2.58	-15.7755102041
1284	0.642	0.611111111111	-10.8682539683	-9.88	-8.61224489796
1285	0.6425	0.611111111111	-3.74126984127	0.34	-7.17959183673
1286	0.643	2.06666666667	9.0873015873	0.34	-2.88163265306
1287	0.6435	2.06666666667	-6.59206349206	-1.12	-5.74693877551
1288	0.644	-6.66666666667	-10.8682539683	0.34	-2.88163265306
1289	0.6445	-0.844444444444	-8.01746031746	-1.12	7.14693877551
1290	0.645	0.611111111111	-6.59206349206	6.18	-4.31428571429
1291	0.6455	-2.3	-3.74126984127	0.34	-7.17959183673
1292	0.646	-0.844444444444	-9.44285714286	0.34	-5.74693877551
1293	0.6465	-9.57777777778	-10.8682539683	-1.12	-4.31428571429
1294	0.647	-2.3	-5.16666666667	4.72	-8.61224489796
1295	0.6475	0.611111111111	-2.31587301587	12.02	-8.61224489796
1296	0.648	0.611111111111	-2.31587301587	-1.12	-4.31428571429
1297	0.6485	-2.3	-9.44285714286	0.34	-8.61224489796
1298	0.649	-12.4888888889	-9.44285714286	1.8	-7.17959183673
1299	0.6495	-6.66666666667	-9.44285714286	3.26	5.71428571429
1300	0.65	0.611111111111	-13.719047619	19.32	-11.4775510204
1301	0.6505	-0.844444444444	-13.719047619	20.78	-11.4775510204
1302	0.651	0.611111111111	-13.719047619	0.34	-11.4775510204
1303	0.6515	-2.3	-13.719047619	-1.12	-10.0448979592
1304	0.652	16.6222222222	-12.2936507937	1.8	-12.9102040816
1305	0.6525	-2.3	-13.719047619	0.34	-17.2081632653
1306	0.653	0.611111111111	-10.8682539683	1.8	-12.9102040816
1307	0.6535	0.611111111111	-13.719047619	-4.04	-8.61224489796
1308	0.654	0.611111111111	-10.8682539683	1.8	-11.4775510204
1309	0.6545	4.97777777778	-13.719047619	-1.12	-4.31428571429
1310	0.655	-8.12222222222	-15.1444444444	3.26	-7.17959183673
1311	0.6555	-0.844444444444	-13.719047619	-8.42	-8.61224489796
1312	0.656	-2.3	-13.719047619	-9.88	-7.17959183673
1313	0.6565	2.06666666667	1.96031746032	0.34	-10.0448979592
1314	0.657	0.611111111111	-10.8682539683	0.34	-5.74693877551
1315	0.6575	-5.21111111111	-10.8682539683	3.26	-7.17959183673
1316	0.658	-9.57777777778	-10.8682539683	3.26	-8.61224489796
1317	0.6585	-2.3	-9.44285714286	20.78	-11.4775510204
1318	0.659	0.611111111111	-8.01746031746	4.72	-11.4775510204
1319	0.6595	-0.844444444444	4.81111111111	3.26	-8.61224489796
1320	0.66	-0.844444444444	-16.5698412698	0.34	-7.17959183673
1321	0.6605	15.1666666667	-8.01746031746	0.34	-8.61224489796
1322	0.661	0.611111111111	-6.59206349206	3.26	-14.3428571429
1323	0.6615	-0.844444444444	-6.59206349206	3.26	-12.9102040816
1324	0.662	-3.75555555556	-5.16666666667	-1.12	-5.74693877551
1325	0.6625	-0.844444444444	-12.2936507937	1.8	-7.17959183673
1326	0.663	-8.12222222222	-6.59206349206	1.8	-7.17959183673
1327	0.6635	7.88888888889	-8.01746031746	0.34	-7.17959183673
1328	0.664	-0.844444444444	-10.8682539683	1.8	-8.61224489796
1329	0.6645	-0.844444444444	-10.8682539683	7.64	-7.17959183673
1330	0.665	-0.844444444444	-25.1222222222	-1.12	-7.17959183673
1331	0.6655	2.06666666667	-13.719047619	-1.12	-10.0448979592
1332	0.666	20.9888888889	-16.5698412698	0.34	-18.6408163265
1333	0.6665	-0.844444444444	-13.719047619	1.8	-18.6408163265
1334	0.667	-3.75555555556	-17.9952380952	16.4	-8.61224489796
1335	0.6675	-0.844444444444	-16.5698412698	17.86	-8.61224489796
1336	0.668	0.611111111111	-23.6968253968	3.26	-8.61224489796
1337	0.6685	-5.21111111111	-16.5698412698	0.34	-8.61224489796
1338	0.669	7.88888888889	-17.9952380952	0.34	-14.3428571429
1339	0.6695	-0.844444444444	-16.5698412698	-8.42	-7.17959183673
1340	0.67	0.611111111111	-20.846031746	-1.12	-8.61224489796
1341	0.6705	-0.844444444444	-27.973015873	-2.58	-5.74693877551
1342	0.671	2.06666666667	-20.846031746	-1.12	-4.31428571429
1343	0.6715	-12.4888888889	-16.5698412698	-1.12	-2.88163265306
1344	0.672	-6.66666666667	-16.5698412698	-1.12	-1.44897959184
1345	0.6725	2.06666666667	-19.4206349206	12.02	-1.44897959184
1346	0.673	-3.75555555556	-15.1444444444	-1.12	-5.74693877551
1347	0.6735	0.611111111111	0.534920634921	1.8	-4.31428571429
1348	0.674	-2.3	-12.2936507937	-1.12	-1.44897959184
1349	0.6745	-8.12222222222	-12.2936507937	1.8	15.7428571429
1350	0.675	0.611111111111	-10.8682539683	3.26	15.7428571429
1351	0.6755	-0.844444444444	-6.59206349206	19.32	-1.44897959184
1352	0.676	0.611111111111	-6.59206349206	1.8	-2.88163265306
1353	0.6765	-0.844444444444	-20.846031746	0.34	-4.31428571429
1354	0.677	-11.0333333333	-8.01746031746	1.8	-2.88163265306
1355	0.6775	19.5333333333	-8.01746031746	1.8	-11.4775510204
1356	0.678	0.611111111111	-6.59206349206	17.86	-5.74693877551
1357	0.6785	0.611111111111	-5.16666666667	19.32	-4.31428571429
1358	0.679	0.611111111111	-17.9952380952	3.26	-4.31428571429
1359	0.6795	3.52222222222	-19.4206349206	0.34	-4.31428571429
1360	0.68	22.4444444444	-8.01746031746	0.34	-14.3428571429
1361	0.6805	2.06666666667	-8.01746031746	-2.58	-12.9102040816
1362	0.681	0.611111111111	-6.59206349206	-8.42	-7.17959183673
1363	0.6815	0.611111111111	-12.2936507937	-8.42	-5.74693877551
1364	0.682	2.06666666667	6.23650793651	0.34	-5.74693877551
1365	0.6825	-3.75555555556	-10.8682539683	3.26	-4.31428571429
1366	0.683	-12.4888888889	-13.719047619	-4.04	-2.88163265306
1367	0.6835	-3.75555555556	-13.719047619	3.26	11.4448979592
1368	0.684	-2.3	-10.8682539683	19.32	-7.17959183673
1369	0.6845	-0.844444444444	-12.2936507937	0.34	-5.74693877551
1370	0.685	-5.21111111111	-22.2714285714	0.34	-5.74693877551
1371	0.6855	-12.4888888889	-16.5698412698	1.8	-5.74693877551
1372	0.686	18.0777777778	-16.5698412698	3.26	-15.7755102041
1373	0.6865	0.611111111111	-16.5698412698	16.4	-4.31428571429
1374	0.687	0.611111111111	-17.9952380952	0.34	-7.17959183673
1375	0.6875	2.06666666667	-17.9952380952	4.72	-5.74693877551
1376	0.688	3.52222222222	-23.6968253968	0.34	-8.61224489796
1377	0.6885	3.52222222222	-22.2714285714	3.26	-8.61224489796
1378	0.689	-0.844444444444	-13.719047619	-1.12	-14.3428571429
1379	0.6895	2.06666666667	-13.719047619	-5.5	-12.9102040816
1380	0.69	3.52222222222	-8.01746031746	-9.88	-4.31428571429
1381	0.6905	2.06666666667	-10.8682539683	1.8	-1.44897959184
1382	0.691	2.06666666667	-8.01746031746	3.26	-1.44897959184
1383	0.6915	-6.66666666667	-6.59206349206	4.72	-1.44897959184
1384	0.692	-0.844444444444	-8.01746031746	1.8	18.6081632653
1385	0.6925	-2.3	-9.44285714286	19.32	-1.44897959184
1386	0.693	0.611111111111	-6.59206349206	17.86	1.41632653061
1387	0.6935	0.611111111111	-16.5698412698	-1.12	-0.0163265306122
1388	0.694	3.52222222222	-6.59206349206	-1.12	-2.88163265306
1389	0.6945	18.0777777778	-5.16666666667	-2.58	-1.44897959184
1390	0.695	0.611111111111	-5.16666666667	-2.58	15.7428571429
1391	0.6955	-0.844444444444	-2.31587301587	-9.88	-1.44897959184
1392	0.696	0.611111111111	-6.59206349206	-9.88	-2.88163265306
1393	0.6965	-2.3	-6.59206349206	-1.12	-4.31428571429
1394	0.697	-12.4888888889	-6.59206349206	-2.58	-2.88163265306
1395	0.6975	-11.0333333333	-5.16666666667	0.34	-7.17959183673
1396	0.698	-0.844444444444	-5.16666666667	14.94	-0.0163265306122
1397	0.6985	-0.844444444444	-10.8682539683	17.86	-0.0163265306122
1398	0.699	-0.844444444444	-19.4206349206	-1.12	-1.44897959184
1399	0.6995	0.611111111111	-20.846031746	0.34	-2.88163265306
1400	0.7	15.1666666667	-15.1444444444	-1.12	-2.88163265306
1401	0.7005	-0.844444444444	-16.5698412698	1.8	-10.0448979592
1402	0.701	0.611111111111	-13.719047619	-4.04	14.3102040816
1403	0.7015	-0.844444444444	-16.5698412698	1.8	-0.0163265306122
1404	0.702	0.611111111111	-27.973015873	0.34	-2.88163265306
1405	0.7025	-5.21111111111	-26.5476190476	0.34	-1.44897959184
1406	0.703	18.0777777778	-17.9952380952	3.26	-10.0448979592
1407	0.7035	-0.844444444444	-15.1444444444	3.26	-11.4775510204
1408	0.704	0.611111111111	-16.5698412698	16.4	-1.44897959184
1409	0.7045	-0.844444444444	-15.1444444444	16.4	1.41632653061
1410	0.705	2.06666666667	-22.2714285714	0.34	1.41632653061
1411	0.7055	0.611111111111	-10.8682539683	1.8	-0.0163265306122
1412	0.706	15.1666666667	-13.719047619	3.26	-4.31428571429
1413	0.7065	0.611111111111	-12.2936507937	0.34	-4.31428571429
1414	0.707	-0.844444444444	-12.2936507937	-4.04	4.28163265306
1415	0.7075	0.611111111111	-10.8682539683	-4.04	2.84897959184
1416	0.708	0.611111111111	-10.8682539683	0.34	2.84897959184
1417	0.7085	16.6222222222	-12.2936507937	1.8	-0.0163265306122
1418	0.709	-3.75555555556	-9.44285714286	3.26	-7.17959183673
1419	0.7095	-0.844444444444	-8.01746031746	-1.12	18.6081632653
1420	0.71	-0.844444444444	-3.74126984127	-1.12	4.28163265306
1421	0.7105	-0.844444444444	-19.4206349206	-1.12	4.28163265306
1422	0.711	-2.3	-13.719047619	0.34	4.28163265306
1423	0.7115	18.0777777778	-9.44285714286	1.8	-8.61224489796
1424	0.712	0.611111111111	-9.44285714286	3.26	-8.61224489796
1425	0.7125	-0.844444444444	-6.59206349206	-12.8	-2.88163265306
1426	0.713	-0.844444444444	-5.16666666667	0.34	1.41632653061
1427	0.7135	3.52222222222	1.96031746032	1.8	-0.0163265306122
1428	0.714	-13.9444444444	-9.44285714286	-1.12	-0.0163265306122
1429	0.7145	-5.21111111111	-10.8682539683	-1.12	4.28163265306
1430	0.715	-2.3	-8.01746031746	1.8	8.57959183673
1431	0.7155	0.611111111111	-13.719047619	-1.12	-0.0163265306122
1432	0.716	-0.844444444444	-13.719047619	-4.04	-2.88163265306
1433	0.7165	2.06666666667	-17.9952380952	-2.58	-4.31428571429
1434	0.717	0.611111111111	-16.5698412698	0.34	-2.88163265306
1435	0.7175	-0.844444444444	-12.2936507937	-1.12	-11.4775510204
1436	0.718	0.611111111111	-12.2936507937	-11.34	-2.88163265306
1437	0.7185	-0.844444444444	-15.1444444444	-4.04	-2.88163265306
1438	0.719	-0.844444444444	-22.2714285714	-2.58	-1.44897959184
1439	0.7195	0.611111111111	-12.2936507937	-2.58	-4.31428571429
1440	0.72	12.2555555556	-13.719047619	0.34	-1.44897959184
1441	0.7205	0.611111111111	-12.2936507937	-2.58	2.84897959184
1442	0.721	0.611111111111	-10.8682539683	4.72	-2.88163265306
1443	0.7215	-2.3	-10.8682539683	12.02	-2.88163265306
1444	0.722	-0.844444444444	-13.719047619	1.8	-2.88163265306
1445	0.7225	2.06666666667	-16.5698412698	-1.12	-1.44897959184
1446	0.723	15.1666666667	-10.8682539683	-1.12	-11.4775510204
1447	0.7235	-2.3	-9.44285714286	-2.58	-12.9102040816
1448	0.724	0.611111111111	-10.8682539683	-8.42	-4.31428571429
1449	0.7245	2.06666666667	-12.2936507937	-9.88	-5.74693877551
1450	0.725	0.611111111111	9.0873015873	-1.12	-2.88163265306
1451	0.7255	3.52222222222	-8.01746031746	0.34	-4.31428571429
1452	0.726	-9.57777777778	-8.01746031746	0.34	-0.0163265306122
1453	0.7265	0.611111111111	-9.44285714286	3.26	7.14693877551
1454	0.727	-0.844444444444	-2.31587301587	9.1	-2.88163265306
1455	0.7275	0.611111111111	-5.16666666667	-1.12	-4.31428571429
1456	0.728	-2.3	-6.59206349206	0.34	-2.88163265306
1457	0.7285	-12.4888888889	-8.01746031746	0.34	-1.44897959184
1458	0.729	-8.12222222222	-6.59206349206	3.26	-12.9102040816
1459	0.7295	-2.3	-9.44285714286	19.32	-2.88163265306
1460	0.73	0.611111111111	-10.8682539683	17.86	-4.31428571429
1461	0.7305	-0.844444444444	-22.2714285714	0.34	-4.31428571429
1462	0.731	0.611111111111	-22.2714285714	-1.12	-1.44897959184
1463	0.7315	20.9888888889	-12.2936507937	3.26	-15.7755102041
1464	0.732	-0.844444444444	-13.719047619	4.72	-15.7755102041
1465	0.7325	-2.3	-16.5698412698	-8.42	-12.9102040816
1466	0.733	-3.75555555556	-20.846031746	-5.5	-2.88163265306
1467	0.7335	-2.3	-6.59206349206	0.34	-2.88163265306
1468	0.734	-0.844444444444	-8.01746031746	0.34	-2.88163265306
1469	0.7345	6.43333333333	-17.9952380952	1.8	-7.17959183673
1470	0.735	0.611111111111	-19.4206349206	-12.8	-2.88163265306
1471	0.7355	-0.844444444444	-20.846031746	-1.12	-1.44897959184
1472	0.736	-5.21111111111	-26.5476190476	-1.12	-4.31428571429
1473	0.7365	-0.844444444444	-19.4206349206	-1.12	-1.44897959184
1474	0.737	10.8	-19.4206349206	-1.12	-1.44897959184
1475	0.7375	-5.21111111111	-17.9952380952	-2.58	-2.88163265306
1476	0.738	-2.3	-16.5698412698	-11.34	-2.88163265306
1477	0.7385	0.611111111111	-13.719047619	-1.12	-0.0163265306122
1478	0.739	0.611111111111	-2.31587301587	-2.58	-0.0163265306122
1479	0.7395	-2.3	-0.890476190476	1.8	-1.44897959184
1480	0.74	-9.57777777778	-13.719047619	0.34	1.41632653061
1481	0.7405	-0.844444444444	-12.2936507937	1.8	8.57959183673
1482	0.741	-0.844444444444	-9.44285714286	13.48	-1.44897959184
1483	0.7415	-2.3	-9.44285714286	-2.58	2.84897959184
1484	0.742	-3.75555555556	-17.9952380952	0.34	2.84897959184
1485	0.7425	-12.4888888889	-12.2936507937	0.34	2.84897959184
1486	0.743	-11.0333333333	-9.44285714286	3.26	4.28163265306
1487	0.7435	-2.3	-6.59206349206	0.34	14.3102040816
1488	0.744	-2.3	-6.59206349206	16.4	-1.44897959184
1489	0.7445	-0.844444444444	-17.9952380952	0.34	-1.44897959184
1490	0.745	0.611111111111	-19.4206349206	-1.12	-0.0163265306122
1491	0.7455	20.9888888889	-8.01746031746	3.26	-12.9102040816
1492	0.746	-0.844444444444	-9.44285714286	1.8	-8.61224489796
1493	0.7465	0.611111111111	-9.44285714286	3.26	-11.4775510204
1494	0.747	-0.844444444444	-10.8682539683	-6.96	-4.31428571429
1495	0.7475	0.611111111111	1.96031746032	0.34	-4.31428571429
1496	0.748	-5.21111111111	-9.44285714286	0.34	-2.88163265306
1497	0.7485	9.34444444444	-10.8682539683	1.8	-7.17959183673
1498	0.749	0.611111111111	-9.44285714286	1.8	-7.17959183673
1499	0.7495	0.611111111111	-13.719047619	-2.58	-4.31428571429
1500	0.75	-0.844444444444	-19.4206349206	-5.5	-2.88163265306
1501	0.7505	-5.21111111111	-9.44285714286	0.34	-4.31428571429
1502	0.751	7.88888888889	-16.5698412698	0.34	-4.31428571429
1503	0.7515	-5.21111111111	-17.9952380952	0.34	-0.0163265306122
1504	0.752	-3.75555555556	-19.4206349206	-6.96	4.28163265306
1505	0.7525	-2.3	-13.719047619	1.8	-1.44897959184
1506	0.753	0.611111111111	-16.5698412698	0.34	-1.44897959184
1507	0.7535	-0.844444444444	-22.2714285714	1.8	1.41632653061
1508	0.754	-9.57777777778	-20.846031746	0.34	-1.44897959184
1509	0.7545	-2.3	-16.5698412698	-6.96	-8.61224489796
1510	0.755	-0.844444444444	-15.1444444444	3.26	-2.88163265306
1511	0.7555	-0.844444444444	-12.2936507937	-1.12	-5.74693877551
1512	0.756	-0.844444444444	-0.890476190476	-1.12	-7.17959183673
1513	0.7565	-12.4888888889	-13.719047619	-1.12	-1.44897959184
1514	0.757	-8.12222222222	-12.2936507937	-1.12	1.41632653061
1515	0.7575	-0.844444444444	-10.8682539683	-12.8	-4.31428571429
1516	0.758	0.611111111111	-10.8682539683	-2.58	-1.44897959184
1517	0.7585	-2.3	-12.2936507937	-6.96	-1.44897959184
1518	0.759	-2.3	-12.2936507937	0.34	-0.0163265306122
1519	0.7595	-13.9444444444	-9.44285714286	0.34	1.41632653061
1520	0.76	-12.4888888889	-10.8682539683	1.8	-0.0163265306122
1521	0.7605	-0.844444444444	-12.2936507937	19.32	1.41632653061
1522	0.761	-0.844444444444	-10.8682539683	16.4	2.84897959184
1523	0.7615	-0.844444444444	-13.719047619	0.34	-0.0163265306122
1524	0.762	-0.844444444444	-9.44285714286	-1.12	2.84897959184
1525	0.7625	-9.57777777778	-10.8682539683	3.26	11.4448979592
1526	0.763	-0.844444444444	-10.8682539683	-4.04	8.57959183673
1527	0.7635	2.06666666667	-9.44285714286	6.18	-1.44897959184
1528	0.764	-0.844444444444	-17.9952380952	0.34	-0.0163265306122
1529	0.7645	3.52222222222	-16.5698412698	-1.12	-0.0163265306122
1530	0.765	12.2555555556	-16.5698412698	-1.12	1.41632653061
1531	0.7655	-6.66666666667	-15.1444444444	0.34	2.84897959184
1532	0.766	-2.3	-16.5698412698	16.4	-4.31428571429
1533	0.7665	-0.844444444444	-16.5698412698	0.34	-4.31428571429
1534	0.767	-0.844444444444	-6.59206349206	1.8	-4.31428571429
1535	0.7675	0.611111111111	-19.4206349206	0.34	-7.17959183673
1536	0.768	-5.21111111111	-20.846031746	-2.58	-1.44897959184
1537	0.7685	-0.844444444444	-20.846031746	-9.88	-0.0163265306122
1538	0.769	-3.75555555556	-22.2714285714	-12.8	-1.44897959184
1539	0.7695	-2.3	-2.31587301587	3.26	-0.0163265306122
1540	0.77	-3.75555555556	-20.846031746	-1.12	-1.44897959184
1541	0.7705	-5.21111111111	-22.2714285714	-1.12	2.84897959184
1542	0.771	0.611111111111	-19.4206349206	-5.5	-0.0163265306122
1543	0.7715	-2.3	-17.9952380952	-5.5	-1.44897959184
1544	0.772	-0.844444444444	-22.2714285714	-1.12	-1.44897959184
1545	0.7725	-0.844444444444	-26.5476190476	-1.12	-0.0163265306122
1546	0.773	9.34444444444	-17.9952380952	0.34	-10.0448979592
1547	0.7735	-0.844444444444	-15.1444444444	-2.58	-7.17959183673
1548	0.774	-0.844444444444	-16.5698412698	-12.8	1.41632653061
1549	0.7745	0.611111111111	-13.719047619	-8.42	-0.0163265306122
1550	0.775	0.611111111111	1.96031746032	-1.12	-0.0163265306122
1551	0.7755	-2.3	0.534920634921	1.8	-2.88163265306
1552	0.776	-8.12222222222	-9.44285714286	3.26	-0.0163265306122
1553	0.7765	-8.12222222222	-12.2936507937	1.8	-1.44897959184
1554	0.777	-0.844444444444	-10.8682539683	12.02	-2.88163265306
1555	0.7775	-2.3	-15.1444444444	0.34	1.41632653061
1556	0.778	3.52222222222	-2.31587301587	1.8	-1.44897959184
1557	0.7785	10.8	-9.44285714286	4.72	-0.0163265306122
1558	0.779	-2.3	-8.01746031746	0.34	4.28163265306
1559	0.7795	-2.3	-5.16666666667	-11.34	-1.44897959184
1560	0.78	-0.844444444444	-2.31587301587	0.34	-0.0163265306122
1561	0.7805	-0.844444444444	9.0873015873	0.34	-1.44897959184
1562	0.781	-5.21111111111	-10.8682539683	0.34	-0.0163265306122
1563	0.7815	-9.57777777778	-9.44285714286	0.34	-1.44897959184
1564	0.782	-0.844444444444	-10.8682539683	-6.96	-4.31428571429
1565	0.7825	0.611111111111	-10.8682539683	-8.42	-5.74693877551
1566	0.783	-0.844444444444	-10.8682539683	-8.42	-5.74693877551
1567	0.7835	-2.3	-3.74126984127	0.34	-2.88163265306
1568	0.784	0.611111111111	-12.2936507937	0.34	-2.88163265306
1569	0.7845	-8.12222222222	-12.2936507937	0.34	2.84897959184
1570	0.785	-2.3	-16.5698412698	-6.96	5.71428571429
1571	0.7855	-0.844444444444	-16.5698412698	6.18	-4.31428571429
1572	0.786	2.06666666667	-10.8682539683	0.34	-1.44897959184
1573	0.7865	-0.844444444444	-20.846031746	-1.12	-1.44897959184
1574	0.787	-3.75555555556	-23.6968253968	-1.12	-0.0163265306122
1575	0.7875	-0.844444444444	-13.719047619	0.34	-7.17959183673
1576	0.788	0.611111111111	-16.5698412698	-1.12	-1.44897959184
1577	0.7885	-2.3	-16.5698412698	-5.5	4.28163265306
1578	0.789	-0.844444444444	-16.5698412698	-1.12	2.84897959184
1579	0.7895	2.06666666667	-15.1444444444	0.34	1.41632653061
1580	0.79	19.5333333333	-16.5698412698	3.26	-7.17959183673
1581	0.7905	-0.844444444444	-13.719047619	0.34	-10.0448979592
1582	0.791	-0.844444444444	-19.4206349206	-5.5	-1.44897959184
1583	0.7915	-0.844444444444	-25.1222222222	-1.12	1.41632653061
1584	0.792	0.611111111111	0.534920634921	-2.58	-0.0163265306122
1585	0.7925	-8.12222222222	-12.2936507937	0.34	2.84897959184
1586	0.793	-9.57777777778	-10.8682539683	0.34	18.6081632653
1587	0.7935	-2.3	-10.8682539683	-1.12	15.7428571429
1588	0.794	-2.3	-8.01746031746	-1.12	-0.0163265306122
1589	0.7945	-0.844444444444	1.96031746032	-1.12	-1.44897959184
1590	0.795	-2.3	-8.01746031746	0.34	-0.0163265306122
1591	0.7955	7.88888888889	-9.44285714286	-1.12	-2.88163265306
1592	0.796	-2.3	-8.01746031746	-9.88	-4.31428571429
1593	0.7965	-2.3	-6.59206349206	-9.88	-4.31428571429
1594	0.797	0.611111111111	3.38571428571	0.34	-4.31428571429
1595	0.7975	-0.844444444444	-9.44285714286	0.34	-5.74693877551
1596	0.798	-11.0333333333	-6.59206349206	-1.12	-1.44897959184
1597	0.7985	-2.3	-10.8682539683	0.34	-2.88163265306
1598	0.799	-0.844444444444	-10.8682539683	3.26	-10.0448979592
1599	0.7995	-2.3	-13.719047619	-1.12	-5.74693877551
1600	0.8	0.611111111111	-16.5698412698	-1.12	-4.31428571429
1601	0.8005	2.06666666667	-15.1444444444	0.34	-7.17959183673
1602	0.801	19.5333333333	-15.1444444444	0.34	-15.7755102041
1603	0.8015	-2.3	-16.5698412698	4.72	-7.17959183673
1604	0.802	2.06666666667	-16.5698412698	0.34	-1.44897959184
1605	0.8025	-0.844444444444	-30.8238095238	0.34	-2.88163265306
1606	0.803	0.611111111111	-20.846031746	0.34	-4.31428571429
1607	0.8035	3.52222222222	-17.9952380952	0.34	-4.31428571429
1608	0.804	0.611111111111	-22.2714285714	0.34	2.84897959184
1609	0.8045	-0.844444444444	-16.5698412698	-8.42	-2.88163265306
1610	0.805	-2.3	-12.2936507937	-8.42	2.84897959184
1611	0.8055	-0.844444444444	-15.1444444444	-8.42	-1.44897959184
1612	0.806	-3.75555555556	-16.5698412698	0.34	-0.0163265306122
1613	0.8065	-2.3	-12.2936507937	1.8	-1.44897959184
1614	0.807	-6.66666666667	-15.1444444444	-2.58	-7.17959183673
1615	0.8075	-3.75555555556	-10.8682539683	-9.88	-2.88163265306
1616	0.808	-2.3	-9.44285714286	-2.58	1.41632653061
1617	0.8085	-0.844444444444	7.6619047619	1.8	-0.0163265306122
1618	0.809	-11.0333333333	-6.59206349206	-1.12	-2.88163265306
1619	0.8095	19.5333333333	-10.8682539683	1.8	-1.44897959184
1620	0.81	-0.844444444444	-8.01746031746	-1.12	-7.17959183673
1621	0.8105	0.611111111111	-6.59206349206	0.34	-0.0163265306122
1622	0.811	-2.3	-6.59206349206	1.8	-2.88163265306
1623	0.8115	-2.3	-15.1444444444	1.8	-2.88163265306
1624	0.812	-6.66666666667	-8.01746031746	1.8	-4.31428571429
1625	0.8125	-2.3	-9.44285714286	-2.58	-8.61224489796
1626	0.813	0.611111111111	-8.01746031746	13.48	-1.44897959184
1627	0.8135	-2.3	-8.01746031746	14.94	-1.44897959184
1628	0.814	0.611111111111	-12.2936507937	0.34	-0.0163265306122
1629	0.8145	-8.12222222222	-8.01746031746	1.8	4.28163265306
1630	0.815	10.8	-10.8682539683	3.26	4.28163265306
1631	0.8155	-3.75555555556	-10.8682539683	0.34	12.8775510204
1632	0.816	-2.3	-13.719047619	13.48	-1.44897959184
1633	0.8165	-0.844444444444	-16.5698412698	3.26	-2.88163265306
1634	0.817	-2.3	-3.74126984127	1.8	-2.88163265306
1635	0.8175	6.43333333333	-17.9952380952	0.34	-2.88163265306
1636	0.818	10.8	-17.9952380952	3.26	-5.74693877551
1637	0.8185	-0.844444444444	-15.1444444444	0.34	-4.31428571429
1638	0.819	-0.844444444444	-13.719047619	-1.12	-0.0163265306122
1639	0.8195	-0.844444444444	-5.16666666667	1.8	-1.44897959184
1640	0.82	-3.75555555556	-15.1444444444	0.34	-1.44897959184
1641	0.8205	-11.0333333333	-16.5698412698	3.26	18.6081632653
1642	0.821	0.611111111111	-13.719047619	-1.12	17.1755102041
1643	0.8215	-3.75555555556	-12.2936507937	0.34	1.41632653061
1644	0.822	0.611111111111	-13.719047619	-1.12	-2.88163265306
1645	0.8225	0.611111111111	-20.846031746	-4.04	-1.44897959184
1646	0.823	-5.21111111111	-20.846031746	-2.58	-0.0163265306122
1647	0.8235	-0.844444444444	-12.2936507937	-2.58	12.8775510204
1648	0.824	-2.3	-10.8682539683	-12.8	-1.44897959184
1649	0.8245	0.611111111111	-10.8682539683	-14.26	-1.44897959184
1650	0.825	-2.3	1.96031746032	-4.04	-0.0163265306122
1651	0.8255	-2.3	-0.890476190476	-2.58	-0.0163265306122
1652	0.826	-6.66666666667	-12.2936507937	-2.58	-1.44897959184
1653	0.8265	-0.844444444444	-13.719047619	-12.8	-1.44897959184
1654	0.827	-0.844444444444	-12.2936507937	-8.42	1.41632653061
1655	0.8275	0.611111111111	-19.4206349206	-4.04	-1.44897959184
1656	0.828	-3.75555555556	-9.44285714286	-1.12	-0.0163265306122
1657	0.8285	4.97777777778	-8.01746031746	-1.12	-0.0163265306122
1658	0.829	-0.844444444444	-8.01746031746	1.8	8.57959183673
1659	0.8295	-0.844444444444	-12.2936507937	-1.12	-1.44897959184
1660	0.83	-0.844444444444	-22.2714285714	1.8	-1.44897959184
1661	0.8305	-5.21111111111	-17.9952380952	-1.12	-0.0163265306122
1662	0.831	-13.9444444444	-10.8682539683	1.8	-2.88163265306
1663	0.8315	2.06666666667	-10.8682539683	-2.58	-12.9102040816
1664	0.832	-2.3	-13.719047619	-11.34	-10.0448979592
1665	0.8325	-0.844444444444	-12.2936507937	-9.88	-4.31428571429
1666	0.833	-0.844444444444	3.38571428571	-1.12	-7.17959183673
1667	0.8335	-0.844444444444	-13.719047619	-1.12	-2.88163265306
1668	0.834	-8.12222222222	-16.5698412698	4.72	-1.44897959184
1669	0.8345	-3.75555555556	-16.5698412698	-1.12	14.3102040816
1670	0.835	-2.3	-17.9952380952	13.48	-4.31428571429
1671	0.8355	-0.844444444444	-12.2936507937	-1.12	-4.31428571429
1672	0.836	-0.844444444444	-17.9952380952	-1.12	-4.31428571429
1673	0.8365	4.97777777778	-22.2714285714	0.34	-11.4775510204
1674	0.837	-3.75555555556	-20.846031746	0.34	-7.17959183673
1675	0.8375	-2.3	-16.5698412698	-8.42	-0.0163265306122
1676	0.838	-0.844444444444	-16.5698412698	1.8	-0.0163265306122
1677	0.8385	0.611111111111	-8.01746031746	3.26	-1.44897959184
1678	0.839	-13.9444444444	-20.846031746	0.34	-0.0163265306122
1679	0.8395	-12.4888888889	-20.846031746	0.34	1.41632653061
1680	0.84	-0.844444444444	-19.4206349206	-8.42	-2.88163265306
1681	0.8405	0.611111111111	-16.5698412698	-5.5	-1.44897959184
1682	0.841	0.611111111111	-9.44285714286	-1.12	-1.44897959184
1683	0.8415	0.611111111111	-17.9952380952	0.34	-1.44897959184
1684	0.842	4.97777777778	-16.5698412698	0.34	-1.44897959184
1685	0.8425	0.611111111111	-13.719047619	-12.8	1.41632653061
1686	0.843	0.611111111111	-17.9952380952	-5.5	-1.44897959184
1687	0.8435	2.06666666667	-25.1222222222	0.34	1.41632653061
1688	0.844	0.611111111111	-16.5698412698	-2.58	2.84897959184
1689	0.8445	20.9888888889	-9.44285714286	-2.58	-0.0163265306122
1690	0.845	-0.844444444444	-9.44285714286	0.34	-8.61224489796
1691	0.8455	2.06666666667	-9.44285714286	-2.58	-5.74693877551
1692	0.846	-0.844444444444	-9.44285714286	-8.42	-1.44897959184
1693	0.8465	0.611111111111	3.38571428571	0.34	-1.44897959184
1694	0.847	-3.75555555556	1.96031746032	-1.12	-0.0163265306122
1695	0.8475	-8.12222222222	-13.719047619	-1.12	17.1755102041
1696	0.848	-0.844444444444	-12.2936507937	-4.04	18.6081632653
1697	0.8485	0.611111111111	-10.8682539683	19.32	-2.88163265306
1698	0.849	-0.844444444444	-25.1222222222	-1.12	-1.44897959184
1699	0.8495	-2.3	-23.6968253968	0.34	-1.44897959184
1700	0.85	-12.4888888889	-16.5698412698	-1.12	-1.44897959184
1701	0.8505	-0.844444444444	-15.1444444444	1.8	-12.9102040816
1702	0.851	2.06666666667	-17.9952380952	1.8	-5.74693877551
1703	0.8515	-0.844444444444	-19.4206349206	-2.58	-1.44897959184
1704	0.852	-2.3	-23.6968253968	-2.58	-1.44897959184
1705	0.8525	3.52222222222	-19.4206349206	-1.12	-0.0163265306122
1706	0.853	20.9888888889	-19.4206349206	-2.58	-12.9102040816
1707	0.8535	0.611111111111	-19.4206349206	-2.58	-12.9102040816
1708	0.854	-0.844444444444	-16.5698412698	-5.5	-2.88163265306
1709	0.8545	0.611111111111	-19.4206349206	-8.42	-1.44897959184
1710	0.855	0.611111111111	-6.59206349206	0.34	-1.44897959184
1711	0.8555	2.06666666667	-16.5698412698	1.8	-4.31428571429
1712	0.856	-3.75555555556	-15.1444444444	-1.12	-2.88163265306
1713	0.8565	0.611111111111	-16.5698412698	12.02	-2.88163265306
1714	0.857	-0.844444444444	-15.1444444444	9.1	-2.88163265306
1715	0.8575	0.611111111111	-22.2714285714	0.34	-0.0163265306122
1716	0.858	2.06666666667	-15.1444444444	0.34	-5.74693877551
1717	0.8585	20.9888888889	-15.1444444444	1.8	-4.31428571429
1718	0.859	0.611111111111	-13.719047619	-9.88	-8.61224489796
1719	0.8595	-2.3	-16.5698412698	-6.96	-1.44897959184
1720	0.86	-0.844444444444	-17.9952380952	0.34	-2.88163265306
1721	0.8605	-0.844444444444	-17.9952380952	-1.12	-0.0163265306122
1722	0.861	2.06666666667	-10.8682539683	1.8	5.71428571429
1723	0.8615	0.611111111111	-10.8682539683	-1.12	5.71428571429
1724	0.862	0.611111111111	-10.8682539683	3.26	4.28163265306
1725	0.8625	0.611111111111	-22.2714285714	-1.12	-1.44897959184
1726	0.863	0.611111111111	-16.5698412698	0.34	-1.44897959184
1727	0.8635	6.43333333333	-13.719047619	0.34	-4.31428571429
1728	0.864	-9.57777777778	-12.2936507937	0.34	-0.0163265306122
1729	0.8645	-2.3	-12.2936507937	3.26	14.3102040816
1730	0.865	-0.844444444444	-13.719047619	13.48	-4.31428571429
1731	0.8655	0.611111111111	-13.719047619	-1.12	-2.88163265306
1732	0.866	-0.844444444444	-9.44285714286	-1.12	-2.88163265306
1733	0.8665	0.611111111111	-16.5698412698	-2.58	1.41632653061
1734	0.867	-0.844444444444	-15.1444444444	-1.12	5.71428571429
1735	0.8675	-0.844444444444	-13.719047619	-5.5	-4.31428571429
1736	0.868	-0.844444444444	-13.719047619	-9.88	-2.88163265306
1737	0.8685	-0.844444444444	-19.4206349206	-1.12	-2.88163265306
1738	0.869	-5.21111111111	-19.4206349206	0.34	-2.88163265306
1739	0.8695	-3.75555555556	-20.846031746	0.34	-0.0163265306122
1740	0.87	2.06666666667	-20.846031746	-8.42	-4.31428571429
1741	0.8705	-0.844444444444	-19.4206349206	-6.96	-2.88163265306
1742	0.871	-0.844444444444	-3.74126984127	-1.12	-1.44897959184
1743	0.8715	-0.844444444444	-10.8682539683	1.8	-1.44897959184
1744	0.872	10.8	-17.9952380952	1.8	-12.9102040816
1745	0.8725	0.611111111111	-17.9952380952	-9.88	-11.4775510204
1746	0.873	-0.844444444444	-17.9952380952	0.34	-4.31428571429
1747	0.8735	0.611111111111	-27.973015873	0.34	-2.88163265306
1748	0.874	3.52222222222	-15.1444444444	0.34	-4.31428571429
1749	0.8745	18.0777777778	-16.5698412698	3.26	-10.0448979592
1750	0.875	-0.844444444444	-13.719047619	-2.58	-4.31428571429
1751	0.8755	0.611111111111	-8.01746031746	-1.12	1.41632653061
1752	0.876	0.611111111111	-10.8682539683	-4.04	-0.0163265306122
1753	0.8765	-2.3	-9.44285714286	0.34	-0.0163265306122
1754	0.877	-0.844444444444	-10.8682539683	3.26	-1.44897959184
1755	0.8775	-5.21111111111	-8.01746031746	0.34	-4.31428571429
1756	0.878	0.611111111111	-8.01746031746	-9.88	-5.74693877551
1757	0.8785	0.611111111111	-6.59206349206	-6.96	-1.44897959184
1758	0.879	-2.3	6.23650793651	-1.12	-1.44897959184
1759	0.8795	-0.844444444444	7.6619047619	-1.12	-1.44897959184
1760	0.88	-5.21111111111	-10.8682539683	0.34	15.7428571429
1761	0.8805	0.611111111111	-10.8682539683	-2.58	15.7428571429
1762	0.881	-2.3	-9.44285714286	9.1	-0.0163265306122
1763	0.8815	-0.844444444444	-12.2936507937	0.34	1.41632653061
1764	0.882	-0.844444444444	-17.9952380952	-1.12	1.41632653061
1765	0.8825	2.06666666667	-12.2936507937	1.8	-1.44897959184
1766	0.883	-8.12222222222	-12.2936507937	-1.12	-1.44897959184
1767	0.8835	-2.3	-12.2936507937	-4.04	-5.74693877551
1768	0.884	-2.3	-12.2936507937	1.8	-2.88163265306
1769	0.8845	-0.844444444444	-13.719047619	-1.12	-0.0163265306122
1770	0.885	-5.21111111111	-10.8682539683	3.26	-0.0163265306122
1771	0.8855	9.34444444444	-12.2936507937	0.34	-1.44897959184
1772	0.886	0.611111111111	-13.719047619	1.8	1.41632653061
1773	0.8865	0.611111111111	-13.719047619	4.72	1.41632653061
1774	0.887	0.611111111111	-19.4206349206	-4.04	-0.0163265306122
1775	0.8875	-0.844444444444	-6.59206349206	0.34	-2.88163265306
1776	0.888	9.34444444444	-13.719047619	0.34	-7.17959183673
1777	0.8885	-5.21111111111	-12.2936507937	0.34	-7.17959183673
1778	0.889	-0.844444444444	-12.2936507937	12.02	-2.88163265306
1779	0.8895	0.611111111111	-10.8682539683	12.02	-2.88163265306
1780	0.89	-0.844444444444	-17.9952380952	-1.12	-0.0163265306122
1781	0.8905	2.06666666667	-15.1444444444	1.8	-2.88163265306
1782	0.891	15.1666666667	-10.8682539683	1.8	-8.61224489796
1783	0.8915	-2.3	-10.8682539683	1.8	-8.61224489796
1784	0.892	-2.3	-10.8682539683	-2.58	-0.0163265306122
1785	0.8925	-0.844444444444	-16.5698412698	-1.12	-1.44897959184
1786	0.893	2.06666666667	-3.74126984127	-1.12	-0.0163265306122
1787	0.8935	10.8	-6.59206349206	-1.12	1.41632653061
1788	0.894	-3.75555555556	-2.31587301587	-1.12	-4.31428571429
1789	0.8945	0.611111111111	-5.16666666667	0.34	8.57959183673
1790	0.895	0.611111111111	-3.74126984127	4.72	-1.44897959184
1791	0.8955	-0.844444444444	6.23650793651	0.34	-0.0163265306122
1792	0.896	3.52222222222	-8.01746031746	-4.04	1.41632653061
1793	0.8965	10.8	-6.59206349206	0.34	-7.17959183673
1794	0.897	0.611111111111	-8.01746031746	-6.96	-0.0163265306122
1795	0.8975	-2.3	-5.16666666667	-4.04	-1.44897959184
1796	0.898	0.611111111111	-2.31587301587	-4.04	-1.44897959184
1797	0.8985	2.06666666667	-0.890476190476	0.34	-0.0163265306122
1798	0.899	-5.21111111111	-5.16666666667	-1.12	-1.44897959184
1799	0.8995	-2.3	-8.01746031746	0.34	-8.61224489796
1800	0.9	-0.844444444444	-6.59206349206	4.72	-1.44897959184
1801	0.9005	-0.844444444444	-8.01746031746	1.8	-0.0163265306122
1802	0.901	-2.3	-12.2936507937	-2.58	-0.0163265306122
1803	0.9015	-8.12222222222	-12.2936507937	0.34	1.41632653061
1804	0.902	2.06666666667	-13.719047619	0.34	-0.0163265306122
1805	0.9025	0.611111111111	-10.8682539683	4.72	5.71428571429
1806	0.903	0.611111111111	-10.8682539683	13.48	-7.17959183673
1807	0.9035	-0.844444444444	-25.1222222222	1.8	-2.88163265306
1808	0.904	-0.844444444444	-16.5698412698	3.26	-1.44897959184
1809	0.9045	-9.57777777778	-12.2936507937	1.8	-0.0163265306122
1810	0.905	0.611111111111	-12.2936507937	3.26	1.41632653061
1811	0.9055	0.611111111111	-13.719047619	16.4	-2.88163265306
1812	0.906	-0.844444444444	-13.719047619	7.64	-1.44897959184
1813	0.9065	2.06666666667	-20.846031746	-2.58	-0.0163265306122
1814	0.907	-8.12222222222	-12.2936507937	0.34	-0.0163265306122
1815	0.9075	-5.21111111111	-10.8682539683	-1.12	-0.0163265306122
1816	0.908	0.611111111111	-8.01746031746	4.72	-5.74693877551
1817	0.9085	0.611111111111	-6.59206349206	13.48	-2.88163265306
1818	0.909	-0.844444444444	-17.9952380952	-2.58	-4.31428571429
1819	0.9095	-5.21111111111	-13.719047619	0.34	-1.44897959184
1820	0.91	19.5333333333	-10.8682539683	-1.12	-4.31428571429
1821	0.9105	0.611111111111	-6.59206349206	3.26	-11.4775510204
1822	0.911	0.611111111111	-8.01746031746	19.32	-2.88163265306
1823	0.9115	-0.844444444444	-5.16666666667	1.8	-5.74693877551
1824	0.912	-0.844444444444	7.6619047619	0.34	-2.88163265306
1825	0.9125	-12.4888888889	-6.59206349206	0.34	2.84897959184
1826	0.913	-8.12222222222	-6.59206349206	-1.12	2.84897959184
1827	0.9135	0.611111111111	-8.01746031746	-8.42	-1.44897959184
1828	0.914	-0.844444444444	-9.44285714286	-8.42	-2.88163265306
1829	0.9145	0.611111111111	9.0873015873	1.8	-1.44897959184
1830	0.915	-3.75555555556	-8.01746031746	3.26	-2.88163265306
1831	0.9155	-12.4888888889	-8.01746031746	-1.12	-0.0163265306122
1832	0.916	-0.844444444444	-10.8682539683	1.8	7.14693877551
1833	0.9165	-0.844444444444	-13.719047619	1.8	-2.88163265306
1834	0.917	-0.844444444444	-15.1444444444	13.48	-1.44897959184
1835	0.9175	2.06666666667	-25.1222222222	-1.12	-1.44897959184
1836	0.918	2.06666666667	-15.1444444444	-1.12	-0.0163265306122
1837	0.9185	20.9888888889	-16.5698412698	-1.12	-4.31428571429
1838	0.919	-2.3	-16.5698412698	-12.8	-1.44897959184
1839	0.9195	0.611111111111	-16.5698412698	-8.42	-1.44897959184
1840	0.92	0.611111111111	-23.6968253968	0.34	-1.44897959184
1841	0.9205	0.611111111111	-9.44285714286	0.34	-1.44897959184
1842	0.921	18.0777777778	-12.2936507937	0.34	-1.44897959184
1843	0.9215	0.611111111111	-12.2936507937	0.34	-10.0448979592
1844	0.922	0.611111111111	-10.8682539683	-4.04	-4.31428571429
1845	0.9225	-2.3	-19.4206349206	0.34	-2.88163265306
1846	0.923	0.611111111111	-17.9952380952	3.26	-2.88163265306
1847	0.9235	-3.75555555556	-10.8682539683	-1.12	-4.31428571429
1848	0.924	12.2555555556	-13.719047619	-1.12	-2.88163265306
1849	0.9245	-2.3	-8.01746031746	7.64	-2.88163265306
1850	0.925	-0.844444444444	-10.8682539683	12.02	-2.88163265306
1851	0.9255	-0.844444444444	-13.719047619	-5.5	-2.88163265306
1852	0.926	0.611111111111	-17.9952380952	-2.58	-2.88163265306
1853	0.9265	20.9888888889	-9.44285714286	-1.12	-2.88163265306
1854	0.927	0.611111111111	-5.16666666667	-2.58	-11.4775510204
1855	0.9275	-0.844444444444	-5.16666666667	-11.34	-12.9102040816
1856	0.928	-0.844444444444	-3.74126984127	-6.96	-4.31428571429
1857	0.9285	0.611111111111	13.3634920635	-1.12	-4.31428571429
1858	0.929	2.06666666667	-2.31587301587	-1.12	-5.74693877551
1859	0.9295	-0.844444444444	-6.59206349206	0.34	11.4448979592
1860	0.93	-3.75555555556	-6.59206349206	-1.12	12.8775510204
1861	0.9305	-2.3	-6.59206349206	-9.88	-1.44897959184
1862	0.931	0.611111111111	3.38571428571	-2.58	-2.88163265306
1863	0.9315	-3.75555555556	6.23650793651	-2.58	-0.0163265306122
1864	0.932	-5.21111111111	-8.01746031746	-1.12	-1.44897959184
1865	0.9325	-9.57777777778	-5.16666666667	0.34	-0.0163265306122
1866	0.933	-3.75555555556	-8.01746031746	7.64	-2.88163265306
1867	0.9335	-0.844444444444	-12.2936507937	-1.12	-1.44897959184
1868	0.934	2.06666666667	-2.31587301587	-1.12	-7.17959183673
1869	0.9345	0.611111111111	-9.44285714286	0.34	-2.88163265306
1870	0.935	-5.21111111111	-10.8682539683	-1.12	1.41632653061
1871	0.9355	-3.75555555556	-9.44285714286	-6.96	-4.31428571429
1872	0.936	-3.75555555556	-8.01746031746	-5.5	-4.31428571429
1873	0.9365	-0.844444444444	-6.59206349206	1.8	-4.31428571429
1874	0.937	2.06666666667	-6.59206349206	-1.12	-4.31428571429
1875	0.9375	13.7111111111	-9.44285714286	1.8	-2.88163265306
1876	0.938	0.611111111111	-12.2936507937	-2.58	-4.31428571429
1877	0.9385	-0.844444444444	-8.01746031746	-9.88	-4.31428571429
1878	0.939	-0.844444444444	-5.16666666667	0.34	-0.0163265306122
1879	0.9395	-3.75555555556	-9.44285714286	-1.12	1.41632653061
1880	0.94	-13.9444444444	-9.44285714286	-1.12	4.28163265306
1881	0.9405	-5.21111111111	-9.44285714286	0.34	12.8775510204
1882	0.941	-3.75555555556	-8.01746031746	13.48	4.28163265306
1883	0.9415	0.611111111111	-3.74126984127	0.34	2.84897959184
1884	0.942	-0.844444444444	13.3634920635	0.34	5.71428571429
1885	0.9425	-3.75555555556	-0.890476190476	0.34	5.71428571429
1886	0.943	-9.57777777778	-0.890476190476	1.8	21.4734693878
1887	0.9435	-0.844444444444	0.534920634921	3.26	20.0408163265
1888	0.944	-2.3	0.534920634921	17.86	-1.44897959184
1889	0.9445	0.611111111111	-0.890476190476	0.34	-0.0163265306122
1890	0.945	-2.3	-8.01746031746	0.34	-1.44897959184
1891	0.9455	-8.12222222222	0.534920634921	3.26	-0.0163265306122
1892	0.946	-9.57777777778	-0.890476190476	3.26	-11.4775510204
1893	0.9465	0.611111111111	3.38571428571	20.78	-1.44897959184
1894	0.947	0.611111111111	0.534920634921	17.86	-7.17959183673
1895	0.9475	0.611111111111	-13.719047619	1.8	-4.31428571429
1896	0.948	0.611111111111	-10.8682539683	0.34	-4.31428571429
1897	0.9485	18.0777777778	-0.890476190476	3.26	-11.4775510204
1898	0.949	-5.21111111111	0.534920634921	-1.12	-8.61224489796
1899	0.9495	2.06666666667	-3.74126984127	3.26	-0.0163265306122
1900	0.95	-2.3	-13.719047619	0.34	-7.17959183673
1901	0.9505	2.06666666667	-13.719047619	1.8	-4.31428571429
1902	0.951	2.06666666667	-5.16666666667	-1.12	-7.17959183673
1903	0.9515	-3.75555555556	-3.74126984127	4.72	-7.17959183673
1904	0.952	-0.844444444444	-9.44285714286	3.26	-8.61224489796
1905	0.9525	-2.3	-10.8682539683	0.34	-2.88163265306
1906	0.953	-0.844444444444	-9.44285714286	-1.12	-2.88163265306
1907	0.9535	0.611111111111	-8.01746031746	1.8	-4.31428571429
1908	0.954	18.0777777778	-9.44285714286	0.34	-5.74693877551
1909	0.9545	0.611111111111	-10.8682539683	-2.58	-12.9102040816
1910	0.955	-0.844444444444	-8.01746031746	-8.42	-1.44897959184
1911	0.9555	-0.844444444444	-6.59206349206	-9.88	-2.88163265306
1912	0.956	0.611111111111	-9.44285714286	-1.12	-1.44897959184
1913	0.9565	-3.75555555556	-9.44285714286	-1.12	-1.44897959184
1914	0.957	-5.21111111111	-9.44285714286	1.8	-7.17959183673
1915	0.9575	-0.844444444444	-9.44285714286	-6.96	-4.31428571429
1916	0.958	0.611111111111	-6.59206349206	-2.58	-0.0163265306122
1917	0.9585	0.611111111111	9.0873015873	1.8	-2.88163265306
1918	0.959	-5.21111111111	9.0873015873	1.8	-0.0163265306122
1919	0.9595	-6.66666666667	-5.16666666667	0.34	-0.0163265306122
1920	0.96	-2.3	-3.74126984127	-1.12	14.3102040816
1921	0.9605	0.611111111111	-2.31587301587	-2.58	-0.0163265306122
1922	0.961	-0.844444444444	-0.890476190476	0.34	-1.44897959184
1923	0.9615	-2.3	-5.16666666667	0.34	-0.0163265306122
1924	0.962	-2.3	-2.31587301587	0.34	1.41632653061
1925	0.9625	0.611111111111	-2.31587301587	-1.12	14.3102040816
1926	0.963	-0.844444444444	-2.31587301587	16.4	2.84897959184
1927	0.9635	0.611111111111	-2.31587301587	14.94	-0.0163265306122
1928	0.964	0.611111111111	-15.1444444444	-1.12	-1.44897959184
1929	0.9645	0.611111111111	-3.74126984127	-1.12	-4.31428571429
1930	0.965	13.7111111111	-5.16666666667	-1.12	-2.88163265306
1931	0.9655	-2.3	-6.59206349206	1.8	-7.17959183673
1932	0.966	-0.844444444444	-6.59206349206	-5.5	-1.44897959184
1933	0.9665	-0.844444444444	-5.16666666667	0.34	-1.44897959184
1934	0.967	-0.844444444444	-10.8682539683	-1.12	-4.31428571429
1935	0.9675	-3.75555555556	-10.8682539683	-1.12	-0.0163265306122
1936	0.968	0.611111111111	-12.2936507937	1.8	11.4448979592
1937	0.9685	-0.844444444444	-10.8682539683	3.26	-5.74693877551
1938	0.969	-0.844444444444	-23.6968253968	-1.12	-0.0163265306122
1939	0.9695	0.611111111111	0.534920634921	-1.12	-1.44897959184
1940	0.97	-0.844444444444	-12.2936507937	0.34	-1.44897959184
1941	0.9705	-6.66666666667	-12.2936507937	3.26	5.71428571429
1942	0.971	-0.844444444444	-12.2936507937	1.8	4.28163265306
1943	0.9715	2.06666666667	-15.1444444444	-1.12	-0.0163265306122
1944	0.972	0.611111111111	-13.719047619	1.8	-0.0163265306122
1945	0.9725	3.52222222222	-13.719047619	-1.12	-0.0163265306122
1946	0.973	18.0777777778	-12.2936507937	-1.12	-10.0448979592
1947	0.9735	-2.3	-10.8682539683	3.26	-8.61224489796
1948	0.974	-0.844444444444	-10.8682539683	-8.42	2.84897959184
1949	0.9745	0.611111111111	-17.9952380952	0.34	2.84897959184
1950	0.975	0.611111111111	-17.9952380952	-1.12	2.84897959184
1951	0.9755	19.5333333333	-9.44285714286	1.8	-0.0163265306122
1952	0.976	-0.844444444444	-8.01746031746	-1.12	-5.74693877551
1953	0.9765	2.06666666667	-9.44285714286	-12.8	2.84897959184
1954	0.977	0.611111111111	-9.44285714286	-8.42	1.41632653061
1955	0.9775	-0.844444444444	7.6619047619	0.34	1.41632653061
1956	0.978	-5.21111111111	-6.59206349206	0.34	1.41632653061
1957	0.9785	-0.844444444444	-8.01746031746	0.34	4.28163265306
1958	0.979	0.611111111111	-6.59206349206	-5.5	7.14693877551
1959	0.9795	0.611111111111	-9.44285714286	0.34	-1.44897959184
1960	0.98	0.611111111111	-19.4206349206	3.26	-1.44897959184
1961	0.9805	0.611111111111	-10.8682539683	3.26	-1.44897959184
1962	0.981	15.1666666667	-9.44285714286	-2.58	-11.4775510204
1963	0.9815	-2.3	-9.44285714286	-1.12	-11.4775510204
1964	0.982	-2.3	-12.2936507937	-12.8	-2.88163265306
1965	0.9825	-2.3	-9.44285714286	-5.5	-1.44897959184
1966	0.983	2.06666666667	-17.9952380952	-1.12	-2.88163265306
1967	0.9835	3.52222222222	-9.44285714286	-1.12	-2.88163265306
1968	0.984	16.6222222222	-12.2936507937	0.34	-8.61224489796
1969	0.9845	-0.844444444444	-12.2936507937	-4.04	-7.17959183673
1970	0.985	0.611111111111	-10.8682539683	14.94	-1.44897959184
1971	0.9855	0.611111111111	-10.8682539683	-4.04	-1.44897959184
1972	0.986	0.611111111111	-10.8682539683	-1.12	-0.0163265306122
1973	0.9865	-5.21111111111	-12.2936507937	-1.12	-0.0163265306122
1974	0.987	0.611111111111	-10.8682539683	1.8	7.14693877551
1975	0.9875	2.06666666667	-10.8682539683	3.26	-2.88163265306
1976	0.988	-2.3	-13.719047619	0.34	-1.44897959184
1977	0.9885	2.06666666667	-20.846031746	1.8	1.41632653061
1978	0.989	3.52222222222	-20.846031746	0.34	-0.0163265306122
1979	0.9895	19.5333333333	-13.719047619	1.8	-0.0163265306122
1980	0.99	-0.844444444444	-13.719047619	4.72	-8.61224489796
1981	0.9905	2.06666666667	-12.2936507937	3.26	-1.44897959184
1982	0.991	2.06666666667	-10.8682539683	0.34	-0.0163265306122
1983	0.9915	0.611111111111	-16.5698412698	1.8	-0.0163265306122
1984	0.992	-8.12222222222	-13.719047619	0.34	-0.0163265306122
1985	0.9925	0.611111111111	-9.44285714286	4.72	14.3102040816
1986	0.993	-2.3	-6.59206349206	10.56	-1.44897959184
1987	0.9935	0.611111111111	-2.31587301587	1.8	-0.0163265306122
1988	0.994	0.611111111111	13.3634920635	0.34	-1.44897959184
1989	0.9945	-8.12222222222	-8.01746031746	3.26	-1.44897959184
1990	0.995	16.6222222222	-6.59206349206	0.34	-1.44897959184
1991	0.9955	-2.3	-5.16666666667	-4.04	-5.74693877551
1992	0.996	-0.844444444444	-2.31587301587	-2.58	-0.0163265306122
1993	0.9965	-2.3	6.23650793651	1.8	-1.44897959184
1994	0.997	-3.75555555556	-8.01746031746	1.8	2.84897959184
1995	0.9975	-15.4	-6.59206349206	-1.12	1.41632653061
1996	0.998	0.611111111111	-8.01746031746	4.72	-4.31428571429
1997	0.9985	-2.3	-8.01746031746	4.72	-4.31428571429
1998	0.999	-2.3	-19.4206349206	1.8	-1.44897959184
1999	0.9995	2.06666666667	3.38571428571	0.34	-0.0163265306122
2000	1.0	2.06666666667	-12.2936507937	0.34	-1.44897959184
2001	1.0005	-8.12222222222	-12.2936507937	0.34	14.3102040816
2002	1.001	-3.75555555556	-10.8682539683	4.72	15.7428571429
2003	1.0015	-2.3	-9.44285714286	17.86	-1.44897959184
2004	1.002	-2.3	-8.01746031746	1.8	-1.44897959184
2005	1.0025	-2.3	-17.9952380952	-1.12	-2.88163265306
2006	1.003	-3.75555555556	-17.9952380952	-1.12	-1.44897959184
2007	1.0035	7.88888888889	-10.8682539683	0.34	-1.44897959184
