	Time	Channel 1	Channel 2	Channel 3	Channel 4
0	0.0	-5.15	-7.8946969697	1.95	-8.51785714286
1	0.0005	0.65	-6.4803030303	20.6916666667	-4.26696428571
2	0.001	-5.15	-3.65151515152	1.95	-7.10089285714
3	0.0015	0.65	-12.1378787879	3.39166666667	-2.85
4	0.002	-0.8	-10.7234848485	4.83333333333	-8.51785714286
5	0.0025	2.1	0.591666666667	-8.14166666667	-7.10089285714
6	0.003	0.65	-13.5522727273	1.95	-5.68392857143
7	0.0035	-5.15	-16.3810606061	0.508333333333	-2.85
8	0.004	0.65	-14.9666666667	16.3666666667	-2.85
9	0.0045	-5.15	-14.9666666667	0.508333333333	-2.85
10	0.005	-2.25	-13.5522727273	-3.81666666667	-4.26696428571
11	0.0055	-3.7	-17.7954545455	-0.933333333333	-1.43303571429
12	0.006	-3.7	-12.1378787879	20.6916666667	-1.43303571429
13	0.0065	-2.25	-17.7954545455	1.95	1.40089285714
14	0.007	2.1	-17.7954545455	0.508333333333	-1.43303571429
15	0.0075	0.65	-6.4803030303	-0.933333333333	-2.85
16	0.008	15.15	-3.65151515152	0.508333333333	-5.68392857143
17	0.0085	-2.25	-0.822727272727	13.4833333333	-1.43303571429
18	0.009	-0.8	0.591666666667	1.95	-0.0160714285714
19	0.0095	2.1	4.83484848485	0.508333333333	-1.43303571429
20	0.01	0.65	-2.23712121212	-0.933333333333	1.40089285714
21	0.0105	-3.7	4.83484848485	0.508333333333	-1.43303571429
22	0.011	0.65	3.42045454545	1.95	-0.0160714285714
23	0.0115	-2.25	9.07803030303	3.39166666667	-7.10089285714
24	0.012	-0.8	9.07803030303	1.95	1.40089285714
25	0.0125	0.65	6.24924242424	-0.933333333333	-1.43303571429
26	0.013	0.65	9.07803030303	1.95	-1.43303571429
27	0.0135	5.0	6.24924242424	3.39166666667	-5.68392857143
28	0.014	-6.6	9.07803030303	1.95	-7.10089285714
29	0.0145	0.65	6.24924242424	7.71666666667	-2.85
30	0.015	0.65	0.591666666667	1.95	-4.26696428571
31	0.0155	0.65	9.07803030303	3.39166666667	-4.26696428571
32	0.016	3.55	-3.65151515152	0.508333333333	-5.68392857143
33	0.0165	0.65	0.591666666667	3.39166666667	-1.43303571429
34	0.017	-2.25	0.591666666667	-5.25833333333	-9.93482142857
35	0.0175	-0.8	-3.65151515152	-8.14166666667	-11.3517857143
36	0.018	-0.8	-2.23712121212	1.95	-7.10089285714
37	0.0185	-2.25	-9.30909090909	0.508333333333	-7.10089285714
38	0.019	-13.85	-5.06590909091	-0.933333333333	-5.68392857143
39	0.0195	-0.8	-9.30909090909	-0.933333333333	-4.26696428571
40	0.02	-0.8	-9.30909090909	1.95	-4.26696428571
41	0.0205	-5.15	-12.1378787879	-0.933333333333	-2.85
42	0.021	-2.25	-20.6242424242	3.39166666667	-4.26696428571
43	0.0215	-0.8	-10.7234848485	-0.933333333333	-1.43303571429
44	0.022	13.7	-9.30909090909	1.95	-1.43303571429
45	0.0225	-3.7	-10.7234848485	0.508333333333	-1.43303571429
46	0.023	-2.25	-7.8946969697	-6.7	-7.10089285714
47	0.0235	-2.25	-3.65151515152	-2.375	-0.0160714285714
48	0.024	-3.7	7.66363636364	-0.933333333333	-1.43303571429
49	0.0245	-2.25	-5.06590909091	0.508333333333	-0.0160714285714
50	0.025	-16.75	0.591666666667	1.95	1.40089285714
51	0.0255	-3.7	4.83484848485	7.71666666667	-4.26696428571
52	0.026	-0.8	4.83484848485	3.39166666667	-4.26696428571
53	0.0265	-0.8	6.24924242424	-6.7	-0.0160714285714
54	0.027	0.65	28.8795454545	0.508333333333	2.81785714286
55	0.0275	-2.25	27.4651515152	-0.933333333333	4.23482142857
56	0.028	-15.3	7.66363636364	3.39166666667	4.23482142857
57	0.0285	0.65	10.4924242424	3.39166666667	-7.10089285714
58	0.029	-0.8	10.4924242424	16.3666666667	1.40089285714
59	0.0295	-3.7	13.3212121212	19.25	-0.0160714285714
60	0.03	-0.8	-0.822727272727	0.508333333333	-2.85
61	0.0305	2.1	9.07803030303	0.508333333333	-4.26696428571
62	0.031	-13.85	9.07803030303	0.508333333333	-5.68392857143
63	0.0315	0.65	6.24924242424	1.95	-11.3517857143
64	0.032	-0.8	3.42045454545	1.95	-12.76875
65	0.0325	-0.8	-0.822727272727	-0.933333333333	-4.26696428571
66	0.033	-2.25	-7.8946969697	0.508333333333	-7.10089285714
67	0.0335	-5.15	-0.822727272727	0.508333333333	-5.68392857143
68	0.034	2.1	-7.8946969697	0.508333333333	-5.68392857143
69	0.0345	-3.7	-6.4803030303	0.508333333333	-12.76875
70	0.035	-2.25	-5.06590909091	-9.58333333333	-8.51785714286
71	0.0355	0.65	-6.4803030303	-0.933333333333	-7.10089285714
72	0.036	-2.25	-17.7954545455	-0.933333333333	-8.51785714286
73	0.0365	-2.25	-10.7234848485	1.95	-8.51785714286
74	0.037	10.8	-10.7234848485	3.39166666667	-5.68392857143
75	0.0375	-0.8	-13.5522727273	3.39166666667	-8.51785714286
76	0.038	-3.7	-9.30909090909	-2.375	-7.10089285714
77	0.0385	-3.7	-7.8946969697	-2.375	-4.26696428571
78	0.039	-0.8	-13.5522727273	3.39166666667	-4.26696428571
79	0.0395	2.1	-6.4803030303	-0.933333333333	-4.26696428571
80	0.04	-3.7	-5.06590909091	-0.933333333333	-14.1857142857
81	0.0405	-3.7	-0.822727272727	-11.025	-9.93482142857
82	0.041	0.65	0.591666666667	-9.58333333333	-4.26696428571
83	0.0415	-0.8	3.42045454545	0.508333333333	-2.85
84	0.042	-5.15	0.591666666667	1.95	-0.0160714285714
85	0.0425	-15.3	0.591666666667	0.508333333333	-1.43303571429
86	0.043	-9.5	3.42045454545	-0.933333333333	15.5705357143
87	0.0435	-0.8	4.83484848485	-9.58333333333	-1.43303571429
88	0.044	-2.25	9.07803030303	0.508333333333	-0.0160714285714
89	0.0445	-0.8	9.07803030303	3.39166666667	-0.0160714285714
90	0.045	-0.8	6.24924242424	1.95	-2.85
91	0.0455	-9.5	4.83484848485	-0.933333333333	-2.85
92	0.046	0.65	6.24924242424	4.83333333333	-9.93482142857
93	0.0465	-0.8	6.24924242424	17.8083333333	-4.26696428571
94	0.047	0.65	6.24924242424	16.3666666667	-2.85
95	0.0475	2.1	-2.23712121212	-0.933333333333	-4.26696428571
96	0.048	0.65	3.42045454545	-0.933333333333	-2.85
97	0.0485	18.05	3.42045454545	0.508333333333	-1.43303571429
98	0.049	-0.8	2.00606060606	0.508333333333	14.1535714286
99	0.0495	-0.8	0.591666666667	19.25	-5.68392857143
100	0.05	-2.25	0.591666666667	1.95	-5.68392857143
101	0.0505	2.1	-13.5522727273	1.95	-7.10089285714
102	0.051	3.55	-3.65151515152	1.95	-7.10089285714
103	0.0515	19.5	-9.30909090909	1.95	-8.51785714286
104	0.052	-2.25	-9.30909090909	-0.933333333333	-17.0196428571
105	0.0525	-0.8	-10.7234848485	-8.14166666667	-5.68392857143
106	0.053	-0.8	-10.7234848485	-5.25833333333	-8.51785714286
107	0.0535	-0.8	0.591666666667	0.508333333333	-4.26696428571
108	0.054	-13.85	-17.7954545455	1.95	-5.68392857143
109	0.0545	19.5	-14.9666666667	-0.933333333333	-5.68392857143
110	0.055	-3.7	-19.2098484848	-8.14166666667	-5.68392857143
111	0.0555	-2.25	-16.3810606061	-6.7	-4.26696428571
112	0.056	0.65	-20.6242424242	3.39166666667	-7.10089285714
113	0.0565	5.0	-22.0386363636	3.39166666667	-1.43303571429
114	0.057	-12.4	-19.2098484848	1.95	-1.43303571429
115	0.0575	-8.05	-13.5522727273	3.39166666667	1.40089285714
116	0.058	0.65	-12.1378787879	1.95	-9.93482142857
117	0.0585	-2.25	-13.5522727273	-6.7	-1.43303571429
118	0.059	0.65	-24.8674242424	0.508333333333	-2.85
119	0.0595	2.1	-9.30909090909	4.83333333333	-2.85
120	0.06	20.95	-9.30909090909	3.39166666667	-0.0160714285714
121	0.0605	-6.6	-7.8946969697	0.508333333333	-0.0160714285714
122	0.061	2.1	-3.65151515152	19.25	-4.26696428571
123	0.0615	0.65	-2.23712121212	1.95	-5.68392857143
124	0.062	-0.8	9.07803030303	1.95	-7.10089285714
125	0.0625	0.65	-3.65151515152	1.95	-5.68392857143
126	0.063	-2.25	-6.4803030303	0.508333333333	-8.51785714286
127	0.0635	0.65	-5.06590909091	3.39166666667	1.40089285714
128	0.064	3.55	-10.7234848485	12.0416666667	-12.76875
129	0.0645	0.65	-10.7234848485	1.95	-11.3517857143
130	0.065	0.65	-10.7234848485	0.508333333333	-8.51785714286
131	0.0655	-8.05	-19.2098484848	1.95	-8.51785714286
132	0.066	25.3	-20.6242424242	3.39166666667	-11.3517857143
133	0.0665	0.65	-23.453030303	0.508333333333	5.65178571429
134	0.067	0.65	-26.2818181818	19.25	-11.3517857143
135	0.0675	5.0	-27.6962121212	1.95	-11.3517857143
136	0.068	-2.25	-30.525	-0.933333333333	-11.3517857143
137	0.0685	-8.05	-33.3537878788	3.39166666667	-14.1857142857
138	0.069	-10.95	-34.7681818182	3.39166666667	-8.51785714286
139	0.0695	0.65	-36.1825757576	0.508333333333	-18.4366071429
140	0.07	0.65	-39.0113636364	1.95	-8.51785714286
141	0.0705	-2.25	-44.6689393939	0.508333333333	-7.10089285714
142	0.071	3.55	-48.9121212121	0.508333333333	-5.68392857143
143	0.0715	2.1	-34.7681818182	-0.933333333333	-5.68392857143
144	0.072	-0.8	-36.1825757576	-2.375	-12.76875
145	0.0725	-3.7	-33.3537878788	-9.58333333333	-0.0160714285714
146	0.073	-0.8	-33.3537878788	-8.14166666667	-0.0160714285714
147	0.0735	-0.8	-24.8674242424	-11.025	1.40089285714
148	0.074	-0.8	-3.65151515152	0.508333333333	2.81785714286
149	0.0745	-12.4	-16.3810606061	0.508333333333	5.65178571429
150	0.075	-10.95	-16.3810606061	0.508333333333	8.48571428571
151	0.0755	-0.8	-10.7234848485	14.925	2.81785714286
152	0.076	-3.7	-6.4803030303	0.508333333333	4.23482142857
153	0.0765	-3.7	-19.2098484848	-0.933333333333	5.65178571429
154	0.077	-2.25	-12.1378787879	-0.933333333333	8.48571428571
155	0.0775	18.05	-0.822727272727	-0.933333333333	7.06875
156	0.078	-2.25	-0.822727272727	-0.933333333333	-0.0160714285714
157	0.0785	-2.25	0.591666666667	-0.933333333333	1.40089285714
158	0.079	-5.15	4.83484848485	-5.25833333333	5.65178571429
159	0.0795	-2.25	23.221969697	0.508333333333	5.65178571429
160	0.08	-5.15	-2.23712121212	-0.933333333333	5.65178571429
161	0.0805	16.6	4.83484848485	1.95	-4.26696428571
162	0.081	-3.7	3.42045454545	4.83333333333	-4.26696428571
163	0.0815	-2.25	4.83484848485	3.39166666667	-7.10089285714
164	0.082	0.65	0.591666666667	-6.7	-1.43303571429
165	0.0825	-2.25	17.5643939394	0.508333333333	-1.43303571429
166	0.083	-6.6	13.3212121212	-0.933333333333	-4.26696428571
167	0.0835	-15.3	-5.06590909091	3.39166666667	-2.85
168	0.084	-2.25	-6.4803030303	3.39166666667	-12.76875
169	0.0845	-2.25	-5.06590909091	-8.14166666667	-12.76875
170	0.085	-0.8	-6.4803030303	-6.7	-7.10089285714
171	0.0855	-0.8	7.66363636364	-0.933333333333	-5.68392857143
172	0.086	-3.7	-5.06590909091	0.508333333333	-4.26696428571
173	0.0865	-13.85	-7.8946969697	3.39166666667	-8.51785714286
174	0.087	-5.15	-9.30909090909	0.508333333333	5.65178571429
175	0.0875	-3.7	-7.8946969697	3.39166666667	-8.51785714286
176	0.088	-5.15	-7.8946969697	14.925	-8.51785714286
177	0.0885	-5.15	-10.7234848485	-0.933333333333	-9.93482142857
178	0.089	-13.85	-6.4803030303	3.39166666667	-9.93482142857
179	0.0895	-9.5	-2.23712121212	0.508333333333	-9.93482142857
180	0.09	-5.15	-2.23712121212	-9.58333333333	-9.93482142857
181	0.0905	-6.6	-5.06590909091	-9.58333333333	-7.10089285714
182	0.091	-2.25	-5.06590909091	0.508333333333	-4.26696428571
183	0.0915	-0.8	-3.65151515152	-0.933333333333	-2.85
184	0.092	-8.05	2.00606060606	0.508333333333	-1.43303571429
185	0.0925	-6.6	4.83484848485	1.95	-8.51785714286
186	0.093	-2.25	6.24924242424	9.15833333333	-1.43303571429
187	0.0935	-3.7	3.42045454545	-0.933333333333	-1.43303571429
188	0.094	0.65	-0.822727272727	0.508333333333	-0.0160714285714
189	0.0945	2.1	9.07803030303	-0.933333333333	-1.43303571429
190	0.095	-0.8	7.66363636364	0.508333333333	-1.43303571429
191	0.0955	-8.05	9.07803030303	0.508333333333	15.5705357143
192	0.096	-0.8	9.07803030303	-3.81666666667	-2.85
193	0.0965	0.65	10.4924242424	-5.25833333333	-4.26696428571
194	0.097	0.65	26.0507575758	0.508333333333	-4.26696428571
195	0.0975	-2.25	6.24924242424	0.508333333333	-2.85
196	0.098	-8.05	6.24924242424	1.95	-2.85
197	0.0985	-9.5	2.00606060606	0.508333333333	-4.26696428571
198	0.099	0.65	0.591666666667	13.4833333333	-5.68392857143
199	0.0995	-2.25	-2.23712121212	1.95	-5.68392857143
200	0.1	-2.25	-2.23712121212	3.39166666667	-7.10089285714
201	0.1005	-12.4	-5.06590909091	4.83333333333	-2.85
202	0.101	-3.7	-5.06590909091	3.39166666667	1.40089285714
203	0.1015	-2.25	-7.8946969697	4.83333333333	2.81785714286
204	0.102	-2.25	-10.7234848485	4.83333333333	-5.68392857143
205	0.1025	-0.8	-22.0386363636	1.95	-7.10089285714
206	0.103	-0.8	0.591666666667	4.83333333333	-4.26696428571
207	0.1035	5.0	-13.5522727273	-0.933333333333	-1.43303571429
208	0.104	-12.4	-14.9666666667	3.39166666667	-1.43303571429
209	0.1045	-0.8	-16.3810606061	4.83333333333	11.3196428571
210	0.105	-2.25	-13.5522727273	17.8083333333	-1.43303571429
211	0.1055	-3.7	-14.9666666667	0.508333333333	-1.43303571429
212	0.106	-0.8	-16.3810606061	1.95	-2.85
213	0.1065	-3.7	-12.1378787879	0.508333333333	-1.43303571429
214	0.107	2.1	-9.30909090909	-2.375	-0.0160714285714
215	0.1075	-0.8	-7.8946969697	-0.933333333333	1.40089285714
216	0.108	-2.25	-3.65151515152	-2.375	-1.43303571429
217	0.1085	0.65	-13.5522727273	-2.375	-0.0160714285714
218	0.109	-2.25	-3.65151515152	0.508333333333	-1.43303571429
219	0.1095	15.15	-0.822727272727	0.508333333333	-2.85
220	0.11	0.65	-0.822727272727	-0.933333333333	-2.85
221	0.1105	-0.8	3.42045454545	-9.58333333333	-1.43303571429
222	0.111	0.65	6.24924242424	0.508333333333	-0.0160714285714
223	0.1115	-0.8	6.24924242424	0.508333333333	-0.0160714285714
224	0.112	0.65	2.00606060606	0.508333333333	-0.0160714285714
225	0.1125	-0.8	6.24924242424	0.508333333333	1.40089285714
226	0.113	-3.7	4.83484848485	1.95	-4.26696428571
227	0.1135	-0.8	10.4924242424	-3.81666666667	-1.43303571429
228	0.114	-0.8	9.07803030303	12.0416666667	-4.26696428571
229	0.1145	0.65	6.24924242424	-0.933333333333	-1.43303571429
230	0.115	0.65	0.591666666667	3.39166666667	-1.43303571429
231	0.1155	-0.8	3.42045454545	1.95	-4.26696428571
232	0.116	2.1	4.83484848485	1.95	-9.93482142857
233	0.1165	2.1	2.00606060606	-3.81666666667	-4.26696428571
234	0.117	-0.8	0.591666666667	-8.14166666667	-4.26696428571
235	0.1175	0.65	-6.4803030303	1.95	-5.68392857143
236	0.118	-2.25	-2.23712121212	-0.933333333333	-4.26696428571
237	0.1185	0.65	-3.65151515152	3.39166666667	-11.3517857143
238	0.119	-5.15	-7.8946969697	3.39166666667	-5.68392857143
239	0.1195	-2.25	-6.4803030303	17.8083333333	-5.68392857143
240	0.12	-3.7	-5.06590909091	3.39166666667	-5.68392857143
241	0.1205	-3.7	-16.3810606061	0.508333333333	-1.43303571429
242	0.121	-0.8	-3.65151515152	-0.933333333333	-7.10089285714
243	0.1215	13.7	-0.822727272727	1.95	-9.93482142857
244	0.122	-0.8	-2.23712121212	3.39166666667	-9.93482142857
245	0.1225	-2.25	-0.822727272727	12.0416666667	-5.68392857143
246	0.123	-3.7	-9.30909090909	-0.933333333333	-4.26696428571
247	0.1235	-2.25	-2.23712121212	0.508333333333	-7.10089285714
248	0.124	2.1	4.83484848485	-0.933333333333	-2.85
249	0.1245	18.05	3.42045454545	6.275	-11.3517857143
250	0.125	-0.8	4.83484848485	-11.025	-9.93482142857
251	0.1255	-2.25	6.24924242424	-3.81666666667	-1.43303571429
252	0.126	-3.7	0.591666666667	-0.933333333333	-2.85
253	0.1265	0.65	3.42045454545	3.39166666667	-0.0160714285714
254	0.127	-8.05	14.7356060606	0.508333333333	-0.0160714285714
255	0.1275	0.65	11.9068181818	4.83333333333	4.23482142857
256	0.128	-2.25	10.4924242424	0.508333333333	4.23482142857
257	0.1285	-0.8	9.07803030303	3.39166666667	-1.43303571429
258	0.129	0.65	26.0507575758	0.508333333333	-0.0160714285714
259	0.1295	-3.7	13.3212121212	1.95	-0.0160714285714
260	0.13	-10.95	10.4924242424	-0.933333333333	-1.43303571429
261	0.1305	0.65	13.3212121212	3.39166666667	15.5705357143
262	0.131	0.65	11.9068181818	19.25	-2.85
263	0.1315	0.65	7.66363636364	-2.375	-4.26696428571
264	0.132	2.1	2.00606060606	0.508333333333	-4.26696428571
265	0.1325	-2.25	-2.23712121212	1.95	-2.85
266	0.133	16.6	2.00606060606	3.39166666667	-11.3517857143
267	0.1335	-0.8	-0.822727272727	3.39166666667	-11.3517857143
268	0.134	-2.25	-0.822727272727	-3.81666666667	-4.26696428571
269	0.1345	-5.15	0.591666666667	0.508333333333	-1.43303571429
270	0.135	-2.25	-9.30909090909	-0.933333333333	-0.0160714285714
271	0.1355	-10.95	-6.4803030303	0.508333333333	-1.43303571429
272	0.136	-0.8	-9.30909090909	4.83333333333	-9.93482142857
273	0.1365	-2.25	-9.30909090909	19.25	-7.10089285714
274	0.137	-2.25	-12.1378787879	17.8083333333	-5.68392857143
275	0.1375	-5.15	-16.3810606061	1.95	-4.26696428571
276	0.138	0.65	-9.30909090909	0.508333333333	-4.26696428571
277	0.1385	-5.15	-9.30909090909	0.508333333333	-4.26696428571
278	0.139	-6.6	-7.8946969697	3.39166666667	-2.85
279	0.1395	-0.8	-6.4803030303	-0.933333333333	-8.51785714286
280	0.14	0.65	-2.23712121212	-5.25833333333	-2.85
281	0.1405	-2.25	-2.23712121212	0.508333333333	-0.0160714285714
282	0.141	-6.6	0.591666666667	3.39166666667	-0.0160714285714
283	0.1415	7.9	4.83484848485	3.39166666667	-4.26696428571
284	0.142	-6.6	7.66363636364	1.95	-4.26696428571
285	0.1425	-0.8	4.83484848485	0.508333333333	-1.43303571429
286	0.143	-2.25	0.591666666667	0.508333333333	-2.85
287	0.1435	3.55	26.0507575758	0.508333333333	-0.0160714285714
288	0.144	0.65	10.4924242424	0.508333333333	1.40089285714
289	0.1445	-5.15	18.9787878788	-0.933333333333	2.81785714286
290	0.145	0.65	17.5643939394	-2.375	-1.43303571429
291	0.1455	-2.25	20.3931818182	3.39166666667	-5.68392857143
292	0.146	-2.25	9.07803030303	-6.7	-1.43303571429
293	0.1465	3.55	17.5643939394	-0.933333333333	-1.43303571429
294	0.147	5.0	17.5643939394	-0.933333333333	-1.43303571429
295	0.1475	-2.25	14.7356060606	0.508333333333	-1.43303571429
296	0.148	0.65	13.3212121212	-8.14166666667	-5.68392857143
297	0.1485	0.65	9.07803030303	-6.7	-4.26696428571
298	0.149	3.55	24.6363636364	0.508333333333	-2.85
299	0.1495	-0.8	4.83484848485	0.508333333333	-1.43303571429
300	0.15	-9.5	0.591666666667	0.508333333333	-1.43303571429
301	0.1505	-0.8	-0.822727272727	-0.933333333333	-1.43303571429
302	0.151	-0.8	-3.65151515152	-0.933333333333	11.3196428571
303	0.1515	-0.8	-5.06590909091	-3.81666666667	-1.43303571429
304	0.152	-0.8	-5.06590909091	-8.14166666667	-4.26696428571
305	0.1525	0.65	3.42045454545	-0.933333333333	-4.26696428571
306	0.153	-5.15	-10.7234848485	0.508333333333	-5.68392857143
307	0.1535	10.8	-13.5522727273	-0.933333333333	-7.10089285714
308	0.154	-0.8	-12.1378787879	0.508333333333	-4.26696428571
309	0.1545	-0.8	-9.30909090909	-3.81666666667	-1.43303571429
310	0.155	-0.8	-3.65151515152	3.39166666667	-1.43303571429
311	0.1555	-0.8	-12.1378787879	-0.933333333333	-1.43303571429
312	0.156	12.25	-10.7234848485	0.508333333333	-1.43303571429
313	0.1565	-3.7	-10.7234848485	3.39166666667	-4.26696428571
314	0.157	0.65	-9.30909090909	16.3666666667	-2.85
315	0.1575	-0.8	-7.8946969697	19.25	-1.43303571429
316	0.158	-0.8	-13.5522727273	0.508333333333	-0.0160714285714
317	0.1585	2.1	-2.23712121212	0.508333333333	-2.85
318	0.159	19.5	0.591666666667	3.39166666667	-2.85
319	0.1595	-0.8	0.591666666667	-2.375	15.5705357143
320	0.16	0.65	3.42045454545	-6.7	-0.0160714285714
321	0.1605	0.65	9.07803030303	1.95	-1.43303571429
322	0.161	2.1	7.66363636364	1.95	2.81785714286
323	0.1615	2.1	6.24924242424	3.39166666667	2.81785714286
324	0.162	-6.6	6.24924242424	3.39166666667	-2.85
325	0.1625	5.0	4.83484848485	-5.25833333333	-2.85
326	0.163	0.65	6.24924242424	6.275	-1.43303571429
327	0.1635	0.65	0.591666666667	3.39166666667	-0.0160714285714
328	0.164	3.55	4.83484848485	0.508333333333	-4.26696428571
329	0.1645	-12.4	3.42045454545	0.508333333333	1.40089285714
330	0.165	-5.15	2.00606060606	-0.933333333333	12.7366071429
331	0.1655	-2.25	2.00606060606	-0.933333333333	12.7366071429
332	0.166	0.65	2.00606060606	0.508333333333	-1.43303571429
333	0.1665	0.65	14.7356060606	-0.933333333333	-2.85
334	0.167	-0.8	-16.3810606061	0.508333333333	-2.85
335	0.1675	19.5	-7.8946969697	-0.933333333333	-2.85
336	0.168	-0.8	-7.8946969697	0.508333333333	-9.93482142857
337	0.1685	-0.8	-7.8946969697	-0.933333333333	-0.0160714285714
338	0.169	-0.8	-7.8946969697	-6.7	-1.43303571429
339	0.1695	-0.8	-6.4803030303	-0.933333333333	-5.68392857143
340	0.17	2.1	-6.4803030303	0.508333333333	-5.68392857143
341	0.1705	2.1	-13.5522727273	1.95	-15.6026785714
342	0.171	-0.8	-13.5522727273	-6.7	-4.26696428571
343	0.1715	-0.8	-13.5522727273	0.508333333333	-4.26696428571
344	0.172	-2.25	-22.0386363636	-0.933333333333	-2.85
345	0.1725	-0.8	-13.5522727273	3.39166666667	-2.85
346	0.173	15.15	-10.7234848485	1.95	-4.26696428571
347	0.1735	-3.7	-5.06590909091	1.95	-1.43303571429
348	0.174	-2.25	-2.23712121212	-0.933333333333	5.65178571429
349	0.1745	-0.8	-0.822727272727	-3.81666666667	-5.68392857143
350	0.175	-3.7	-2.23712121212	-0.933333333333	-1.43303571429
351	0.1755	0.65	13.3212121212	0.508333333333	-1.43303571429
352	0.176	-3.7	4.83484848485	1.95	1.40089285714
353	0.1765	-10.95	4.83484848485	0.508333333333	16.9875
354	0.177	-0.8	7.66363636364	1.95	-1.43303571429
355	0.1775	-0.8	10.4924242424	16.3666666667	-1.43303571429
356	0.178	-0.8	2.00606060606	0.508333333333	-1.43303571429
357	0.1785	-0.8	0.591666666667	0.508333333333	1.40089285714
358	0.179	-0.8	9.07803030303	0.508333333333	-0.0160714285714
359	0.1795	0.65	9.07803030303	0.508333333333	-2.85
360	0.18	3.55	10.4924242424	-0.933333333333	-5.68392857143
361	0.1805	-0.8	13.3212121212	-6.7	-0.0160714285714
362	0.181	2.1	17.5643939394	1.95	-1.43303571429
363	0.1815	3.55	9.07803030303	1.95	-2.85
364	0.182	13.7	9.07803030303	4.83333333333	-11.3517857143
365	0.1825	-3.7	7.66363636364	3.39166666667	-12.76875
366	0.183	0.65	4.83484848485	-3.81666666667	-4.26696428571
367	0.1835	0.65	6.24924242424	0.508333333333	-5.68392857143
368	0.184	0.65	13.3212121212	0.508333333333	-5.68392857143
369	0.1845	-5.15	-0.822727272727	0.508333333333	-2.85
370	0.185	-6.6	-0.822727272727	3.39166666667	-0.0160714285714
371	0.1855	0.65	-2.23712121212	3.39166666667	-5.68392857143
372	0.186	-2.25	-5.06590909091	16.3666666667	-5.68392857143
373	0.1865	0.65	-3.65151515152	0.508333333333	-7.10089285714
374	0.187	0.65	10.4924242424	0.508333333333	-1.43303571429
375	0.1875	-10.95	-6.4803030303	-0.933333333333	-2.85
376	0.188	15.15	-3.65151515152	1.95	-5.68392857143
377	0.1885	-2.25	-5.06590909091	1.95	9.90267857143
378	0.189	-0.8	-5.06590909091	-3.81666666667	-1.43303571429
379	0.1895	-2.25	-10.7234848485	3.39166666667	-2.85
380	0.19	-2.25	0.591666666667	1.95	-0.0160714285714
381	0.1905	13.7	0.591666666667	3.39166666667	-8.51785714286
382	0.191	-3.7	0.591666666667	4.83333333333	-4.26696428571
383	0.1915	-0.8	4.83484848485	16.3666666667	1.40089285714
384	0.192	-2.25	6.24924242424	22.1333333333	-1.43303571429
385	0.1925	0.65	-2.23712121212	3.39166666667	-1.43303571429
386	0.193	0.65	10.4924242424	3.39166666667	-0.0160714285714
387	0.1935	-8.05	13.3212121212	1.95	1.40089285714
388	0.194	-8.05	14.7356060606	0.508333333333	1.40089285714
389	0.1945	-2.25	14.7356060606	1.95	-0.0160714285714
390	0.195	-0.8	21.8075757576	0.508333333333	-1.43303571429
391	0.1955	-0.8	30.2939393939	-0.933333333333	-1.43303571429
392	0.196	-2.25	17.5643939394	0.508333333333	-1.43303571429
393	0.1965	-9.5	17.5643939394	4.83333333333	-1.43303571429
394	0.197	-0.8	16.15	0.508333333333	14.1535714286
395	0.1975	2.1	10.4924242424	16.3666666667	-2.85
396	0.198	0.65	14.7356060606	0.508333333333	-2.85
397	0.1985	0.65	6.24924242424	4.83333333333	1.40089285714
398	0.199	-6.6	9.07803030303	0.508333333333	-4.26696428571
399	0.1995	0.65	4.83484848485	1.95	-11.3517857143
400	0.2	-0.8	2.00606060606	-8.14166666667	-5.68392857143
401	0.2005	0.65	3.42045454545	-11.025	-4.26696428571
402	0.201	2.1	3.42045454545	-0.933333333333	-7.10089285714
403	0.2015	-5.15	0.591666666667	0.508333333333	-4.26696428571
404	0.202	-10.95	-2.23712121212	0.508333333333	-1.43303571429
405	0.2025	-10.95	-2.23712121212	0.508333333333	-1.43303571429
406	0.203	-2.25	-5.06590909091	16.3666666667	-4.26696428571
407	0.2035	-2.25	-3.65151515152	17.8083333333	-4.26696428571
408	0.204	-3.7	-14.9666666667	0.508333333333	-2.85
409	0.2045	0.65	-14.9666666667	0.508333333333	-2.85
410	0.205	18.05	-3.65151515152	-2.375	-8.51785714286
411	0.2055	-3.7	-3.65151515152	-2.375	-7.10089285714
412	0.206	-0.8	-3.65151515152	-11.025	-2.85
413	0.2065	-2.25	-2.23712121212	4.83333333333	-4.26696428571
414	0.207	-0.8	9.07803030303	0.508333333333	-4.26696428571
415	0.2075	-2.25	0.591666666667	-0.933333333333	-2.85
416	0.208	-2.25	6.24924242424	-0.933333333333	-4.26696428571
417	0.2085	18.05	9.07803030303	1.95	-9.93482142857
418	0.209	-0.8	13.3212121212	-5.25833333333	-9.93482142857
419	0.2095	-0.8	13.3212121212	-8.14166666667	-1.43303571429
420	0.21	-0.8	4.83484848485	-0.933333333333	-1.43303571429
421	0.2105	-0.8	27.4651515152	1.95	1.40089285714
422	0.211	-5.15	16.15	0.508333333333	1.40089285714
423	0.2115	-8.05	14.7356060606	0.508333333333	1.40089285714
424	0.212	0.65	16.15	-8.14166666667	-1.43303571429
425	0.2125	-0.8	17.5643939394	-8.14166666667	-0.0160714285714
426	0.213	2.1	30.2939393939	1.95	-1.43303571429
427	0.2135	-0.8	4.83484848485	0.508333333333	-1.43303571429
428	0.214	-5.15	16.15	3.39166666667	-2.85
429	0.2145	0.65	13.3212121212	0.508333333333	-8.51785714286
430	0.215	0.65	10.4924242424	-0.933333333333	-7.10089285714
431	0.2155	3.55	7.66363636364	4.83333333333	-1.43303571429
432	0.216	2.1	9.07803030303	1.95	-4.26696428571
433	0.2165	5.0	0.591666666667	0.508333333333	-2.85
434	0.217	15.15	0.591666666667	3.39166666667	-7.10089285714
435	0.2175	-2.25	-3.65151515152	-0.933333333333	2.81785714286
436	0.218	0.65	-0.822727272727	19.25	-7.10089285714
437	0.2185	-0.8	-0.822727272727	-0.933333333333	-2.85
438	0.219	-2.25	6.24924242424	-0.933333333333	-2.85
439	0.2195	-3.7	-10.7234848485	0.508333333333	-7.10089285714
440	0.22	-12.4	-10.7234848485	1.95	-11.3517857143
441	0.2205	-0.8	-10.7234848485	4.83333333333	-9.93482142857
442	0.221	-3.7	-9.30909090909	14.925	-1.43303571429
443	0.2215	-0.8	-14.9666666667	-0.933333333333	-4.26696428571
444	0.222	0.65	0.591666666667	1.95	-2.85
445	0.2225	-0.8	-9.30909090909	-0.933333333333	-0.0160714285714
446	0.223	-9.5	-10.7234848485	1.95	-0.0160714285714
447	0.2235	0.65	-9.30909090909	4.83333333333	-0.0160714285714
448	0.224	-2.25	-5.06590909091	20.6916666667	-1.43303571429
449	0.2245	-2.25	-9.30909090909	17.8083333333	-1.43303571429
450	0.225	0.65	-12.1378787879	-0.933333333333	-1.43303571429
451	0.2255	-0.8	-10.7234848485	-0.933333333333	-0.0160714285714
452	0.226	15.15	-0.822727272727	0.508333333333	-1.43303571429
453	0.2265	0.65	2.00606060606	-0.933333333333	1.40089285714
454	0.227	2.1	3.42045454545	-0.933333333333	-0.0160714285714
455	0.2275	-0.8	-5.06590909091	3.39166666667	1.40089285714
456	0.228	2.1	2.00606060606	1.95	2.81785714286
457	0.2285	-13.85	2.00606060606	-0.933333333333	4.23482142857
458	0.229	-3.7	2.00606060606	-0.933333333333	8.48571428571
459	0.2295	-0.8	4.83484848485	-8.14166666667	-2.85
460	0.23	0.65	6.24924242424	1.95	-1.43303571429
461	0.2305	-0.8	20.3931818182	0.508333333333	-2.85
462	0.231	0.65	0.591666666667	0.508333333333	-1.43303571429
463	0.2315	-12.4	-0.822727272727	-0.933333333333	1.40089285714
464	0.232	0.65	0.591666666667	3.39166666667	-9.93482142857
465	0.2325	-0.8	-5.06590909091	20.6916666667	-4.26696428571
466	0.233	0.65	-7.8946969697	20.6916666667	-1.43303571429
467	0.2335	0.65	-16.3810606061	3.39166666667	-0.0160714285714
468	0.234	-0.8	-12.1378787879	1.95	-2.85
469	0.2345	-6.6	-12.1378787879	1.95	-7.10089285714
470	0.235	-8.05	-13.5522727273	-0.933333333333	4.23482142857
471	0.2355	0.65	-17.7954545455	4.83333333333	-1.43303571429
472	0.236	0.65	-26.2818181818	1.95	-4.26696428571
473	0.2365	0.65	-16.3810606061	1.95	-4.26696428571
474	0.237	-9.5	-24.8674242424	0.508333333333	-2.85
475	0.2375	0.65	-16.3810606061	0.508333333333	-0.0160714285714
476	0.238	-2.25	-14.9666666667	-8.14166666667	-9.93482142857
477	0.2385	-2.25	-13.5522727273	-6.7	-9.93482142857
478	0.239	-0.8	0.591666666667	-0.933333333333	-4.26696428571
479	0.2395	-8.05	-13.5522727273	-0.933333333333	-2.85
480	0.24	-13.85	-10.7234848485	-0.933333333333	2.81785714286
481	0.2405	-10.95	-10.7234848485	3.39166666667	-11.3517857143
482	0.241	-0.8	-9.30909090909	-6.7	-8.51785714286
483	0.2415	-0.8	-9.30909090909	-9.58333333333	-0.0160714285714
484	0.242	-2.25	-12.1378787879	0.508333333333	-1.43303571429
485	0.2425	-0.8	-2.23712121212	-0.933333333333	-0.0160714285714
486	0.243	-10.95	-2.23712121212	1.95	1.40089285714
487	0.2435	-9.5	2.00606060606	3.39166666667	2.81785714286
488	0.244	0.65	3.42045454545	17.8083333333	-0.0160714285714
489	0.2445	-0.8	3.42045454545	14.925	1.40089285714
490	0.245	2.1	-3.65151515152	0.508333333333	-0.0160714285714
491	0.2455	0.65	4.83484848485	0.508333333333	-1.43303571429
492	0.246	23.85	6.24924242424	1.95	-9.93482142857
493	0.2465	0.65	7.66363636364	0.508333333333	-12.76875
494	0.247	-0.8	7.66363636364	-12.4666666667	-4.26696428571
495	0.2475	-2.25	7.66363636364	-6.7	-2.85
496	0.248	0.65	21.8075757576	0.508333333333	-0.0160714285714
497	0.2485	-0.8	21.8075757576	0.508333333333	-4.26696428571
498	0.249	-8.05	2.00606060606	1.95	-5.68392857143
499	0.2495	-2.25	-0.822727272727	-0.933333333333	-2.85
500	0.25	-0.8	-2.23712121212	13.4833333333	-8.51785714286
501	0.2505	-0.8	-16.3810606061	-0.933333333333	-2.85
502	0.251	-0.8	-10.7234848485	0.508333333333	-4.26696428571
503	0.2515	3.55	-9.30909090909	1.95	-4.26696428571
504	0.252	-3.7	-7.8946969697	-0.933333333333	-14.1857142857
505	0.2525	-0.8	-10.7234848485	0.508333333333	-11.3517857143
506	0.253	-3.7	-14.9666666667	-6.7	-4.26696428571
507	0.2535	-2.25	-9.30909090909	0.508333333333	-1.43303571429
508	0.254	-0.8	-19.2098484848	0.508333333333	-0.0160714285714
509	0.2545	13.7	-19.2098484848	1.95	1.40089285714
510	0.255	-0.8	-16.3810606061	4.83333333333	12.7366071429
511	0.2555	-5.15	-16.3810606061	3.39166666667	-4.26696428571
512	0.256	-3.7	-17.7954545455	19.25	-4.26696428571
513	0.2565	0.65	-20.6242424242	1.95	-2.85
514	0.257	-8.05	-12.1378787879	-0.933333333333	-2.85
515	0.2575	-0.8	-12.1378787879	1.95	2.81785714286
516	0.258	-2.25	-7.8946969697	3.39166666667	2.81785714286
517	0.2585	-0.8	-6.4803030303	1.95	-8.51785714286
518	0.259	-2.25	-6.4803030303	-0.933333333333	-4.26696428571
519	0.2595	2.1	-3.65151515152	0.508333333333	-2.85
520	0.26	5.0	2.00606060606	3.39166666667	-1.43303571429
521	0.2605	0.65	4.83484848485	3.39166666667	2.81785714286
522	0.261	2.1	2.00606060606	-12.4666666667	-1.43303571429
523	0.2615	-0.8	6.24924242424	-6.7	-0.0160714285714
524	0.262	0.65	10.4924242424	1.95	-0.0160714285714
525	0.2625	-0.8	4.83484848485	0.508333333333	-0.0160714285714
526	0.263	-3.7	6.24924242424	1.95	-0.0160714285714
527	0.2635	-5.15	2.00606060606	0.508333333333	-0.0160714285714
528	0.264	0.65	7.66363636364	4.83333333333	-8.51785714286
529	0.2645	0.65	3.42045454545	-3.81666666667	-0.0160714285714
530	0.265	-0.8	2.00606060606	0.508333333333	1.40089285714
531	0.2655	0.65	-6.4803030303	-0.933333333333	-1.43303571429
532	0.266	7.9	-5.06590909091	-0.933333333333	-1.43303571429
533	0.2665	0.65	-6.4803030303	0.508333333333	7.06875
534	0.267	-2.25	-7.8946969697	0.508333333333	7.06875
535	0.2675	-3.7	-13.5522727273	1.95	-1.43303571429
536	0.268	-0.8	-7.8946969697	0.508333333333	-2.85
537	0.2685	-0.8	-22.0386363636	-0.933333333333	-0.0160714285714
538	0.269	2.1	-16.3810606061	3.39166666667	1.40089285714
539	0.2695	-0.8	-19.2098484848	1.95	-4.26696428571
540	0.27	-2.25	-19.2098484848	12.0416666667	-2.85
541	0.2705	-2.25	-17.7954545455	-3.81666666667	-4.26696428571
542	0.271	-0.8	-6.4803030303	-0.933333333333	-1.43303571429
543	0.2715	-13.85	-22.0386363636	0.508333333333	-4.26696428571
544	0.272	16.6	-22.0386363636	0.508333333333	-1.43303571429
545	0.2725	-0.8	-19.2098484848	-2.375	-9.93482142857
546	0.273	-3.7	-16.3810606061	-12.4666666667	-1.43303571429
547	0.2735	-2.25	-10.7234848485	0.508333333333	-1.43303571429
548	0.274	-5.15	-22.0386363636	1.95	-1.43303571429
549	0.2745	3.55	-10.7234848485	0.508333333333	-2.85
550	0.275	19.5	-6.4803030303	0.508333333333	-12.76875
551	0.2755	-0.8	-5.06590909091	3.39166666667	-11.3517857143
552	0.276	0.65	-5.06590909091	-8.14166666667	-0.0160714285714
553	0.2765	-2.25	0.591666666667	-6.7	-0.0160714285714
554	0.277	-0.8	2.00606060606	1.95	1.40089285714
555	0.2775	-9.5	-0.822727272727	0.508333333333	4.23482142857
556	0.278	-8.05	2.00606060606	3.39166666667	1.40089285714
557	0.2785	-0.8	2.00606060606	-0.933333333333	-7.10089285714
558	0.279	0.65	3.42045454545	-5.25833333333	-0.0160714285714
559	0.2795	0.65	7.66363636364	-0.933333333333	-0.0160714285714
560	0.28	-0.8	-0.822727272727	1.95	-1.43303571429
561	0.2805	-9.5	3.42045454545	0.508333333333	-0.0160714285714
562	0.281	-0.8	0.591666666667	4.83333333333	-5.68392857143
563	0.2815	0.65	2.00606060606	9.15833333333	-0.0160714285714
564	0.282	0.65	2.00606060606	-2.375	-1.43303571429
565	0.2825	-0.8	0.591666666667	-3.81666666667	-5.68392857143
566	0.283	5.0	-2.23712121212	-0.933333333333	-5.68392857143
567	0.2835	3.55	0.591666666667	0.508333333333	-2.85
568	0.284	-9.5	-0.822727272727	-0.933333333333	-7.10089285714
569	0.2845	0.65	-3.65151515152	13.4833333333	-2.85
570	0.285	0.65	-6.4803030303	14.925	-2.85
571	0.2855	-0.8	-16.3810606061	0.508333333333	-4.26696428571
572	0.286	-2.25	-16.3810606061	0.508333333333	-2.85
573	0.2865	16.6	-10.7234848485	1.95	-14.1857142857
574	0.287	-5.15	-12.1378787879	6.275	-12.76875
575	0.2875	-5.15	-12.1378787879	7.71666666667	-2.85
576	0.288	-3.7	-7.8946969697	7.71666666667	-1.43303571429
577	0.2885	-2.25	-6.4803030303	0.508333333333	-4.26696428571
578	0.289	2.1	-5.06590909091	-0.933333333333	-2.85
579	0.2895	7.9	-5.06590909091	1.95	-2.85
580	0.29	-5.15	-2.23712121212	-0.933333333333	-5.68392857143
581	0.2905	-2.25	-2.23712121212	-3.81666666667	-8.51785714286
582	0.291	-2.25	0.591666666667	-0.933333333333	-4.26696428571
583	0.2915	-2.25	0.591666666667	1.95	-1.43303571429
584	0.292	-0.8	0.591666666667	-0.933333333333	-1.43303571429
585	0.2925	7.9	6.24924242424	-0.933333333333	4.23482142857
586	0.293	0.65	6.24924242424	0.508333333333	-4.26696428571
587	0.2935	-0.8	9.07803030303	9.15833333333	-2.85
588	0.294	-0.8	9.07803030303	9.15833333333	1.40089285714
589	0.2945	-0.8	2.00606060606	0.508333333333	-0.0160714285714
590	0.295	5.0	13.3212121212	1.95	-0.0160714285714
591	0.2955	13.7	13.3212121212	1.95	-11.3517857143
592	0.296	0.65	16.15	-2.375	-4.26696428571
593	0.2965	2.1	14.7356060606	-5.25833333333	-1.43303571429
594	0.297	-0.8	13.3212121212	-3.81666666667	-4.26696428571
595	0.2975	-0.8	26.0507575758	1.95	-4.26696428571
596	0.298	-9.5	6.24924242424	3.39166666667	-1.43303571429
597	0.2985	-6.6	7.66363636364	3.39166666667	9.90267857143
598	0.299	-0.8	7.66363636364	0.508333333333	11.3196428571
599	0.2995	-0.8	3.42045454545	1.95	-2.85
600	0.3	0.65	-0.822727272727	0.508333333333	-4.26696428571
601	0.3005	-5.15	-7.8946969697	0.508333333333	-4.26696428571
602	0.301	-8.05	-7.8946969697	-0.933333333333	-1.43303571429
603	0.3015	-0.8	-9.30909090909	4.83333333333	-5.68392857143
604	0.302	-0.8	-5.06590909091	14.925	-5.68392857143
605	0.3025	-2.25	-6.4803030303	-2.375	-4.26696428571
606	0.303	-3.7	2.00606060606	0.508333333333	-7.10089285714
607	0.3035	-16.75	-12.1378787879	0.508333333333	-5.68392857143
608	0.304	-10.95	-12.1378787879	4.83333333333	-14.1857142857
609	0.3045	-5.15	-13.5522727273	1.95	-12.76875
610	0.305	-2.25	-12.1378787879	-0.933333333333	-1.43303571429
611	0.3055	-2.25	-24.8674242424	-0.933333333333	-2.85
612	0.306	-0.8	-24.8674242424	1.95	-2.85
613	0.3065	3.55	-10.7234848485	1.95	-1.43303571429
614	0.307	20.95	-10.7234848485	1.95	-9.93482142857
615	0.3075	0.65	-7.8946969697	19.25	-1.43303571429
616	0.308	0.65	-6.4803030303	19.25	-1.43303571429
617	0.3085	0.65	-10.7234848485	0.508333333333	-1.43303571429
618	0.309	-0.8	-7.8946969697	-0.933333333333	-0.0160714285714
619	0.3095	5.0	-0.822727272727	-0.933333333333	-1.43303571429
620	0.31	-6.6	0.591666666667	3.39166666667	5.65178571429
621	0.3105	-0.8	0.591666666667	7.71666666667	-1.43303571429
622	0.311	0.65	4.83484848485	6.275	-1.43303571429
623	0.3115	0.65	0.591666666667	3.39166666667	-1.43303571429
624	0.312	3.55	4.83484848485	0.508333333333	-0.0160714285714
625	0.3125	18.05	4.83484848485	1.95	-4.26696428571
626	0.313	3.55	6.24924242424	-2.375	16.9875
627	0.3135	-0.8	7.66363636364	-6.7	-1.43303571429
628	0.314	-2.25	9.07803030303	0.508333333333	-2.85
629	0.3145	0.65	9.07803030303	0.508333333333	-1.43303571429
630	0.315	-13.85	6.24924242424	-0.933333333333	-1.43303571429
631	0.3155	-8.05	2.00606060606	3.39166666667	11.3196428571
632	0.316	0.65	0.591666666667	3.39166666667	12.7366071429
633	0.3165	0.65	-3.65151515152	0.508333333333	-4.26696428571
634	0.317	0.65	-6.4803030303	0.508333333333	-4.26696428571
635	0.3175	-3.7	-12.1378787879	0.508333333333	-4.26696428571
636	0.318	-6.6	-9.30909090909	0.508333333333	-1.43303571429
637	0.3185	2.1	-6.4803030303	1.95	4.23482142857
638	0.319	-0.8	-10.7234848485	4.83333333333	-0.0160714285714
639	0.3195	0.65	-13.5522727273	-3.81666666667	-4.26696428571
640	0.32	-3.7	-24.8674242424	1.95	-7.10089285714
641	0.3205	0.65	-12.1378787879	1.95	-5.68392857143
642	0.321	-15.3	-10.7234848485	1.95	-5.68392857143
643	0.3215	-12.4	-10.7234848485	-0.933333333333	4.23482142857
644	0.322	-0.8	-12.1378787879	-0.933333333333	8.48571428571
645	0.3225	-0.8	-9.30909090909	3.39166666667	-7.10089285714
646	0.323	-2.25	4.83484848485	0.508333333333	-4.26696428571
647	0.3235	-5.15	-6.4803030303	0.508333333333	-1.43303571429
648	0.324	0.65	-5.06590909091	0.508333333333	-11.3517857143
649	0.3245	-3.7	-3.65151515152	-9.58333333333	-8.51785714286
650	0.325	-2.25	0.591666666667	-6.7	-2.85
651	0.3255	-2.25	3.42045454545	-8.14166666667	-2.85
652	0.326	0.65	13.3212121212	0.508333333333	-1.43303571429
653	0.3265	3.55	4.83484848485	1.95	-0.0160714285714
654	0.327	-3.7	6.24924242424	-0.933333333333	1.40089285714
655	0.3275	0.65	7.66363636364	1.95	15.5705357143
656	0.328	-3.7	9.07803030303	0.508333333333	-0.0160714285714
657	0.3285	-2.25	13.3212121212	1.95	-2.85
658	0.329	-2.25	9.07803030303	0.508333333333	-1.43303571429
659	0.3295	0.65	14.7356060606	0.508333333333	-2.85
660	0.33	-0.8	14.7356060606	-0.933333333333	-15.6026785714
661	0.3305	0.65	16.15	-15.35	-7.10089285714
662	0.331	2.1	14.7356060606	3.39166666667	-1.43303571429
663	0.3315	0.65	27.4651515152	0.508333333333	-4.26696428571
664	0.332	-2.25	23.221969697	1.95	-4.26696428571
665	0.3325	-9.5	7.66363636364	4.83333333333	-0.0160714285714
666	0.333	0.65	2.00606060606	1.95	14.1535714286
667	0.3335	0.65	0.591666666667	17.8083333333	-1.43303571429
668	0.334	0.65	-10.7234848485	0.508333333333	-4.26696428571
669	0.3345	-0.8	-10.7234848485	0.508333333333	-2.85
670	0.335	2.1	-9.30909090909	0.508333333333	-7.10089285714
671	0.3355	15.15	-7.8946969697	3.39166666667	-12.76875
672	0.336	-0.8	-7.8946969697	9.15833333333	-7.10089285714
673	0.3365	-0.8	-7.8946969697	4.83333333333	-8.51785714286
674	0.337	-0.8	-17.7954545455	1.95	-7.10089285714
675	0.3375	0.65	-9.30909090909	0.508333333333	-7.10089285714
676	0.338	13.7	-7.8946969697	0.508333333333	-5.68392857143
677	0.3385	-9.5	-9.30909090909	1.95	-1.43303571429
678	0.339	-3.7	-5.06590909091	6.275	-4.26696428571
679	0.3395	-0.8	-9.30909090909	20.6916666667	-4.26696428571
680	0.34	-2.25	-13.5522727273	1.95	-2.85
681	0.3405	0.65	-10.7234848485	0.508333333333	-5.68392857143
682	0.341	18.05	-3.65151515152	1.95	-1.43303571429
683	0.3415	-9.5	-0.822727272727	-0.933333333333	14.1535714286
684	0.342	-0.8	0.591666666667	-2.375	-1.43303571429
685	0.3425	0.65	0.591666666667	1.95	-1.43303571429
686	0.343	2.1	-0.822727272727	3.39166666667	-1.43303571429
687	0.3435	-0.8	2.00606060606	1.95	-2.85
688	0.344	9.35	3.42045454545	6.275	-1.43303571429
689	0.3445	0.65	7.66363636364	4.83333333333	-7.10089285714
690	0.345	2.1	6.24924242424	13.4833333333	-2.85
691	0.3455	0.65	-2.23712121212	3.39166666667	-2.85
692	0.346	2.1	24.6363636364	3.39166666667	-1.43303571429
693	0.3465	5.0	6.24924242424	4.83333333333	-4.26696428571
694	0.347	15.15	7.66363636364	3.39166666667	-2.85
695	0.3475	0.65	10.4924242424	-0.933333333333	4.23482142857
696	0.348	0.65	13.3212121212	-2.375	-4.26696428571
697	0.3485	2.1	14.7356060606	1.95	-1.43303571429
698	0.349	0.65	9.07803030303	1.95	-4.26696428571
699	0.3495	-12.4	6.24924242424	1.95	-2.85
700	0.35	-5.15	4.83484848485	6.275	-1.43303571429
701	0.3505	0.65	4.83484848485	0.508333333333	5.65178571429
702	0.351	-0.8	-0.822727272727	-0.933333333333	-4.26696428571
703	0.3515	-0.8	0.591666666667	0.508333333333	-4.26696428571
704	0.352	2.1	-9.30909090909	0.508333333333	-5.68392857143
705	0.3525	3.55	-3.65151515152	0.508333333333	-7.10089285714
706	0.353	18.05	-6.4803030303	1.95	-14.1857142857
707	0.3535	-2.25	-10.7234848485	16.3666666667	-5.68392857143
708	0.354	-2.25	-12.1378787879	0.508333333333	-5.68392857143
709	0.3545	-0.8	-22.0386363636	0.508333333333	-4.26696428571
710	0.355	0.65	-22.0386363636	4.83333333333	-4.26696428571
711	0.3555	5.0	-9.30909090909	1.95	-2.85
712	0.356	-2.25	-9.30909090909	-0.933333333333	1.40089285714
713	0.3565	-0.8	-6.4803030303	-8.14166666667	-2.85
714	0.357	-2.25	-3.65151515152	-0.933333333333	-1.43303571429
715	0.3575	-0.8	9.07803030303	3.39166666667	-2.85
716	0.358	-5.15	2.00606060606	1.95	-1.43303571429
717	0.3585	-9.5	2.00606060606	-0.933333333333	-1.43303571429
718	0.359	9.35	2.00606060606	0.508333333333	-1.43303571429
719	0.3595	-2.25	4.83484848485	1.95	-7.10089285714
720	0.36	0.65	6.24924242424	-5.25833333333	-1.43303571429
721	0.3605	-0.8	4.83484848485	-3.81666666667	-1.43303571429
722	0.361	-0.8	24.6363636364	0.508333333333	-0.0160714285714
723	0.3615	-8.05	13.3212121212	1.95	-1.43303571429
724	0.362	-10.95	10.4924242424	1.95	-0.0160714285714
725	0.3625	-0.8	13.3212121212	19.25	-1.43303571429
726	0.363	0.65	9.07803030303	1.95	-0.0160714285714
727	0.3635	-0.8	30.2939393939	0.508333333333	-2.85
728	0.364	-3.7	10.4924242424	0.508333333333	-1.43303571429
729	0.3645	-9.5	9.07803030303	1.95	-0.0160714285714
730	0.365	-2.25	9.07803030303	3.39166666667	11.3196428571
731	0.3655	2.1	3.42045454545	20.6916666667	-4.26696428571
732	0.366	0.65	-7.8946969697	3.39166666667	-5.68392857143
733	0.3665	0.65	-7.8946969697	1.95	-2.85
734	0.367	7.9	2.00606060606	1.95	-8.51785714286
735	0.3675	18.05	0.591666666667	4.83333333333	-7.10089285714
736	0.368	0.65	-2.23712121212	-9.58333333333	-5.68392857143
737	0.3685	-2.25	-0.822727272727	-8.14166666667	-5.68392857143
738	0.369	-0.8	-3.65151515152	3.39166666667	-2.85
739	0.3695	-3.7	-12.1378787879	1.95	-5.68392857143
740	0.37	-10.95	-6.4803030303	1.95	-4.26696428571
741	0.3705	2.1	-9.30909090909	0.508333333333	-2.85
742	0.371	-0.8	-6.4803030303	1.95	1.40089285714
743	0.3715	-2.25	-9.30909090909	-3.81666666667	-4.26696428571
744	0.372	-2.25	-7.8946969697	-5.25833333333	-4.26696428571
745	0.3725	-0.8	-5.06590909091	0.508333333333	-4.26696428571
746	0.373	-2.25	-2.23712121212	0.508333333333	-7.10089285714
747	0.3735	-10.95	-0.822727272727	0.508333333333	-4.26696428571
748	0.374	-0.8	-0.822727272727	-0.933333333333	-1.43303571429
749	0.3745	-3.7	0.591666666667	-3.81666666667	-2.85
750	0.375	-0.8	16.15	0.508333333333	-2.85
751	0.3755	-0.8	7.66363636364	0.508333333333	-1.43303571429
752	0.376	-8.05	6.24924242424	1.95	-1.43303571429
753	0.3765	0.65	10.4924242424	3.39166666667	-5.68392857143
754	0.377	0.65	7.66363636364	4.83333333333	-9.93482142857
755	0.3775	0.65	10.4924242424	-0.933333333333	2.81785714286
756	0.378	-0.8	10.4924242424	-0.933333333333	1.40089285714
757	0.3785	2.1	13.3212121212	1.95	-1.43303571429
758	0.379	20.95	14.7356060606	1.95	-12.76875
759	0.3795	-0.8	14.7356060606	-0.933333333333	-4.26696428571
760	0.38	0.65	17.5643939394	-12.4666666667	-4.26696428571
761	0.3805	0.65	17.5643939394	1.95	1.40089285714
762	0.381	-0.8	18.9787878788	0.508333333333	-2.85
763	0.3815	-3.7	9.07803030303	1.95	-1.43303571429
764	0.382	-15.3	13.3212121212	-0.933333333333	-4.26696428571
765	0.3825	-0.8	13.3212121212	4.83333333333	-4.26696428571
766	0.383	0.65	13.3212121212	19.25	-5.68392857143
767	0.3835	0.65	7.66363636364	1.95	-7.10089285714
768	0.384	2.1	18.9787878788	1.95	-5.68392857143
769	0.3845	2.1	4.83484848485	-0.933333333333	-4.26696428571
770	0.385	-3.7	0.591666666667	1.95	-4.26696428571
771	0.3855	0.65	-0.822727272727	-0.933333333333	-2.85
772	0.386	-2.25	0.591666666667	1.95	-2.85
773	0.3865	-3.7	-2.23712121212	0.508333333333	-4.26696428571
774	0.387	-5.15	-9.30909090909	-0.933333333333	-4.26696428571
775	0.3875	-12.4	-6.4803030303	-0.933333333333	-2.85
776	0.388	-0.8	-5.06590909091	1.95	-9.93482142857
777	0.3885	2.1	-2.23712121212	3.39166666667	-4.26696428571
778	0.389	-0.8	-2.23712121212	-3.81666666667	-5.68392857143
779	0.3895	-2.25	-0.822727272727	-0.933333333333	-2.85
780	0.39	2.1	0.591666666667	0.508333333333	-1.43303571429
781	0.3905	12.25	4.83484848485	3.39166666667	1.40089285714
782	0.391	-0.8	4.83484848485	-2.375	7.06875
783	0.3915	-2.25	6.24924242424	-6.7	-2.85
784	0.392	-3.7	10.4924242424	-8.14166666667	-1.43303571429
785	0.3925	-0.8	27.4651515152	0.508333333333	-0.0160714285714
786	0.393	-6.6	14.7356060606	-0.933333333333	-0.0160714285714
787	0.3935	-13.85	17.5643939394	-0.933333333333	-1.43303571429
788	0.394	-0.8	17.5643939394	6.275	-0.0160714285714
789	0.3945	0.65	18.9787878788	14.925	-2.85
790	0.395	-0.8	16.15	9.15833333333	-1.43303571429
791	0.3955	0.65	6.24924242424	1.95	-0.0160714285714
792	0.396	3.55	17.5643939394	3.39166666667	-1.43303571429
793	0.3965	18.05	17.5643939394	0.508333333333	-11.3517857143
794	0.397	-0.8	16.15	-0.933333333333	-8.51785714286
795	0.3975	-0.8	16.15	3.39166666667	2.81785714286
796	0.398	-0.8	17.5643939394	3.39166666667	-7.10089285714
797	0.3985	-0.8	24.6363636364	1.95	-1.43303571429
798	0.399	-0.8	23.221969697	0.508333333333	-5.68392857143
799	0.3995	-6.6	7.66363636364	3.39166666667	11.3196428571
800	0.4	0.65	6.24924242424	3.39166666667	15.5705357143
801	0.4005	-2.25	6.24924242424	3.39166666667	-4.26696428571
802	0.401	0.65	2.00606060606	17.8083333333	-4.26696428571
803	0.4015	-0.8	-3.65151515152	0.508333333333	-5.68392857143
804	0.402	-6.6	0.591666666667	0.508333333333	-2.85
805	0.4025	7.9	0.591666666667	1.95	-5.68392857143
806	0.403	-0.8	-2.23712121212	6.275	-2.85
807	0.4035	-2.25	-5.06590909091	-0.933333333333	-4.26696428571
808	0.404	0.65	-10.7234848485	1.95	-2.85
809	0.4045	0.65	-5.06590909091	0.508333333333	-2.85
810	0.405	15.15	0.591666666667	1.95	-2.85
811	0.4055	-5.15	-0.822727272727	0.508333333333	-9.93482142857
812	0.406	-3.7	-0.822727272727	-11.025	-11.3517857143
813	0.4065	-0.8	2.00606060606	-8.14166666667	-1.43303571429
814	0.407	-3.7	4.83484848485	1.95	-0.0160714285714
815	0.4075	-2.25	4.83484848485	1.95	-1.43303571429
816	0.408	-10.95	6.24924242424	1.95	-0.0160714285714
817	0.4085	-13.85	6.24924242424	0.508333333333	-1.43303571429
818	0.409	-2.25	10.4924242424	12.0416666667	-0.0160714285714
819	0.4095	-3.7	6.24924242424	0.508333333333	-2.85
820	0.41	0.65	23.221969697	1.95	-1.43303571429
821	0.4105	-0.8	14.7356060606	3.39166666667	-1.43303571429
822	0.411	-5.15	16.15	0.508333333333	-0.0160714285714
823	0.4115	-2.25	17.5643939394	-6.7	-7.10089285714
824	0.412	0.65	17.5643939394	-2.375	-8.51785714286
825	0.4125	-2.25	23.221969697	1.95	-4.26696428571
826	0.413	0.65	14.7356060606	1.95	-5.68392857143
827	0.4135	-3.7	23.221969697	3.39166666667	-5.68392857143
828	0.414	16.6	20.3931818182	1.95	-12.76875
829	0.4145	0.65	21.8075757576	16.3666666667	-4.26696428571
830	0.415	2.1	20.3931818182	20.6916666667	-4.26696428571
831	0.4155	2.1	6.24924242424	0.508333333333	-2.85
832	0.416	0.65	3.42045454545	1.95	-8.51785714286
833	0.4165	19.5	14.7356060606	3.39166666667	-5.68392857143
834	0.417	-0.8	10.4924242424	-0.933333333333	-11.3517857143
835	0.4175	-0.8	7.66363636364	-2.375	7.06875
836	0.418	3.55	7.66363636364	13.4833333333	-4.26696428571
837	0.4185	0.65	4.83484848485	3.39166666667	-4.26696428571
838	0.419	-0.8	-0.822727272727	1.95	-2.85
839	0.4195	16.6	4.83484848485	0.508333333333	-14.1857142857
840	0.42	-2.25	0.591666666667	4.83333333333	-12.76875
841	0.4205	-3.7	-0.822727272727	4.83333333333	-8.51785714286
842	0.421	-0.8	2.00606060606	16.3666666667	-2.85
843	0.4215	-0.8	-0.822727272727	1.95	-2.85
844	0.422	0.65	6.24924242424	3.39166666667	-2.85
845	0.4225	-3.7	0.591666666667	1.95	-2.85
846	0.423	-3.7	0.591666666667	-5.25833333333	-4.26696428571
847	0.4235	0.65	0.591666666667	-9.58333333333	-4.26696428571
848	0.424	-0.8	6.24924242424	3.39166666667	-4.26696428571
849	0.4245	-0.8	7.66363636364	4.83333333333	-1.43303571429
850	0.425	-12.4	6.24924242424	0.508333333333	-0.0160714285714
851	0.4255	2.1	7.66363636364	0.508333333333	1.40089285714
852	0.426	-0.8	9.07803030303	0.508333333333	-7.10089285714
853	0.4265	3.55	13.3212121212	-0.933333333333	-2.85
854	0.427	-2.25	10.4924242424	-0.933333333333	-1.43303571429
855	0.4275	0.65	0.591666666667	0.508333333333	-1.43303571429
856	0.428	3.55	10.4924242424	1.95	-4.26696428571
857	0.4285	0.65	16.15	4.83333333333	-5.68392857143
858	0.429	0.65	14.7356060606	4.83333333333	-0.0160714285714
859	0.4295	2.1	13.3212121212	1.95	-1.43303571429
860	0.43	3.55	21.8075757576	1.95	-2.85
861	0.4305	3.55	9.07803030303	1.95	-1.43303571429
862	0.431	3.55	13.3212121212	0.508333333333	-1.43303571429
863	0.4315	-5.15	9.07803030303	3.39166666667	-4.26696428571
864	0.432	3.55	7.66363636364	-0.933333333333	-9.93482142857
865	0.4325	0.65	3.42045454545	-6.7	-5.68392857143
866	0.433	0.65	0.591666666667	1.95	-4.26696428571
867	0.4335	-5.15	-5.06590909091	0.508333333333	-5.68392857143
868	0.434	5.0	-3.65151515152	3.39166666667	-8.51785714286
869	0.4345	-5.15	-6.4803030303	0.508333333333	-2.85
870	0.435	-0.8	-10.7234848485	12.0416666667	-7.10089285714
871	0.4355	-2.25	-14.9666666667	1.95	-5.68392857143
872	0.436	-0.8	-13.5522727273	1.95	-8.51785714286
873	0.4365	-10.95	-22.0386363636	0.508333333333	-7.10089285714
874	0.437	10.8	-19.2098484848	1.95	-8.51785714286
875	0.4375	-2.25	-16.3810606061	-0.933333333333	-14.1857142857
876	0.438	-2.25	-16.3810606061	-2.375	-4.26696428571
877	0.4385	-0.8	-16.3810606061	0.508333333333	-7.10089285714
878	0.439	-3.7	-14.9666666667	1.95	-7.10089285714
879	0.4395	-12.4	-9.30909090909	1.95	-2.85
880	0.44	-12.4	-10.7234848485	0.508333333333	14.1535714286
881	0.4405	-3.7	-6.4803030303	0.508333333333	14.1535714286
882	0.441	-2.25	-6.4803030303	-6.7	-1.43303571429
883	0.4415	-0.8	4.83484848485	3.39166666667	-4.26696428571
884	0.442	-3.7	0.591666666667	0.508333333333	-1.43303571429
885	0.4425	-9.5	2.00606060606	0.508333333333	-1.43303571429
886	0.443	-9.5	-0.822727272727	-0.933333333333	15.5705357143
887	0.4435	-3.7	0.591666666667	0.508333333333	15.5705357143
888	0.444	0.65	3.42045454545	-0.933333333333	-1.43303571429
889	0.4445	-0.8	18.9787878788	0.508333333333	-1.43303571429
890	0.445	-2.25	6.24924242424	1.95	-1.43303571429
891	0.4455	-10.95	9.07803030303	1.95	-8.51785714286
892	0.446	-0.8	7.66363636364	3.39166666667	-8.51785714286
893	0.4465	-0.8	10.4924242424	16.3666666667	-1.43303571429
894	0.447	-0.8	7.66363636364	19.25	-4.26696428571
895	0.4475	-2.25	0.591666666667	3.39166666667	-1.43303571429
896	0.448	0.65	4.83484848485	3.39166666667	-1.43303571429
897	0.4485	19.5	4.83484848485	4.83333333333	-2.85
898	0.449	0.65	2.00606060606	-6.7	-2.85
899	0.4495	2.1	0.591666666667	-11.025	-5.68392857143
900	0.45	-2.25	4.83484848485	3.39166666667	-2.85
901	0.4505	-0.8	2.00606060606	1.95	-7.10089285714
902	0.451	-12.4	-0.822727272727	0.508333333333	-2.85
903	0.4515	-9.5	-3.65151515152	3.39166666667	11.3196428571
904	0.452	-2.25	-6.4803030303	1.95	5.65178571429
905	0.4525	-3.7	-7.8946969697	14.925	-5.68392857143
906	0.453	-3.7	-19.2098484848	-0.933333333333	-7.10089285714
907	0.4535	-2.25	-22.0386363636	-2.375	-4.26696428571
908	0.454	16.6	-10.7234848485	1.95	-17.0196428571
909	0.4545	-8.05	-13.5522727273	4.83333333333	-2.85
910	0.455	-2.25	-7.8946969697	1.95	2.81785714286
911	0.4555	-3.7	-10.7234848485	-5.25833333333	-5.68392857143
912	0.456	-3.7	-7.8946969697	-0.933333333333	-5.68392857143
913	0.4565	-0.8	-3.65151515152	0.508333333333	-2.85
914	0.457	3.55	-2.23712121212	0.508333333333	-1.43303571429
915	0.4575	-12.4	-2.23712121212	1.95	14.1535714286
916	0.458	-3.7	-0.822727272727	13.4833333333	-4.26696428571
917	0.4585	-0.8	0.591666666667	-0.933333333333	-2.85
918	0.459	3.55	23.221969697	0.508333333333	-1.43303571429
919	0.4595	-0.8	-2.23712121212	0.508333333333	-1.43303571429
920	0.46	16.6	9.07803030303	3.39166666667	-1.43303571429
921	0.4605	-0.8	10.4924242424	3.39166666667	-8.51785714286
922	0.461	0.65	11.9068181818	16.3666666667	-1.43303571429
923	0.4615	-0.8	6.24924242424	1.95	-1.43303571429
924	0.462	0.65	3.42045454545	1.95	-1.43303571429
925	0.4625	0.65	3.42045454545	1.95	-2.85
926	0.463	16.6	14.7356060606	1.95	-12.76875
927	0.4635	0.65	14.7356060606	3.39166666667	-14.1857142857
928	0.464	-2.25	7.66363636364	-9.58333333333	-1.43303571429
929	0.4645	-2.25	10.4924242424	-6.7	-1.43303571429
930	0.465	0.65	26.0507575758	1.95	-1.43303571429
931	0.4655	-12.4	7.66363636364	3.39166666667	-1.43303571429
932	0.466	-10.95	7.66363636364	-0.933333333333	14.1535714286
933	0.4665	-0.8	0.591666666667	-0.933333333333	14.1535714286
934	0.467	-0.8	4.83484848485	-3.81666666667	-4.26696428571
935	0.4675	-0.8	17.5643939394	1.95	-7.10089285714
936	0.468	-0.8	-2.23712121212	0.508333333333	-4.26696428571
937	0.4685	-10.95	-2.23712121212	0.508333333333	-4.26696428571
938	0.469	-2.25	-6.4803030303	3.39166666667	-15.6026785714
939	0.4695	-0.8	-9.30909090909	20.6916666667	-4.26696428571
940	0.47	-0.8	-12.1378787879	16.3666666667	-4.26696428571
941	0.4705	-2.25	-23.453030303	1.95	-4.26696428571
942	0.471	0.65	-14.9666666667	0.508333333333	-2.85
943	0.4715	7.9	-12.1378787879	0.508333333333	-2.85
944	0.472	-5.15	-10.7234848485	0.508333333333	-5.68392857143
945	0.4725	0.65	-10.7234848485	0.508333333333	-4.26696428571
946	0.473	0.65	-10.7234848485	3.39166666667	-1.43303571429
947	0.4735	-3.7	-14.9666666667	0.508333333333	-1.43303571429
948	0.474	-5.15	-16.3810606061	1.95	-1.43303571429
949	0.4745	19.5	-6.4803030303	3.39166666667	-4.26696428571
950	0.475	-0.8	-5.06590909091	-0.933333333333	-11.3517857143
951	0.4755	-0.8	0.591666666667	-9.58333333333	-4.26696428571
952	0.476	-0.8	3.42045454545	-0.933333333333	-1.43303571429
953	0.4765	-0.8	9.07803030303	1.95	-1.43303571429
954	0.477	-9.5	6.24924242424	0.508333333333	-0.0160714285714
955	0.4775	-3.7	9.07803030303	4.83333333333	1.40089285714
956	0.478	0.65	9.07803030303	1.95	11.3196428571
957	0.4785	-0.8	16.15	13.4833333333	1.40089285714
958	0.479	-0.8	6.24924242424	1.95	-1.43303571429
959	0.4795	2.1	10.4924242424	3.39166666667	1.40089285714
960	0.48	0.65	17.5643939394	-0.933333333333	-1.43303571429
961	0.4805	13.7	14.7356060606	0.508333333333	-2.85
962	0.481	-0.8	14.7356060606	-9.58333333333	-0.0160714285714
963	0.4815	3.55	14.7356060606	-2.375	-2.85
964	0.482	2.1	-0.822727272727	1.95	-5.68392857143
965	0.4825	2.1	3.42045454545	0.508333333333	-9.93482142857
966	0.483	19.5	2.00606060606	-0.933333333333	-4.26696428571
967	0.4835	-5.15	0.591666666667	-0.933333333333	4.23482142857
968	0.484	0.65	0.591666666667	-5.25833333333	-7.10089285714
969	0.4845	0.65	2.00606060606	-0.933333333333	-2.85
970	0.485	-0.8	0.591666666667	3.39166666667	-5.68392857143
971	0.4855	-2.25	-6.4803030303	1.95	-1.43303571429
972	0.486	-10.95	-12.1378787879	0.508333333333	-0.0160714285714
973	0.4865	-0.8	-10.7234848485	6.275	4.23482142857
974	0.487	0.65	-10.7234848485	4.83333333333	-1.43303571429
975	0.4875	-0.8	-13.5522727273	-0.933333333333	-2.85
976	0.488	0.65	-13.5522727273	1.95	-4.26696428571
977	0.4885	3.55	-10.7234848485	1.95	-7.10089285714
978	0.489	13.7	-10.7234848485	0.508333333333	-7.10089285714
979	0.4895	-6.6	-10.7234848485	3.39166666667	-15.6026785714
980	0.49	0.65	-6.4803030303	-0.933333333333	-8.51785714286
981	0.4905	-0.8	-9.30909090909	0.508333333333	-2.85
982	0.491	-0.8	0.591666666667	-0.933333333333	-7.10089285714
983	0.4915	-0.8	-10.7234848485	3.39166666667	-2.85
984	0.492	0.65	-5.06590909091	3.39166666667	-0.0160714285714
985	0.4925	2.1	-2.23712121212	3.39166666667	-4.26696428571
986	0.493	-0.8	-0.822727272727	13.4833333333	-4.26696428571
987	0.4935	0.65	0.591666666667	-2.375	-1.43303571429
988	0.494	0.65	17.5643939394	1.95	1.40089285714
989	0.4945	-12.4	4.83484848485	1.95	2.81785714286
990	0.495	-9.5	6.24924242424	3.39166666667	-14.1857142857
991	0.4955	2.1	9.07803030303	4.83333333333	-9.93482142857
992	0.496	-2.25	7.66363636364	-8.14166666667	-1.43303571429
993	0.4965	-0.8	2.00606060606	0.508333333333	-1.43303571429
994	0.497	0.65	24.6363636364	3.39166666667	-0.0160714285714
995	0.4975	-0.8	7.66363636364	0.508333333333	-2.85
996	0.498	0.65	6.24924242424	0.508333333333	14.1535714286
997	0.4985	0.65	6.24924242424	-0.933333333333	14.1535714286
998	0.499	-2.25	3.42045454545	-6.7	-2.85
999	0.4995	-0.8	2.00606060606	-6.7	-2.85
1000	0.5	-2.25	-0.822727272727	3.39166666667	-5.68392857143
1001	0.5005	-5.15	-2.23712121212	-0.933333333333	-7.10089285714
1002	0.501	-9.5	-5.06590909091	3.39166666667	-4.26696428571
1003	0.5015	-2.25	-6.4803030303	14.925	-8.51785714286
1004	0.502	-0.8	-6.4803030303	14.925	-8.51785714286
1005	0.5025	0.65	-16.3810606061	0.508333333333	-4.26696428571
1006	0.503	-0.8	-16.3810606061	1.95	-7.10089285714
1007	0.5035	12.25	-13.5522727273	-0.933333333333	-8.51785714286
1008	0.504	-3.7	-16.3810606061	-0.933333333333	-15.6026785714
1009	0.5045	-3.7	-12.1378787879	-3.81666666667	-7.10089285714
1010	0.505	-2.25	-14.9666666667	-5.25833333333	-7.10089285714
1011	0.5055	-0.8	-5.06590909091	0.508333333333	-4.26696428571
1012	0.506	-3.7	-0.822727272727	-0.933333333333	-4.26696428571
1013	0.5065	-5.15	-12.1378787879	0.508333333333	-1.43303571429
1014	0.507	-0.8	-7.8946969697	0.508333333333	-4.26696428571
1015	0.5075	-0.8	-7.8946969697	-8.14166666667	-2.85
1016	0.508	0.65	-3.65151515152	-6.7	-1.43303571429
1017	0.5085	-5.15	14.7356060606	1.95	-1.43303571429
1018	0.509	-15.3	-2.23712121212	-0.933333333333	-2.85
1019	0.5095	0.65	-0.822727272727	0.508333333333	-2.85
1020	0.51	0.65	0.591666666667	-3.81666666667	-2.85
1021	0.5105	0.65	3.42045454545	9.15833333333	-1.43303571429
1022	0.511	0.65	2.00606060606	1.95	-1.43303571429
1023	0.5115	-0.8	16.15	0.508333333333	-4.26696428571
1024	0.512	-0.8	6.24924242424	4.83333333333	-7.10089285714
1025	0.5125	13.7	9.07803030303	0.508333333333	-2.85
1026	0.513	0.65	6.24924242424	-2.375	-8.51785714286
1027	0.5135	0.65	4.83484848485	16.3666666667	-2.85
1028	0.514	0.65	3.42045454545	1.95	-4.26696428571
1029	0.5145	0.65	-2.23712121212	0.508333333333	-4.26696428571
1030	0.515	2.1	2.00606060606	3.39166666667	-1.43303571429
1031	0.5155	16.6	-2.23712121212	1.95	-9.93482142857
1032	0.516	0.65	-2.23712121212	0.508333333333	-9.93482142857
1033	0.5165	2.1	-5.06590909091	-8.14166666667	-4.26696428571
1034	0.517	2.1	-14.9666666667	-0.933333333333	-2.85
1035	0.5175	-0.8	-17.7954545455	0.508333333333	-4.26696428571
1036	0.518	15.15	-12.1378787879	-2.375	-4.26696428571
1037	0.5185	-10.95	-12.1378787879	0.508333333333	11.3196428571
1038	0.519	-2.25	-13.5522727273	-8.14166666667	-4.26696428571
1039	0.5195	-2.25	-13.5522727273	-11.025	-4.26696428571
1040	0.52	-3.7	0.591666666667	1.95	-4.26696428571
1041	0.5205	-5.15	-16.3810606061	0.508333333333	-5.68392857143
1042	0.521	-13.85	-16.3810606061	0.508333333333	-0.0160714285714
1043	0.5215	-10.95	-14.9666666667	1.95	11.3196428571
1044	0.522	-0.8	-14.9666666667	4.83333333333	-7.10089285714
1045	0.5225	-2.25	-16.3810606061	0.508333333333	-4.26696428571
1046	0.523	-3.7	-12.1378787879	0.508333333333	-4.26696428571
1047	0.5235	2.1	-10.7234848485	0.508333333333	-5.68392857143
1048	0.524	18.05	-9.30909090909	-0.933333333333	-2.85
1049	0.5245	-2.25	-7.8946969697	0.508333333333	-12.76875
1050	0.525	0.65	-6.4803030303	-8.14166666667	-1.43303571429
1051	0.5255	-2.25	-2.23712121212	1.95	1.40089285714
1052	0.526	0.65	-10.7234848485	3.39166666667	-0.0160714285714
1053	0.5265	-3.7	-6.4803030303	1.95	-1.43303571429
1054	0.527	15.15	4.83484848485	0.508333333333	-2.85
1055	0.5275	0.65	4.83484848485	1.95	-8.51785714286
1056	0.528	0.65	10.4924242424	-3.81666666667	-4.26696428571
1057	0.5285	-0.8	9.07803030303	-5.25833333333	-5.68392857143
1058	0.529	0.65	17.5643939394	-0.933333333333	-5.68392857143
1059	0.5295	3.55	4.83484848485	0.508333333333	-4.26696428571
1060	0.53	9.35	4.83484848485	0.508333333333	-2.85
1061	0.5305	0.65	9.07803030303	-3.81666666667	-9.93482142857
1062	0.531	0.65	4.83484848485	0.508333333333	-2.85
1063	0.5315	3.55	7.66363636364	0.508333333333	-2.85
1064	0.532	0.65	21.8075757576	0.508333333333	-4.26696428571
1065	0.5325	-9.5	0.591666666667	0.508333333333	-5.68392857143
1066	0.533	15.15	0.591666666667	1.95	-8.51785714286
1067	0.5335	-0.8	-0.822727272727	0.508333333333	-14.1857142857
1068	0.534	-2.25	-2.23712121212	0.508333333333	-12.76875
1069	0.5345	-3.7	-6.4803030303	1.95	-5.68392857143
1070	0.535	-0.8	-7.8946969697	3.39166666667	-2.85
1071	0.5355	-2.25	-6.4803030303	-0.933333333333	-5.68392857143
1072	0.536	12.25	-7.8946969697	0.508333333333	-4.26696428571
1073	0.5365	-0.8	-10.7234848485	1.95	-2.85
1074	0.537	-0.8	-12.1378787879	-3.81666666667	-4.26696428571
1075	0.5375	-0.8	-10.7234848485	-5.25833333333	-4.26696428571
1076	0.538	-2.25	-5.06590909091	1.95	-2.85
1077	0.5385	12.25	-9.30909090909	0.508333333333	-4.26696428571
1078	0.539	-2.25	-5.06590909091	1.95	-11.3517857143
1079	0.5395	-0.8	-6.4803030303	-6.7	-4.26696428571
1080	0.54	-2.25	0.591666666667	0.508333333333	-2.85
1081	0.5405	0.65	-12.1378787879	-0.933333333333	-1.43303571429
1082	0.541	-3.7	-6.4803030303	-0.933333333333	-1.43303571429
1083	0.5415	20.95	2.00606060606	3.39166666667	-1.43303571429
1084	0.542	-0.8	3.42045454545	-0.933333333333	-8.51785714286
1085	0.5425	0.65	3.42045454545	-8.14166666667	-7.10089285714
1086	0.543	2.1	9.07803030303	-12.4666666667	-1.43303571429
1087	0.5435	3.55	27.4651515152	1.95	-1.43303571429
1088	0.544	-0.8	4.83484848485	3.39166666667	-1.43303571429
1089	0.5445	23.85	13.3212121212	-0.933333333333	-1.43303571429
1090	0.545	3.55	10.4924242424	6.275	-4.26696428571
1091	0.5455	0.65	11.9068181818	4.83333333333	-1.43303571429
1092	0.546	0.65	10.4924242424	-0.933333333333	-0.0160714285714
1093	0.5465	7.9	6.24924242424	3.39166666667	-1.43303571429
1094	0.547	7.9	13.3212121212	1.95	-1.43303571429
1095	0.5475	10.8	11.9068181818	1.95	-0.0160714285714
1096	0.548	-5.15	10.4924242424	0.508333333333	12.7366071429
1097	0.5485	-0.8	11.9068181818	3.39166666667	-2.85
1098	0.549	-0.8	6.24924242424	19.25	-4.26696428571
1099	0.5495	0.65	-6.4803030303	3.39166666667	-4.26696428571
1100	0.55	5.0	0.591666666667	3.39166666667	-5.68392857143
1101	0.5505	19.5	-0.822727272727	0.508333333333	-4.26696428571
1102	0.551	-2.25	-0.822727272727	3.39166666667	-1.43303571429
1103	0.5515	-0.8	-5.06590909091	1.95	4.23482142857
1104	0.552	0.65	-7.8946969697	3.39166666667	-4.26696428571
1105	0.5525	0.65	6.24924242424	1.95	-4.26696428571
1106	0.553	-2.25	9.07803030303	1.95	-7.10089285714
1107	0.5535	-15.3	-9.30909090909	-0.933333333333	-1.43303571429
1108	0.554	-0.8	-10.7234848485	4.83333333333	-2.85
1109	0.5545	-0.8	-6.4803030303	13.4833333333	-8.51785714286
1110	0.555	-0.8	-5.06590909091	-2.375	-2.85
1111	0.5555	-3.7	-0.822727272727	0.508333333333	-2.85
1112	0.556	-3.7	-16.3810606061	3.39166666667	-1.43303571429
1113	0.5565	7.9	-10.7234848485	3.39166666667	-0.0160714285714
1114	0.557	-8.05	-9.30909090909	0.508333333333	9.90267857143
1115	0.5575	-2.25	-5.06590909091	-0.933333333333	15.5705357143
1116	0.558	-0.8	-6.4803030303	0.508333333333	1.40089285714
1117	0.5585	-0.8	-14.9666666667	0.508333333333	-1.43303571429
1118	0.559	-2.25	-10.7234848485	1.95	-2.85
1119	0.5595	22.4	-2.23712121212	1.95	-12.76875
1120	0.56	-0.8	0.591666666667	1.95	-11.3517857143
1121	0.5605	2.1	4.83484848485	20.6916666667	-1.43303571429
1122	0.561	2.1	2.00606060606	16.3666666667	-0.0160714285714
1123	0.5615	5.0	-0.822727272727	1.95	-2.85
1124	0.562	3.55	7.66363636364	0.508333333333	-1.43303571429
1125	0.5625	12.25	9.07803030303	0.508333333333	-5.68392857143
1126	0.563	0.65	6.24924242424	3.39166666667	-1.43303571429
1127	0.5635	2.1	10.4924242424	-0.933333333333	-9.93482142857
1128	0.564	2.1	9.07803030303	3.39166666667	-4.26696428571
1129	0.5645	2.1	6.24924242424	0.508333333333	-2.85
1130	0.565	5.0	4.83484848485	1.95	-2.85
1131	0.5655	20.95	4.83484848485	0.508333333333	-7.10089285714
1132	0.566	-2.25	4.83484848485	0.508333333333	-5.68392857143
1133	0.5665	-0.8	3.42045454545	4.83333333333	-9.93482142857
1134	0.567	-2.25	0.591666666667	-2.375	-5.68392857143
1135	0.5675	2.1	-2.23712121212	1.95	-7.10089285714
1136	0.568	-3.7	-5.06590909091	0.508333333333	-4.26696428571
1137	0.5685	-8.05	-6.4803030303	0.508333333333	-1.43303571429
1138	0.569	-8.05	-7.8946969697	0.508333333333	14.1535714286
1139	0.5695	-0.8	-6.4803030303	19.25	-4.26696428571
1140	0.57	-2.25	-10.7234848485	3.39166666667	-2.85
1141	0.5705	-2.25	3.42045454545	-0.933333333333	-2.85
1142	0.571	-5.15	-12.1378787879	0.508333333333	-2.85
1143	0.5715	-10.95	-12.1378787879	4.83333333333	-14.1857142857
1144	0.572	-2.25	-13.5522727273	3.39166666667	-14.1857142857
1145	0.5725	-2.25	-10.7234848485	-9.58333333333	-8.51785714286
1146	0.573	-0.8	-6.4803030303	-0.933333333333	-2.85
1147	0.5735	0.65	2.00606060606	0.508333333333	-1.43303571429
1148	0.574	-2.25	2.00606060606	1.95	-1.43303571429
1149	0.5745	-0.8	-6.4803030303	-0.933333333333	-1.43303571429
1150	0.575	0.65	-5.06590909091	3.39166666667	-7.10089285714
1151	0.5755	2.1	-2.23712121212	-3.81666666667	-9.93482142857
1152	0.576	-2.25	-0.822727272727	-9.58333333333	-1.43303571429
1153	0.5765	-2.25	2.00606060606	3.39166666667	1.40089285714
1154	0.577	-5.15	-2.23712121212	1.95	1.40089285714
1155	0.5775	-8.05	3.42045454545	1.95	1.40089285714
1156	0.578	2.1	6.24924242424	3.39166666667	-7.10089285714
1157	0.5785	0.65	6.24924242424	4.83333333333	-8.51785714286
1158	0.579	2.1	4.83484848485	-3.81666666667	-0.0160714285714
1159	0.5795	2.1	26.0507575758	1.95	-0.0160714285714
1160	0.58	7.9	4.83484848485	3.39166666667	-1.43303571429
1161	0.5805	-6.6	3.42045454545	3.39166666667	-2.85
1162	0.581	-0.8	9.07803030303	1.95	-8.51785714286
1163	0.5815	2.1	4.83484848485	0.508333333333	-11.3517857143
1164	0.582	0.65	3.42045454545	-3.81666666667	-2.85
1165	0.5825	-0.8	-6.4803030303	4.83333333333	-4.26696428571
1166	0.583	0.65	0.591666666667	0.508333333333	-5.68392857143
1167	0.5835	-12.4	-3.65151515152	1.95	-1.43303571429
1168	0.584	-9.5	-3.65151515152	-0.933333333333	-1.43303571429
1169	0.5845	-0.8	-2.23712121212	-0.933333333333	-4.26696428571
1170	0.585	-0.8	-3.65151515152	1.95	-5.68392857143
1171	0.5855	-0.8	-7.8946969697	0.508333333333	-5.68392857143
1172	0.586	-5.15	-7.8946969697	0.508333333333	-5.68392857143
1173	0.5865	16.6	-12.1378787879	-0.933333333333	-8.51785714286
1174	0.587	-0.8	-12.1378787879	-0.933333333333	-14.1857142857
1175	0.5875	-0.8	-10.7234848485	-8.14166666667	-11.3517857143
1176	0.588	0.65	-6.4803030303	3.39166666667	-2.85
1177	0.5885	0.65	-5.06590909091	0.508333333333	-4.26696428571
1178	0.589	-0.8	-13.5522727273	3.39166666667	-2.85
1179	0.5895	-10.95	-13.5522727273	1.95	-2.85
1180	0.59	-0.8	-6.4803030303	1.95	-8.51785714286
1181	0.5905	-2.25	-3.65151515152	-6.7	-8.51785714286
1182	0.591	-2.25	-6.4803030303	-6.7	1.40089285714
1183	0.5915	0.65	11.9068181818	3.39166666667	-1.43303571429
1184	0.592	-2.25	-5.06590909091	3.39166666667	1.40089285714
1185	0.5925	-9.5	-2.23712121212	3.39166666667	1.40089285714
1186	0.593	-3.7	3.42045454545	0.508333333333	-7.10089285714
1187	0.5935	2.1	4.83484848485	-6.7	-0.0160714285714
1188	0.594	2.1	4.83484848485	-5.25833333333	1.40089285714
1189	0.5945	0.65	21.8075757576	1.95	-0.0160714285714
1190	0.595	-3.7	6.24924242424	3.39166666667	-0.0160714285714
1191	0.5955	-5.15	4.83484848485	1.95	-1.43303571429
1192	0.596	0.65	16.15	-0.933333333333	-7.10089285714
1193	0.5965	2.1	17.5643939394	-3.81666666667	-11.3517857143
1194	0.597	0.65	14.7356060606	-6.7	-2.85
1195	0.5975	-0.8	3.42045454545	1.95	-1.43303571429
1196	0.598	2.1	13.3212121212	0.508333333333	-0.0160714285714
1197	0.5985	-12.4	10.4924242424	0.508333333333	-1.43303571429
1198	0.599	-10.95	9.07803030303	-0.933333333333	11.3196428571
1199	0.5995	0.65	7.66363636364	-0.933333333333	-2.85
1200	0.6	-0.8	9.07803030303	0.508333333333	-4.26696428571
1201	0.6005	-0.8	2.00606060606	1.95	-4.26696428571
1202	0.601	-2.25	-6.4803030303	1.95	-4.26696428571
1203	0.6015	-0.8	-2.23712121212	1.95	-4.26696428571
1204	0.602	-8.05	0.591666666667	1.95	1.40089285714
1205	0.6025	-0.8	-0.822727272727	-0.933333333333	1.40089285714
1206	0.603	-0.8	-10.7234848485	1.95	-5.68392857143
1207	0.6035	-2.25	3.42045454545	1.95	-4.26696428571
1208	0.604	-3.7	-2.23712121212	1.95	-4.26696428571
1209	0.6045	-0.8	0.591666666667	1.95	-5.68392857143
1210	0.605	-9.5	-2.23712121212	0.508333333333	-5.68392857143
1211	0.6055	-2.25	2.00606060606	9.15833333333	-1.43303571429
1212	0.606	-2.25	2.00606060606	14.925	-4.26696428571
1213	0.6065	-0.8	7.66363636364	3.39166666667	-1.43303571429
1214	0.607	-8.05	3.42045454545	3.39166666667	-2.85
1215	0.6075	10.8	6.24924242424	1.95	-0.0160714285714
1216	0.608	-0.8	7.66363636364	-2.375	-7.10089285714
1217	0.6085	-0.8	13.3212121212	9.15833333333	-1.43303571429
1218	0.609	0.65	14.7356060606	9.15833333333	-2.85
1219	0.6095	-2.25	9.07803030303	0.508333333333	-1.43303571429
1220	0.61	-9.5	17.5643939394	-0.933333333333	-0.0160714285714
1221	0.6105	0.65	18.9787878788	3.39166666667	4.23482142857
1222	0.611	-0.8	20.3931818182	4.83333333333	1.40089285714
1223	0.6115	-2.25	21.8075757576	-0.933333333333	-1.43303571429
1224	0.612	0.65	17.5643939394	-5.25833333333	-1.43303571429
1225	0.6125	-0.8	30.2939393939	0.508333333333	-1.43303571429
1226	0.613	5.0	28.8795454545	1.95	-4.26696428571
1227	0.6135	-5.15	27.4651515152	1.95	-4.26696428571
1228	0.614	-0.8	28.8795454545	4.83333333333	-4.26696428571
1229	0.6145	0.65	27.4651515152	-2.375	-2.85
1230	0.615	2.1	17.5643939394	3.39166666667	-1.43303571429
1231	0.6155	3.55	24.6363636364	3.39166666667	-2.85
1232	0.616	9.35	20.3931818182	0.508333333333	-4.26696428571
1233	0.6165	-5.15	16.15	0.508333333333	4.23482142857
1234	0.617	-0.8	17.5643939394	0.508333333333	-5.68392857143
1235	0.6175	-0.8	13.3212121212	-2.375	-4.26696428571
1236	0.618	0.65	16.15	0.508333333333	-2.85
1237	0.6185	-0.8	7.66363636364	1.95	-2.85
1238	0.619	-10.95	6.24924242424	3.39166666667	-1.43303571429
1239	0.6195	0.65	6.24924242424	3.39166666667	12.7366071429
1240	0.62	-2.25	3.42045454545	17.8083333333	-2.85
1241	0.6205	-2.25	2.00606060606	16.3666666667	-2.85
1242	0.621	0.65	-2.23712121212	-0.933333333333	-1.43303571429
1243	0.6215	5.0	2.00606060606	1.95	-4.26696428571
1244	0.622	16.6	-0.822727272727	3.39166666667	-5.68392857143
1245	0.6225	-3.7	2.00606060606	-0.933333333333	11.3196428571
1246	0.623	-0.8	7.66363636364	16.3666666667	-7.10089285714
1247	0.6235	-3.7	0.591666666667	17.8083333333	-5.68392857143
1248	0.624	-3.7	-6.4803030303	0.508333333333	-4.26696428571
1249	0.6245	2.1	6.24924242424	4.83333333333	-4.26696428571
1250	0.625	16.6	10.4924242424	0.508333333333	-9.93482142857
1251	0.6255	0.65	13.3212121212	1.95	-8.51785714286
1252	0.626	0.65	14.7356060606	-3.81666666667	-7.10089285714
1253	0.6265	-0.8	16.15	1.95	2.81785714286
1254	0.627	0.65	30.2939393939	0.508333333333	-1.43303571429
1255	0.6275	-0.8	34.5371212121	3.39166666667	1.40089285714
1256	0.628	-6.6	26.0507575758	0.508333333333	12.7366071429
1257	0.6285	-0.8	27.4651515152	1.95	-0.0160714285714
1258	0.629	-2.25	24.6363636364	13.4833333333	-1.43303571429
1259	0.6295	0.65	26.0507575758	12.0416666667	-0.0160714285714
1260	0.63	2.1	23.221969697	1.95	-0.0160714285714
1261	0.6305	-3.7	26.0507575758	3.39166666667	2.81785714286
1262	0.631	3.55	23.221969697	0.508333333333	4.23482142857
1263	0.6315	0.65	21.8075757576	1.95	5.65178571429
1264	0.632	0.65	20.3931818182	3.39166666667	-1.43303571429
1265	0.6325	0.65	9.07803030303	3.39166666667	-2.85
1266	0.633	-2.25	21.8075757576	1.95	-5.68392857143
1267	0.6335	3.55	14.7356060606	3.39166666667	-9.93482142857
1268	0.634	9.35	10.4924242424	1.95	-7.10089285714
1269	0.6345	-0.8	9.07803030303	4.83333333333	-8.51785714286
1270	0.635	0.65	7.66363636364	-3.81666666667	-8.51785714286
1271	0.6355	-2.25	0.591666666667	-3.81666666667	-7.10089285714
1272	0.636	0.65	16.15	1.95	-8.51785714286
1273	0.6365	0.65	2.00606060606	3.39166666667	-8.51785714286
1274	0.637	-6.6	4.83484848485	4.83333333333	1.40089285714
1275	0.6375	-2.25	3.42045454545	3.39166666667	2.81785714286
1276	0.638	-0.8	2.00606060606	-6.7	-5.68392857143
1277	0.6385	-0.8	0.591666666667	0.508333333333	-5.68392857143
1278	0.639	-3.7	3.42045454545	1.95	-4.26696428571
1279	0.6395	-8.05	3.42045454545	1.95	-5.68392857143
1280	0.64	-5.15	4.83484848485	0.508333333333	-1.43303571429
1281	0.6405	-0.8	4.83484848485	1.95	14.1535714286
1282	0.641	-0.8	4.83484848485	16.3666666667	-2.85
1283	0.6415	0.65	2.00606060606	1.95	-1.43303571429
1284	0.642	2.1	2.00606060606	0.508333333333	-1.43303571429
1285	0.6425	0.65	3.42045454545	1.95	-1.43303571429
1286	0.643	0.65	10.4924242424	1.95	-8.51785714286
1287	0.6435	-0.8	11.9068181818	-2.375	-8.51785714286
1288	0.644	2.1	11.9068181818	-6.7	1.40089285714
1289	0.6445	2.1	27.4651515152	0.508333333333	1.40089285714
1290	0.645	-2.25	30.2939393939	1.95	2.81785714286
1291	0.6455	-9.5	17.5643939394	0.508333333333	2.81785714286
1292	0.646	0.65	17.5643939394	1.95	-7.10089285714
1293	0.6465	3.55	18.9787878788	13.4833333333	-1.43303571429
1294	0.647	2.1	16.15	17.8083333333	-4.26696428571
1295	0.6475	3.55	6.24924242424	0.508333333333	-4.26696428571
1296	0.648	-3.7	14.7356060606	0.508333333333	-2.85
1297	0.6485	9.35	16.15	-0.933333333333	-5.68392857143
1298	0.649	-0.8	13.3212121212	0.508333333333	4.23482142857
1299	0.6495	0.65	10.4924242424	-3.81666666667	-7.10089285714
1300	0.65	-0.8	7.66363636364	1.95	-8.51785714286
1301	0.6505	2.1	7.66363636364	3.39166666667	-8.51785714286
1302	0.651	-2.25	3.42045454545	0.508333333333	-7.10089285714
1303	0.6515	-8.05	4.83484848485	-0.933333333333	-5.68392857143
1304	0.652	-2.25	0.591666666667	1.95	7.06875
1305	0.6525	-0.8	0.591666666667	3.39166666667	-5.68392857143
1306	0.653	-3.7	-2.23712121212	0.508333333333	-4.26696428571
1307	0.6535	-2.25	-12.1378787879	0.508333333333	-4.26696428571
1308	0.654	0.65	-10.7234848485	-0.933333333333	-5.68392857143
1309	0.6545	-5.15	-0.822727272727	1.95	-11.3517857143
1310	0.655	-3.7	-0.822727272727	0.508333333333	-4.26696428571
1311	0.6555	-3.7	2.00606060606	9.15833333333	-2.85
1312	0.656	-5.15	-0.822727272727	0.508333333333	-4.26696428571
1313	0.6565	-0.8	-6.4803030303	0.508333333333	-4.26696428571
1314	0.657	-0.8	0.591666666667	0.508333333333	-7.10089285714
1315	0.6575	16.6	3.42045454545	0.508333333333	-4.26696428571
1316	0.658	0.65	6.24924242424	-8.14166666667	-1.43303571429
1317	0.6585	-0.8	4.83484848485	-0.933333333333	-1.43303571429
1318	0.659	-0.8	0.591666666667	0.508333333333	-1.43303571429
1319	0.6595	0.65	13.3212121212	0.508333333333	-2.85
1320	0.66	0.65	20.3931818182	0.508333333333	-2.85
1321	0.6605	-6.6	13.3212121212	-0.933333333333	-1.43303571429
1322	0.661	-2.25	17.5643939394	-3.81666666667	-2.85
1323	0.6615	-2.25	18.9787878788	12.0416666667	-4.26696428571
1324	0.662	0.65	6.24924242424	-0.933333333333	-1.43303571429
1325	0.6625	-3.7	9.07803030303	1.95	-4.26696428571
1326	0.663	5.0	14.7356060606	1.95	-2.85
1327	0.6635	-2.25	17.5643939394	-0.933333333333	-9.93482142857
1328	0.664	-2.25	17.5643939394	-5.25833333333	-1.43303571429
1329	0.6645	-0.8	16.15	4.83333333333	-4.26696428571
1330	0.665	-0.8	14.7356060606	-0.933333333333	-4.26696428571
1331	0.6655	2.1	13.3212121212	0.508333333333	-4.26696428571
1332	0.666	0.65	10.4924242424	0.508333333333	-1.43303571429
1333	0.6665	-6.6	6.24924242424	1.95	8.48571428571
1334	0.667	0.65	6.24924242424	1.95	7.06875
1335	0.6675	2.1	2.00606060606	1.95	-4.26696428571
1336	0.668	2.1	0.591666666667	1.95	-5.68392857143
1337	0.6685	2.1	-6.4803030303	1.95	-7.10089285714
1338	0.669	-2.25	0.591666666667	1.95	-8.51785714286
1339	0.6695	-0.8	-2.23712121212	0.508333333333	-14.1857142857
1340	0.67	-2.25	-3.65151515152	16.3666666667	-5.68392857143
1341	0.6705	-0.8	-5.06590909091	1.95	-5.68392857143
1342	0.671	-0.8	-2.23712121212	0.508333333333	-1.43303571429
1343	0.6715	-2.25	-6.4803030303	-0.933333333333	-5.68392857143
1344	0.672	13.7	0.591666666667	1.95	-2.85
1345	0.6725	-2.25	-0.822727272727	-0.933333333333	-11.3517857143
1346	0.673	0.65	0.591666666667	-0.933333333333	-1.43303571429
1347	0.6735	-0.8	2.00606060606	-5.25833333333	-2.85
1348	0.674	-2.25	13.3212121212	0.508333333333	-1.43303571429
1349	0.6745	-5.15	9.07803030303	-0.933333333333	-2.85
1350	0.675	12.25	10.4924242424	0.508333333333	-1.43303571429
1351	0.6755	-8.05	10.4924242424	-0.933333333333	-0.0160714285714
1352	0.676	-2.25	10.4924242424	17.8083333333	-1.43303571429
1353	0.6765	2.1	17.5643939394	0.508333333333	-1.43303571429
1354	0.677	-2.25	30.2939393939	0.508333333333	-0.0160714285714
1355	0.6775	-12.4	17.5643939394	1.95	-1.43303571429
1356	0.678	18.05	16.15	-0.933333333333	-0.0160714285714
1357	0.6785	-0.8	17.5643939394	1.95	-1.43303571429
1358	0.679	-0.8	17.5643939394	13.4833333333	-0.0160714285714
1359	0.6795	-2.25	7.66363636364	1.95	-2.85
1360	0.68	3.55	16.15	0.508333333333	-1.43303571429
1361	0.6805	0.65	14.7356060606	-0.933333333333	-1.43303571429
1362	0.681	16.6	17.5643939394	3.39166666667	-11.3517857143
1363	0.6815	-0.8	17.5643939394	3.39166666667	-12.76875
1364	0.682	2.1	16.15	-3.81666666667	-5.68392857143
1365	0.6825	3.55	-0.822727272727	1.95	-2.85
1366	0.683	3.55	28.8795454545	1.95	-7.10089285714
1367	0.6835	-12.4	6.24924242424	1.95	-1.43303571429
1368	0.684	-8.05	6.24924242424	-0.933333333333	14.1535714286
1369	0.6845	-0.8	3.42045454545	-0.933333333333	11.3196428571
1370	0.685	0.65	3.42045454545	-2.375	-5.68392857143
1371	0.6855	-2.25	18.9787878788	1.95	-5.68392857143
1372	0.686	-0.8	-10.7234848485	0.508333333333	-4.26696428571
1373	0.6865	-16.75	-6.4803030303	0.508333333333	-8.51785714286
1374	0.687	-2.25	-3.65151515152	1.95	-12.76875
1375	0.6875	-5.15	-6.4803030303	17.8083333333	-2.85
1376	0.688	-2.25	-7.8946969697	12.0416666667	-5.68392857143
1377	0.6885	0.65	-12.1378787879	-0.933333333333	-4.26696428571
1378	0.689	2.1	-10.7234848485	0.508333333333	-4.26696428571
1379	0.6895	10.8	-5.06590909091	1.95	-11.3517857143
1380	0.69	-6.6	-0.822727272727	-0.933333333333	-7.10089285714
1381	0.6905	0.65	2.00606060606	-0.933333333333	-1.43303571429
1382	0.691	-0.8	4.83484848485	16.3666666667	-1.43303571429
1383	0.6915	-2.25	-2.23712121212	1.95	-2.85
1384	0.692	0.65	-0.822727272727	0.508333333333	-2.85
1385	0.6925	-0.8	0.591666666667	-0.933333333333	-4.26696428571
1386	0.693	-0.8	9.07803030303	-0.933333333333	-12.76875
1387	0.6935	0.65	10.4924242424	-11.025	-0.0160714285714
1388	0.694	0.65	13.3212121212	4.83333333333	-1.43303571429
1389	0.6945	0.65	18.9787878788	-0.933333333333	-2.85
1390	0.695	2.1	7.66363636364	0.508333333333	-0.0160714285714
1391	0.6955	2.1	7.66363636364	1.95	-1.43303571429
1392	0.696	2.1	16.15	0.508333333333	-12.76875
1393	0.6965	0.65	17.5643939394	-9.58333333333	-2.85
1394	0.697	0.65	14.7356060606	-3.81666666667	-1.43303571429
1395	0.6975	0.65	16.15	0.508333333333	-1.43303571429
1396	0.698	0.65	20.3931818182	0.508333333333	-2.85
1397	0.6985	-15.3	9.07803030303	0.508333333333	-0.0160714285714
1398	0.699	-3.7	6.24924242424	3.39166666667	7.06875
1399	0.6995	0.65	2.00606060606	4.83333333333	-7.10089285714
1400	0.7	-0.8	0.591666666667	-0.933333333333	-4.26696428571
1401	0.7005	-0.8	2.00606060606	-3.81666666667	-7.10089285714
1402	0.701	-0.8	0.591666666667	0.508333333333	-5.68392857143
1403	0.7015	-5.15	0.591666666667	0.508333333333	-5.68392857143
1404	0.702	-10.95	-0.822727272727	-0.933333333333	-0.0160714285714
1405	0.7025	-2.25	-0.822727272727	4.83333333333	-2.85
1406	0.703	0.65	-2.23712121212	7.71666666667	-5.68392857143
1407	0.7035	0.65	-10.7234848485	0.508333333333	-5.68392857143
1408	0.704	-2.25	0.591666666667	1.95	-4.26696428571
1409	0.7045	3.55	-6.4803030303	-2.375	-2.85
1410	0.705	-6.6	-6.4803030303	-0.933333333333	1.40089285714
1411	0.7055	-2.25	-5.06590909091	-5.25833333333	5.65178571429
1412	0.706	-2.25	-5.06590909091	9.15833333333	-1.43303571429
1413	0.7065	-2.25	7.66363636364	0.508333333333	-2.85
1414	0.707	-3.7	-2.23712121212	1.95	-1.43303571429
1415	0.7075	-10.95	0.591666666667	0.508333333333	-0.0160714285714
1416	0.708	-10.95	0.591666666667	3.39166666667	-14.1857142857
1417	0.7085	0.65	2.00606060606	17.8083333333	-2.85
1418	0.709	-3.7	2.00606060606	-0.933333333333	-2.85
1419	0.7095	-3.7	3.42045454545	-0.933333333333	-1.43303571429
1420	0.71	-0.8	-0.822727272727	0.508333333333	-1.43303571429
1421	0.7105	20.95	6.24924242424	1.95	-2.85
1422	0.711	-0.8	11.9068181818	-0.933333333333	7.06875
1423	0.7115	-0.8	11.9068181818	-2.375	7.06875
1424	0.712	-0.8	18.9787878788	-0.933333333333	-1.43303571429
1425	0.7125	-0.8	30.2939393939	1.95	-2.85
1426	0.713	0.65	16.15	1.95	-0.0160714285714
1427	0.7135	-13.85	16.15	3.39166666667	-1.43303571429
1428	0.714	0.65	13.3212121212	4.83333333333	-8.51785714286
1429	0.7145	-0.8	9.07803030303	7.71666666667	-4.26696428571
1430	0.715	-3.7	10.4924242424	0.508333333333	-2.85
1431	0.7155	2.1	4.83484848485	3.39166666667	-1.43303571429
1432	0.716	5.0	4.83484848485	0.508333333333	-2.85
1433	0.7165	15.15	4.83484848485	0.508333333333	-0.0160714285714
1434	0.717	-5.15	0.591666666667	0.508333333333	-7.10089285714
1435	0.7175	0.65	0.591666666667	6.275	-2.85
1436	0.718	-2.25	-2.23712121212	6.275	-2.85
1437	0.7185	0.65	-2.23712121212	4.83333333333	-1.43303571429
1438	0.719	0.65	-12.1378787879	0.508333333333	-2.85
1439	0.7195	10.8	-6.4803030303	3.39166666667	-7.10089285714
1440	0.72	-2.25	-10.7234848485	3.39166666667	-9.93482142857
1441	0.7205	0.65	-10.7234848485	-3.81666666667	-2.85
1442	0.721	-3.7	-13.5522727273	1.95	-4.26696428571
1443	0.7215	-0.8	2.00606060606	1.95	-2.85
1444	0.722	-3.7	-10.7234848485	1.95	-2.85
1445	0.7225	-15.3	-10.7234848485	-0.933333333333	-1.43303571429
1446	0.723	0.65	-9.30909090909	1.95	15.5705357143
1447	0.7235	-0.8	-7.8946969697	19.25	-1.43303571429
1448	0.724	-0.8	-9.30909090909	-0.933333333333	-2.85
1449	0.7245	-0.8	-5.06590909091	-0.933333333333	-1.43303571429
1450	0.725	7.9	-3.65151515152	1.95	-0.0160714285714
1451	0.7255	19.5	0.591666666667	3.39166666667	4.23482142857
1452	0.726	-8.05	2.00606060606	1.95	1.40089285714
1453	0.7265	-0.8	4.83484848485	16.3666666667	-1.43303571429
1454	0.727	-0.8	9.07803030303	0.508333333333	-1.43303571429
1455	0.7275	0.65	-2.23712121212	-3.81666666667	-1.43303571429
1456	0.728	2.1	7.66363636364	-0.933333333333	-0.0160714285714
1457	0.7285	10.8	3.42045454545	1.95	2.81785714286
1458	0.729	-5.15	7.66363636364	1.95	8.48571428571
1459	0.7295	3.55	7.66363636364	-0.933333333333	14.1535714286
1460	0.73	0.65	10.4924242424	-0.933333333333	-2.85
1461	0.7305	0.65	7.66363636364	1.95	-4.26696428571
1462	0.731	0.65	-0.822727272727	0.508333333333	-2.85
1463	0.7315	19.5	7.66363636364	1.95	-4.26696428571
1464	0.732	0.65	4.83484848485	1.95	-9.93482142857
1465	0.7325	-0.8	3.42045454545	-8.14166666667	-12.76875
1466	0.733	2.1	0.591666666667	-8.14166666667	-2.85
1467	0.7335	-0.8	0.591666666667	3.39166666667	-5.68392857143
1468	0.734	-5.15	-3.65151515152	1.95	-5.68392857143
1469	0.7345	-6.6	-3.65151515152	1.95	-2.85
1470	0.735	-0.8	-6.4803030303	1.95	-2.85
1471	0.7355	0.65	-3.65151515152	13.4833333333	-1.43303571429
1472	0.736	-0.8	-9.30909090909	9.15833333333	-5.68392857143
1473	0.7365	0.65	-7.8946969697	1.95	-4.26696428571
1474	0.737	-12.4	-9.30909090909	0.508333333333	-1.43303571429
1475	0.7375	0.65	-7.8946969697	0.508333333333	-4.26696428571
1476	0.738	-2.25	-5.06590909091	-6.7	-4.26696428571
1477	0.7385	-3.7	-7.8946969697	-0.933333333333	-1.43303571429
1478	0.739	0.65	-0.822727272727	0.508333333333	-2.85
1479	0.7395	-5.15	-6.4803030303	0.508333333333	-2.85
1480	0.74	-13.85	0.591666666667	1.95	-1.43303571429
1481	0.7405	0.65	-0.822727272727	-0.933333333333	-2.85
1482	0.741	-6.6	0.591666666667	3.39166666667	-1.43303571429
1483	0.7415	0.65	2.00606060606	12.0416666667	-0.0160714285714
1484	0.742	-0.8	2.00606060606	16.3666666667	1.40089285714
1485	0.7425	0.65	6.24924242424	0.508333333333	-1.43303571429
1486	0.743	-5.15	7.66363636364	0.508333333333	-1.43303571429
1487	0.7435	0.65	10.4924242424	1.95	-1.43303571429
1488	0.744	2.1	10.4924242424	3.39166666667	7.06875
1489	0.7445	0.65	10.4924242424	-0.933333333333	1.40089285714
1490	0.745	-0.8	3.42045454545	-0.933333333333	-1.43303571429
1491	0.7455	0.65	6.24924242424	-0.933333333333	1.40089285714
1492	0.746	3.55	10.4924242424	1.95	2.81785714286
1493	0.7465	-6.6	10.4924242424	-0.933333333333	-2.85
1494	0.747	2.1	10.4924242424	-0.933333333333	-1.43303571429
1495	0.7475	3.55	10.4924242424	17.8083333333	-2.85
1496	0.748	2.1	10.4924242424	0.508333333333	1.40089285714
1497	0.7485	0.65	3.42045454545	0.508333333333	-0.0160714285714
1498	0.749	3.55	7.66363636364	1.95	-2.85
1499	0.7495	18.05	6.24924242424	4.83333333333	-11.3517857143
1500	0.75	0.65	6.24924242424	1.95	-12.76875
1501	0.7505	0.65	2.00606060606	-6.7	-5.68392857143
1502	0.751	2.1	2.00606060606	-8.14166666667	-1.43303571429
1503	0.7515	3.55	16.15	0.508333333333	-4.26696428571
1504	0.752	-10.95	-5.06590909091	0.508333333333	-2.85
1505	0.7525	-3.7	-3.65151515152	1.95	-1.43303571429
1506	0.753	0.65	-6.4803030303	4.83333333333	-8.51785714286
1507	0.7535	0.65	-10.7234848485	7.71666666667	-2.85
1508	0.754	-0.8	-14.9666666667	1.95	-2.85
1509	0.7545	0.65	-6.4803030303	0.508333333333	-4.26696428571
1510	0.755	-2.25	-6.4803030303	0.508333333333	-1.43303571429
1511	0.7555	-9.5	-9.30909090909	0.508333333333	11.3196428571
1512	0.756	-0.8	-7.8946969697	0.508333333333	15.5705357143
1513	0.7565	0.65	-5.06590909091	17.8083333333	-2.85
1514	0.757	0.65	0.591666666667	-0.933333333333	-2.85
1515	0.7575	-5.15	-5.06590909091	-2.375	-4.26696428571
1516	0.758	3.55	4.83484848485	0.508333333333	-0.0160714285714
1517	0.7585	0.65	2.00606060606	0.508333333333	-1.43303571429
1518	0.759	-0.8	3.42045454545	-6.7	1.40089285714
1519	0.7595	0.65	7.66363636364	-6.7	1.40089285714
1520	0.76	-0.8	7.66363636364	-5.25833333333	1.40089285714
1521	0.7605	2.1	27.4651515152	0.508333333333	1.40089285714
1522	0.761	-2.25	9.07803030303	0.508333333333	-0.0160714285714
1523	0.7615	-0.8	13.3212121212	1.95	-1.43303571429
1524	0.762	-0.8	13.3212121212	1.95	-11.3517857143
1525	0.7625	0.65	18.9787878788	3.39166666667	-12.76875
1526	0.763	2.1	13.3212121212	1.95	-2.85
1527	0.7635	0.65	13.3212121212	-2.375	-1.43303571429
1528	0.764	3.55	14.7356060606	1.95	-1.43303571429
1529	0.7645	12.25	13.3212121212	0.508333333333	-7.10089285714
1530	0.765	-0.8	9.07803030303	0.508333333333	-1.43303571429
1531	0.7655	3.55	13.3212121212	-0.933333333333	-7.10089285714
1532	0.766	0.65	6.24924242424	0.508333333333	-2.85
1533	0.7665	3.55	4.83484848485	0.508333333333	-1.43303571429
1534	0.767	0.65	3.42045454545	1.95	-1.43303571429
1535	0.7675	19.5	3.42045454545	0.508333333333	-14.1857142857
1536	0.768	-2.25	2.00606060606	-0.933333333333	-5.68392857143
1537	0.7685	0.65	-0.822727272727	-9.58333333333	-2.85
1538	0.769	-0.8	-3.65151515152	3.39166666667	-1.43303571429
1539	0.7695	-0.8	6.24924242424	1.95	-2.85
1540	0.77	-2.25	-9.30909090909	1.95	-1.43303571429
1541	0.7705	-13.85	-13.5522727273	0.508333333333	-4.26696428571
1542	0.771	-0.8	-7.8946969697	0.508333333333	-9.93482142857
1543	0.7715	0.65	-5.06590909091	-0.933333333333	-9.93482142857
1544	0.772	-2.25	-5.06590909091	-6.7	-4.26696428571
1545	0.7725	-2.25	-7.8946969697	-0.933333333333	-1.43303571429
1546	0.773	-5.15	-2.23712121212	-0.933333333333	-1.43303571429
1547	0.7735	-8.05	-0.822727272727	0.508333333333	1.40089285714
1548	0.774	-10.95	0.591666666667	3.39166666667	15.5705357143
1549	0.7745	-0.8	3.42045454545	3.39166666667	-2.85
1550	0.775	0.65	4.83484848485	17.8083333333	-1.43303571429
1551	0.7755	0.65	-2.23712121212	1.95	2.81785714286
1552	0.776	-0.8	-2.23712121212	0.508333333333	-1.43303571429
1553	0.7765	16.6	9.07803030303	0.508333333333	-12.76875
1554	0.777	0.65	14.7356060606	-0.933333333333	-9.93482142857
1555	0.7775	0.65	13.3212121212	-3.81666666667	-2.85
1556	0.778	-0.8	14.7356060606	-3.81666666667	-0.0160714285714
1557	0.7785	0.65	7.66363636364	-2.375	-0.0160714285714
1558	0.779	3.55	14.7356060606	3.39166666667	-1.43303571429
1559	0.7795	19.5	13.3212121212	0.508333333333	-9.93482142857
1560	0.78	0.65	10.4924242424	1.95	-11.3517857143
1561	0.7805	0.65	14.7356060606	-3.81666666667	-4.26696428571
1562	0.781	-3.7	13.3212121212	-5.25833333333	-4.26696428571
1563	0.7815	-0.8	10.4924242424	4.83333333333	-2.85
1564	0.782	3.55	13.3212121212	3.39166666667	-2.85
1565	0.7825	16.6	7.66363636364	-0.933333333333	-5.68392857143
1566	0.783	-0.8	2.00606060606	-0.933333333333	-12.76875
1567	0.7835	-0.8	6.24924242424	-6.7	-5.68392857143
1568	0.784	3.55	3.42045454545	1.95	-2.85
1569	0.7845	-0.8	-10.7234848485	1.95	-7.10089285714
1570	0.785	-0.8	-0.822727272727	1.95	-1.43303571429
1571	0.7855	10.8	-6.4803030303	3.39166666667	-1.43303571429
1572	0.786	-0.8	-6.4803030303	3.39166666667	-7.10089285714
1573	0.7865	-3.7	-7.8946969697	-0.933333333333	-7.10089285714
1574	0.787	-3.7	-9.30909090909	-0.933333333333	-8.51785714286
1575	0.7875	-0.8	-9.30909090909	0.508333333333	-7.10089285714
1576	0.788	2.1	-6.4803030303	-0.933333333333	-8.51785714286
1577	0.7885	-3.7	-5.06590909091	-0.933333333333	-14.1857142857
1578	0.789	-0.8	-6.4803030303	-9.58333333333	-4.26696428571
1579	0.7895	-0.8	-3.65151515152	-6.7	-1.43303571429
1580	0.79	-0.8	0.591666666667	-0.933333333333	-0.0160714285714
1581	0.7905	-5.15	14.7356060606	0.508333333333	4.23482142857
1582	0.791	-12.4	2.00606060606	3.39166666667	2.81785714286
1583	0.7915	-0.8	0.591666666667	1.95	-0.0160714285714
1584	0.792	0.65	6.24924242424	14.925	-5.68392857143
1585	0.7925	0.65	2.00606060606	12.0416666667	-2.85
1586	0.793	2.1	2.00606060606	0.508333333333	-7.10089285714
1587	0.7935	5.0	13.3212121212	0.508333333333	-5.68392857143
1588	0.794	19.5	17.5643939394	-0.933333333333	-7.10089285714
1589	0.7945	0.65	17.5643939394	0.508333333333	-14.1857142857
1590	0.795	0.65	18.9787878788	-0.933333333333	-9.93482142857
1591	0.7955	2.1	20.3931818182	-8.14166666667	-2.85
1592	0.796	3.55	35.9515151515	0.508333333333	-0.0160714285714
1593	0.7965	-0.8	17.5643939394	0.508333333333	-0.0160714285714
1594	0.797	-6.6	17.5643939394	-0.933333333333	-2.85
1595	0.7975	2.1	16.15	0.508333333333	-8.51785714286
1596	0.798	2.1	14.7356060606	-0.933333333333	-2.85
1597	0.7985	0.65	3.42045454545	-2.375	-1.43303571429
1598	0.799	0.65	10.4924242424	3.39166666667	-4.26696428571
1599	0.7995	6.45	6.24924242424	-0.933333333333	-7.10089285714
1600	0.8	19.5	3.42045454545	1.95	-15.6026785714
1601	0.8005	2.1	2.00606060606	-9.58333333333	-12.76875
1602	0.801	-0.8	-0.822727272727	-6.7	-5.68392857143
1603	0.8015	2.1	-13.5522727273	1.95	-4.26696428571
1604	0.802	0.65	-12.1378787879	1.95	-4.26696428571
1605	0.8025	18.05	-6.4803030303	1.95	-2.85
1606	0.803	-10.95	-6.4803030303	0.508333333333	-4.26696428571
1607	0.8035	-0.8	-9.30909090909	4.83333333333	11.3196428571
1608	0.804	-2.25	-10.7234848485	16.3666666667	-7.10089285714
1609	0.8045	-3.7	-6.4803030303	3.39166666667	-4.26696428571
1610	0.805	-2.25	-10.7234848485	1.95	-4.26696428571
1611	0.8055	-5.15	-6.4803030303	0.508333333333	-4.26696428571
1612	0.806	-3.7	-9.30909090909	-2.375	-11.3517857143
1613	0.8065	-0.8	-6.4803030303	-5.25833333333	-1.43303571429
1614	0.807	0.65	-0.822727272727	3.39166666667	-1.43303571429
1615	0.8075	0.65	4.83484848485	0.508333333333	-1.43303571429
1616	0.808	-2.25	-3.65151515152	3.39166666667	-0.0160714285714
1617	0.8085	-10.95	-5.06590909091	1.95	-1.43303571429
1618	0.809	0.65	2.00606060606	4.83333333333	-1.43303571429
1619	0.8095	-0.8	4.83484848485	17.8083333333	-5.68392857143
1620	0.81	0.65	2.00606060606	19.25	-1.43303571429
1621	0.8105	0.65	-2.23712121212	4.83333333333	-1.43303571429
1622	0.811	2.1	-2.23712121212	0.508333333333	-1.43303571429
1623	0.8115	16.6	7.66363636364	0.508333333333	-1.43303571429
1624	0.812	-0.8	9.07803030303	0.508333333333	-1.43303571429
1625	0.8125	0.65	13.3212121212	14.925	-2.85
1626	0.813	2.1	7.66363636364	1.95	-4.26696428571
1627	0.8135	2.1	6.24924242424	1.95	-2.85
1628	0.814	-0.8	3.42045454545	1.95	-1.43303571429
1629	0.8145	18.05	9.07803030303	3.39166666667	-8.51785714286
1630	0.815	2.1	7.66363636364	3.39166666667	-12.76875
1631	0.8155	0.65	3.42045454545	-3.81666666667	-2.85
1632	0.816	0.65	6.24924242424	-6.7	-4.26696428571
1633	0.8165	3.55	17.5643939394	1.95	-7.10089285714
1634	0.817	-10.95	-3.65151515152	0.508333333333	-5.68392857143
1635	0.8175	-8.05	-3.65151515152	1.95	-2.85
1636	0.818	0.65	-6.4803030303	3.39166666667	12.7366071429
1637	0.8185	-0.8	-9.30909090909	17.8083333333	-4.26696428571
1638	0.819	-0.8	-17.7954545455	0.508333333333	-5.68392857143
1639	0.8195	0.65	-19.2098484848	-0.933333333333	-5.68392857143
1640	0.82	0.65	-12.1378787879	-0.933333333333	-5.68392857143
1641	0.8205	15.15	-14.9666666667	0.508333333333	-12.76875
1642	0.821	-0.8	-12.1378787879	-6.7	-12.76875
1643	0.8215	0.65	-12.1378787879	-6.7	-2.85
1644	0.822	-0.8	-23.453030303	1.95	-1.43303571429
1645	0.8225	0.65	6.24924242424	3.39166666667	-1.43303571429
1646	0.823	-12.4	-9.30909090909	3.39166666667	-0.0160714285714
1647	0.8235	-9.5	-6.4803030303	3.39166666667	1.40089285714
1648	0.824	0.65	-5.06590909091	1.95	-4.26696428571
1649	0.8245	-0.8	-6.4803030303	0.508333333333	-2.85
1650	0.825	-2.25	-12.1378787879	1.95	-1.43303571429
1651	0.8255	-5.15	-7.8946969697	0.508333333333	-1.43303571429
1652	0.826	18.05	2.00606060606	-0.933333333333	-4.26696428571
1653	0.8265	-0.8	4.83484848485	1.95	-9.93482142857
1654	0.827	-2.25	4.83484848485	-11.025	1.40089285714
1655	0.8275	-0.8	9.07803030303	0.508333333333	1.40089285714
1656	0.828	-2.25	24.6363636364	0.508333333333	-0.0160714285714
1657	0.8285	-0.8	9.07803030303	0.508333333333	-0.0160714285714
1658	0.829	-6.6	9.07803030303	1.95	-1.43303571429
1659	0.8295	0.65	10.4924242424	1.95	-0.0160714285714
1660	0.83	3.55	9.07803030303	20.6916666667	-4.26696428571
1661	0.8305	3.55	14.7356060606	0.508333333333	-2.85
1662	0.831	0.65	26.0507575758	1.95	-2.85
1663	0.8315	-13.85	7.66363636364	0.508333333333	-1.43303571429
1664	0.832	-6.6	6.24924242424	1.95	-14.1857142857
1665	0.8325	-0.8	3.42045454545	1.95	-11.3517857143
1666	0.833	0.65	0.591666666667	-5.25833333333	-4.26696428571
1667	0.8335	-0.8	-13.5522727273	0.508333333333	-4.26696428571
1668	0.834	3.55	7.66363636364	0.508333333333	-7.10089285714
1669	0.8345	2.1	-7.8946969697	-0.933333333333	-7.10089285714
1670	0.835	-0.8	-7.8946969697	1.95	-2.85
1671	0.8355	-0.8	-10.7234848485	1.95	-8.51785714286
1672	0.836	-2.25	-10.7234848485	7.71666666667	-9.93482142857
1673	0.8365	-3.7	-17.7954545455	-5.25833333333	-2.85
1674	0.837	-2.25	-7.8946969697	3.39166666667	-5.68392857143
1675	0.8375	-0.8	-12.1378787879	1.95	-1.43303571429
1676	0.838	0.65	-12.1378787879	1.95	-4.26696428571
1677	0.8385	-0.8	-10.7234848485	4.83333333333	-2.85
1678	0.839	-2.25	-16.3810606061	-0.933333333333	-2.85
1679	0.8395	-3.7	-20.6242424242	3.39166666667	-4.26696428571
1680	0.84	2.1	-19.2098484848	0.508333333333	-1.43303571429
1681	0.8405	2.1	-10.7234848485	1.95	-5.68392857143
1682	0.841	-0.8	-7.8946969697	0.508333333333	-12.76875
1683	0.8415	-0.8	-5.06590909091	3.39166666667	-7.10089285714
1684	0.842	0.65	-2.23712121212	-3.81666666667	-1.43303571429
1685	0.8425	-0.8	17.5643939394	0.508333333333	-2.85
1686	0.843	-5.15	-7.8946969697	3.39166666667	-2.85
1687	0.8435	-12.4	2.00606060606	3.39166666667	-2.85
1688	0.844	-0.8	7.66363636364	0.508333333333	-5.68392857143
1689	0.8445	-0.8	9.07803030303	0.508333333333	-4.26696428571
1690	0.845	-0.8	10.4924242424	-3.81666666667	-0.0160714285714
1691	0.8455	0.65	13.3212121212	0.508333333333	-4.26696428571
1692	0.846	0.65	3.42045454545	-0.933333333333	-1.43303571429
1693	0.8465	5.0	9.07803030303	3.39166666667	-1.43303571429
1694	0.847	3.55	10.4924242424	1.95	-4.26696428571
1695	0.8475	2.1	7.66363636364	0.508333333333	-8.51785714286
1696	0.848	0.65	6.24924242424	1.95	-2.85
1697	0.8485	0.65	2.00606060606	3.39166666667	-2.85
1698	0.849	5.0	7.66363636364	0.508333333333	-4.26696428571
1699	0.8495	9.35	2.00606060606	1.95	-5.68392857143
1700	0.85	-0.8	0.591666666667	3.39166666667	-7.10089285714
1701	0.8505	2.1	-2.23712121212	-0.933333333333	-5.68392857143
1702	0.851	0.65	-14.9666666667	0.508333333333	-5.68392857143
1703	0.8515	2.1	-13.5522727273	-0.933333333333	-2.85
1704	0.852	3.55	-6.4803030303	-0.933333333333	-5.68392857143
1705	0.8525	-2.25	-7.8946969697	1.95	-9.93482142857
1706	0.853	-3.7	-6.4803030303	-2.375	-9.93482142857
1707	0.8535	-2.25	-10.7234848485	0.508333333333	-12.76875
1708	0.854	-0.8	-10.7234848485	0.508333333333	-4.26696428571
1709	0.8545	-2.25	2.00606060606	1.95	-5.68392857143
1710	0.855	-5.15	-7.8946969697	0.508333333333	-4.26696428571
1711	0.8555	-8.05	-6.4803030303	4.83333333333	7.06875
1712	0.856	-5.15	-5.06590909091	-0.933333333333	14.1535714286
1713	0.8565	-3.7	-2.23712121212	19.25	-4.26696428571
1714	0.857	-3.7	-9.30909090909	0.508333333333	-2.85
1715	0.8575	-3.7	-6.4803030303	1.95	-2.85
1716	0.858	-15.3	0.591666666667	0.508333333333	-1.43303571429
1717	0.8585	-5.15	6.24924242424	-0.933333333333	-9.93482142857
1718	0.859	0.65	6.24924242424	-2.375	1.40089285714
1719	0.8595	-0.8	7.66363636364	-0.933333333333	-1.43303571429
1720	0.86	-0.8	23.221969697	1.95	-1.43303571429
1721	0.8605	-2.25	6.24924242424	-0.933333333333	-0.0160714285714
1722	0.861	-6.6	13.3212121212	0.508333333333	-0.0160714285714
1723	0.8615	7.9	9.07803030303	4.83333333333	-1.43303571429
1724	0.862	-2.25	10.4924242424	0.508333333333	11.3196428571
1725	0.8625	0.65	13.3212121212	9.15833333333	-1.43303571429
1726	0.863	0.65	6.24924242424	0.508333333333	-2.85
1727	0.8635	0.65	0.591666666667	-0.933333333333	-1.43303571429
1728	0.864	-8.05	6.24924242424	0.508333333333	-7.10089285714
1729	0.8645	18.05	7.66363636364	0.508333333333	-4.26696428571
1730	0.865	0.65	6.24924242424	-9.58333333333	-4.26696428571
1731	0.8655	-2.25	3.42045454545	0.508333333333	-1.43303571429
1732	0.866	-0.8	-5.06590909091	0.508333333333	-5.68392857143
1733	0.8665	3.55	6.24924242424	0.508333333333	-4.26696428571
1734	0.867	-6.6	-7.8946969697	1.95	-2.85
1735	0.8675	16.6	-0.822727272727	-0.933333333333	-17.0196428571
1736	0.868	-0.8	-3.65151515152	1.95	-15.6026785714
1737	0.8685	-0.8	-7.8946969697	-6.7	-4.26696428571
1738	0.869	-0.8	-16.3810606061	0.508333333333	-4.26696428571
1739	0.8695	-2.25	-6.4803030303	0.508333333333	-4.26696428571
1740	0.87	-0.8	-7.8946969697	0.508333333333	-5.68392857143
1741	0.8705	-13.85	-10.7234848485	0.508333333333	11.3196428571
1742	0.871	-5.15	-10.7234848485	0.508333333333	11.3196428571
1743	0.8715	-3.7	-9.30909090909	19.25	-4.26696428571
1744	0.872	-0.8	-22.0386363636	1.95	-5.68392857143
1745	0.8725	0.65	-20.6242424242	3.39166666667	-4.26696428571
1746	0.873	3.55	-7.8946969697	1.95	-4.26696428571
1747	0.8735	12.25	-9.30909090909	-0.933333333333	-2.85
1748	0.874	-0.8	-2.23712121212	-3.81666666667	-7.10089285714
1749	0.8745	-0.8	-3.65151515152	0.508333333333	-8.51785714286
1750	0.875	0.65	-2.23712121212	0.508333333333	-1.43303571429
1751	0.8755	0.65	-6.4803030303	1.95	-4.26696428571
1752	0.876	0.65	3.42045454545	3.39166666667	-4.26696428571
1753	0.8765	20.95	3.42045454545	0.508333333333	-2.85
1754	0.877	-0.8	4.83484848485	0.508333333333	-11.3517857143
1755	0.8775	-0.8	9.07803030303	-9.58333333333	-1.43303571429
1756	0.878	2.1	11.9068181818	1.95	-1.43303571429
1757	0.8785	-2.25	23.221969697	0.508333333333	-2.85
1758	0.879	-10.95	9.07803030303	0.508333333333	-1.43303571429
1759	0.8795	-10.95	13.3212121212	0.508333333333	-0.0160714285714
1760	0.88	0.65	9.07803030303	0.508333333333	-9.93482142857
1761	0.8805	0.65	6.24924242424	-8.14166666667	-1.43303571429
1762	0.881	-0.8	0.591666666667	0.508333333333	-1.43303571429
1763	0.8815	0.65	21.8075757576	1.95	-2.85
1764	0.882	-3.7	7.66363636364	0.508333333333	-2.85
1765	0.8825	-8.05	3.42045454545	0.508333333333	12.7366071429
1766	0.883	-0.8	0.591666666667	-2.375	8.48571428571
1767	0.8835	0.65	0.591666666667	-11.025	-7.10089285714
1768	0.884	-2.25	16.15	-0.933333333333	-4.26696428571
1769	0.8845	-2.25	-3.65151515152	1.95	-1.43303571429
1770	0.885	-15.3	-7.8946969697	3.39166666667	-2.85
1771	0.8855	-10.95	-10.7234848485	3.39166666667	-2.85
1772	0.886	-0.8	-9.30909090909	19.25	-5.68392857143
1773	0.8865	-5.15	-9.30909090909	12.0416666667	-4.26696428571
1774	0.887	-3.7	-22.0386363636	3.39166666667	-5.68392857143
1775	0.8875	-0.8	-14.9666666667	0.508333333333	-7.10089285714
1776	0.888	13.7	-10.7234848485	0.508333333333	-4.26696428571
1777	0.8885	-3.7	-12.1378787879	1.95	-5.68392857143
1778	0.889	0.65	-7.8946969697	13.4833333333	-9.93482142857
1779	0.8895	-0.8	-9.30909090909	13.4833333333	-7.10089285714
1780	0.89	-0.8	-17.7954545455	0.508333333333	-4.26696428571
1781	0.8905	2.1	-5.06590909091	-0.933333333333	-4.26696428571
1782	0.891	19.5	-0.822727272727	0.508333333333	-7.10089285714
1783	0.8915	0.65	0.591666666667	-2.375	16.9875
1784	0.892	0.65	2.00606060606	16.3666666667	-2.85
1785	0.8925	2.1	4.83484848485	13.4833333333	-4.26696428571
1786	0.893	2.1	4.83484848485	1.95	-1.43303571429
1787	0.8935	-8.05	6.24924242424	1.95	1.40089285714
1788	0.894	0.65	9.07803030303	1.95	1.40089285714
1789	0.8945	0.65	6.24924242424	4.83333333333	-1.43303571429
1790	0.895	-0.8	7.66363636364	-0.933333333333	-1.43303571429
1791	0.8955	-0.8	-0.822727272727	0.508333333333	-1.43303571429
1792	0.896	3.55	7.66363636364	-2.375	-0.0160714285714
1793	0.8965	3.55	9.07803030303	1.95	-2.85
1794	0.897	-0.8	10.4924242424	-3.81666666667	5.65178571429
1795	0.8975	2.1	7.66363636364	-9.58333333333	-5.68392857143
1796	0.898	0.65	9.07803030303	-8.14166666667	-4.26696428571
1797	0.8985	0.65	7.66363636364	-6.7	-2.85
1798	0.899	0.65	3.42045454545	3.39166666667	-2.85
1799	0.8995	-5.15	4.83484848485	-0.933333333333	-2.85
1800	0.9	-8.05	2.00606060606	1.95	-1.43303571429
1801	0.9005	0.65	0.591666666667	1.95	11.3196428571
1802	0.901	0.65	-2.23712121212	19.25	-5.68392857143
1803	0.9015	0.65	-13.5522727273	-0.933333333333	-5.68392857143
1804	0.902	-0.8	-12.1378787879	0.508333333333	-4.26696428571
1805	0.9025	5.0	-14.9666666667	1.95	-4.26696428571
1806	0.903	-0.8	-6.4803030303	-0.933333333333	-15.6026785714
1807	0.9035	0.65	-9.30909090909	-0.933333333333	-14.1857142857
1808	0.904	-0.8	-10.7234848485	-8.14166666667	-5.68392857143
1809	0.9045	0.65	6.24924242424	0.508333333333	-2.85
1810	0.905	-0.8	-9.30909090909	0.508333333333	-2.85
1811	0.9055	-13.85	-7.8946969697	1.95	-1.43303571429
1812	0.906	0.65	-7.8946969697	1.95	2.81785714286
1813	0.9065	-0.8	-5.06590909091	-0.933333333333	-7.10089285714
1814	0.907	0.65	-5.06590909091	-6.7	-1.43303571429
1815	0.9075	2.1	2.00606060606	-0.933333333333	-0.0160714285714
1816	0.908	-2.25	-3.65151515152	-0.933333333333	-1.43303571429
1817	0.9085	2.1	-2.23712121212	-0.933333333333	-7.10089285714
1818	0.909	-2.25	3.42045454545	-0.933333333333	-0.0160714285714
1819	0.9095	-0.8	2.00606060606	-8.14166666667	2.81785714286
1820	0.91	0.65	7.66363636364	3.39166666667	-0.0160714285714
1821	0.9105	0.65	7.66363636364	0.508333333333	-0.0160714285714
1822	0.911	-0.8	3.42045454545	1.95	1.40089285714
1823	0.9115	0.65	4.83484848485	3.39166666667	-8.51785714286
1824	0.912	-2.25	7.66363636364	3.39166666667	-7.10089285714
1825	0.9125	0.65	7.66363636364	9.15833333333	-2.85
1826	0.913	2.1	-5.06590909091	0.508333333333	-0.0160714285714
1827	0.9135	0.65	-2.23712121212	0.508333333333	-2.85
1828	0.914	3.55	2.00606060606	-0.933333333333	-5.68392857143
1829	0.9145	20.95	0.591666666667	0.508333333333	-12.76875
1830	0.915	2.1	0.591666666667	0.508333333333	-4.26696428571
1831	0.9155	2.1	-0.822727272727	0.508333333333	-1.43303571429
1832	0.916	2.1	-0.822727272727	1.95	-1.43303571429
1833	0.9165	-0.8	-6.4803030303	0.508333333333	-1.43303571429
1834	0.917	-12.4	-7.8946969697	3.39166666667	4.23482142857
1835	0.9175	-6.6	-10.7234848485	0.508333333333	-1.43303571429
1836	0.918	-0.8	-14.9666666667	4.83333333333	-5.68392857143
1837	0.9185	0.65	-14.9666666667	14.925	-8.51785714286
1838	0.919	-0.8	-30.525	0.508333333333	-8.51785714286
1839	0.9195	2.1	-33.3537878788	0.508333333333	-9.93482142857
1840	0.92	5.0	-20.6242424242	3.39166666667	-15.6026785714
1841	0.9205	-0.8	-22.0386363636	-0.933333333333	-25.5214285714
1842	0.921	-0.8	-23.453030303	-0.933333333333	-19.8535714286
1843	0.9215	0.65	-20.6242424242	-6.7	-9.93482142857
1844	0.922	0.65	-3.65151515152	1.95	-8.51785714286
1845	0.9225	-2.25	-22.0386363636	0.508333333333	-8.51785714286
1846	0.923	-13.85	-22.0386363636	0.508333333333	-4.26696428571
1847	0.9235	-8.05	-19.2098484848	0.508333333333	12.7366071429
1848	0.924	2.1	-24.8674242424	-5.25833333333	-4.26696428571
1849	0.9245	-0.8	-19.2098484848	-8.14166666667	-2.85
1850	0.925	3.55	-3.65151515152	3.39166666667	-2.85
1851	0.9255	-0.8	-16.3810606061	1.95	-4.26696428571
1852	0.926	-9.5	-13.5522727273	1.95	-2.85
1853	0.9265	0.65	-16.3810606061	-0.933333333333	-14.1857142857
1854	0.927	0.65	-14.9666666667	-0.933333333333	-12.76875
1855	0.9275	0.65	-12.1378787879	1.95	-5.68392857143
1856	0.928	0.65	-13.5522727273	3.39166666667	-5.68392857143
1857	0.9285	2.1	-19.2098484848	0.508333333333	-1.43303571429
1858	0.929	9.35	-14.9666666667	1.95	-4.26696428571
1859	0.9295	2.1	-12.1378787879	-3.81666666667	-9.93482142857
1860	0.93	5.0	-12.1378787879	7.71666666667	-4.26696428571
1861	0.9305	0.65	-10.7234848485	6.275	-4.26696428571
1862	0.931	-0.8	-5.06590909091	1.95	-0.0160714285714
1863	0.9315	-8.05	-10.7234848485	3.39166666667	-0.0160714285714
1864	0.932	7.9	-9.30909090909	1.95	2.81785714286
1865	0.9325	0.65	-10.7234848485	-3.81666666667	1.40089285714
1866	0.933	3.55	-12.1378787879	-5.25833333333	-1.43303571429
1867	0.9335	-3.7	-12.1378787879	-2.375	2.81785714286
1868	0.934	-5.15	-17.7954545455	3.39166666667	4.23482142857
1869	0.9345	2.1	-16.3810606061	0.508333333333	1.40089285714
1870	0.935	15.15	-14.9666666667	0.508333333333	-2.85
1871	0.9355	-2.25	-16.3810606061	0.508333333333	8.48571428571
1872	0.936	-2.25	-10.7234848485	1.95	5.65178571429
1873	0.9365	-3.7	-10.7234848485	1.95	4.23482142857
1874	0.937	-5.15	-10.7234848485	0.508333333333	5.65178571429
1875	0.9375	-16.75	-12.1378787879	0.508333333333	7.06875
1876	0.938	-5.15	-9.30909090909	0.508333333333	7.06875
1877	0.9385	-2.25	-7.8946969697	4.83333333333	1.40089285714
1878	0.939	-3.7	-5.06590909091	3.39166666667	-1.43303571429
1879	0.9395	-0.8	-10.7234848485	-2.375	5.65178571429
1880	0.94	-2.25	3.42045454545	0.508333333333	4.23482142857
1881	0.9405	0.65	0.591666666667	0.508333333333	4.23482142857
1882	0.941	-6.6	3.42045454545	-0.933333333333	14.1535714286
1883	0.9415	-2.25	6.24924242424	4.83333333333	4.23482142857
1884	0.942	-0.8	9.07803030303	4.83333333333	2.81785714286
1885	0.9425	-0.8	4.83484848485	0.508333333333	4.23482142857
1886	0.943	3.55	9.07803030303	-0.933333333333	2.81785714286
1887	0.9435	-8.05	14.7356060606	1.95	2.81785714286
1888	0.944	3.55	20.3931818182	1.95	4.23482142857
1889	0.9445	-2.25	26.0507575758	3.39166666667	-5.68392857143
1890	0.945	-0.8	28.8795454545	-0.933333333333	-4.26696428571
1891	0.9455	-0.8	38.7803030303	0.508333333333	-8.51785714286
1892	0.946	-5.15	28.8795454545	1.95	-4.26696428571
1893	0.9465	-16.75	28.8795454545	-0.933333333333	-7.10089285714
1894	0.947	-12.4	30.2939393939	3.39166666667	-4.26696428571
1895	0.9475	-2.25	31.7083333333	4.83333333333	-15.6026785714
1896	0.948	-2.25	28.8795454545	0.508333333333	-8.51785714286
1897	0.9485	-2.25	26.0507575758	-0.933333333333	-9.93482142857
1898	0.949	0.65	27.4651515152	4.83333333333	-8.51785714286
1899	0.9495	15.15	23.221969697	3.39166666667	-8.51785714286
1900	0.95	-6.6	21.8075757576	0.508333333333	-0.0160714285714
1901	0.9505	-2.25	18.9787878788	-0.933333333333	-2.85
1902	0.951	-3.7	17.5643939394	1.95	-4.26696428571
1903	0.9515	-2.25	18.9787878788	1.95	-4.26696428571
1904	0.952	0.65	6.24924242424	4.83333333333	-1.43303571429
1905	0.9525	-0.8	13.3212121212	0.508333333333	-1.43303571429
1906	0.953	-5.15	13.3212121212	-6.7	-5.68392857143
1907	0.9535	-0.8	10.4924242424	-3.81666666667	-8.51785714286
1908	0.954	-3.7	14.7356060606	1.95	-4.26696428571
1909	0.9545	-2.25	4.83484848485	0.508333333333	-2.85
1910	0.955	-6.6	10.4924242424	3.39166666667	-2.85
1911	0.9555	12.25	10.4924242424	3.39166666667	-5.68392857143
1912	0.956	-5.15	7.66363636364	0.508333333333	8.48571428571
1913	0.9565	0.65	13.3212121212	-2.375	-2.85
1914	0.957	-0.8	13.3212121212	-8.14166666667	-0.0160714285714
1915	0.9575	-0.8	23.221969697	3.39166666667	-1.43303571429
1916	0.958	-2.25	13.3212121212	0.508333333333	-0.0160714285714
1917	0.9585	-8.05	14.7356060606	1.95	11.3196428571
1918	0.959	0.65	17.5643939394	-5.25833333333	11.3196428571
1919	0.9595	-2.25	20.3931818182	-2.375	-1.43303571429
1920	0.96	-0.8	21.8075757576	0.508333333333	1.40089285714
1921	0.9605	-2.25	16.15	1.95	1.40089285714
1922	0.961	-10.95	20.3931818182	1.95	2.81785714286
1923	0.9615	2.1	21.8075757576	0.508333333333	-1.43303571429
1924	0.962	0.65	21.8075757576	3.39166666667	-7.10089285714
1925	0.9625	-0.8	21.8075757576	-3.81666666667	-0.0160714285714
1926	0.963	2.1	14.7356060606	3.39166666667	-0.0160714285714
1927	0.9635	0.65	18.9787878788	3.39166666667	-1.43303571429
1928	0.964	20.95	16.15	1.95	-9.93482142857
1929	0.9645	0.65	17.5643939394	0.508333333333	-8.51785714286
1930	0.965	0.65	17.5643939394	1.95	7.06875
1931	0.9655	3.55	16.15	0.508333333333	-2.85
1932	0.966	3.55	26.0507575758	1.95	-2.85
1933	0.9665	2.1	4.83484848485	1.95	-1.43303571429
1934	0.967	2.1	3.42045454545	0.508333333333	-1.43303571429
1935	0.9675	-6.6	0.591666666667	3.39166666667	5.65178571429
1936	0.968	0.65	0.591666666667	3.39166666667	12.7366071429
1937	0.9685	-0.8	-2.23712121212	1.95	-2.85
1938	0.969	-0.8	10.4924242424	-0.933333333333	-2.85
1939	0.9695	-3.7	-3.65151515152	0.508333333333	-1.43303571429
1940	0.97	-10.95	-5.06590909091	1.95	11.3196428571
1941	0.9705	-3.7	-6.4803030303	0.508333333333	14.1535714286
1942	0.971	-2.25	-6.4803030303	16.3666666667	-4.26696428571
1943	0.9715	0.65	-5.06590909091	19.25	-4.26696428571
1944	0.972	2.1	-12.1378787879	-0.933333333333	-2.85
1945	0.9725	0.65	-5.06590909091	1.95	-2.85
1946	0.973	18.05	-2.23712121212	0.508333333333	4.23482142857
1947	0.9735	0.65	-2.23712121212	0.508333333333	15.5705357143
1948	0.974	0.65	0.591666666667	17.8083333333	-2.85
1949	0.9745	-0.8	3.42045454545	-0.933333333333	-1.43303571429
1950	0.975	-2.25	-5.06590909091	-0.933333333333	1.40089285714
1951	0.9755	-13.85	6.24924242424	0.508333333333	4.23482142857
1952	0.976	0.65	6.24924242424	0.508333333333	-5.68392857143
1953	0.9765	-0.8	7.66363636364	1.95	-0.0160714285714
1954	0.977	2.1	9.07803030303	13.4833333333	-1.43303571429
1955	0.9775	2.1	10.4924242424	1.95	2.81785714286
1956	0.978	0.65	27.4651515152	-0.933333333333	-0.0160714285714
1957	0.9785	-3.7	13.3212121212	-0.933333333333	-1.43303571429
1958	0.979	15.15	16.15	0.508333333333	-1.43303571429
1959	0.9795	-2.25	13.3212121212	-2.375	-8.51785714286
1960	0.98	0.65	16.15	17.8083333333	-1.43303571429
1961	0.9805	0.65	11.9068181818	1.95	-1.43303571429
1962	0.981	3.55	3.42045454545	1.95	-1.43303571429
1963	0.9815	2.1	14.7356060606	0.508333333333	-0.0160714285714
1964	0.982	23.85	14.7356060606	1.95	-11.3517857143
1965	0.9825	3.55	13.3212121212	-0.933333333333	15.5705357143
1966	0.983	-0.8	11.9068181818	-6.7	-4.26696428571
1967	0.9835	0.65	4.83484848485	0.508333333333	-7.10089285714
1968	0.984	3.55	4.83484848485	0.508333333333	-4.26696428571
1969	0.9845	5.0	6.24924242424	0.508333333333	-0.0160714285714
1970	0.985	-8.05	4.83484848485	0.508333333333	-4.26696428571
1971	0.9855	-0.8	2.00606060606	-0.933333333333	-9.93482142857
1972	0.986	0.65	2.00606060606	0.508333333333	-5.68392857143
1973	0.9865	-3.7	6.24924242424	1.95	-4.26696428571
1974	0.987	-3.7	4.83484848485	0.508333333333	-4.26696428571
1975	0.9875	-12.4	-0.822727272727	1.95	-1.43303571429
1976	0.988	-0.8	0.591666666667	7.71666666667	-7.10089285714
1977	0.9885	-0.8	-2.23712121212	4.83333333333	-4.26696428571
1978	0.989	-2.25	0.591666666667	0.508333333333	-4.26696428571
1979	0.9895	0.65	-5.06590909091	-0.933333333333	-2.85
1980	0.99	3.55	6.24924242424	3.39166666667	-2.85
1981	0.9905	16.6	4.83484848485	0.508333333333	-0.0160714285714
1982	0.991	-0.8	6.24924242424	-0.933333333333	12.7366071429
1983	0.9915	-0.8	13.3212121212	16.3666666667	-1.43303571429
1984	0.992	0.65	13.3212121212	0.508333333333	-1.43303571429
1985	0.9925	-2.25	6.24924242424	3.39166666667	-0.0160714285714
1986	0.993	-13.85	16.15	-0.933333333333	-1.43303571429
1987	0.9935	18.05	17.5643939394	6.275	-4.26696428571
1988	0.994	2.1	21.8075757576	13.4833333333	-1.43303571429
1989	0.9945	0.65	24.6363636364	7.71666666667	2.81785714286
1990	0.995	-0.8	14.7356060606	1.95	1.40089285714
1991	0.9955	3.55	20.3931818182	0.508333333333	1.40089285714
1992	0.996	3.55	24.6363636364	0.508333333333	1.40089285714
1993	0.9965	-5.15	26.0507575758	1.95	14.1535714286
1994	0.997	-0.8	23.221969697	-2.375	-1.43303571429
1995	0.9975	0.65	23.221969697	12.0416666667	-1.43303571429
1996	0.998	2.1	27.4651515152	1.95	-0.0160714285714
1997	0.9985	0.65	24.6363636364	1.95	-2.85
1998	0.999	-5.15	20.3931818182	-2.375	-2.85
1999	0.9995	0.65	16.15	-0.933333333333	4.23482142857
2000	1.0	-0.8	16.15	3.39166666667	-4.26696428571
2001	1.0005	-0.8	16.15	12.0416666667	-5.68392857143
2002	1.001	0.65	21.8075757576	0.508333333333	-4.26696428571
2003	1.0015	0.65	7.66363636364	3.39166666667	-1.43303571429
2004	1.002	-6.6	6.24924242424	0.508333333333	-1.43303571429
2005	1.0025	-0.8	10.4924242424	3.39166666667	-7.10089285714
2006	1.003	-2.25	7.66363636364	4.83333333333	-8.51785714286
2007	1.0035	-2.25	6.24924242424	1.95	-5.68392857143
2008	1.004	-0.8	-0.822727272727	1.95	-5.68392857143
2009	1.0045	-0.8	9.07803030303	0.508333333333	-5.68392857143
2010	1.005	7.9	6.24924242424	0.508333333333	-2.85
2011	1.0055	-0.8	6.24924242424	-6.7	-4.26696428571
2012	1.006	0.65	4.83484848485	-0.933333333333	-1.43303571429
2013	1.0065	0.65	-2.23712121212	-0.933333333333	-4.26696428571
2014	1.007	0.65	33.1227272727	-0.933333333333	-1.43303571429
2015	1.0075	-10.95	10.4924242424	1.95	2.81785714286
2016	1.008	-9.5	17.5643939394	-0.933333333333	16.9875
2017	1.0085	0.65	20.3931818182	-8.14166666667	1.40089285714
2018	1.009	-0.8	18.9787878788	-6.7	-0.0160714285714
2019	1.0095	0.65	27.4651515152	3.39166666667	-1.43303571429
2020	1.01	3.55	18.9787878788	0.508333333333	-0.0160714285714
2021	1.0105	0.65	21.8075757576	-0.933333333333	1.40089285714
2022	1.011	9.35	24.6363636364	-0.933333333333	1.40089285714
2023	1.0115	2.1	23.221969697	-0.933333333333	-7.10089285714
2024	1.012	-0.8	23.221969697	-5.25833333333	2.81785714286
2025	1.0125	-0.8	33.1227272727	-0.933333333333	2.81785714286
2026	1.013	0.65	24.6363636364	1.95	-1.43303571429
2027	1.0135	7.9	21.8075757576	0.508333333333	-0.0160714285714
2028	1.014	-2.25	23.221969697	0.508333333333	-8.51785714286
2029	1.0145	0.65	20.3931818182	-8.14166666667	-4.26696428571
2030	1.015	0.65	21.8075757576	0.508333333333	-1.43303571429
2031	1.0155	-2.25	6.24924242424	0.508333333333	-4.26696428571
2032	1.016	5.0	10.4924242424	3.39166666667	-2.85
2033	1.0165	22.4	17.5643939394	1.95	-4.26696428571
2034	1.017	-2.25	17.5643939394	1.95	-17.0196428571
2035	1.0175	-0.8	16.15	-11.025	-5.68392857143
2036	1.018	-0.8	18.9787878788	4.83333333333	-5.68392857143
2037	1.0185	-2.25	31.7083333333	-0.933333333333	-2.85
2038	1.019	-3.7	13.3212121212	-0.933333333333	-4.26696428571
2039	1.0195	-8.05	9.07803030303	-0.933333333333	14.1535714286
2040	1.02	-2.25	7.66363636364	-11.025	-4.26696428571
2041	1.0205	-2.25	7.66363636364	-12.4666666667	-5.68392857143
2042	1.021	-2.25	14.7356060606	0.508333333333	-4.26696428571
2043	1.0215	-2.25	16.15	3.39166666667	-2.85
2044	1.022	-13.85	14.7356060606	1.95	-0.0160714285714
2045	1.0225	-9.5	13.3212121212	3.39166666667	12.7366071429
2046	1.023	0.65	14.7356060606	6.275	12.7366071429
2047	1.0235	0.65	13.3212121212	14.925	-1.43303571429
2048	1.024	2.1	2.00606060606	0.508333333333	1.40089285714
2049	1.0245	3.55	6.24924242424	1.95	2.81785714286
2050	1.025	18.05	20.3931818182	1.95	-1.43303571429
2051	1.0255	-2.25	21.8075757576	1.95	-2.85
2052	1.026	-0.8	23.221969697	-2.375	-0.0160714285714
2053	1.0265	-2.25	21.8075757576	16.3666666667	-0.0160714285714
2054	1.027	-0.8	10.4924242424	0.508333333333	1.40089285714
2055	1.0275	-2.25	16.15	0.508333333333	1.40089285714
2056	1.028	-12.4	23.221969697	0.508333333333	-1.43303571429
2057	1.0285	0.65	20.3931818182	4.83333333333	-1.43303571429
2058	1.029	0.65	20.3931818182	13.4833333333	-0.0160714285714
2059	1.0295	0.65	21.8075757576	4.83333333333	-0.0160714285714
2060	1.03	2.1	14.7356060606	0.508333333333	-0.0160714285714
2061	1.0305	3.55	20.3931818182	0.508333333333	-1.43303571429
2062	1.031	15.15	17.5643939394	1.95	-1.43303571429
2063	1.0315	-5.15	16.15	-0.933333333333	-0.0160714285714
2064	1.032	2.1	16.15	4.83333333333	-0.0160714285714
2065	1.0325	0.65	17.5643939394	-3.81666666667	-2.85
2066	1.033	3.55	10.4924242424	-0.933333333333	-1.43303571429
2067	1.0335	-0.8	-0.822727272727	3.39166666667	-2.85
2068	1.034	9.35	2.00606060606	1.95	-2.85
2069	1.0345	-9.5	3.42045454545	0.508333333333	11.3196428571
2070	1.035	0.65	2.00606060606	-3.81666666667	-2.85
2071	1.0355	-2.25	-0.822727272727	0.508333333333	-5.68392857143
2072	1.036	0.65	-2.23712121212	0.508333333333	-7.10089285714
2073	1.0365	-5.15	-6.4803030303	-0.933333333333	-1.43303571429
2074	1.037	-16.75	-5.06590909091	-0.933333333333	-2.85
2075	1.0375	-12.4	-6.4803030303	0.508333333333	-0.0160714285714
2076	1.038	-0.8	-5.06590909091	19.25	-4.26696428571
2077	1.0385	-3.7	-2.23712121212	-0.933333333333	-4.26696428571
2078	1.039	-3.7	10.4924242424	0.508333333333	-2.85
2079	1.0395	-5.15	-9.30909090909	0.508333333333	-1.43303571429
2080	1.04	-10.95	-3.65151515152	1.95	-9.93482142857
2081	1.0405	-0.8	-2.23712121212	3.39166666667	-11.3517857143
2082	1.041	-2.25	-0.822727272727	19.25	-1.43303571429
2083	1.0415	-2.25	-9.30909090909	-0.933333333333	-1.43303571429
2084	1.042	0.65	-5.06590909091	0.508333333333	-1.43303571429
2085	1.0425	3.55	-3.65151515152	0.508333333333	-1.43303571429
2086	1.043	18.05	4.83484848485	0.508333333333	-2.85
2087	1.0435	-2.25	7.66363636364	-9.58333333333	-1.43303571429
2088	1.044	0.65	10.4924242424	-9.58333333333	-0.0160714285714
2089	1.0445	-0.8	18.9787878788	0.508333333333	2.81785714286
2090	1.045	-0.8	31.7083333333	0.508333333333	-0.0160714285714
2091	1.0455	-12.4	13.3212121212	1.95	2.81785714286
2092	1.046	-8.05	13.3212121212	-2.375	14.1535714286
2093	1.0465	0.65	13.3212121212	-2.375	14.1535714286
2094	1.047	0.65	10.4924242424	16.3666666667	-5.68392857143
2095	1.0475	0.65	-2.23712121212	-0.933333333333	-2.85
2096	1.048	2.1	3.42045454545	-0.933333333333	-1.43303571429
2097	1.0485	7.9	9.07803030303	0.508333333333	-2.85
2098	1.049	22.4	7.66363636364	0.508333333333	-4.26696428571
2099	1.0495	2.1	4.83484848485	-9.58333333333	-4.26696428571
2100	1.05	0.65	2.00606060606	-5.25833333333	-5.68392857143
2101	1.0505	0.65	-9.30909090909	-0.933333333333	-4.26696428571
2102	1.051	0.65	-5.06590909091	0.508333333333	-4.26696428571
2103	1.0515	-12.4	-6.4803030303	1.95	-4.26696428571
2104	1.052	-0.8	-3.65151515152	-0.933333333333	-0.0160714285714
2105	1.0525	-2.25	-5.06590909091	1.95	-2.85
2106	1.053	0.65	-5.06590909091	-2.375	-2.85
2107	1.0535	0.65	-14.9666666667	-6.7	-5.68392857143
2108	1.054	-2.25	0.591666666667	0.508333333333	-4.26696428571
2109	1.0545	-0.8	-10.7234848485	1.95	-4.26696428571
2110	1.055	-8.05	-6.4803030303	3.39166666667	-4.26696428571
2111	1.0555	-2.25	-9.30909090909	0.508333333333	-5.68392857143
2112	1.056	-2.25	-5.06590909091	12.0416666667	-5.68392857143
2113	1.0565	0.65	-10.7234848485	-0.933333333333	-4.26696428571
2114	1.057	-2.25	-10.7234848485	0.508333333333	-4.26696428571
2115	1.0575	15.15	-3.65151515152	0.508333333333	-5.68392857143
2116	1.058	0.65	0.591666666667	3.39166666667	-9.93482142857
2117	1.0585	-0.8	3.42045454545	-2.375	-1.43303571429
2118	1.059	0.65	2.00606060606	1.95	-0.0160714285714
2119	1.0595	2.1	21.8075757576	0.508333333333	-1.43303571429
2120	1.06	0.65	14.7356060606	-0.933333333333	2.81785714286
2121	1.0605	0.65	14.7356060606	-0.933333333333	1.40089285714
2122	1.061	-5.15	16.15	-0.933333333333	-2.85
2123	1.0615	-0.8	18.9787878788	7.71666666667	2.81785714286
2124	1.062	-2.25	18.9787878788	9.15833333333	-0.0160714285714
2125	1.0625	0.65	20.3931818182	0.508333333333	-0.0160714285714
2126	1.063	-8.05	18.9787878788	-0.933333333333	1.40089285714
2127	1.0635	10.8	16.15	0.508333333333	-0.0160714285714
2128	1.064	-3.7	13.3212121212	1.95	1.40089285714
2129	1.0645	0.65	7.66363636364	-0.933333333333	-0.0160714285714
2130	1.065	0.65	16.15	-3.81666666667	-0.0160714285714
2131	1.0655	0.65	26.0507575758	-0.933333333333	-1.43303571429
2132	1.066	-8.05	4.83484848485	-0.933333333333	-0.0160714285714
2133	1.0665	-10.95	0.591666666667	1.95	15.5705357143
2134	1.067	-2.25	2.00606060606	3.39166666667	12.7366071429
2135	1.0675	0.65	-0.822727272727	0.508333333333	-4.26696428571
2136	1.068	0.65	-5.06590909091	1.95	-1.43303571429
2137	1.0685	0.65	-12.1378787879	1.95	-2.85
2138	1.069	-5.15	-6.4803030303	1.95	-5.68392857143
2139	1.0695	12.25	-6.4803030303	1.95	-2.85
