	Time	Channel 1	Channel 2	Channel 3	Channel 4
0	0.0	2.0724137931	-19.0212765957	-1.08076923077	-0.118181818182
1	0.0005	0.620689655172	-10.5361702128	3.29230769231	-0.118181818182
2	0.001	0.620689655172	-11.9503546099	1.83461538462	-5.9
3	0.0015	-0.831034482759	-17.6070921986	16.4115384615	-1.56363636364
4	0.002	-8.08965517241	-16.1929078014	0.376923076923	-3.00909090909
5	0.0025	-0.831034482759	-16.1929078014	-1.08076923077	-5.9
6	0.003	-0.831034482759	-19.0212765957	-5.45384615385	-1.56363636364
7	0.0035	-2.28275862069	-14.7787234043	0.376923076923	11.4454545455
8	0.004	0.620689655172	-21.8496453901	1.83461538462	-4.45454545455
9	0.0045	2.0724137931	-17.6070921986	-6.91153846154	-3.00909090909
10	0.005	-2.28275862069	-31.7489361702	0.376923076923	-3.00909090909
11	0.0055	-0.831034482759	-20.4354609929	1.83461538462	-3.00909090909
12	0.006	-2.28275862069	-28.9205673759	1.83461538462	1.32727272727
13	0.0065	-5.18620689655	-23.2638297872	0.376923076923	-1.56363636364
14	0.007	12.2344827586	-23.2638297872	-1.08076923077	-0.118181818182
15	0.0075	-0.831034482759	-23.2638297872	1.83461538462	-3.00909090909
16	0.008	-3.73448275862	-23.2638297872	16.4115384615	1.32727272727
17	0.0085	-0.831034482759	-20.4354609929	0.376923076923	-0.118181818182
18	0.009	-0.831034482759	-4.87943262411	-1.08076923077	2.77272727273
19	0.0095	-3.73448275862	-20.4354609929	0.376923076923	2.77272727273
20	0.01	-8.08965517241	-19.0212765957	3.29230769231	-11.6818181818
21	0.0105	-0.831034482759	-21.8496453901	1.83461538462	-8.79090909091
22	0.011	-0.831034482759	-17.6070921986	-9.82692307692	-3.00909090909
23	0.0115	0.620689655172	-16.1929078014	1.83461538462	-1.56363636364
24	0.012	0.620689655172	-11.9503546099	0.376923076923	-3.00909090909
25	0.0125	-0.831034482759	-16.1929078014	-1.08076923077	-1.56363636364
26	0.013	-8.08965517241	-16.1929078014	0.376923076923	-1.56363636364
27	0.0135	0.620689655172	-13.3645390071	0.376923076923	-0.118181818182
28	0.014	-0.831034482759	-9.1219858156	3.29230769231	-7.34545454545
29	0.0145	2.0724137931	-7.70780141844	1.83461538462	1.32727272727
30	0.015	2.0724137931	-9.1219858156	1.83461538462	-1.56363636364
31	0.0155	0.620689655172	-4.87943262411	3.29230769231	-5.9
32	0.016	-2.28275862069	-6.29361702128	0.376923076923	-0.118181818182
33	0.0165	15.1379310345	-6.29361702128	0.376923076923	-3.00909090909
34	0.017	0.620689655172	-7.70780141844	-5.45384615385	-8.79090909091
35	0.0175	0.620689655172	-9.1219858156	-8.36923076923	-3.00909090909
36	0.018	0.620689655172	-9.1219858156	1.83461538462	-4.45454545455
37	0.0185	-0.831034482759	-19.0212765957	-1.08076923077	-5.9
38	0.019	3.52413793103	-11.9503546099	-1.08076923077	-4.45454545455
39	0.0195	20.9448275862	-14.7787234043	3.29230769231	-14.5727272727
40	0.02	0.620689655172	-14.7787234043	3.29230769231	-11.6818181818
41	0.0205	0.620689655172	-19.0212765957	-8.36923076923	-3.00909090909
42	0.021	-0.831034482759	-14.7787234043	-2.53846153846	-3.00909090909
43	0.0215	0.620689655172	-7.70780141844	0.376923076923	-3.00909090909
44	0.022	-12.4448275862	-20.4354609929	0.376923076923	-4.45454545455
45	0.0225	12.2344827586	-24.6780141844	1.83461538462	-0.118181818182
46	0.023	-5.18620689655	-23.2638297872	0.376923076923	-7.34545454545
47	0.0235	0.620689655172	-23.2638297872	-1.08076923077	-8.79090909091
48	0.024	-0.831034482759	-24.6780141844	-6.91153846154	-4.45454545455
49	0.0245	-2.28275862069	-9.1219858156	1.83461538462	-0.118181818182
50	0.025	-5.18620689655	-7.70780141844	1.83461538462	-0.118181818182
51	0.0255	-12.4448275862	-21.8496453901	1.83461538462	-1.56363636364
52	0.026	-0.831034482759	-20.4354609929	1.83461538462	-8.79090909091
53	0.0265	0.620689655172	-21.8496453901	-1.08076923077	7.10909090909
54	0.027	-0.831034482759	-20.4354609929	9.12307692308	-3.00909090909
55	0.0275	3.52413793103	-24.6780141844	1.83461538462	-1.56363636364
56	0.028	2.0724137931	-27.5063829787	1.83461538462	-4.45454545455
57	0.0285	4.97586206897	-20.4354609929	1.83461538462	-3.00909090909
58	0.029	16.5896551724	-20.4354609929	3.29230769231	-1.56363636364
59	0.0295	2.0724137931	-19.0212765957	-2.53846153846	-0.118181818182
60	0.03	0.620689655172	-17.6070921986	12.0384615385	-3.00909090909
61	0.0305	0.620689655172	-17.6070921986	3.29230769231	-1.56363636364
62	0.031	-0.831034482759	0.777304964539	0.376923076923	-3.00909090909
63	0.0315	-0.831034482759	-13.3645390071	0.376923076923	-1.56363636364
64	0.032	19.4931034483	-11.9503546099	0.376923076923	-3.00909090909
65	0.0325	-2.28275862069	-11.9503546099	3.29230769231	-3.00909090909
66	0.033	0.620689655172	-14.7787234043	9.12307692308	-1.56363636364
67	0.0335	0.620689655172	-14.7787234043	1.83461538462	-0.118181818182
68	0.034	0.620689655172	-10.5361702128	1.83461538462	-3.00909090909
69	0.0345	-0.831034482759	-23.2638297872	0.376923076923	-1.56363636364
70	0.035	-5.18620689655	-23.2638297872	1.83461538462	-5.9
71	0.0355	0.620689655172	-24.6780141844	-1.08076923077	-16.0181818182
72	0.036	-3.73448275862	-27.5063829787	-1.08076923077	14.3363636364
73	0.0365	-0.831034482759	-27.5063829787	16.4115384615	-4.45454545455
74	0.037	-3.73448275862	-38.819858156	1.83461538462	-1.56363636364
75	0.0375	0.620689655172	-40.2340425532	0.376923076923	-4.45454545455
76	0.038	3.52413793103	-33.1631205674	-1.08076923077	-5.9
77	0.0385	-5.18620689655	-33.1631205674	0.376923076923	-7.34545454545
78	0.039	-0.831034482759	-35.9914893617	1.83461538462	-13.1272727273
79	0.0395	0.620689655172	-34.5773049645	3.29230769231	-10.2363636364
80	0.04	-2.28275862069	-43.0624113475	1.83461538462	-1.56363636364
81	0.0405	-0.831034482759	-20.4354609929	-1.08076923077	-3.00909090909
82	0.041	-2.28275862069	-34.5773049645	-1.08076923077	-1.56363636364
83	0.0415	-15.3482758621	-33.1631205674	1.83461538462	-0.118181818182
84	0.042	-0.831034482759	-31.7489361702	4.75	-4.45454545455
85	0.0425	0.620689655172	-30.334751773	13.4961538462	-4.45454545455
86	0.043	-2.28275862069	-26.0921985816	-1.08076923077	-1.56363636364
87	0.0435	-0.831034482759	-20.4354609929	0.376923076923	-1.56363636364
88	0.044	-3.73448275862	-31.7489361702	1.83461538462	-0.118181818182
89	0.0445	-8.08965517241	-28.9205673759	1.83461538462	-0.118181818182
90	0.045	0.620689655172	-28.9205673759	3.29230769231	-3.00909090909
91	0.0455	-3.73448275862	-27.5063829787	0.376923076923	18.6727272727
92	0.046	-2.28275862069	-19.0212765957	19.3269230769	1.32727272727
93	0.0465	0.620689655172	-30.334751773	-1.08076923077	1.32727272727
94	0.047	0.620689655172	-28.9205673759	0.376923076923	-1.56363636364
95	0.0475	0.620689655172	-23.2638297872	0.376923076923	-1.56363636364
96	0.048	-3.73448275862	-23.2638297872	-2.53846153846	10.0
97	0.0485	-0.831034482759	-20.4354609929	-1.08076923077	2.77272727273
98	0.049	0.620689655172	-21.8496453901	0.376923076923	-5.9
99	0.0495	0.620689655172	-26.0921985816	0.376923076923	-0.118181818182
100	0.05	0.620689655172	-23.2638297872	0.376923076923	-1.56363636364
101	0.0505	-2.28275862069	-21.8496453901	0.376923076923	-4.45454545455
102	0.051	-10.9931034483	-23.2638297872	1.83461538462	-14.5727272727
103	0.0515	-0.831034482759	-23.2638297872	3.29230769231	-4.45454545455
104	0.052	-2.28275862069	-26.0921985816	6.20769230769	-4.45454545455
105	0.0525	-2.28275862069	-27.5063829787	1.83461538462	-4.45454545455
106	0.053	0.620689655172	-20.4354609929	3.29230769231	-1.56363636364
107	0.0535	-2.28275862069	-28.9205673759	-1.08076923077	-3.00909090909
108	0.054	-8.08965517241	-26.0921985816	0.376923076923	-4.45454545455
109	0.0545	-0.831034482759	-26.0921985816	0.376923076923	7.10909090909
110	0.055	0.620689655172	-26.0921985816	-1.08076923077	14.3363636364
111	0.0555	-3.73448275862	-27.5063829787	19.3269230769	-4.45454545455
112	0.056	-2.28275862069	-38.819858156	-1.08076923077	-4.45454545455
113	0.0565	0.620689655172	-35.9914893617	3.29230769231	-5.9
114	0.057	2.0724137931	-27.5063829787	-1.08076923077	-7.34545454545
115	0.0575	15.1379310345	-26.0921985816	4.75	-16.0181818182
116	0.058	-2.28275862069	-27.5063829787	3.29230769231	-8.79090909091
117	0.0585	2.0724137931	-26.0921985816	-2.53846153846	-1.56363636364
118	0.059	-0.831034482759	-34.5773049645	1.83461538462	-1.56363636364
119	0.0595	0.620689655172	-23.2638297872	-1.08076923077	-3.00909090909
120	0.06	3.52413793103	-20.4354609929	0.376923076923	-4.45454545455
121	0.0605	10.7827586207	-16.1929078014	-1.08076923077	-7.34545454545
122	0.061	0.620689655172	-16.1929078014	-2.53846153846	-8.79090909091
123	0.0615	0.620689655172	-10.5361702128	4.75	-1.56363636364
124	0.062	0.620689655172	-11.9503546099	-1.08076923077	1.32727272727
125	0.0625	-0.831034482759	-11.9503546099	3.29230769231	1.32727272727
126	0.063	0.620689655172	-16.1929078014	1.83461538462	-3.00909090909
127	0.0635	10.7827586207	-10.5361702128	1.83461538462	-7.34545454545
128	0.064	-6.63793103448	-9.1219858156	0.376923076923	-0.118181818182
129	0.0645	0.620689655172	-10.5361702128	1.83461538462	-1.56363636364
130	0.065	-0.831034482759	-13.3645390071	19.3269230769	-1.56363636364
131	0.0655	-0.831034482759	-21.8496453901	1.83461538462	-4.45454545455
132	0.066	0.620689655172	2.1914893617	0.376923076923	-3.00909090909
133	0.0665	-13.8965517241	-10.5361702128	1.83461538462	-1.56363636364
134	0.067	-0.831034482759	-9.1219858156	1.83461538462	-0.118181818182
135	0.0675	0.620689655172	-11.9503546099	-3.99615384615	-13.1272727273
136	0.068	0.620689655172	-9.1219858156	14.9538461538	-7.34545454545
137	0.0685	-0.831034482759	-10.5361702128	0.376923076923	-4.45454545455
138	0.069	2.0724137931	-17.6070921986	0.376923076923	-4.45454545455
139	0.0695	4.97586206897	-9.1219858156	0.376923076923	-4.45454545455
140	0.07	19.4931034483	-10.5361702128	4.75	-3.00909090909
141	0.0705	-8.08965517241	-10.5361702128	-1.08076923077	4.21818181818
142	0.071	0.620689655172	-7.70780141844	20.7846153846	-0.118181818182
143	0.0715	-0.831034482759	-9.1219858156	3.29230769231	-4.45454545455
144	0.072	-2.28275862069	-26.0921985816	-1.08076923077	-1.56363636364
145	0.0725	-2.28275862069	-23.2638297872	3.29230769231	-3.00909090909
146	0.073	13.6862068966	-16.1929078014	1.83461538462	-11.6818181818
147	0.0735	-6.63793103448	-16.1929078014	-1.08076923077	-3.00909090909
148	0.074	-2.28275862069	-13.3645390071	0.376923076923	5.66363636364
149	0.0745	-3.73448275862	-10.5361702128	6.20769230769	-3.00909090909
150	0.075	-0.831034482759	-11.9503546099	1.83461538462	-3.00909090909
151	0.0755	-0.831034482759	0.777304964539	3.29230769231	-3.00909090909
152	0.076	-3.73448275862	-10.5361702128	1.83461538462	-4.45454545455
153	0.0765	-10.9931034483	-7.70780141844	0.376923076923	-17.4636363636
154	0.077	0.620689655172	-6.29361702128	1.83461538462	-17.4636363636
155	0.0775	0.620689655172	-6.29361702128	-9.82692307692	-16.0181818182
156	0.078	0.620689655172	-2.05106382979	0.376923076923	-4.45454545455
157	0.0785	-2.28275862069	14.9191489362	1.83461538462	-3.00909090909
158	0.079	-2.28275862069	-0.636879432624	3.29230769231	-3.00909090909
159	0.0795	-12.4448275862	0.777304964539	0.376923076923	-1.56363636364
160	0.08	2.0724137931	-0.636879432624	6.20769230769	-8.79090909091
161	0.0805	0.620689655172	-0.636879432624	4.75	-8.79090909091
162	0.081	0.620689655172	-4.87943262411	-5.45384615385	-3.00909090909
163	0.0815	3.52413793103	-13.3645390071	3.29230769231	-3.00909090909
164	0.082	3.52413793103	-2.05106382979	1.83461538462	-4.45454545455
165	0.0825	-15.3482758621	-2.05106382979	0.376923076923	-1.56363636364
166	0.083	-8.08965517241	-2.05106382979	1.83461538462	-1.56363636364
167	0.0835	0.620689655172	-2.05106382979	19.3269230769	-4.45454545455
168	0.084	2.0724137931	-3.46524822695	-1.08076923077	-3.00909090909
169	0.0845	0.620689655172	-14.7787234043	0.376923076923	-5.9
170	0.085	3.52413793103	-2.05106382979	4.75	-4.45454545455
171	0.0855	10.7827586207	-6.29361702128	1.83461538462	-4.45454545455
172	0.086	-3.73448275862	-9.1219858156	1.83461538462	-7.34545454545
173	0.0865	0.620689655172	-10.5361702128	1.83461538462	-8.79090909091
174	0.087	2.0724137931	-9.1219858156	1.83461538462	-13.1272727273
175	0.0875	-0.831034482759	-14.7787234043	3.29230769231	-7.34545454545
176	0.088	0.620689655172	-16.1929078014	1.83461538462	-7.34545454545
177	0.0885	-0.831034482759	-14.7787234043	1.83461538462	-4.45454545455
178	0.089	-2.28275862069	-11.9503546099	0.376923076923	-3.00909090909
179	0.0895	-2.28275862069	-11.9503546099	4.75	-16.0181818182
180	0.09	0.620689655172	-13.3645390071	-3.99615384615	-13.1272727273
181	0.0905	0.620689655172	-10.5361702128	-6.91153846154	-7.34545454545
182	0.091	-0.831034482759	6.43404255319	1.83461538462	-4.45454545455
183	0.0915	-5.18620689655	-9.1219858156	4.75	-3.00909090909
184	0.092	-10.9931034483	-6.29361702128	0.376923076923	-1.56363636364
185	0.0925	2.0724137931	-4.87943262411	1.83461538462	-5.9
186	0.093	-0.831034482759	-3.46524822695	-2.53846153846	-10.2363636364
187	0.0935	2.0724137931	-2.05106382979	-5.45384615385	-1.56363636364
188	0.094	0.620689655172	-2.05106382979	-5.45384615385	-1.56363636364
189	0.0945	-2.28275862069	17.7475177305	3.29230769231	-1.56363636364
190	0.095	-5.18620689655	3.60567375887	3.29230769231	-5.9
191	0.0955	18.0413793103	5.01985815603	1.83461538462	-4.45454545455
192	0.096	-0.831034482759	7.84822695035	3.29230769231	-8.79090909091
193	0.0965	-0.831034482759	6.43404255319	-5.45384615385	-4.45454545455
194	0.097	-0.831034482759	14.9191489362	-1.08076923077	-1.56363636364
195	0.0975	3.52413793103	24.8184397163	1.83461538462	-1.56363636364
196	0.098	-12.4448275862	14.9191489362	1.83461538462	-1.56363636364
197	0.0985	3.52413793103	13.504964539	0.376923076923	-1.56363636364
198	0.099	3.52413793103	13.504964539	3.29230769231	-13.1272727273
199	0.0995	-2.28275862069	10.6765957447	-3.99615384615	-11.6818181818
200	0.1	-2.28275862069	10.6765957447	-8.36923076923	1.32727272727
201	0.1005	0.620689655172	27.6468085106	0.376923076923	1.32727272727
202	0.101	0.620689655172	10.6765957447	1.83461538462	-0.118181818182
203	0.1015	-8.08965517241	7.84822695035	-1.08076923077	1.32727272727
204	0.102	-8.08965517241	7.84822695035	0.376923076923	15.7818181818
205	0.1025	0.620689655172	6.43404255319	19.3269230769	-4.45454545455
206	0.103	0.620689655172	2.1914893617	17.8692307692	-3.00909090909
207	0.1035	0.620689655172	-6.29361702128	1.83461538462	-3.00909090909
208	0.104	0.620689655172	5.01985815603	4.75	-1.56363636364
209	0.1045	-10.9931034483	2.1914893617	0.376923076923	-3.00909090909
210	0.105	-12.4448275862	0.777304964539	0.376923076923	-3.00909090909
211	0.1055	-3.73448275862	-2.05106382979	14.9538461538	-4.45454545455
212	0.106	-2.28275862069	-2.05106382979	-1.08076923077	-4.45454545455
213	0.1065	0.620689655172	-9.1219858156	0.376923076923	-4.45454545455
214	0.107	0.620689655172	0.777304964539	0.376923076923	-3.00909090909
215	0.1075	12.2344827586	-0.636879432624	0.376923076923	-4.45454545455
216	0.108	-5.18620689655	0.777304964539	0.376923076923	-5.9
217	0.1085	0.620689655172	0.777304964539	1.83461538462	-3.00909090909
218	0.109	-0.831034482759	6.43404255319	-1.08076923077	-3.00909090909
219	0.1095	2.0724137931	9.26241134752	0.376923076923	-3.00909090909
220	0.11	0.620689655172	0.777304964539	0.376923076923	-3.00909090909
221	0.1105	-0.831034482759	9.26241134752	1.83461538462	-4.45454545455
222	0.111	13.6862068966	10.6765957447	1.83461538462	-5.9
223	0.1115	2.0724137931	13.504964539	-1.08076923077	-5.9
224	0.112	-0.831034482759	14.9191489362	-6.91153846154	-3.00909090909
225	0.1125	0.620689655172	16.3333333333	0.376923076923	-3.00909090909
226	0.113	2.0724137931	16.3333333333	0.376923076923	-3.00909090909
227	0.1135	-6.63793103448	14.9191489362	0.376923076923	-4.45454545455
228	0.114	15.1379310345	10.6765957447	4.75	-4.45454545455
229	0.1145	0.620689655172	12.0907801418	-1.08076923077	-13.1272727273
230	0.115	-0.831034482759	14.9191489362	-9.82692307692	-3.00909090909
231	0.1155	2.0724137931	17.7475177305	-8.36923076923	-7.34545454545
232	0.116	2.0724137931	26.2326241135	1.83461538462	-1.56363636364
233	0.1165	0.620689655172	14.9191489362	-1.08076923077	-4.45454545455
234	0.117	-6.63793103448	16.3333333333	-1.08076923077	-7.34545454545
235	0.1175	0.620689655172	17.7475177305	-2.53846153846	-13.1272727273
236	0.118	0.620689655172	13.504964539	12.0384615385	-5.9
237	0.1185	0.620689655172	17.7475177305	3.29230769231	-5.9
238	0.119	2.0724137931	2.1914893617	1.83461538462	-7.34545454545
239	0.1195	4.97586206897	10.6765957447	0.376923076923	-8.79090909091
240	0.12	18.0413793103	14.9191489362	0.376923076923	-16.0181818182
241	0.1205	0.620689655172	10.6765957447	0.376923076923	-11.6818181818
242	0.121	-0.831034482759	9.26241134752	-3.99615384615	-7.34545454545
243	0.1215	0.620689655172	6.43404255319	0.376923076923	-1.56363636364
244	0.122	0.620689655172	13.504964539	1.83461538462	-0.118181818182
245	0.1225	-2.28275862069	5.01985815603	3.29230769231	-0.118181818182
246	0.123	16.5896551724	5.01985815603	1.83461538462	-10.2363636364
247	0.1235	-0.831034482759	3.60567375887	0.376923076923	-11.6818181818
248	0.124	-0.831034482759	5.01985815603	-1.08076923077	14.3363636364
249	0.1245	-2.28275862069	10.6765957447	0.376923076923	-1.56363636364
250	0.125	0.620689655172	-0.636879432624	0.376923076923	-3.00909090909
251	0.1255	0.620689655172	0.777304964539	3.29230769231	-3.00909090909
252	0.126	15.1379310345	10.6765957447	3.29230769231	-0.118181818182
253	0.1265	-10.9931034483	9.26241134752	3.29230769231	-0.118181818182
254	0.127	-3.73448275862	13.504964539	1.83461538462	15.7818181818
255	0.1275	2.0724137931	14.9191489362	1.83461538462	-5.9
256	0.128	0.620689655172	12.0907801418	0.376923076923	-7.34545454545
257	0.1285	-0.831034482759	2.1914893617	0.376923076923	-5.9
258	0.129	-10.9931034483	14.9191489362	-1.08076923077	-1.56363636364
259	0.1295	-8.08965517241	16.3333333333	0.376923076923	-0.118181818182
260	0.13	0.620689655172	17.7475177305	1.83461538462	14.3363636364
261	0.1305	-0.831034482759	16.3333333333	19.3269230769	-3.00909090909
262	0.131	0.620689655172	6.43404255319	-1.08076923077	-1.56363636364
263	0.1315	3.52413793103	33.3035460993	1.83461538462	-4.45454545455
264	0.132	-10.9931034483	10.6765957447	3.29230769231	-0.118181818182
265	0.1325	-10.9931034483	13.504964539	1.83461538462	12.8909090909
266	0.133	0.620689655172	10.6765957447	1.83461538462	-4.45454545455
267	0.1335	0.620689655172	14.9191489362	19.3269230769	-5.9
268	0.134	2.0724137931	13.504964539	0.376923076923	-7.34545454545
269	0.1345	2.0724137931	0.777304964539	0.376923076923	-4.45454545455
270	0.135	2.0724137931	10.6765957447	0.376923076923	-7.34545454545
271	0.1355	18.0413793103	6.43404255319	-1.08076923077	-16.0181818182
272	0.136	2.0724137931	5.01985815603	-1.08076923077	8.55454545455
273	0.1365	-0.831034482759	5.01985815603	-2.53846153846	-3.00909090909
274	0.137	-0.831034482759	6.43404255319	-1.08076923077	2.77272727273
275	0.1375	0.620689655172	2.1914893617	1.83461538462	-0.118181818182
276	0.138	-10.9931034483	-0.636879432624	0.376923076923	1.32727272727
277	0.1385	7.87931034483	-3.46524822695	3.29230769231	-3.00909090909
278	0.139	-2.28275862069	-3.46524822695	0.376923076923	-10.2363636364
279	0.1395	-0.831034482759	-3.46524822695	1.83461538462	-8.79090909091
280	0.14	-0.831034482759	-2.05106382979	1.83461538462	-3.00909090909
281	0.1405	0.620689655172	0.777304964539	0.376923076923	-4.45454545455
282	0.141	-5.18620689655	-3.46524822695	0.376923076923	-1.56363636364
283	0.1415	-12.4448275862	-7.70780141844	3.29230769231	-1.56363636364
284	0.142	-0.831034482759	-4.87943262411	4.75	-8.79090909091
285	0.1425	-2.28275862069	0.777304964539	1.83461538462	-7.34545454545
286	0.143	3.52413793103	-2.05106382979	-5.45384615385	-1.56363636364
287	0.1435	2.0724137931	0.777304964539	0.376923076923	-1.56363636364
288	0.144	0.620689655172	0.777304964539	0.376923076923	-1.56363636364
289	0.1445	-3.73448275862	5.01985815603	1.83461538462	-4.45454545455
290	0.145	-6.63793103448	3.60567375887	0.376923076923	14.3363636364
291	0.1455	0.620689655172	6.43404255319	9.12307692308	-1.56363636364
292	0.146	0.620689655172	5.01985815603	1.83461538462	-1.56363636364
293	0.1465	-0.831034482759	-0.636879432624	0.376923076923	-3.00909090909
294	0.147	2.0724137931	-0.636879432624	1.83461538462	-3.00909090909
295	0.1475	2.0724137931	5.01985815603	0.376923076923	-3.00909090909
296	0.148	0.620689655172	5.01985815603	0.376923076923	-11.6818181818
297	0.1485	0.620689655172	6.43404255319	-1.08076923077	-8.79090909091
298	0.149	0.620689655172	5.01985815603	-6.91153846154	-1.56363636364
299	0.1495	0.620689655172	23.4042553191	0.376923076923	-5.9
300	0.15	-0.831034482759	-4.87943262411	3.29230769231	-3.00909090909
301	0.1505	-0.831034482759	-2.05106382979	1.83461538462	-3.00909090909
302	0.151	-2.28275862069	3.60567375887	0.376923076923	-8.79090909091
303	0.1515	-2.28275862069	2.1914893617	-1.08076923077	-7.34545454545
304	0.152	0.620689655172	2.1914893617	-6.91153846154	-5.9
305	0.1525	2.0724137931	-0.636879432624	0.376923076923	-4.45454545455
306	0.153	-2.28275862069	-4.87943262411	0.376923076923	-4.45454545455
307	0.1535	-5.18620689655	0.777304964539	-1.08076923077	-3.00909090909
308	0.154	-0.831034482759	0.777304964539	0.376923076923	-10.2363636364
309	0.1545	-0.831034482759	3.60567375887	-8.36923076923	-1.56363636364
310	0.155	-2.28275862069	3.60567375887	-2.53846153846	-5.9
311	0.1555	-2.28275862069	-0.636879432624	1.83461538462	-5.9
312	0.156	-0.831034482759	-10.5361702128	0.376923076923	-1.56363636364
313	0.1565	-5.18620689655	-3.46524822695	1.83461538462	-3.00909090909
314	0.157	-5.18620689655	-4.87943262411	1.83461538462	4.21818181818
315	0.1575	-0.831034482759	-3.46524822695	-5.45384615385	-3.00909090909
316	0.158	-0.831034482759	-4.87943262411	6.20769230769	-1.56363636364
317	0.1585	-2.28275862069	-9.1219858156	3.29230769231	-1.56363636364
318	0.159	4.97586206897	-3.46524822695	1.83461538462	2.77272727273
319	0.1595	-10.9931034483	-4.87943262411	0.376923076923	-3.00909090909
320	0.16	3.52413793103	2.1914893617	1.83461538462	-4.45454545455
321	0.1605	-0.831034482759	2.1914893617	1.83461538462	-1.56363636364
322	0.161	0.620689655172	3.60567375887	-5.45384615385	-1.56363636364
323	0.1615	0.620689655172	6.43404255319	-6.91153846154	-3.00909090909
324	0.162	0.620689655172	16.3333333333	0.376923076923	1.32727272727
325	0.1625	-2.28275862069	7.84822695035	0.376923076923	-4.45454545455
326	0.163	15.1379310345	9.26241134752	3.29230769231	-7.34545454545
327	0.1635	0.620689655172	9.26241134752	-2.53846153846	-10.2363636364
328	0.164	2.0724137931	14.9191489362	12.0384615385	-3.00909090909
329	0.1645	3.52413793103	13.504964539	0.376923076923	-1.56363636364
330	0.165	0.620689655172	7.84822695035	1.83461538462	-1.56363636364
331	0.1655	-0.831034482759	14.9191489362	1.83461538462	-3.00909090909
332	0.166	-3.73448275862	13.504964539	3.29230769231	11.4454545455
333	0.1665	0.620689655172	14.9191489362	1.83461538462	-1.56363636364
334	0.167	2.0724137931	12.0907801418	13.4961538462	-1.56363636364
335	0.1675	0.620689655172	14.9191489362	12.0384615385	-1.56363636364
336	0.168	-0.831034482759	7.84822695035	1.83461538462	-1.56363636364
337	0.1685	-8.08965517241	13.504964539	3.29230769231	-5.9
338	0.169	12.2344827586	6.43404255319	1.83461538462	-4.45454545455
339	0.1695	0.620689655172	5.01985815603	-8.36923076923	-4.45454545455
340	0.17	0.620689655172	6.43404255319	-6.91153846154	-5.9
341	0.1705	-0.831034482759	7.84822695035	3.29230769231	-3.00909090909
342	0.171	2.0724137931	-7.70780141844	0.376923076923	-3.00909090909
343	0.1715	4.97586206897	-0.636879432624	0.376923076923	-4.45454545455
344	0.172	-12.4448275862	-0.636879432624	3.29230769231	-1.56363636364
345	0.1725	-2.28275862069	-2.05106382979	4.75	-11.6818181818
346	0.173	-0.831034482759	-0.636879432624	19.3269230769	-1.56363636364
347	0.1735	-0.831034482759	-3.46524822695	3.29230769231	-1.56363636364
348	0.174	-0.831034482759	-10.5361702128	-1.08076923077	-1.56363636364
349	0.1745	0.620689655172	-2.05106382979	-1.08076923077	-0.118181818182
350	0.175	-12.4448275862	-0.636879432624	0.376923076923	-0.118181818182
351	0.1755	-8.08965517241	2.1914893617	0.376923076923	15.7818181818
352	0.176	2.0724137931	0.777304964539	-8.36923076923	-1.56363636364
353	0.1765	0.620689655172	2.1914893617	3.29230769231	-1.56363636364
354	0.177	-0.831034482759	17.7475177305	3.29230769231	-3.00909090909
355	0.1775	-2.28275862069	0.777304964539	1.83461538462	-0.118181818182
356	0.178	-12.4448275862	-0.636879432624	3.29230769231	2.77272727273
357	0.1785	-9.54137931034	2.1914893617	1.83461538462	17.2272727273
358	0.179	-0.831034482759	5.01985815603	4.75	-3.00909090909
359	0.1795	2.0724137931	2.1914893617	20.7846153846	-3.00909090909
360	0.18	0.620689655172	-7.70780141844	1.83461538462	-3.00909090909
361	0.1805	2.0724137931	-2.05106382979	-1.08076923077	-3.00909090909
362	0.181	20.9448275862	2.1914893617	-1.08076923077	-0.118181818182
363	0.1815	-3.73448275862	5.01985815603	3.29230769231	-0.118181818182
364	0.182	2.0724137931	2.1914893617	0.376923076923	7.10909090909
365	0.1825	-0.831034482759	2.1914893617	0.376923076923	-1.56363636364
366	0.183	-0.831034482759	-6.29361702128	1.83461538462	-3.00909090909
367	0.1835	2.0724137931	-3.46524822695	1.83461538462	-1.56363636364
368	0.184	7.87931034483	2.1914893617	3.29230769231	-3.00909090909
369	0.1845	-3.73448275862	-0.636879432624	1.83461538462	15.7818181818
370	0.185	0.620689655172	-0.636879432624	-9.82692307692	-3.00909090909
371	0.1855	0.620689655172	-0.636879432624	-5.45384615385	-0.118181818182
372	0.186	0.620689655172	-2.05106382979	1.83461538462	-3.00909090909
373	0.1865	-0.831034482759	-4.87943262411	-1.08076923077	-0.118181818182
374	0.187	-8.08965517241	-9.1219858156	0.376923076923	-3.00909090909
375	0.1875	9.33103448276	-7.70780141844	1.83461538462	-3.00909090909
376	0.188	-5.18620689655	-7.70780141844	0.376923076923	-7.34545454545
377	0.1885	2.0724137931	-9.1219858156	7.66538461538	-5.9
378	0.189	0.620689655172	-10.5361702128	1.83461538462	-4.45454545455
379	0.1895	-0.831034482759	-10.5361702128	0.376923076923	-5.9
380	0.19	-3.73448275862	-9.1219858156	1.83461538462	-4.45454545455
381	0.1905	-0.831034482759	-10.5361702128	0.376923076923	-4.45454545455
382	0.191	-5.18620689655	-9.1219858156	0.376923076923	8.55454545455
383	0.1915	-2.28275862069	-9.1219858156	-3.99615384615	-3.00909090909
384	0.192	-3.73448275862	-6.29361702128	0.376923076923	-1.56363636364
385	0.1925	-0.831034482759	-9.1219858156	0.376923076923	-1.56363636364
386	0.193	0.620689655172	-13.3645390071	4.75	-1.56363636364
387	0.1935	-2.28275862069	-9.1219858156	3.29230769231	-3.00909090909
388	0.194	15.1379310345	-10.5361702128	1.83461538462	-3.00909090909
389	0.1945	-0.831034482759	-10.5361702128	-1.08076923077	-3.00909090909
390	0.195	2.0724137931	-9.1219858156	-5.45384615385	-4.45454545455
391	0.1955	0.620689655172	-9.1219858156	0.376923076923	-1.56363636364
392	0.196	0.620689655172	7.84822695035	1.83461538462	-0.118181818182
393	0.1965	-9.54137931034	-7.70780141844	3.29230769231	-0.118181818182
394	0.197	-9.54137931034	-7.70780141844	1.83461538462	18.6727272727
395	0.1975	-0.831034482759	-7.70780141844	6.20769230769	-1.56363636364
396	0.198	0.620689655172	-4.87943262411	6.20769230769	-3.00909090909
397	0.1985	2.0724137931	-6.29361702128	16.4115384615	-7.34545454545
398	0.199	3.52413793103	-10.5361702128	0.376923076923	-8.79090909091
399	0.1995	6.4275862069	-6.29361702128	3.29230769231	-7.34545454545
400	0.2	-9.54137931034	-11.9503546099	1.83461538462	-4.45454545455
401	0.2005	2.0724137931	-9.1219858156	3.29230769231	-7.34545454545
402	0.201	2.0724137931	-9.1219858156	13.4961538462	-7.34545454545
403	0.2015	0.620689655172	-10.5361702128	13.4961538462	-8.79090909091
404	0.202	3.52413793103	-21.8496453901	1.83461538462	-7.34545454545
405	0.2025	6.4275862069	-16.1929078014	3.29230769231	-8.79090909091
406	0.203	-6.63793103448	-13.3645390071	0.376923076923	-4.45454545455
407	0.2035	0.620689655172	-17.6070921986	4.75	-5.9
408	0.204	3.52413793103	-19.0212765957	7.66538461538	-7.34545454545
409	0.2045	3.52413793103	-21.8496453901	-3.99615384615	-4.45454545455
410	0.205	0.620689655172	-26.0921985816	1.83461538462	-3.00909090909
411	0.2055	0.620689655172	-11.9503546099	0.376923076923	-4.45454545455
412	0.206	-0.831034482759	-9.1219858156	0.376923076923	-1.56363636364
413	0.2065	-6.63793103448	-27.5063829787	3.29230769231	15.7818181818
414	0.207	2.0724137931	-26.0921985816	4.75	-4.45454545455
415	0.2075	0.620689655172	-24.6780141844	19.3269230769	-7.34545454545
416	0.208	3.52413793103	-21.8496453901	1.83461538462	-8.79090909091
417	0.2085	2.0724137931	-6.29361702128	4.75	-10.2363636364
418	0.209	-10.9931034483	-26.0921985816	0.376923076923	-11.6818181818
419	0.2095	25.3	-24.6780141844	1.83461538462	-17.4636363636
420	0.21	0.620689655172	-26.0921985816	0.376923076923	-16.0181818182
421	0.2105	2.0724137931	-23.2638297872	1.83461538462	8.55454545455
422	0.211	0.620689655172	-23.2638297872	4.75	-8.79090909091
423	0.2115	3.52413793103	-31.7489361702	-1.08076923077	-5.9
424	0.212	2.0724137931	-30.334751773	1.83461538462	-7.34545454545
425	0.2125	23.8482758621	-23.2638297872	3.29230769231	-18.9090909091
426	0.213	3.52413793103	-21.8496453901	3.29230769231	-16.0181818182
427	0.2135	3.52413793103	-23.2638297872	0.376923076923	4.21818181818
428	0.214	3.52413793103	-19.0212765957	0.376923076923	-4.45454545455
429	0.2145	3.52413793103	-33.1631205674	-1.08076923077	-8.79090909091
430	0.215	9.33103448276	-34.5773049645	1.83461538462	-10.2363636364
431	0.2155	7.87931034483	-27.5063829787	1.83461538462	-11.6818181818
432	0.216	-2.28275862069	-28.9205673759	-1.08076923077	-13.1272727273
433	0.2165	3.52413793103	-26.0921985816	1.83461538462	-21.8
434	0.217	0.620689655172	-28.9205673759	17.8692307692	-8.79090909091
435	0.2175	3.52413793103	-31.7489361702	1.83461538462	-8.79090909091
436	0.218	2.0724137931	-40.2340425532	1.83461538462	-5.9
437	0.2185	2.0724137931	-35.9914893617	1.83461538462	-7.34545454545
438	0.219	-9.54137931034	-34.5773049645	0.376923076923	-4.45454545455
439	0.2195	3.52413793103	-35.9914893617	3.29230769231	1.32727272727
440	0.22	-0.831034482759	-35.9914893617	12.0384615385	-4.45454545455
441	0.2205	2.0724137931	-37.4056737589	9.12307692308	-0.118181818182
442	0.221	0.620689655172	-31.7489361702	3.29230769231	2.77272727273
443	0.2215	0.620689655172	-34.5773049645	-1.08076923077	2.77272727273
444	0.222	-8.08965517241	-34.5773049645	0.376923076923	2.77272727273
445	0.2225	-2.28275862069	-33.1631205674	0.376923076923	-5.9
446	0.223	2.0724137931	-30.334751773	-12.7423076923	-1.56363636364
447	0.2235	0.620689655172	-27.5063829787	-8.36923076923	2.77272727273
448	0.224	0.620689655172	-26.0921985816	-1.08076923077	4.21818181818
449	0.2245	-3.73448275862	-33.1631205674	-1.08076923077	4.21818181818
450	0.225	-2.28275862069	-24.6780141844	-1.08076923077	4.21818181818
451	0.2255	15.1379310345	-21.8496453901	1.83461538462	2.77272727273
452	0.226	-0.831034482759	-21.8496453901	-11.2846153846	4.21818181818
453	0.2265	-2.28275862069	-19.0212765957	-2.53846153846	4.21818181818
454	0.227	-0.831034482759	-23.2638297872	0.376923076923	7.10909090909
455	0.2275	0.620689655172	-11.9503546099	3.29230769231	5.66363636364
456	0.228	-5.18620689655	-9.1219858156	0.376923076923	2.77272727273
457	0.2285	15.1379310345	-9.1219858156	0.376923076923	1.32727272727
458	0.229	-2.28275862069	-3.46524822695	6.20769230769	-5.9
459	0.2295	-0.831034482759	-0.636879432624	20.7846153846	1.32727272727
460	0.23	0.620689655172	3.60567375887	16.4115384615	-0.118181818182
461	0.2305	0.620689655172	-0.636879432624	1.83461538462	-1.56363636364
462	0.231	2.0724137931	3.60567375887	-1.08076923077	-1.56363636364
463	0.2315	13.6862068966	2.1914893617	3.29230769231	-1.56363636364
464	0.232	-3.73448275862	5.01985815603	-1.08076923077	-1.56363636364
465	0.2325	-0.831034482759	7.84822695035	4.75	-7.34545454545
466	0.233	-2.28275862069	6.43404255319	-1.08076923077	-4.45454545455
467	0.2335	-0.831034482759	9.26241134752	0.376923076923	-4.45454545455
468	0.234	-5.18620689655	6.43404255319	0.376923076923	-3.00909090909
469	0.2345	-13.8965517241	7.84822695035	4.75	-3.00909090909
470	0.235	-3.73448275862	9.26241134752	4.75	-13.1272727273
471	0.2355	-2.28275862069	6.43404255319	-2.53846153846	1.32727272727
472	0.236	-0.831034482759	2.1914893617	6.20769230769	-7.34545454545
473	0.2365	-0.831034482759	0.777304964539	1.83461538462	-7.34545454545
474	0.237	-0.831034482759	0.777304964539	3.29230769231	-5.9
475	0.2375	-8.08965517241	5.01985815603	3.29230769231	-5.9
476	0.238	9.33103448276	3.60567375887	3.29230769231	-13.1272727273
477	0.2385	-2.28275862069	3.60567375887	-5.45384615385	-5.9
478	0.239	-2.28275862069	2.1914893617	-8.36923076923	-4.45454545455
479	0.2395	-2.28275862069	7.84822695035	3.29230769231	-1.56363636364
480	0.24	-3.73448275862	21.990070922	4.75	-1.56363636364
481	0.2405	-15.3482758621	3.60567375887	4.75	-1.56363636364
482	0.241	-5.18620689655	5.01985815603	0.376923076923	-1.56363636364
483	0.2415	-2.28275862069	5.01985815603	3.29230769231	2.77272727273
484	0.242	-3.73448275862	6.43404255319	12.0384615385	-1.56363636364
485	0.2425	-0.831034482759	5.01985815603	4.75	-1.56363636364
486	0.243	0.620689655172	24.8184397163	0.376923076923	-1.56363636364
487	0.2435	-6.63793103448	2.1914893617	0.376923076923	-3.00909090909
488	0.244	20.9448275862	9.26241134752	3.29230769231	-4.45454545455
489	0.2445	-2.28275862069	13.504964539	3.29230769231	-4.45454545455
490	0.245	-0.831034482759	16.3333333333	14.9538461538	-3.00909090909
491	0.2455	-0.831034482759	17.7475177305	7.66538461538	-3.00909090909
492	0.246	0.620689655172	24.8184397163	1.83461538462	-4.45454545455
493	0.2465	2.0724137931	16.3333333333	3.29230769231	-3.00909090909
494	0.247	-5.18620689655	16.3333333333	3.29230769231	-3.00909090909
495	0.2475	-0.831034482759	19.1617021277	1.83461538462	-13.1272727273
496	0.248	0.620689655172	20.5758865248	17.8692307692	-3.00909090909
497	0.2485	-0.831034482759	16.3333333333	0.376923076923	-4.45454545455
498	0.249	0.620689655172	13.504964539	-2.53846153846	-1.56363636364
499	0.2495	3.52413793103	13.504964539	0.376923076923	-1.56363636364
500	0.25	0.620689655172	12.0907801418	0.376923076923	-4.45454545455
501	0.2505	-5.18620689655	10.6765957447	0.376923076923	-0.118181818182
502	0.251	2.0724137931	10.6765957447	-5.45384615385	-5.9
503	0.2515	2.0724137931	7.84822695035	-6.91153846154	-1.56363636364
504	0.252	2.0724137931	20.5758865248	3.29230769231	-0.118181818182
505	0.2525	0.620689655172	-0.636879432624	3.29230769231	-0.118181818182
506	0.253	-10.9931034483	-7.70780141844	1.83461538462	1.32727272727
507	0.2535	12.2344827586	-2.05106382979	3.29230769231	-1.56363636364
508	0.254	0.620689655172	-2.05106382979	-5.45384615385	-7.34545454545
509	0.2545	2.0724137931	-4.87943262411	-6.91153846154	-0.118181818182
510	0.255	0.620689655172	-4.87943262411	1.83461538462	-1.56363636364
511	0.2555	-2.28275862069	-10.5361702128	0.376923076923	-1.56363636364
512	0.256	-12.4448275862	-9.1219858156	0.376923076923	-1.56363636364
513	0.2565	4.97586206897	-9.1219858156	1.83461538462	1.32727272727
514	0.257	0.620689655172	-11.9503546099	1.83461538462	-4.45454545455
515	0.2575	-0.831034482759	-11.9503546099	-5.45384615385	-3.00909090909
516	0.258	-2.28275862069	-11.9503546099	1.83461538462	-1.56363636364
517	0.2585	-0.831034482759	-9.1219858156	3.29230769231	-0.118181818182
518	0.259	-5.18620689655	-10.5361702128	3.29230769231	-1.56363636364
519	0.2595	16.5896551724	-10.5361702128	3.29230769231	-1.56363636364
520	0.26	-0.831034482759	-6.29361702128	0.376923076923	-11.6818181818
521	0.2605	-2.28275862069	-6.29361702128	-9.82692307692	-1.56363636364
522	0.261	0.620689655172	-6.29361702128	-2.53846153846	-3.00909090909
523	0.2615	3.52413793103	9.26241134752	1.83461538462	-1.56363636364
524	0.262	-2.28275862069	-3.46524822695	3.29230769231	-3.00909090909
525	0.2625	-10.9931034483	-3.46524822695	1.83461538462	-0.118181818182
526	0.263	-3.73448275862	-3.46524822695	3.29230769231	2.77272727273
527	0.2635	-0.831034482759	-2.05106382979	0.376923076923	5.66363636364
528	0.264	0.620689655172	-2.05106382979	7.66538461538	-1.56363636364
529	0.2645	-2.28275862069	0.777304964539	-1.08076923077	-1.56363636364
530	0.265	-0.831034482759	-4.87943262411	1.83461538462	-7.34545454545
531	0.2655	-6.63793103448	-0.636879432624	-1.08076923077	-3.00909090909
532	0.266	-6.63793103448	-2.05106382979	0.376923076923	4.21818181818
533	0.2665	-0.831034482759	-0.636879432624	-1.08076923077	7.10909090909
534	0.267	-0.831034482759	2.1914893617	10.5807692308	-3.00909090909
535	0.2675	-0.831034482759	-0.636879432624	0.376923076923	-1.56363636364
536	0.268	0.620689655172	6.43404255319	0.376923076923	-3.00909090909
537	0.2685	2.0724137931	-2.05106382979	0.376923076923	-3.00909090909
538	0.269	9.33103448276	-4.87943262411	-2.53846153846	-4.45454545455
539	0.2695	-2.28275862069	-4.87943262411	1.83461538462	-0.118181818182
540	0.27	-0.831034482759	-2.05106382979	13.4961538462	-1.56363636364
541	0.2705	-0.831034482759	-2.05106382979	14.9538461538	-4.45454545455
542	0.271	-2.28275862069	-10.5361702128	-1.08076923077	-3.00909090909
543	0.2715	-6.63793103448	-6.29361702128	-1.08076923077	-1.56363636364
544	0.272	7.87931034483	-6.29361702128	0.376923076923	-1.56363636364
545	0.2725	-6.63793103448	-7.70780141844	-1.08076923077	-3.00909090909
546	0.273	-0.831034482759	-6.29361702128	7.66538461538	-0.118181818182
547	0.2735	-2.28275862069	-6.29361702128	1.83461538462	-1.56363636364
548	0.274	-0.831034482759	-9.1219858156	-1.08076923077	-5.9
549	0.2745	0.620689655172	-13.3645390071	0.376923076923	-3.00909090909
550	0.275	9.33103448276	-4.87943262411	3.29230769231	1.32727272727
551	0.2755	-2.28275862069	-2.05106382979	1.83461538462	-0.118181818182
552	0.276	0.620689655172	-4.87943262411	1.83461538462	18.6727272727
553	0.2765	-2.28275862069	-0.636879432624	1.83461538462	-0.118181818182
554	0.277	-2.28275862069	-13.3645390071	4.75	-3.00909090909
555	0.2775	0.620689655172	-6.29361702128	3.29230769231	-4.45454545455
556	0.278	3.52413793103	-0.636879432624	1.83461538462	-1.56363636364
557	0.2785	-2.28275862069	2.1914893617	3.29230769231	-1.56363636364
558	0.279	0.620689655172	0.777304964539	-3.99615384615	5.66363636364
559	0.2795	-2.28275862069	3.60567375887	-2.53846153846	-7.34545454545
560	0.28	-2.28275862069	3.60567375887	1.83461538462	-0.118181818182
561	0.2805	3.52413793103	-6.29361702128	3.29230769231	-3.00909090909
562	0.281	3.52413793103	6.43404255319	0.376923076923	-3.00909090909
563	0.2815	20.9448275862	6.43404255319	3.29230769231	-13.1272727273
564	0.282	-2.28275862069	6.43404255319	-1.08076923077	-10.2363636364
565	0.2825	-2.28275862069	7.84822695035	-8.36923076923	-1.56363636364
566	0.283	2.0724137931	7.84822695035	-3.99615384615	-0.118181818182
567	0.2835	-0.831034482759	29.0609929078	-1.08076923077	-1.56363636364
568	0.284	-3.73448275862	-0.636879432624	0.376923076923	-3.00909090909
569	0.2845	20.9448275862	7.84822695035	3.29230769231	-11.6818181818
570	0.285	-0.831034482759	7.84822695035	1.83461538462	-13.1272727273
571	0.2855	0.620689655172	7.84822695035	20.7846153846	-5.9
572	0.286	0.620689655172	3.60567375887	-6.91153846154	-3.00909090909
573	0.2865	2.0724137931	23.4042553191	0.376923076923	-4.45454545455
574	0.287	-0.831034482759	5.01985815603	0.376923076923	-3.00909090909
575	0.2875	-10.9931034483	6.43404255319	1.83461538462	-1.56363636364
576	0.288	-9.54137931034	3.60567375887	0.376923076923	-3.00909090909
577	0.2885	-3.73448275862	0.777304964539	17.8692307692	-4.45454545455
578	0.289	-2.28275862069	0.777304964539	19.3269230769	-1.56363636364
579	0.2895	-3.73448275862	-7.70780141844	0.376923076923	-3.00909090909
580	0.29	2.0724137931	19.1617021277	0.376923076923	-1.56363636364
581	0.2905	-8.08965517241	2.1914893617	0.376923076923	-3.00909090909
582	0.291	-10.9931034483	2.1914893617	-1.08076923077	11.4454545455
583	0.2915	-2.28275862069	5.01985815603	1.83461538462	8.55454545455
584	0.292	-0.831034482759	6.43404255319	14.9538461538	-4.45454545455
585	0.2925	0.620689655172	6.43404255319	0.376923076923	-4.45454545455
586	0.293	-0.831034482759	20.5758865248	-1.08076923077	-1.56363636364
587	0.2935	-3.73448275862	6.43404255319	0.376923076923	-3.00909090909
588	0.294	-8.08965517241	10.6765957447	3.29230769231	-0.118181818182
589	0.2945	-0.831034482759	9.26241134752	3.29230769231	-16.0181818182
590	0.295	-3.73448275862	13.504964539	-6.91153846154	-5.9
591	0.2955	-2.28275862069	0.777304964539	3.29230769231	-3.00909090909
592	0.296	-0.831034482759	7.84822695035	3.29230769231	-3.00909090909
593	0.2965	2.0724137931	21.990070922	0.376923076923	-4.45454545455
594	0.297	20.9448275862	19.1617021277	1.83461538462	-13.1272727273
595	0.2975	-0.831034482759	21.990070922	-1.08076923077	7.10909090909
596	0.298	0.620689655172	24.8184397163	9.12307692308	-7.34545454545
597	0.2985	0.620689655172	21.990070922	4.75	-4.45454545455
598	0.299	0.620689655172	23.4042553191	1.83461538462	-3.00909090909
599	0.2995	3.52413793103	23.4042553191	3.29230769231	-1.56363636364
600	0.3	13.6862068966	16.3333333333	1.83461538462	-1.56363636364
601	0.3005	0.620689655172	20.5758865248	0.376923076923	4.21818181818
602	0.301	0.620689655172	19.1617021277	1.83461538462	4.21818181818
603	0.3015	-2.28275862069	19.1617021277	4.75	2.77272727273
604	0.302	0.620689655172	19.1617021277	-1.08076923077	4.21818181818
605	0.3025	3.52413793103	6.43404255319	-2.53846153846	-0.118181818182
606	0.303	9.33103448276	10.6765957447	1.83461538462	-4.45454545455
607	0.3035	-5.18620689655	9.26241134752	1.83461538462	14.3363636364
608	0.304	-0.831034482759	6.43404255319	-3.99615384615	1.32727272727
609	0.3045	0.620689655172	9.26241134752	19.3269230769	-1.56363636364
610	0.305	-2.28275862069	2.1914893617	0.376923076923	-7.34545454545
611	0.3055	-0.831034482759	-3.46524822695	1.83461538462	-5.9
612	0.306	0.620689655172	6.43404255319	0.376923076923	-4.45454545455
613	0.3065	19.4931034483	6.43404255319	1.83461538462	-16.0181818182
614	0.307	-3.73448275862	5.01985815603	6.20769230769	-10.2363636364
615	0.3075	-0.831034482759	2.1914893617	-3.99615384615	-4.45454545455
616	0.308	-0.831034482759	-7.70780141844	1.83461538462	-3.00909090909
617	0.3085	-0.831034482759	0.777304964539	0.376923076923	-4.45454545455
618	0.309	3.52413793103	7.84822695035	3.29230769231	-4.45454545455
619	0.3095	9.33103448276	9.26241134752	1.83461538462	-5.9
620	0.31	-8.08965517241	10.6765957447	0.376923076923	4.21818181818
621	0.3105	-3.73448275862	13.504964539	13.4961538462	-4.45454545455
622	0.311	2.0724137931	13.504964539	-1.08076923077	-1.56363636364
623	0.3115	0.620689655172	13.504964539	0.376923076923	-4.45454545455
624	0.312	0.620689655172	6.43404255319	3.29230769231	-3.00909090909
625	0.3125	-3.73448275862	17.7475177305	3.29230769231	-4.45454545455
626	0.313	-0.831034482759	16.3333333333	1.83461538462	-11.6818181818
627	0.3135	0.620689655172	19.1617021277	-1.08076923077	12.8909090909
628	0.314	-0.831034482759	19.1617021277	16.4115384615	-5.9
629	0.3145	0.620689655172	14.9191489362	0.376923076923	-1.56363636364
630	0.315	-2.28275862069	13.504964539	-2.53846153846	-3.00909090909
631	0.3155	-3.73448275862	19.1617021277	0.376923076923	1.32727272727
632	0.316	-0.831034482759	19.1617021277	4.75	1.32727272727
633	0.3165	-0.831034482759	20.5758865248	12.0384615385	-3.00909090909
634	0.317	0.620689655172	17.7475177305	0.376923076923	-3.00909090909
635	0.3175	0.620689655172	21.990070922	-1.08076923077	-1.56363636364
636	0.318	-2.28275862069	3.60567375887	-1.08076923077	-3.00909090909
637	0.3185	7.87931034483	9.26241134752	1.83461538462	-1.56363636364
638	0.319	-8.08965517241	9.26241134752	0.376923076923	1.32727272727
639	0.3195	0.620689655172	6.43404255319	1.83461538462	14.3363636364
640	0.32	-0.831034482759	7.84822695035	3.29230769231	-10.2363636364
641	0.3205	3.52413793103	-3.46524822695	1.83461538462	-3.00909090909
642	0.321	0.620689655172	21.990070922	-1.08076923077	-0.118181818182
643	0.3215	-6.63793103448	21.990070922	0.376923076923	-1.56363636364
644	0.322	-12.4448275862	2.1914893617	1.83461538462	20.1181818182
645	0.3225	-3.73448275862	3.60567375887	1.83461538462	-1.56363636364
646	0.323	-2.28275862069	5.01985815603	20.7846153846	-3.00909090909
647	0.3235	0.620689655172	3.60567375887	16.4115384615	-3.00909090909
648	0.324	-0.831034482759	-3.46524822695	3.29230769231	-3.00909090909
649	0.3245	-5.18620689655	6.43404255319	0.376923076923	-3.00909090909
650	0.325	4.97586206897	9.26241134752	1.83461538462	-3.00909090909
651	0.3255	0.620689655172	12.0907801418	-8.36923076923	-5.9
652	0.326	2.0724137931	14.9191489362	0.376923076923	-3.00909090909
653	0.3265	-0.831034482759	17.7475177305	-1.08076923077	-3.00909090909
654	0.327	-2.28275862069	7.84822695035	1.83461538462	-5.9
655	0.3275	4.97586206897	14.9191489362	1.83461538462	-3.00909090909
656	0.328	13.6862068966	14.9191489362	1.83461538462	-11.6818181818
657	0.3285	-2.28275862069	14.9191489362	1.83461538462	-8.79090909091
658	0.329	-0.831034482759	17.7475177305	-8.36923076923	-3.00909090909
659	0.3295	0.620689655172	17.7475177305	-1.08076923077	-1.56363636364
660	0.33	0.620689655172	31.8893617021	0.376923076923	-4.45454545455
661	0.3305	-12.4448275862	16.3333333333	0.376923076923	-4.45454545455
662	0.331	18.0413793103	17.7475177305	1.83461538462	-13.1272727273
663	0.3315	0.620689655172	16.3333333333	1.83461538462	-11.6818181818
664	0.332	0.620689655172	17.7475177305	-11.2846153846	-3.00909090909
665	0.3325	0.620689655172	14.9191489362	-2.53846153846	-4.45454545455
666	0.333	0.620689655172	27.6468085106	3.29230769231	-3.00909090909
667	0.3335	-2.28275862069	6.43404255319	0.376923076923	-1.56363636364
668	0.334	3.52413793103	14.9191489362	1.83461538462	-3.00909090909
669	0.3345	0.620689655172	10.6765957447	1.83461538462	-8.79090909091
670	0.335	-0.831034482759	9.26241134752	4.75	-7.34545454545
671	0.3355	0.620689655172	6.43404255319	3.29230769231	-4.45454545455
672	0.336	-0.831034482759	-0.636879432624	3.29230769231	-3.00909090909
673	0.3365	-3.73448275862	0.777304964539	0.376923076923	-4.45454545455
674	0.337	20.9448275862	7.84822695035	-1.08076923077	-5.9
675	0.3375	0.620689655172	7.84822695035	-1.08076923077	-8.79090909091
676	0.338	-0.831034482759	6.43404255319	-9.82692307692	-1.56363636364
677	0.3385	0.620689655172	-0.636879432624	-1.08076923077	-4.45454545455
678	0.339	0.620689655172	10.6765957447	0.376923076923	-4.45454545455
679	0.3395	-3.73448275862	0.777304964539	3.29230769231	-4.45454545455
680	0.34	-2.28275862069	3.60567375887	0.376923076923	-4.45454545455
681	0.3405	15.1379310345	2.1914893617	3.29230769231	-11.6818181818
682	0.341	-2.28275862069	2.1914893617	-3.99615384615	-10.2363636364
683	0.3415	-0.831034482759	-2.05106382979	-6.91153846154	-1.56363636364
684	0.342	-2.28275862069	-4.87943262411	1.83461538462	-1.56363636364
685	0.3425	-2.28275862069	-6.29361702128	1.83461538462	-1.56363636364
686	0.343	15.1379310345	3.60567375887	3.29230769231	4.21818181818
687	0.3435	-15.3482758621	5.01985815603	-1.08076923077	18.6727272727
688	0.344	-2.28275862069	6.43404255319	-5.45384615385	-1.56363636364
689	0.3445	-0.831034482759	5.01985815603	19.3269230769	-1.56363636364
690	0.345	-0.831034482759	-3.46524822695	3.29230769231	-4.45454545455
691	0.3455	2.0724137931	-2.05106382979	1.83461538462	-4.45454545455
692	0.346	0.620689655172	2.1914893617	0.376923076923	-3.00909090909
693	0.3465	18.0413793103	9.26241134752	0.376923076923	-4.45454545455
694	0.347	0.620689655172	9.26241134752	-1.08076923077	11.4454545455
695	0.3475	0.620689655172	16.3333333333	-3.99615384615	-1.56363636364
696	0.348	0.620689655172	14.9191489362	0.376923076923	-1.56363636364
697	0.3485	0.620689655172	23.4042553191	-2.53846153846	-1.56363636364
698	0.349	-10.9931034483	12.0907801418	-1.08076923077	-0.118181818182
699	0.3495	3.52413793103	9.26241134752	0.376923076923	-3.00909090909
700	0.35	0.620689655172	7.84822695035	0.376923076923	-10.2363636364
701	0.3505	2.0724137931	6.43404255319	-1.08076923077	-11.6818181818
702	0.351	2.0724137931	7.84822695035	-5.45384615385	-3.00909090909
703	0.3515	0.620689655172	20.5758865248	0.376923076923	-1.56363636364
704	0.352	-2.28275862069	2.1914893617	0.376923076923	-1.56363636364
705	0.3525	-12.4448275862	2.1914893617	1.83461538462	-1.56363636364
706	0.353	-0.831034482759	3.60567375887	3.29230769231	10.0
707	0.3535	-0.831034482759	2.1914893617	14.9538461538	-1.56363636364
708	0.354	0.620689655172	0.777304964539	9.12307692308	-3.00909090909
709	0.3545	-0.831034482759	2.1914893617	0.376923076923	-4.45454545455
710	0.355	-0.831034482759	-4.87943262411	-1.08076923077	-4.45454545455
711	0.3555	-6.63793103448	-3.46524822695	1.83461538462	-4.45454545455
712	0.356	-0.831034482759	-4.87943262411	0.376923076923	5.66363636364
713	0.3565	0.620689655172	-3.46524822695	-2.53846153846	-4.45454545455
714	0.357	-0.831034482759	-4.87943262411	-8.36923076923	-3.00909090909
715	0.3575	0.620689655172	13.504964539	0.376923076923	-1.56363636364
716	0.358	-0.831034482759	-0.636879432624	-1.08076923077	-0.118181818182
717	0.3585	-12.4448275862	-2.05106382979	-1.08076923077	2.77272727273
718	0.359	-3.73448275862	-0.636879432624	1.83461538462	1.32727272727
719	0.3595	0.620689655172	3.60567375887	-1.08076923077	-7.34545454545
720	0.36	0.620689655172	2.1914893617	-1.08076923077	-0.118181818182
721	0.3605	0.620689655172	2.1914893617	1.83461538462	-0.118181818182
722	0.361	0.620689655172	20.5758865248	1.83461538462	-0.118181818182
723	0.3615	2.0724137931	9.26241134752	1.83461538462	2.77272727273
724	0.362	-6.63793103448	10.6765957447	-1.08076923077	2.77272727273
725	0.3625	0.620689655172	16.3333333333	3.29230769231	-4.45454545455
726	0.363	2.0724137931	13.504964539	3.29230769231	-7.34545454545
727	0.3635	0.620689655172	13.504964539	-9.82692307692	-1.56363636364
728	0.364	-2.28275862069	19.1617021277	3.29230769231	-1.56363636364
729	0.3645	-0.831034482759	16.3333333333	1.83461538462	-1.56363636364
730	0.365	-8.08965517241	14.9191489362	1.83461538462	-1.56363636364
731	0.3655	2.0724137931	10.6765957447	0.376923076923	-11.6818181818
732	0.366	0.620689655172	9.26241134752	-8.36923076923	-5.9
733	0.3665	2.0724137931	14.9191489362	-9.82692307692	-3.00909090909
734	0.367	3.52413793103	19.1617021277	1.83461538462	-4.45454545455
735	0.3675	0.620689655172	9.26241134752	1.83461538462	-3.00909090909
736	0.368	-6.63793103448	9.26241134752	1.83461538462	-1.56363636364
737	0.3685	-2.28275862069	10.6765957447	1.83461538462	-5.9
738	0.369	0.620689655172	7.84822695035	-1.08076923077	11.4454545455
739	0.3695	2.0724137931	6.43404255319	1.83461538462	-4.45454545455
740	0.37	0.620689655172	0.777304964539	0.376923076923	-4.45454545455
741	0.3705	2.0724137931	-6.29361702128	3.29230769231	-3.00909090909
742	0.371	3.52413793103	2.1914893617	3.29230769231	-1.56363636364
743	0.3715	-3.73448275862	2.1914893617	3.29230769231	8.55454545455
744	0.372	-0.831034482759	2.1914893617	3.29230769231	-3.00909090909
745	0.3725	0.620689655172	0.777304964539	16.4115384615	-0.118181818182
746	0.373	-0.831034482759	0.777304964539	12.0384615385	-0.118181818182
747	0.3735	3.52413793103	-2.05106382979	0.376923076923	1.32727272727
748	0.374	3.52413793103	0.777304964539	-1.08076923077	4.21818181818
749	0.3745	7.87931034483	2.1914893617	1.83461538462	4.21818181818
750	0.375	-5.18620689655	0.777304964539	0.376923076923	11.4454545455
751	0.3755	-2.28275862069	0.777304964539	7.66538461538	1.32727272727
752	0.376	-2.28275862069	5.01985815603	16.4115384615	2.77272727273
753	0.3765	0.620689655172	-4.87943262411	0.376923076923	-0.118181818182
754	0.377	0.620689655172	5.01985815603	-2.53846153846	-1.56363636364
755	0.3775	-10.9931034483	5.01985815603	1.83461538462	2.77272727273
756	0.378	-9.54137931034	6.43404255319	-1.08076923077	20.1181818182
757	0.3785	-0.831034482759	10.6765957447	-9.82692307692	-0.118181818182
758	0.379	0.620689655172	10.6765957447	19.3269230769	-3.00909090909
759	0.3795	0.620689655172	0.777304964539	-2.53846153846	-1.56363636364
760	0.38	0.620689655172	16.3333333333	0.376923076923	-0.118181818182
761	0.3805	-0.831034482759	10.6765957447	-1.08076923077	1.32727272727
762	0.381	-8.08965517241	14.9191489362	3.29230769231	2.77272727273
763	0.3815	0.620689655172	17.7475177305	0.376923076923	7.10909090909
764	0.382	2.0724137931	16.3333333333	12.0384615385	-5.9
765	0.3825	2.0724137931	5.01985815603	3.29230769231	-3.00909090909
766	0.383	0.620689655172	21.990070922	1.83461538462	-0.118181818182
767	0.3835	-0.831034482759	16.3333333333	-1.08076923077	-0.118181818182
768	0.384	-13.8965517241	13.504964539	0.376923076923	-1.56363636364
769	0.3845	-0.831034482759	13.504964539	3.29230769231	-13.1272727273
770	0.385	2.0724137931	10.6765957447	13.4961538462	-4.45454545455
771	0.3855	2.0724137931	6.43404255319	-2.53846153846	-1.56363636364
772	0.386	-0.831034482759	0.777304964539	0.376923076923	-1.56363636364
773	0.3865	0.620689655172	10.6765957447	-1.08076923077	-1.56363636364
774	0.387	4.97586206897	2.1914893617	-1.08076923077	-1.56363636364
775	0.3875	-3.73448275862	2.1914893617	0.376923076923	-1.56363636364
776	0.388	2.0724137931	0.777304964539	-1.08076923077	-10.2363636364
777	0.3885	3.52413793103	-0.636879432624	-5.45384615385	-3.00909090909
778	0.389	0.620689655172	-7.70780141844	0.376923076923	-1.56363636364
779	0.3895	2.0724137931	-9.1219858156	0.376923076923	-3.00909090909
780	0.39	-2.28275862069	-4.87943262411	1.83461538462	-3.00909090909
781	0.3905	16.5896551724	-0.636879432624	3.29230769231	-11.6818181818
782	0.391	-2.28275862069	-3.46524822695	-2.53846153846	-10.2363636364
783	0.3915	-0.831034482759	2.1914893617	-9.82692307692	-1.56363636364
784	0.392	0.620689655172	0.777304964539	-1.08076923077	-1.56363636364
785	0.3925	0.620689655172	-9.1219858156	0.376923076923	1.32727272727
786	0.393	4.97586206897	0.777304964539	-1.08076923077	-1.56363636364
787	0.3935	19.4931034483	3.60567375887	-1.08076923077	-3.00909090909
788	0.394	2.0724137931	5.01985815603	-2.53846153846	-7.34545454545
789	0.3945	0.620689655172	6.43404255319	-8.36923076923	-3.00909090909
790	0.395	-0.831034482759	3.60567375887	-5.45384615385	-0.118181818182
791	0.3955	-0.831034482759	-4.87943262411	-3.99615384615	-0.118181818182
792	0.396	0.620689655172	19.1617021277	0.376923076923	-1.56363636364
793	0.3965	-2.28275862069	5.01985815603	1.83461538462	-1.56363636364
794	0.397	-5.18620689655	5.01985815603	1.83461538462	8.55454545455
795	0.3975	0.620689655172	6.43404255319	-1.08076923077	-1.56363636364
796	0.398	0.620689655172	6.43404255319	3.29230769231	-1.56363636364
797	0.3985	0.620689655172	7.84822695035	0.376923076923	-1.56363636364
798	0.399	2.0724137931	5.01985815603	-1.08076923077	-1.56363636364
799	0.3995	-3.73448275862	3.60567375887	-2.53846153846	-3.00909090909
800	0.4	-5.18620689655	6.43404255319	0.376923076923	1.32727272727
801	0.4005	0.620689655172	6.43404255319	-1.08076923077	-7.34545454545
802	0.401	0.620689655172	5.01985815603	-2.53846153846	-0.118181818182
803	0.4015	0.620689655172	2.1914893617	0.376923076923	-1.56363636364
804	0.402	0.620689655172	7.84822695035	1.83461538462	-3.00909090909
805	0.4025	2.0724137931	0.777304964539	-1.08076923077	-3.00909090909
806	0.403	-3.73448275862	-0.636879432624	-1.08076923077	1.32727272727
807	0.4035	0.620689655172	-2.05106382979	-1.08076923077	2.77272727273
808	0.404	0.620689655172	-3.46524822695	12.0384615385	-5.9
809	0.4045	0.620689655172	-14.7787234043	0.376923076923	-3.00909090909
810	0.405	2.0724137931	-16.1929078014	-1.08076923077	-0.118181818182
811	0.4055	3.52413793103	-10.5361702128	1.83461538462	-4.45454545455
812	0.406	23.8482758621	-7.70780141844	3.29230769231	-14.5727272727
813	0.4065	-0.831034482759	-6.29361702128	0.376923076923	1.32727272727
814	0.407	-2.28275862069	-4.87943262411	19.3269230769	-1.56363636364
815	0.4075	-2.28275862069	-4.87943262411	17.8692307692	-1.56363636364
816	0.408	-0.831034482759	-10.5361702128	1.83461538462	-1.56363636364
817	0.4085	-9.54137931034	-2.05106382979	1.83461538462	-1.56363636364
818	0.409	7.87931034483	-0.636879432624	1.83461538462	1.32727272727
819	0.4095	2.0724137931	-0.636879432624	-6.91153846154	-5.9
820	0.41	-0.831034482759	2.1914893617	4.75	-3.00909090909
821	0.4105	0.620689655172	2.1914893617	4.75	-0.118181818182
822	0.411	-0.831034482759	16.3333333333	1.83461538462	-0.118181818182
823	0.4115	-12.4448275862	0.777304964539	1.83461538462	-1.56363636364
824	0.412	16.5896551724	6.43404255319	1.83461538462	-1.56363636364
825	0.4125	-0.831034482759	5.01985815603	1.83461538462	-4.45454545455
826	0.413	2.0724137931	9.26241134752	-8.36923076923	-0.118181818182
827	0.4135	0.620689655172	10.6765957447	-8.36923076923	-3.00909090909
828	0.414	0.620689655172	23.4042553191	0.376923076923	-3.00909090909
829	0.4145	0.620689655172	-0.636879432624	3.29230769231	-0.118181818182
830	0.415	22.3965517241	6.43404255319	3.29230769231	-10.2363636364
831	0.4155	0.620689655172	5.01985815603	3.29230769231	-13.1272727273
832	0.416	0.620689655172	3.60567375887	-1.08076923077	15.7818181818
833	0.4165	0.620689655172	5.01985815603	19.3269230769	-0.118181818182
834	0.417	0.620689655172	-2.05106382979	0.376923076923	-1.56363636364
835	0.4175	0.620689655172	-0.636879432624	1.83461538462	-0.118181818182
836	0.418	-5.18620689655	0.777304964539	0.376923076923	-0.118181818182
837	0.4185	3.52413793103	0.777304964539	-1.08076923077	-3.00909090909
838	0.419	0.620689655172	-0.636879432624	-2.53846153846	-7.34545454545
839	0.4195	3.52413793103	-4.87943262411	-12.7423076923	-5.9
840	0.42	3.52413793103	-16.1929078014	-2.53846153846	-1.56363636364
841	0.4205	6.4275862069	-14.7787234043	0.376923076923	-1.56363636364
842	0.421	0.620689655172	-9.1219858156	-1.08076923077	-3.00909090909
843	0.4215	-6.63793103448	-10.5361702128	1.83461538462	-4.45454545455
844	0.422	0.620689655172	-10.5361702128	-5.45384615385	-8.79090909091
845	0.4225	-2.28275862069	-10.5361702128	1.83461538462	-4.45454545455
846	0.423	0.620689655172	0.777304964539	0.376923076923	-7.34545454545
847	0.4235	-2.28275862069	-11.9503546099	0.376923076923	-5.9
848	0.424	6.4275862069	-13.3645390071	1.83461538462	-5.9
849	0.4245	18.0413793103	-10.5361702128	3.29230769231	-16.0181818182
850	0.425	0.620689655172	-4.87943262411	-9.82692307692	-5.9
851	0.4255	-0.831034482759	-2.05106382979	-6.91153846154	-1.56363636364
852	0.426	2.0724137931	-0.636879432624	3.29230769231	-0.118181818182
853	0.4265	-0.831034482759	14.9191489362	1.83461538462	-1.56363636364
854	0.427	-13.8965517241	-2.05106382979	3.29230769231	-3.00909090909
855	0.4275	12.2344827586	2.1914893617	1.83461538462	-7.34545454545
856	0.428	-5.18620689655	3.60567375887	4.75	5.66363636364
857	0.4285	-0.831034482759	3.60567375887	7.66538461538	-0.118181818182
858	0.429	0.620689655172	9.26241134752	13.4961538462	-0.118181818182
859	0.4295	0.620689655172	16.3333333333	0.376923076923	-0.118181818182
860	0.43	2.0724137931	5.01985815603	1.83461538462	1.32727272727
861	0.4305	-5.18620689655	10.6765957447	4.75	1.32727272727
862	0.431	12.2344827586	9.26241134752	1.83461538462	1.32727272727
863	0.4315	3.52413793103	10.6765957447	4.75	2.77272727273
864	0.432	-0.831034482759	9.26241134752	3.29230769231	-0.118181818182
865	0.4325	0.620689655172	0.777304964539	0.376923076923	-0.118181818182
866	0.433	4.97586206897	3.60567375887	3.29230769231	2.77272727273
867	0.4335	-6.63793103448	7.84822695035	0.376923076923	4.21818181818
868	0.434	-0.831034482759	7.84822695035	3.29230769231	1.32727272727
869	0.4345	0.620689655172	5.01985815603	4.75	-14.5727272727
870	0.435	0.620689655172	0.777304964539	-3.99615384615	-1.56363636364
871	0.4355	-0.831034482759	6.43404255319	-5.45384615385	-3.00909090909
872	0.436	-2.28275862069	0.777304964539	0.376923076923	-1.56363636364
873	0.4365	-8.08965517241	-2.05106382979	-2.53846153846	-1.56363636364
874	0.437	-8.08965517241	-0.636879432624	4.75	-13.1272727273
875	0.4375	3.52413793103	-0.636879432624	1.83461538462	-14.5727272727
876	0.438	2.0724137931	-0.636879432624	-3.99615384615	-5.9
877	0.4385	0.620689655172	-6.29361702128	0.376923076923	-3.00909090909
878	0.439	0.620689655172	-3.46524822695	1.83461538462	-5.9
879	0.4395	-5.18620689655	-4.87943262411	0.376923076923	-4.45454545455
880	0.44	3.52413793103	-2.05106382979	1.83461538462	-4.45454545455
881	0.4405	0.620689655172	-7.70780141844	-1.08076923077	-13.1272727273
882	0.441	-2.28275862069	-6.29361702128	7.66538461538	-1.56363636364
883	0.4415	-2.28275862069	-4.87943262411	-3.99615384615	-1.56363636364
884	0.442	2.0724137931	-11.9503546099	1.83461538462	-1.56363636364
885	0.4425	7.87931034483	-6.29361702128	-1.08076923077	-1.56363636364
886	0.443	15.1379310345	-7.70780141844	0.376923076923	-0.118181818182
887	0.4435	-0.831034482759	-7.70780141844	1.83461538462	-11.6818181818
888	0.444	-2.28275862069	-9.1219858156	-8.36923076923	-5.9
889	0.4445	0.620689655172	-4.87943262411	-3.99615384615	1.32727272727
890	0.445	-0.831034482759	0.777304964539	3.29230769231	1.32727272727
891	0.4455	0.620689655172	-10.5361702128	-1.08076923077	1.32727272727
892	0.446	3.52413793103	-3.46524822695	0.376923076923	-1.56363636364
893	0.4465	-2.28275862069	-6.29361702128	0.376923076923	-8.79090909091
894	0.447	2.0724137931	-4.87943262411	-8.36923076923	-1.56363636364
895	0.4475	0.620689655172	-0.636879432624	0.376923076923	1.32727272727
896	0.448	2.0724137931	10.6765957447	-1.08076923077	1.32727272727
897	0.4485	0.620689655172	-11.9503546099	-1.08076923077	-0.118181818182
898	0.449	15.1379310345	-2.05106382979	-1.08076923077	-0.118181818182
899	0.4495	-2.28275862069	-2.05106382979	1.83461538462	5.66363636364
900	0.45	0.620689655172	-2.05106382979	0.376923076923	2.77272727273
901	0.4505	0.620689655172	0.777304964539	1.83461538462	4.21818181818
902	0.451	-0.831034482759	14.9191489362	0.376923076923	-1.56363636364
903	0.4515	-2.28275862069	-14.7787234043	0.376923076923	-4.45454545455
904	0.452	4.97586206897	-9.1219858156	1.83461538462	-0.118181818182
905	0.4525	0.620689655172	-10.5361702128	1.83461538462	7.10909090909
906	0.453	0.620689655172	-14.7787234043	0.376923076923	-0.118181818182
907	0.4535	2.0724137931	-14.7787234043	-5.45384615385	-3.00909090909
908	0.454	-0.831034482759	-27.5063829787	1.83461538462	-4.45454545455
909	0.4545	3.52413793103	-21.8496453901	-1.08076923077	-3.00909090909
910	0.455	-12.4448275862	-21.8496453901	-1.08076923077	-3.00909090909
911	0.4555	-9.54137931034	-21.8496453901	1.83461538462	-4.45454545455
912	0.456	-0.831034482759	-20.4354609929	6.20769230769	-8.79090909091
913	0.4565	-2.28275862069	-21.8496453901	-5.45384615385	-1.56363636364
914	0.457	-0.831034482759	-16.1929078014	0.376923076923	-1.56363636364
915	0.4575	0.620689655172	-0.636879432624	-2.53846153846	-1.56363636364
916	0.458	-10.9931034483	-16.1929078014	0.376923076923	-0.118181818182
917	0.4585	-8.08965517241	-16.1929078014	1.83461538462	-4.45454545455
918	0.459	2.0724137931	-14.7787234043	-1.08076923077	-13.1272727273
919	0.4595	-0.831034482759	-19.0212765957	-8.36923076923	-0.118181818182
920	0.46	2.0724137931	-16.1929078014	0.376923076923	-1.56363636364
921	0.4605	-2.28275862069	-21.8496453901	0.376923076923	1.32727272727
922	0.461	-6.63793103448	-14.7787234043	0.376923076923	-0.118181818182
923	0.4615	9.33103448276	-11.9503546099	3.29230769231	-3.00909090909
924	0.462	0.620689655172	-10.5361702128	0.376923076923	-3.00909090909
925	0.4625	-2.28275862069	-9.1219858156	1.83461538462	4.21818181818
926	0.463	-2.28275862069	-11.9503546099	0.376923076923	-4.45454545455
927	0.4635	0.620689655172	-7.70780141844	1.83461538462	-3.00909090909
928	0.464	3.52413793103	-10.5361702128	1.83461538462	-5.9
929	0.4645	-10.9931034483	-9.1219858156	0.376923076923	1.32727272727
930	0.465	0.620689655172	-6.29361702128	4.75	-4.45454545455
931	0.4655	-0.831034482759	-9.1219858156	19.3269230769	-4.45454545455
932	0.466	-0.831034482759	-7.70780141844	-2.53846153846	-3.00909090909
933	0.4665	0.620689655172	2.1914893617	4.75	-3.00909090909
934	0.467	0.620689655172	-23.2638297872	0.376923076923	-3.00909090909
935	0.4675	22.3965517241	-16.1929078014	3.29230769231	-14.5727272727
936	0.468	-0.831034482759	-17.6070921986	4.75	-10.2363636364
937	0.4685	0.620689655172	-17.6070921986	16.4115384615	-5.9
938	0.469	0.620689655172	-23.2638297872	-8.36923076923	-7.34545454545
939	0.4695	0.620689655172	-4.87943262411	0.376923076923	-7.34545454545
940	0.47	-0.831034482759	-23.2638297872	4.75	-5.9
941	0.4705	-12.4448275862	-21.8496453901	0.376923076923	-5.9
942	0.471	-0.831034482759	-23.2638297872	1.83461538462	-1.56363636364
943	0.4715	0.620689655172	-26.0921985816	-1.08076923077	8.55454545455
944	0.472	0.620689655172	-26.0921985816	13.4961538462	-5.9
945	0.4725	-0.831034482759	-27.5063829787	0.376923076923	-4.45454545455
946	0.473	-0.831034482759	-19.0212765957	1.83461538462	-5.9
947	0.4735	12.2344827586	-21.8496453901	0.376923076923	-16.0181818182
948	0.474	-2.28275862069	-24.6780141844	3.29230769231	-1.56363636364
949	0.4745	-0.831034482759	-21.8496453901	4.75	-4.45454545455
950	0.475	-0.831034482759	-20.4354609929	6.20769230769	-5.9
951	0.4755	0.620689655172	-30.334751773	3.29230769231	-1.56363636364
952	0.476	2.0724137931	-2.05106382979	3.29230769231	-3.00909090909
953	0.4765	0.620689655172	-4.87943262411	0.376923076923	-4.45454545455
954	0.477	-8.08965517241	-19.0212765957	1.83461538462	7.10909090909
955	0.4775	-0.831034482759	-17.6070921986	-1.08076923077	-4.45454545455
956	0.478	2.0724137931	-16.1929078014	-5.45384615385	-10.2363636364
957	0.4785	-2.28275862069	-13.3645390071	1.83461538462	-3.00909090909
958	0.479	-0.831034482759	-13.3645390071	0.376923076923	-1.56363636364
959	0.4795	3.52413793103	-11.9503546099	0.376923076923	-3.00909090909
960	0.48	10.7827586207	-14.7787234043	0.376923076923	-3.00909090909
961	0.4805	-0.831034482759	-10.5361702128	-9.82692307692	-7.34545454545
962	0.481	0.620689655172	-11.9503546099	0.376923076923	-3.00909090909
963	0.4815	-0.831034482759	-14.7787234043	1.83461538462	-3.00909090909
964	0.482	-0.831034482759	-11.9503546099	3.29230769231	-3.00909090909
965	0.4825	-10.9931034483	-17.6070921986	-1.08076923077	-4.45454545455
966	0.483	3.52413793103	-17.6070921986	3.29230769231	-5.9
967	0.4835	-9.54137931034	-16.1929078014	0.376923076923	-5.9
968	0.484	0.620689655172	-16.1929078014	14.9538461538	-1.56363636364
969	0.4845	0.620689655172	-20.4354609929	-1.08076923077	-0.118181818182
970	0.485	-2.28275862069	-23.2638297872	1.83461538462	-4.45454545455
971	0.4855	-0.831034482759	-17.6070921986	-1.08076923077	-3.00909090909
972	0.486	10.7827586207	-26.0921985816	1.83461538462	-5.9
973	0.4865	-3.73448275862	-24.6780141844	-1.08076923077	-3.00909090909
974	0.487	0.620689655172	-27.5063829787	3.29230769231	-8.79090909091
975	0.4875	-2.28275862069	-30.334751773	-2.53846153846	-5.9
976	0.488	-0.831034482759	-30.334751773	-6.91153846154	-5.9
977	0.4885	-3.73448275862	-31.7489361702	1.83461538462	-5.9
978	0.489	-8.08965517241	-33.1631205674	3.29230769231	-5.9
979	0.4895	-2.28275862069	-33.1631205674	0.376923076923	-11.6818181818
980	0.49	-0.831034482759	-33.1631205674	-3.99615384615	-4.45454545455
981	0.4905	-0.831034482759	-33.1631205674	-5.45384615385	-5.9
982	0.491	-0.831034482759	-38.819858156	-3.99615384615	-5.9
983	0.4915	-0.831034482759	-38.819858156	3.29230769231	-4.45454545455
984	0.492	3.52413793103	-33.1631205674	0.376923076923	-11.6818181818
985	0.4925	-5.18620689655	-34.5773049645	-1.08076923077	2.77272727273
986	0.493	-2.28275862069	-33.1631205674	-3.99615384615	-5.9
987	0.4935	-0.831034482759	-27.5063829787	-3.99615384615	-4.45454545455
988	0.494	-2.28275862069	-17.6070921986	-2.53846153846	-4.45454545455
989	0.4945	-2.28275862069	-38.819858156	1.83461538462	-3.00909090909
990	0.495	2.0724137931	-31.7489361702	1.83461538462	-0.118181818182
991	0.4955	-9.54137931034	-30.334751773	3.29230769231	2.77272727273
992	0.496	-2.28275862069	-31.7489361702	1.83461538462	-1.56363636364
993	0.4965	-0.831034482759	-28.9205673759	3.29230769231	-11.6818181818
994	0.497	-2.28275862069	-27.5063829787	-8.36923076923	-3.00909090909
995	0.4975	-0.831034482759	-10.5361702128	0.376923076923	-5.9
996	0.498	-8.08965517241	-27.5063829787	3.29230769231	-5.9
997	0.4985	18.0413793103	-28.9205673759	0.376923076923	-4.45454545455
998	0.499	-0.831034482759	-24.6780141844	1.83461538462	-4.45454545455
999	0.4995	-0.831034482759	-30.334751773	0.376923076923	-1.56363636364
1000	0.5	-0.831034482759	-21.8496453901	-1.08076923077	-0.118181818182
1001	0.5005	0.620689655172	-10.5361702128	3.29230769231	-0.118181818182
1002	0.501	-2.28275862069	-35.9914893617	0.376923076923	-1.56363636364
1003	0.5015	12.2344827586	-28.9205673759	0.376923076923	-5.9
1004	0.502	-2.28275862069	-33.1631205674	3.29230769231	-4.45454545455
1005	0.5025	0.620689655172	-33.1631205674	3.29230769231	-0.118181818182
1006	0.503	2.0724137931	-31.7489361702	-5.45384615385	-3.00909090909
1007	0.5035	-0.831034482759	-19.0212765957	0.376923076923	-4.45454545455
1008	0.504	-0.831034482759	-44.4765957447	1.83461538462	-7.34545454545
1009	0.5045	12.2344827586	-34.5773049645	0.376923076923	-11.6818181818
1010	0.505	-0.831034482759	-37.4056737589	-1.08076923077	-7.34545454545
1011	0.5055	-0.831034482759	-37.4056737589	4.75	-5.9
1012	0.506	-2.28275862069	-33.1631205674	3.29230769231	-5.9
1013	0.5065	-0.831034482759	-33.1631205674	-1.08076923077	-7.34545454545
1014	0.507	-2.28275862069	-40.2340425532	-2.53846153846	-7.34545454545
1015	0.5075	19.4931034483	-40.2340425532	1.83461538462	-8.79090909091
1016	0.508	0.620689655172	-37.4056737589	-2.53846153846	-13.1272727273
1017	0.5085	-0.831034482759	-35.9914893617	-3.99615384615	-10.2363636364
1018	0.509	-2.28275862069	-40.2340425532	-1.08076923077	-1.56363636364
1019	0.5095	0.620689655172	-28.9205673759	-1.08076923077	-3.00909090909
1020	0.51	-0.831034482759	-35.9914893617	3.29230769231	-1.56363636364
1021	0.5105	7.87931034483	-30.334751773	0.376923076923	-3.00909090909
1022	0.511	2.0724137931	-28.9205673759	3.29230769231	-4.45454545455
1023	0.5115	-2.28275862069	-28.9205673759	-1.08076923077	4.21818181818
1024	0.512	0.620689655172	-37.4056737589	-1.08076923077	-0.118181818182
1025	0.5125	3.52413793103	-10.5361702128	1.83461538462	-1.56363636364
1026	0.513	-0.831034482759	-26.0921985816	0.376923076923	-1.56363636364
1027	0.5135	0.620689655172	-20.4354609929	3.29230769231	-7.34545454545
1028	0.514	-5.18620689655	-21.8496453901	-3.99615384615	-8.79090909091
1029	0.5145	-0.831034482759	-21.8496453901	-1.08076923077	4.21818181818
1030	0.515	-0.831034482759	-16.1929078014	1.83461538462	-1.56363636364
1031	0.5155	-2.28275862069	-14.7787234043	1.83461538462	-3.00909090909
1032	0.516	-2.28275862069	-21.8496453901	0.376923076923	-3.00909090909
1033	0.5165	-5.18620689655	-20.4354609929	-1.08076923077	-7.34545454545
1034	0.517	10.7827586207	-17.6070921986	0.376923076923	-8.79090909091
1035	0.5175	0.620689655172	-16.1929078014	0.376923076923	-8.79090909091
1036	0.518	0.620689655172	-17.6070921986	-3.99615384615	-5.9
1037	0.5185	0.620689655172	-23.2638297872	1.83461538462	-5.9
1038	0.519	0.620689655172	-6.29361702128	-1.08076923077	-5.9
1039	0.5195	-3.73448275862	-21.8496453901	3.29230769231	-5.9
1040	0.52	-9.54137931034	-23.2638297872	1.83461538462	8.55454545455
1041	0.5205	0.620689655172	-24.6780141844	3.29230769231	-7.34545454545
1042	0.521	-3.73448275862	-23.2638297872	19.3269230769	-3.00909090909
1043	0.5215	-0.831034482759	-27.5063829787	0.376923076923	-7.34545454545
1044	0.522	-3.73448275862	-43.0624113475	0.376923076923	-1.56363636364
1045	0.5225	3.52413793103	-33.1631205674	1.83461538462	-7.34545454545
1046	0.523	16.5896551724	-33.1631205674	0.376923076923	-4.45454545455
1047	0.5235	-0.831034482759	-33.1631205674	-1.08076923077	-11.6818181818
1048	0.524	-0.831034482759	-34.5773049645	0.376923076923	11.4454545455
1049	0.5245	-2.28275862069	-34.5773049645	14.9538461538	-3.00909090909
1050	0.525	0.620689655172	-33.1631205674	0.376923076923	-0.118181818182
1051	0.5255	3.52413793103	-27.5063829787	0.376923076923	-1.56363636364
1052	0.526	16.5896551724	-28.9205673759	0.376923076923	-1.56363636364
1053	0.5265	-5.18620689655	-23.2638297872	0.376923076923	2.77272727273
1054	0.527	-2.28275862069	-23.2638297872	4.75	18.6727272727
1055	0.5275	-2.28275862069	-23.2638297872	20.7846153846	-1.56363636364
1056	0.528	-0.831034482759	-34.5773049645	0.376923076923	-0.118181818182
1057	0.5285	3.52413793103	-2.05106382979	1.83461538462	-1.56363636364
1058	0.529	-12.4448275862	-17.6070921986	3.29230769231	4.21818181818
1059	0.5295	-9.54137931034	-14.7787234043	3.29230769231	20.1181818182
1060	0.53	0.620689655172	-14.7787234043	3.29230769231	-13.1272727273
1061	0.5305	0.620689655172	-16.1929078014	-5.45384615385	-3.00909090909
1062	0.531	-2.28275862069	-14.7787234043	-6.91153846154	-4.45454545455
1063	0.5315	2.0724137931	-11.9503546099	1.83461538462	-4.45454545455
1064	0.532	0.620689655172	-14.7787234043	1.83461538462	-1.56363636364
1065	0.5325	12.2344827586	-14.7787234043	-1.08076923077	-3.00909090909
1066	0.533	0.620689655172	-14.7787234043	0.376923076923	-8.79090909091
1067	0.5335	0.620689655172	-13.3645390071	-2.53846153846	-1.56363636364
1068	0.534	-2.28275862069	-17.6070921986	-3.99615384615	-4.45454545455
1069	0.5345	2.0724137931	-16.1929078014	3.29230769231	-3.00909090909
1070	0.535	3.52413793103	-24.6780141844	0.376923076923	-3.00909090909
1071	0.5355	-3.73448275862	-21.8496453901	3.29230769231	-3.00909090909
1072	0.536	-0.831034482759	-24.6780141844	3.29230769231	-14.5727272727
1073	0.5365	-0.831034482759	-26.0921985816	-6.91153846154	-3.00909090909
1074	0.537	-0.831034482759	-40.2340425532	3.29230769231	-4.45454545455
1075	0.5375	-0.831034482759	-11.9503546099	3.29230769231	-3.00909090909
1076	0.538	-3.73448275862	-11.9503546099	0.376923076923	-4.45454545455
1077	0.5385	-9.54137931034	-28.9205673759	0.376923076923	12.8909090909
1078	0.539	-2.28275862069	-30.334751773	-1.08076923077	-4.45454545455
1079	0.5395	-2.28275862069	-28.9205673759	14.9538461538	-5.9
1080	0.54	2.0724137931	-31.7489361702	16.4115384615	-5.9
1081	0.5405	-2.28275862069	-28.9205673759	1.83461538462	-1.56363636364
1082	0.541	-5.18620689655	-30.334751773	3.29230769231	-4.45454545455
1083	0.5415	13.6862068966	-27.5063829787	-1.08076923077	-3.00909090909
1084	0.542	-2.28275862069	-26.0921985816	3.29230769231	-1.56363636364
1085	0.5425	-0.831034482759	-23.2638297872	12.0384615385	-3.00909090909
1086	0.543	-2.28275862069	-27.5063829787	3.29230769231	-1.56363636364
1087	0.5435	-2.28275862069	-13.3645390071	3.29230769231	-1.56363636364
1088	0.544	0.620689655172	-20.4354609929	3.29230769231	-3.00909090909
1089	0.5445	-2.28275862069	-20.4354609929	-1.08076923077	-3.00909090909
1090	0.545	0.620689655172	-16.1929078014	0.376923076923	-5.9
1091	0.5455	-0.831034482759	-11.9503546099	7.66538461538	-5.9
1092	0.546	-0.831034482759	-17.6070921986	10.5807692308	-1.56363636364
1093	0.5465	0.620689655172	-2.05106382979	1.83461538462	-1.56363636364
1094	0.547	-5.18620689655	2.1914893617	1.83461538462	-1.56363636364
1095	0.5475	-6.63793103448	-11.9503546099	0.376923076923	12.8909090909
1096	0.548	-0.831034482759	-11.9503546099	3.29230769231	-4.45454545455
1097	0.5485	0.620689655172	-13.3645390071	17.8692307692	-4.45454545455
1098	0.549	0.620689655172	-14.7787234043	1.83461538462	-0.118181818182
1099	0.5495	-0.831034482759	-21.8496453901	1.83461538462	-3.00909090909
1100	0.55	-2.28275862069	-16.1929078014	0.376923076923	-0.118181818182
1101	0.5505	10.7827586207	-20.4354609929	-1.08076923077	-0.118181818182
1102	0.551	-5.18620689655	-21.8496453901	1.83461538462	7.10909090909
1103	0.5515	0.620689655172	-20.4354609929	-2.53846153846	-8.79090909091
1104	0.552	-0.831034482759	-20.4354609929	-2.53846153846	-4.45454545455
1105	0.5525	-0.831034482759	-33.1631205674	-1.08076923077	-4.45454545455
1106	0.553	3.52413793103	-26.0921985816	0.376923076923	-4.45454545455
1107	0.5535	-15.3482758621	-28.9205673759	0.376923076923	-3.00909090909
1108	0.554	0.620689655172	-23.2638297872	4.75	-13.1272727273
1109	0.5545	0.620689655172	-27.5063829787	-5.45384615385	-11.6818181818
1110	0.555	0.620689655172	-28.9205673759	-6.91153846154	-3.00909090909
1111	0.5555	-0.831034482759	-20.4354609929	-1.08076923077	-4.45454545455
1112	0.556	-0.831034482759	-33.1631205674	3.29230769231	-4.45454545455
1113	0.5565	0.620689655172	-27.5063829787	1.83461538462	-3.00909090909
1114	0.557	-5.18620689655	-28.9205673759	3.29230769231	-11.6818181818
1115	0.5575	0.620689655172	-27.5063829787	-8.36923076923	-3.00909090909
1116	0.558	0.620689655172	-28.9205673759	-1.08076923077	-3.00909090909
1117	0.5585	-3.73448275862	-10.5361702128	-1.08076923077	-4.45454545455
1118	0.559	-2.28275862069	-28.9205673759	0.376923076923	-3.00909090909
1119	0.5595	18.0413793103	-23.2638297872	0.376923076923	-4.45454545455
1120	0.56	-3.73448275862	-23.2638297872	-1.08076923077	2.77272727273
1121	0.5605	-0.831034482759	-21.8496453901	0.376923076923	5.66363636364
1122	0.561	-3.73448275862	-19.0212765957	7.66538461538	-1.56363636364
1123	0.5615	-0.831034482759	-27.5063829787	0.376923076923	-0.118181818182
1124	0.562	2.0724137931	-16.1929078014	3.29230769231	-1.56363636364
1125	0.5625	15.1379310345	-19.0212765957	4.75	4.21818181818
1126	0.563	-6.63793103448	-16.1929078014	3.29230769231	2.77272727273
1127	0.5635	0.620689655172	-14.7787234043	4.75	8.55454545455
1128	0.564	0.620689655172	-11.9503546099	16.4115384615	-0.118181818182
1129	0.5645	0.620689655172	-24.6780141844	-1.08076923077	-0.118181818182
1130	0.565	2.0724137931	-21.8496453901	-1.08076923077	-3.00909090909
1131	0.5655	3.52413793103	-14.7787234043	1.83461538462	-4.45454545455
1132	0.566	13.6862068966	-17.6070921986	1.83461538462	-13.1272727273
1133	0.5665	-2.28275862069	-17.6070921986	4.75	-3.00909090909
1134	0.567	0.620689655172	-19.0212765957	-3.99615384615	-3.00909090909
1135	0.5675	-0.831034482759	-30.334751773	0.376923076923	-3.00909090909
1136	0.568	0.620689655172	-27.5063829787	3.29230769231	-3.00909090909
1137	0.5685	4.97586206897	-20.4354609929	1.83461538462	-7.34545454545
1138	0.569	18.0413793103	-20.4354609929	-1.08076923077	-13.1272727273
1139	0.5695	-2.28275862069	-19.0212765957	-1.08076923077	-3.00909090909
1140	0.57	-0.831034482759	-19.0212765957	0.376923076923	-3.00909090909
1141	0.5705	-0.831034482759	-17.6070921986	7.66538461538	-0.118181818182
1142	0.571	0.620689655172	-13.3645390071	1.83461538462	-1.56363636364
1143	0.5715	-8.08965517241	-23.2638297872	0.376923076923	-1.56363636364
1144	0.572	2.0724137931	-24.6780141844	3.29230769231	-3.00909090909
1145	0.5725	-8.08965517241	-24.6780141844	1.83461538462	-4.45454545455
1146	0.573	0.620689655172	-21.8496453901	4.75	7.10909090909
1147	0.5735	-2.28275862069	-23.2638297872	1.83461538462	-5.9
1148	0.574	-3.73448275862	-23.2638297872	1.83461538462	-4.45454545455
1149	0.5745	-0.831034482759	-30.334751773	1.83461538462	-3.00909090909
1150	0.575	0.620689655172	-21.8496453901	-1.08076923077	-3.00909090909
1151	0.5755	15.1379310345	-19.0212765957	0.376923076923	-10.2363636364
1152	0.576	0.620689655172	-17.6070921986	-8.36923076923	-7.34545454545
1153	0.5765	-3.73448275862	-16.1929078014	-12.7423076923	-1.56363636364
1154	0.577	-2.28275862069	-13.3645390071	-6.91153846154	-0.118181818182
1155	0.5775	-2.28275862069	-13.3645390071	1.83461538462	-0.118181818182
1156	0.578	-12.4448275862	-13.3645390071	1.83461538462	2.77272727273
1157	0.5785	-10.9931034483	-10.5361702128	1.83461538462	15.7818181818
1158	0.579	-3.73448275862	-7.70780141844	6.20769230769	-0.118181818182
1159	0.5795	-0.831034482759	-6.29361702128	20.7846153846	-3.00909090909
1160	0.58	-5.18620689655	-2.05106382979	-1.08076923077	-1.56363636364
1161	0.5805	-3.73448275862	-14.7787234043	1.83461538462	-3.00909090909
1162	0.581	-0.831034482759	-6.29361702128	0.376923076923	-3.00909090909
1163	0.5815	13.6862068966	-6.29361702128	-1.08076923077	-5.9
1164	0.582	-0.831034482759	-3.46524822695	-3.99615384615	-1.56363636364
1165	0.5825	0.620689655172	-4.87943262411	-6.91153846154	-3.00909090909
1166	0.583	0.620689655172	-7.70780141844	1.83461538462	-3.00909090909
1167	0.5835	-0.831034482759	9.26241134752	0.376923076923	-3.00909090909
1168	0.584	-0.831034482759	-4.87943262411	0.376923076923	-4.45454545455
1169	0.5845	-5.18620689655	-4.87943262411	0.376923076923	-1.56363636364
1170	0.585	-0.831034482759	-3.46524822695	-6.91153846154	-7.34545454545
1171	0.5855	0.620689655172	-6.29361702128	16.4115384615	-5.9
1172	0.586	0.620689655172	-10.5361702128	14.9538461538	-3.00909090909
1173	0.5865	3.52413793103	-16.1929078014	1.83461538462	-1.56363636364
1174	0.587	2.0724137931	-7.70780141844	3.29230769231	-5.9
1175	0.5875	20.9448275862	-9.1219858156	0.376923076923	-5.9
1176	0.588	-0.831034482759	-10.5361702128	-12.7423076923	-5.9
1177	0.5885	-3.73448275862	-11.9503546099	-6.91153846154	-5.9
1178	0.589	-3.73448275862	-9.1219858156	0.376923076923	-1.56363636364
1179	0.5895	-2.28275862069	-21.8496453901	-1.08076923077	-3.00909090909
1180	0.59	3.52413793103	-11.9503546099	1.83461538462	-3.00909090909
1181	0.5905	10.7827586207	-13.3645390071	0.376923076923	-8.79090909091
1182	0.591	-5.18620689655	-10.5361702128	1.83461538462	5.66363636364
1183	0.5915	-0.831034482759	-9.1219858156	-3.99615384615	1.32727272727
1184	0.592	-0.831034482759	-2.05106382979	4.75	-1.56363636364
1185	0.5925	-2.28275862069	6.43404255319	3.29230769231	-4.45454545455
1186	0.593	-3.73448275862	-0.636879432624	-1.08076923077	-0.118181818182
1187	0.5935	13.6862068966	-0.636879432624	1.83461538462	-1.56363636364
1188	0.594	-0.831034482759	-0.636879432624	1.83461538462	-0.118181818182
1189	0.5945	-0.831034482759	0.777304964539	14.9538461538	-3.00909090909
1190	0.595	0.620689655172	-0.636879432624	-2.53846153846	-3.00909090909
1191	0.5955	-0.831034482759	-6.29361702128	-1.08076923077	-3.00909090909
1192	0.596	4.97586206897	5.01985815603	3.29230769231	-4.45454545455
1193	0.5965	-12.4448275862	7.84822695035	-1.08076923077	1.32727272727
1194	0.597	-9.54137931034	6.43404255319	3.29230769231	-0.118181818182
1195	0.5975	0.620689655172	6.43404255319	1.83461538462	12.8909090909
1196	0.598	0.620689655172	3.60567375887	0.376923076923	-3.00909090909
1197	0.5985	2.0724137931	-4.87943262411	1.83461538462	-1.56363636364
1198	0.599	3.52413793103	-3.46524822695	-1.08076923077	-3.00909090909
1199	0.5995	3.52413793103	2.1914893617	0.376923076923	-1.56363636364
1200	0.6	19.4931034483	3.60567375887	0.376923076923	-4.45454545455
1201	0.6005	2.0724137931	2.1914893617	-9.82692307692	-1.56363636364
1202	0.601	0.620689655172	3.60567375887	-8.36923076923	-4.45454545455
1203	0.6015	0.620689655172	-2.05106382979	-6.91153846154	-7.34545454545
1204	0.602	-0.831034482759	-3.46524822695	0.376923076923	-4.45454545455
1205	0.6025	-12.4448275862	-7.70780141844	-1.08076923077	-3.00909090909
1206	0.603	-6.63793103448	-9.1219858156	4.75	11.4454545455
1207	0.6035	0.620689655172	-10.5361702128	4.75	-5.9
1208	0.604	2.0724137931	-10.5361702128	16.4115384615	-3.00909090909
1209	0.6045	-0.831034482759	-9.1219858156	-2.53846153846	-1.56363636364
1210	0.605	-3.73448275862	-17.6070921986	-1.08076923077	-1.56363636364
1211	0.6055	-12.4448275862	-14.7787234043	0.376923076923	-1.56363636364
1212	0.606	7.87931034483	-16.1929078014	4.75	-5.9
1213	0.6065	-5.18620689655	-16.1929078014	0.376923076923	-0.118181818182
1214	0.607	0.620689655172	-11.9503546099	14.9538461538	-3.00909090909
1215	0.6075	0.620689655172	-10.5361702128	1.83461538462	-4.45454545455
1216	0.608	-2.28275862069	2.1914893617	0.376923076923	-1.56363636364
1217	0.6085	-3.73448275862	-10.5361702128	-1.08076923077	-0.118181818182
1218	0.609	-13.8965517241	-9.1219858156	-1.08076923077	2.77272727273
1219	0.6095	-0.831034482759	-10.5361702128	4.75	-1.56363636364
1220	0.61	-2.28275862069	-9.1219858156	4.75	-1.56363636364
1221	0.6105	0.620689655172	-7.70780141844	0.376923076923	-1.56363636364
1222	0.611	0.620689655172	-4.87943262411	-1.08076923077	-0.118181818182
1223	0.6115	0.620689655172	-11.9503546099	-1.08076923077	-1.56363636364
1224	0.612	-6.63793103448	-6.29361702128	0.376923076923	-1.56363636364
1225	0.6125	4.97586206897	-6.29361702128	3.29230769231	-1.56363636364
1226	0.613	0.620689655172	-0.636879432624	3.29230769231	1.32727272727
1227	0.6135	0.620689655172	-0.636879432624	-3.99615384615	-1.56363636364
1228	0.614	-3.73448275862	-7.70780141844	0.376923076923	-3.00909090909
1229	0.6145	0.620689655172	10.6765957447	4.75	-4.45454545455
1230	0.615	0.620689655172	-0.636879432624	1.83461538462	-1.56363636364
1231	0.6155	-8.08965517241	-0.636879432624	1.83461538462	-1.56363636364
1232	0.616	0.620689655172	-2.05106382979	1.83461538462	-13.1272727273
1233	0.6165	-2.28275862069	-4.87943262411	-5.45384615385	-8.79090909091
1234	0.617	-0.831034482759	-3.46524822695	3.29230769231	-1.56363636364
1235	0.6175	0.620689655172	-0.636879432624	1.83461538462	-4.45454545455
1236	0.618	-3.73448275862	-7.70780141844	1.83461538462	-0.118181818182
1237	0.6185	-9.54137931034	-7.70780141844	3.29230769231	-16.0181818182
1238	0.619	0.620689655172	-9.1219858156	4.75	-4.45454545455
1239	0.6195	-0.831034482759	-9.1219858156	16.4115384615	-4.45454545455
1240	0.62	0.620689655172	-10.5361702128	-1.08076923077	-4.45454545455
1241	0.6205	0.620689655172	-13.3645390071	1.83461538462	-4.45454545455
1242	0.621	4.97586206897	-14.7787234043	1.83461538462	-4.45454545455
1243	0.6215	-6.63793103448	-13.3645390071	3.29230769231	-4.45454545455
1244	0.622	-2.28275862069	-14.7787234043	-1.08076923077	14.3363636364
1245	0.6225	-2.28275862069	-13.3645390071	-2.53846153846	12.8909090909
1246	0.623	-0.831034482759	-13.3645390071	22.2423076923	-4.45454545455
1247	0.6235	0.620689655172	-16.1929078014	0.376923076923	-1.56363636364
1248	0.624	0.620689655172	-26.0921985816	-1.08076923077	-3.00909090909
1249	0.6245	3.52413793103	-19.0212765957	0.376923076923	-4.45454545455
1250	0.625	12.2344827586	-17.6070921986	3.29230769231	-8.79090909091
1251	0.6255	0.620689655172	-16.1929078014	-6.91153846154	5.66363636364
1252	0.626	0.620689655172	-16.1929078014	-1.08076923077	-8.79090909091
1253	0.6265	0.620689655172	-13.3645390071	-3.99615384615	-0.118181818182
1254	0.627	-2.28275862069	-3.46524822695	3.29230769231	-4.45454545455
1255	0.6275	-3.73448275862	2.1914893617	3.29230769231	-1.56363636364
1256	0.628	-13.8965517241	-10.5361702128	0.376923076923	-3.00909090909
1257	0.6285	3.52413793103	-9.1219858156	6.20769230769	-4.45454545455
1258	0.629	-0.831034482759	-6.29361702128	4.75	4.21818181818
1259	0.6295	2.0724137931	-6.29361702128	4.75	-0.118181818182
1260	0.63	3.52413793103	6.43404255319	0.376923076923	-1.56363636364
1261	0.6305	-0.831034482759	-4.87943262411	0.376923076923	-1.56363636364
1262	0.631	-5.18620689655	0.777304964539	1.83461538462	-3.00909090909
1263	0.6315	13.6862068966	-0.636879432624	0.376923076923	-7.34545454545
1264	0.632	3.52413793103	0.777304964539	-9.82692307692	-1.56363636364
1265	0.6325	2.0724137931	3.60567375887	-6.91153846154	-1.56363636364
1266	0.633	-0.831034482759	6.43404255319	-1.08076923077	-1.56363636364
1267	0.6335	-2.28275862069	-7.70780141844	3.29230769231	-4.45454545455
1268	0.634	2.0724137931	3.60567375887	1.83461538462	-5.9
1269	0.6345	19.4931034483	0.777304964539	3.29230769231	-4.45454545455
1270	0.635	-3.73448275862	-6.29361702128	-1.08076923077	-1.56363636364
1271	0.6355	0.620689655172	-2.05106382979	7.66538461538	-4.45454545455
1272	0.636	0.620689655172	-10.5361702128	4.75	-3.00909090909
1273	0.6365	-2.28275862069	-7.70780141844	-6.91153846154	-7.34545454545
1274	0.637	2.0724137931	-14.7787234043	0.376923076923	-4.45454545455
1275	0.6375	-8.08965517241	-14.7787234043	0.376923076923	-1.56363636364
1276	0.638	-0.831034482759	-11.9503546099	1.83461538462	-1.56363636364
1277	0.6385	-3.73448275862	-13.3645390071	6.20769230769	-0.118181818182
1278	0.639	0.620689655172	-17.6070921986	-3.99615384615	-4.45454545455
1279	0.6395	-5.18620689655	-10.5361702128	-3.99615384615	-3.00909090909
1280	0.64	-2.28275862069	-21.8496453901	1.83461538462	-1.56363636364
1281	0.6405	3.52413793103	-14.7787234043	3.29230769231	-1.56363636364
1282	0.641	0.620689655172	-16.1929078014	0.376923076923	12.8909090909
1283	0.6415	0.620689655172	-14.7787234043	0.376923076923	7.10909090909
1284	0.642	-0.831034482759	-13.3645390071	7.66538461538	-3.00909090909
1285	0.6425	-2.28275862069	-9.1219858156	-1.08076923077	-3.00909090909
1286	0.643	-0.831034482759	-10.5361702128	1.83461538462	1.32727272727
1287	0.6435	-10.9931034483	-9.1219858156	0.376923076923	-3.00909090909
1288	0.644	-3.73448275862	-6.29361702128	-1.08076923077	-8.79090909091
1289	0.6445	0.620689655172	-6.29361702128	-1.08076923077	-4.45454545455
1290	0.645	0.620689655172	-4.87943262411	-11.2846153846	-4.45454545455
1291	0.6455	0.620689655172	14.9191489362	0.376923076923	-0.118181818182
1292	0.646	-2.28275862069	-10.5361702128	0.376923076923	-1.56363636364
1293	0.6465	7.87931034483	-2.05106382979	0.376923076923	1.32727272727
1294	0.647	-3.73448275862	-0.636879432624	-2.53846153846	15.7818181818
1295	0.6475	-0.831034482759	0.777304964539	0.376923076923	15.7818181818
1296	0.648	-0.831034482759	2.1914893617	19.3269230769	-0.118181818182
1297	0.6485	2.0724137931	-0.636879432624	19.3269230769	-1.56363636364
1298	0.649	2.0724137931	-7.70780141844	4.75	-4.45454545455
1299	0.6495	2.0724137931	-3.46524822695	3.29230769231	-4.45454545455
1300	0.65	22.3965517241	-0.636879432624	0.376923076923	-5.9
1301	0.6505	0.620689655172	-3.46524822695	-8.36923076923	-3.00909090909
1302	0.651	-0.831034482759	-3.46524822695	19.3269230769	-4.45454545455
1303	0.6515	0.620689655172	-9.1219858156	14.9538461538	-1.56363636364
1304	0.652	-0.831034482759	-9.1219858156	0.376923076923	-3.00909090909
1305	0.6525	0.620689655172	-10.5361702128	3.29230769231	-7.34545454545
1306	0.653	18.0413793103	-7.70780141844	3.29230769231	-4.45454545455
1307	0.6535	-6.63793103448	-9.1219858156	0.376923076923	-0.118181818182
1308	0.654	-0.831034482759	-10.5361702128	16.4115384615	-7.34545454545
1309	0.6545	-0.831034482759	-13.3645390071	17.8692307692	-7.34545454545
1310	0.655	-0.831034482759	-21.8496453901	-1.08076923077	-7.34545454545
1311	0.6555	-0.831034482759	-13.3645390071	1.83461538462	-4.45454545455
1312	0.656	-6.63793103448	-13.3645390071	-1.08076923077	-0.118181818182
1313	0.6565	-3.73448275862	-11.9503546099	-2.53846153846	4.21818181818
1314	0.657	0.620689655172	-11.9503546099	-3.99615384615	-3.00909090909
1315	0.6575	0.620689655172	-11.9503546099	-9.82692307692	-8.79090909091
1316	0.658	0.620689655172	0.777304964539	3.29230769231	-3.00909090909
1317	0.6585	-3.73448275862	-20.4354609929	0.376923076923	-3.00909090909
1318	0.659	20.9448275862	-11.9503546099	0.376923076923	-16.0181818182
1319	0.6595	0.620689655172	-10.5361702128	-1.08076923077	-13.1272727273
1320	0.66	-0.831034482759	-9.1219858156	-1.08076923077	14.3363636364
1321	0.6605	-2.28275862069	-7.70780141844	17.8692307692	-3.00909090909
1322	0.661	-0.831034482759	-11.9503546099	0.376923076923	-4.45454545455
1323	0.6615	-0.831034482759	-13.3645390071	0.376923076923	-3.00909090909
1324	0.662	-2.28275862069	-6.29361702128	-1.08076923077	-3.00909090909
1325	0.6625	-8.08965517241	-3.46524822695	0.376923076923	-1.56363636364
1326	0.663	-3.73448275862	-3.46524822695	0.376923076923	11.4454545455
1327	0.6635	-0.831034482759	-2.05106382979	-1.08076923077	-11.6818181818
1328	0.664	0.620689655172	0.777304964539	-1.08076923077	-4.45454545455
1329	0.6645	-0.831034482759	3.60567375887	3.29230769231	-4.45454545455
1330	0.665	3.52413793103	2.1914893617	0.376923076923	-4.45454545455
1331	0.6655	-5.18620689655	0.777304964539	1.83461538462	7.10909090909
1332	0.666	-0.831034482759	0.777304964539	-8.36923076923	-7.34545454545
1333	0.6665	-0.831034482759	0.777304964539	-1.08076923077	-3.00909090909
1334	0.667	-0.831034482759	3.60567375887	-1.08076923077	-4.45454545455
1335	0.6675	-2.28275862069	-4.87943262411	1.83461538462	-4.45454545455
1336	0.668	3.52413793103	-0.636879432624	0.376923076923	-8.79090909091
1337	0.6685	16.5896551724	-4.87943262411	3.29230769231	-14.5727272727
1338	0.669	-3.73448275862	-6.29361702128	4.75	-7.34545454545
1339	0.6695	-2.28275862069	-11.9503546099	-1.08076923077	-4.45454545455
1340	0.67	0.620689655172	-9.1219858156	4.75	-3.00909090909
1341	0.6705	-5.18620689655	-4.87943262411	3.29230769231	-4.45454545455
1342	0.671	-10.9931034483	-16.1929078014	1.83461538462	-1.56363636364
1343	0.6715	-2.28275862069	-16.1929078014	1.83461538462	2.77272727273
1344	0.672	-0.831034482759	-20.4354609929	0.376923076923	-1.56363636364
1345	0.6725	-2.28275862069	-20.4354609929	7.66538461538	-5.9
1346	0.673	-2.28275862069	-27.5063829787	1.83461538462	-4.45454545455
1347	0.6735	0.620689655172	-14.7787234043	0.376923076923	-3.00909090909
1348	0.674	-0.831034482759	-21.8496453901	1.83461538462	-3.00909090909
1349	0.6745	-6.63793103448	-17.6070921986	0.376923076923	-3.00909090909
1350	0.675	0.620689655172	-13.3645390071	3.29230769231	-1.56363636364
1351	0.6755	0.620689655172	-13.3645390071	1.83461538462	2.77272727273
1352	0.676	-0.831034482759	-13.3645390071	3.29230769231	-3.00909090909
1353	0.6765	0.620689655172	-9.1219858156	1.83461538462	-3.00909090909
1354	0.677	-2.28275862069	-10.5361702128	1.83461538462	-3.00909090909
1355	0.6775	-9.54137931034	-7.70780141844	1.83461538462	-3.00909090909
1356	0.678	-5.18620689655	-4.87943262411	0.376923076923	-0.118181818182
1357	0.6785	-0.831034482759	-4.87943262411	-6.91153846154	-1.56363636364
1358	0.679	0.620689655172	0.777304964539	-9.82692307692	-5.9
1359	0.6795	0.620689655172	14.9191489362	0.376923076923	-3.00909090909
1360	0.68	-3.73448275862	-3.46524822695	0.376923076923	-3.00909090909
1361	0.6805	-8.08965517241	0.777304964539	0.376923076923	-1.56363636364
1362	0.681	-0.831034482759	0.777304964539	1.83461538462	-1.56363636364
1363	0.6815	0.620689655172	-0.636879432624	7.66538461538	-1.56363636364
1364	0.682	-2.28275862069	-3.46524822695	0.376923076923	-4.45454545455
1365	0.6825	-0.831034482759	-9.1219858156	0.376923076923	-4.45454545455
1366	0.683	0.620689655172	-7.70780141844	0.376923076923	-3.00909090909
1367	0.6835	-3.73448275862	-2.05106382979	3.29230769231	-4.45454545455
1368	0.684	10.7827586207	-7.70780141844	1.83461538462	-7.34545454545
1369	0.6845	-2.28275862069	-6.29361702128	0.376923076923	-13.1272727273
1370	0.685	0.620689655172	-9.1219858156	0.376923076923	-11.6818181818
1371	0.6855	0.620689655172	-19.0212765957	0.376923076923	-7.34545454545
1372	0.686	-2.28275862069	-11.9503546099	0.376923076923	-4.45454545455
1373	0.6865	0.620689655172	-11.9503546099	-1.08076923077	-5.9
1374	0.687	9.33103448276	-14.7787234043	-1.08076923077	-4.45454545455
1375	0.6875	-0.831034482759	-17.6070921986	3.29230769231	-8.79090909091
1376	0.688	2.0724137931	-17.6070921986	0.376923076923	-10.2363636364
1377	0.6885	0.620689655172	-17.6070921986	9.12307692308	-3.00909090909
1378	0.689	0.620689655172	-23.2638297872	0.376923076923	-4.45454545455
1379	0.6895	0.620689655172	-17.6070921986	1.83461538462	-8.79090909091
1380	0.69	16.5896551724	-17.6070921986	-1.08076923077	-8.79090909091
1381	0.6905	-5.18620689655	-17.6070921986	0.376923076923	-3.00909090909
1382	0.691	-0.831034482759	-14.7787234043	14.9538461538	-8.79090909091
1383	0.6915	0.620689655172	-13.3645390071	0.376923076923	-7.34545454545
1384	0.692	-0.831034482759	-4.87943262411	-1.08076923077	-5.9
1385	0.6925	-2.28275862069	-16.1929078014	0.376923076923	-5.9
1386	0.693	-12.4448275862	-14.7787234043	1.83461538462	-3.00909090909
1387	0.6935	-0.831034482759	-14.7787234043	3.29230769231	-1.56363636364
1388	0.694	0.620689655172	-11.9503546099	6.20769230769	-8.79090909091
1389	0.6945	-0.831034482759	-11.9503546099	-3.99615384615	-5.9
1390	0.695	-2.28275862069	-16.1929078014	1.83461538462	-4.45454545455
1391	0.6955	0.620689655172	-7.70780141844	-1.08076923077	-3.00909090909
1392	0.696	15.1379310345	-4.87943262411	3.29230769231	1.32727272727
1393	0.6965	-6.63793103448	-4.87943262411	-1.08076923077	8.55454545455
1394	0.697	-0.831034482759	-2.05106382979	-2.53846153846	7.10909090909
1395	0.6975	-0.831034482759	-0.636879432624	13.4961538462	-0.118181818182
1396	0.698	-0.831034482759	-11.9503546099	0.376923076923	-1.56363636364
1397	0.6985	2.0724137931	0.777304964539	-1.08076923077	1.32727272727
1398	0.699	-13.8965517241	-0.636879432624	0.376923076923	2.77272727273
1399	0.6995	-9.54137931034	-3.46524822695	-1.08076923077	17.2272727273
1400	0.7	-0.831034482759	-0.636879432624	-9.82692307692	-1.56363636364
1401	0.7005	0.620689655172	0.777304964539	-6.91153846154	-0.118181818182
1402	0.701	0.620689655172	17.7475177305	3.29230769231	1.32727272727
1403	0.7015	-2.28275862069	-3.46524822695	3.29230769231	2.77272727273
1404	0.702	-12.4448275862	-3.46524822695	1.83461538462	2.77272727273
1405	0.7025	12.2344827586	-6.29361702128	4.75	-1.56363636364
1406	0.703	-3.73448275862	-6.29361702128	4.75	1.32727272727
1407	0.7035	-2.28275862069	-6.29361702128	-1.08076923077	-0.118181818182
1408	0.704	0.620689655172	-21.8496453901	1.83461538462	-4.45454545455
1409	0.7045	3.52413793103	3.60567375887	0.376923076923	-4.45454545455
1410	0.705	-10.9931034483	-16.1929078014	1.83461538462	-7.34545454545
1411	0.7055	-10.9931034483	-14.7787234043	3.29230769231	-11.6818181818
1412	0.706	0.620689655172	-14.7787234043	-1.08076923077	-13.1272727273
1413	0.7065	-0.831034482759	-16.1929078014	3.29230769231	-4.45454545455
1414	0.707	0.620689655172	-23.2638297872	1.83461538462	-7.34545454545
1415	0.7075	0.620689655172	-13.3645390071	1.83461538462	-5.9
1416	0.708	-9.54137931034	-17.6070921986	0.376923076923	-5.9
1417	0.7085	10.7827586207	-17.6070921986	3.29230769231	-3.00909090909
1418	0.709	-2.28275862069	-10.5361702128	-8.36923076923	-7.34545454545
1419	0.7095	0.620689655172	-13.3645390071	-8.36923076923	-8.79090909091
1420	0.71	0.620689655172	-11.9503546099	-5.45384615385	-4.45454545455
1421	0.7105	-2.28275862069	-7.70780141844	0.376923076923	-4.45454545455
1422	0.711	3.52413793103	-9.1219858156	0.376923076923	-1.56363636364
1423	0.7115	12.2344827586	-9.1219858156	3.29230769231	-1.56363636364
1424	0.712	-5.18620689655	-10.5361702128	0.376923076923	-1.56363636364
1425	0.7125	0.620689655172	-10.5361702128	9.12307692308	-0.118181818182
1426	0.713	0.620689655172	-11.9503546099	4.75	-1.56363636364
1427	0.7135	-2.28275862069	-19.0212765957	1.83461538462	-1.56363636364
1428	0.714	2.0724137931	-10.5361702128	0.376923076923	-1.56363636364
1429	0.7145	12.2344827586	-4.87943262411	1.83461538462	-0.118181818182
1430	0.715	-5.18620689655	-4.87943262411	-1.08076923077	-5.9
1431	0.7155	0.620689655172	-6.29361702128	-6.91153846154	-7.34545454545
1432	0.716	-0.831034482759	-3.46524822695	-2.53846153846	-1.56363636364
1433	0.7165	0.620689655172	0.777304964539	0.376923076923	-1.56363636364
1434	0.717	0.620689655172	-7.70780141844	1.83461538462	-1.56363636364
1435	0.7175	-12.4448275862	-10.5361702128	1.83461538462	-3.00909090909
1436	0.718	0.620689655172	-11.9503546099	-2.53846153846	-10.2363636364
1437	0.7185	2.0724137931	-14.7787234043	-2.53846153846	7.10909090909
1438	0.719	-0.831034482759	-13.3645390071	19.3269230769	-5.9
1439	0.7195	0.620689655172	-19.0212765957	3.29230769231	-3.00909090909
1440	0.72	3.52413793103	-28.9205673759	1.83461538462	-1.56363636364
1441	0.7205	0.620689655172	-19.0212765957	3.29230769231	-5.9
1442	0.721	-8.08965517241	-21.8496453901	1.83461538462	1.32727272727
1443	0.7215	-0.831034482759	-20.4354609929	1.83461538462	-13.1272727273
1444	0.722	-2.28275862069	-24.6780141844	-8.36923076923	-3.00909090909
1445	0.7225	0.620689655172	-23.2638297872	-6.91153846154	-3.00909090909
1446	0.723	-2.28275862069	-10.5361702128	1.83461538462	-7.34545454545
1447	0.7235	-12.4448275862	-23.2638297872	1.83461538462	-8.79090909091
1448	0.724	19.4931034483	-27.5063829787	1.83461538462	-7.34545454545
1449	0.7245	0.620689655172	-28.9205673759	-2.53846153846	-13.1272727273
1450	0.725	-0.831034482759	-27.5063829787	-11.2846153846	-4.45454545455
1451	0.7255	0.620689655172	-24.6780141844	-1.08076923077	-1.56363636364
1452	0.726	-0.831034482759	-34.5773049645	0.376923076923	-3.00909090909
1453	0.7265	2.0724137931	-23.2638297872	-1.08076923077	-5.9
1454	0.727	20.9448275862	-21.8496453901	-1.08076923077	-13.1272727273
1455	0.7275	-0.831034482759	-20.4354609929	-1.08076923077	-14.5727272727
1456	0.728	-0.831034482759	-20.4354609929	-9.82692307692	-3.00909090909
1457	0.7285	-2.28275862069	-16.1929078014	-9.82692307692	-3.00909090909
1458	0.729	-0.831034482759	-0.636879432624	-1.08076923077	-4.45454545455
1459	0.7295	-0.831034482759	-23.2638297872	1.83461538462	-4.45454545455
1460	0.73	20.9448275862	-17.6070921986	-1.08076923077	-7.34545454545
1461	0.7305	-3.73448275862	-16.1929078014	-2.53846153846	-13.1272727273
1462	0.731	-0.831034482759	-16.1929078014	-9.82692307692	-5.9
1463	0.7315	-0.831034482759	-13.3645390071	-2.53846153846	-3.00909090909
1464	0.732	2.0724137931	-4.87943262411	0.376923076923	-5.9
1465	0.7325	0.620689655172	-4.87943262411	1.83461538462	-4.45454545455
1466	0.733	-3.73448275862	-13.3645390071	0.376923076923	-4.45454545455
1467	0.7335	-9.54137931034	-11.9503546099	0.376923076923	8.55454545455
1468	0.734	0.620689655172	-13.3645390071	7.66538461538	-1.56363636364
1469	0.7345	0.620689655172	-13.3645390071	6.20769230769	-5.9
1470	0.735	-3.73448275862	-11.9503546099	0.376923076923	-4.45454545455
1471	0.7355	-13.8965517241	-17.6070921986	-1.08076923077	-4.45454545455
1472	0.736	13.6862068966	-20.4354609929	1.83461538462	-5.9
1473	0.7365	-0.831034482759	-17.6070921986	-2.53846153846	-14.5727272727
1474	0.737	-2.28275862069	-17.6070921986	-9.82692307692	-1.56363636364
1475	0.7375	0.620689655172	-24.6780141844	0.376923076923	-4.45454545455
1476	0.738	0.620689655172	-10.5361702128	0.376923076923	-5.9
1477	0.7385	0.620689655172	-31.7489361702	0.376923076923	-5.9
1478	0.739	4.97586206897	-26.0921985816	0.376923076923	-4.45454545455
1479	0.7395	-0.831034482759	-27.5063829787	-5.45384615385	-8.79090909091
1480	0.74	-2.28275862069	-27.5063829787	4.75	-7.34545454545
1481	0.7405	-0.831034482759	-30.334751773	1.83461538462	-7.34545454545
1482	0.741	-0.831034482759	-26.0921985816	0.376923076923	-5.9
1483	0.7415	-12.4448275862	-31.7489361702	1.83461538462	-3.00909090909
1484	0.742	-0.831034482759	-28.9205673759	1.83461538462	-4.45454545455
1485	0.7425	-6.63793103448	-26.0921985816	-2.53846153846	8.55454545455
1486	0.743	0.620689655172	-24.6780141844	6.20769230769	-4.45454545455
1487	0.7435	-2.28275862069	-26.0921985816	13.4961538462	-3.00909090909
1488	0.744	0.620689655172	-30.334751773	3.29230769231	-3.00909090909
1489	0.7445	0.620689655172	-24.6780141844	0.376923076923	-4.45454545455
1490	0.745	20.9448275862	-26.0921985816	-1.08076923077	-5.9
1491	0.7455	0.620689655172	-23.2638297872	-2.53846153846	15.7818181818
1492	0.746	-0.831034482759	-23.2638297872	19.3269230769	-4.45454545455
1493	0.7465	-0.831034482759	-21.8496453901	1.83461538462	-0.118181818182
1494	0.747	-2.28275862069	-3.46524822695	1.83461538462	-1.56363636364
1495	0.7475	-2.28275862069	-27.5063829787	0.376923076923	-3.00909090909
1496	0.748	18.0413793103	-19.0212765957	1.83461538462	-4.45454545455
1497	0.7485	-3.73448275862	-17.6070921986	-1.08076923077	-8.79090909091
1498	0.749	-0.831034482759	-17.6070921986	-5.45384615385	-5.9
1499	0.7495	0.620689655172	-14.7787234043	1.83461538462	-0.118181818182
1500	0.75	-0.831034482759	-10.5361702128	-2.53846153846	-1.56363636364
1501	0.7505	0.620689655172	-23.2638297872	0.376923076923	-1.56363636364
1502	0.751	-6.63793103448	-24.6780141844	-1.08076923077	-4.45454545455
1503	0.7515	2.0724137931	-19.0212765957	3.29230769231	-11.6818181818
1504	0.752	0.620689655172	-23.2638297872	-9.82692307692	-3.00909090909
1505	0.7525	-2.28275862069	-23.2638297872	1.83461538462	-4.45454545455
1506	0.753	0.620689655172	-16.1929078014	1.83461538462	-5.9
1507	0.7535	-2.28275862069	-19.0212765957	-1.08076923077	-4.45454545455
1508	0.754	-10.9931034483	-31.7489361702	0.376923076923	-1.56363636364
1509	0.7545	0.620689655172	-31.7489361702	0.376923076923	-11.6818181818
1510	0.755	-2.28275862069	-33.1631205674	-9.82692307692	-1.56363636364
1511	0.7555	-0.831034482759	-33.1631205674	0.376923076923	-5.9
1512	0.756	-3.73448275862	-31.7489361702	1.83461538462	-5.9
1513	0.7565	-3.73448275862	-31.7489361702	0.376923076923	-4.45454545455
1514	0.757	-9.54137931034	-31.7489361702	0.376923076923	-10.2363636364
1515	0.7575	-2.28275862069	-31.7489361702	-3.99615384615	-10.2363636364
1516	0.758	-0.831034482759	-31.7489361702	6.20769230769	-8.79090909091
1517	0.7585	-0.831034482759	-31.7489361702	7.66538461538	-7.34545454545
1518	0.759	0.620689655172	-28.9205673759	1.83461538462	-3.00909090909
1519	0.7595	4.97586206897	-24.6780141844	3.29230769231	-5.9
1520	0.76	15.1379310345	-24.6780141844	3.29230769231	-13.1272727273
1521	0.7605	-3.73448275862	-21.8496453901	3.29230769231	-5.9
1522	0.761	-2.28275862069	-20.4354609929	-11.2846153846	-4.45454545455
1523	0.7615	0.620689655172	-17.6070921986	-2.53846153846	1.32727272727
1524	0.762	-2.28275862069	-2.05106382979	0.376923076923	-0.118181818182
1525	0.7625	-2.28275862069	-16.1929078014	0.376923076923	-0.118181818182
1526	0.763	-8.08965517241	-17.6070921986	-1.08076923077	-0.118181818182
1527	0.7635	-2.28275862069	-14.7787234043	-1.08076923077	-0.118181818182
1528	0.764	-0.831034482759	-14.7787234043	16.4115384615	-1.56363636364
1529	0.7645	-0.831034482759	-16.1929078014	0.376923076923	-1.56363636364
1530	0.765	2.0724137931	-2.05106382979	0.376923076923	-1.56363636364
1531	0.7655	-2.28275862069	-17.6070921986	1.83461538462	-0.118181818182
1532	0.766	-10.9931034483	-17.6070921986	-1.08076923077	-1.56363636364
1533	0.7665	0.620689655172	-17.6070921986	0.376923076923	14.3363636364
1534	0.767	-0.831034482759	-20.4354609929	4.75	-10.2363636364
1535	0.7675	0.620689655172	-19.0212765957	1.83461538462	-4.45454545455
1536	0.768	3.52413793103	-28.9205673759	0.376923076923	-1.56363636364
1537	0.7685	-5.18620689655	-23.2638297872	1.83461538462	1.32727272727
1538	0.769	10.7827586207	-23.2638297872	1.83461538462	-4.45454545455
1539	0.7695	-8.08965517241	-24.6780141844	1.83461538462	-4.45454545455
1540	0.77	-0.831034482759	-23.2638297872	7.66538461538	-3.00909090909
1541	0.7705	0.620689655172	-21.8496453901	1.83461538462	-5.9
1542	0.771	0.620689655172	-19.0212765957	1.83461538462	-5.9
1543	0.7715	-3.73448275862	-27.5063829787	-1.08076923077	-5.9
1544	0.772	-8.08965517241	-27.5063829787	3.29230769231	-17.4636363636
1545	0.7725	-2.28275862069	-27.5063829787	1.83461538462	-14.5727272727
1546	0.773	-3.73448275862	-24.6780141844	-9.82692307692	-3.00909090909
1547	0.7735	-0.831034482759	-26.0921985816	-9.82692307692	-5.9
1548	0.774	0.620689655172	-11.9503546099	-1.08076923077	-3.00909090909
1549	0.7745	0.620689655172	-30.334751773	0.376923076923	-1.56363636364
1550	0.775	9.33103448276	-20.4354609929	3.29230769231	-1.56363636364
1551	0.7755	0.620689655172	-17.6070921986	1.83461538462	14.3363636364
1552	0.776	-2.28275862069	-16.1929078014	14.9538461538	-0.118181818182
1553	0.7765	-3.73448275862	-16.1929078014	16.4115384615	-1.56363636364
1554	0.777	-2.28275862069	-17.6070921986	0.376923076923	2.77272727273
1555	0.7775	0.620689655172	0.777304964539	1.83461538462	-0.118181818182
1556	0.778	3.52413793103	-10.5361702128	0.376923076923	-1.56363636364
1557	0.7785	-3.73448275862	-7.70780141844	1.83461538462	4.21818181818
1558	0.779	0.620689655172	-6.29361702128	6.20769230769	1.32727272727
1559	0.7795	-0.831034482759	-4.87943262411	-1.08076923077	-1.56363636364
1560	0.78	0.620689655172	-14.7787234043	-2.53846153846	-0.118181818182
1561	0.7805	0.620689655172	-16.1929078014	-1.08076923077	-0.118181818182
1562	0.781	18.0413793103	-4.87943262411	0.376923076923	-7.34545454545
1563	0.7815	-3.73448275862	-2.05106382979	1.83461538462	5.66363636364
1564	0.782	-0.831034482759	-6.29361702128	3.29230769231	11.4454545455
1565	0.7825	-2.28275862069	-4.87943262411	-3.99615384615	-1.56363636364
1566	0.783	-0.831034482759	-14.7787234043	0.376923076923	2.77272727273
1567	0.7835	0.620689655172	-3.46524822695	-1.08076923077	-3.00909090909
1568	0.784	7.87931034483	-4.87943262411	1.83461538462	-4.45454545455
1569	0.7845	-2.28275862069	-6.29361702128	0.376923076923	-3.00909090909
1570	0.785	2.0724137931	-9.1219858156	-9.82692307692	-1.56363636364
1571	0.7855	0.620689655172	-9.1219858156	-9.82692307692	-1.56363636364
1572	0.786	-2.28275862069	-10.5361702128	1.83461538462	-1.56363636364
1573	0.7865	-5.18620689655	-21.8496453901	1.83461538462	-0.118181818182
1574	0.787	2.0724137931	-23.2638297872	-1.08076923077	-3.00909090909
1575	0.7875	18.0413793103	-13.3645390071	3.29230769231	-3.00909090909
1576	0.788	-0.831034482759	-14.7787234043	-3.99615384615	-3.00909090909
1577	0.7885	-0.831034482759	-16.1929078014	-6.91153846154	-4.45454545455
1578	0.789	-2.28275862069	-21.8496453901	0.376923076923	-3.00909090909
1579	0.7895	0.620689655172	-16.1929078014	-1.08076923077	-4.45454545455
1580	0.79	-6.63793103448	-17.6070921986	-1.08076923077	-3.00909090909
1581	0.7905	9.33103448276	-17.6070921986	0.376923076923	-3.00909090909
1582	0.791	0.620689655172	-21.8496453901	0.376923076923	5.66363636364
1583	0.7915	0.620689655172	-16.1929078014	14.9538461538	-4.45454545455
1584	0.792	2.0724137931	-17.6070921986	12.0384615385	-1.56363636364
1585	0.7925	2.0724137931	-20.4354609929	3.29230769231	1.32727272727
1586	0.793	2.0724137931	-11.9503546099	1.83461538462	-0.118181818182
1587	0.7935	15.1379310345	-11.9503546099	0.376923076923	4.21818181818
1588	0.794	0.620689655172	-7.70780141844	3.29230769231	12.8909090909
1589	0.7945	0.620689655172	-9.1219858156	1.83461538462	1.32727272727
1590	0.795	-0.831034482759	-20.4354609929	1.83461538462	-1.56363636364
1591	0.7955	3.52413793103	9.26241134752	1.83461538462	2.77272727273
1592	0.796	-0.831034482759	6.43404255319	0.376923076923	2.77272727273
1593	0.7965	-12.4448275862	-6.29361702128	-1.08076923077	1.32727272727
1594	0.797	0.620689655172	-3.46524822695	1.83461538462	-14.5727272727
1595	0.7975	0.620689655172	-4.87943262411	-3.99615384615	-11.6818181818
1596	0.798	-0.831034482759	-3.46524822695	-3.99615384615	-5.9
1597	0.7985	2.0724137931	-3.46524822695	-2.53846153846	-1.56363636364
1598	0.799	3.52413793103	-6.29361702128	-1.08076923077	-1.56363636364
1599	0.7995	16.5896551724	-7.70780141844	0.376923076923	1.32727272727
1600	0.8	-0.831034482759	-7.70780141844	4.75	-1.56363636364
1601	0.8005	0.620689655172	-6.29361702128	6.20769230769	-8.79090909091
1602	0.801	2.0724137931	-10.5361702128	-6.91153846154	-1.56363636364
1603	0.8015	-0.831034482759	-16.1929078014	0.376923076923	-5.9
1604	0.802	0.620689655172	-9.1219858156	1.83461538462	-3.00909090909
1605	0.8025	-6.63793103448	-13.3645390071	-1.08076923077	-3.00909090909
1606	0.803	-6.63793103448	-13.3645390071	1.83461538462	-1.56363636364
1607	0.8035	0.620689655172	-14.7787234043	0.376923076923	12.8909090909
1608	0.804	-0.831034482759	-16.1929078014	-2.53846153846	-1.56363636364
1609	0.8045	-0.831034482759	-20.4354609929	1.83461538462	-4.45454545455
1610	0.805	-2.28275862069	-24.6780141844	3.29230769231	-3.00909090909
1611	0.8055	-5.18620689655	-23.2638297872	1.83461538462	-3.00909090909
1612	0.806	-5.18620689655	-24.6780141844	4.75	2.77272727273
1613	0.8065	2.0724137931	-21.8496453901	-5.45384615385	5.66363636364
1614	0.807	0.620689655172	-20.4354609929	-3.99615384615	-3.00909090909
1615	0.8075	-2.28275862069	-11.9503546099	-1.08076923077	-1.56363636364
1616	0.808	-0.831034482759	-24.6780141844	0.376923076923	-1.56363636364
1617	0.8085	-13.8965517241	-19.0212765957	-1.08076923077	-1.56363636364
1618	0.809	3.52413793103	-16.1929078014	-1.08076923077	-3.00909090909
1619	0.8095	0.620689655172	-14.7787234043	0.376923076923	4.21818181818
1620	0.81	0.620689655172	-10.5361702128	0.376923076923	-1.56363636364
1621	0.8105	0.620689655172	-9.1219858156	-1.08076923077	-1.56363636364
1622	0.811	-5.18620689655	-16.1929078014	-1.08076923077	-3.00909090909
1623	0.8115	0.620689655172	-10.5361702128	-1.08076923077	-4.45454545455
1624	0.812	19.4931034483	-6.29361702128	-1.08076923077	-4.45454545455
1625	0.8125	0.620689655172	-4.87943262411	3.29230769231	17.2272727273
1626	0.813	-2.28275862069	-2.05106382979	3.29230769231	-8.79090909091
1627	0.8135	-2.28275862069	-0.636879432624	-6.91153846154	-3.00909090909
1628	0.814	-0.831034482759	-2.05106382979	3.29230769231	-3.00909090909
1629	0.8145	-0.831034482759	-2.05106382979	0.376923076923	-0.118181818182
1630	0.815	-2.28275862069	0.777304964539	0.376923076923	-0.118181818182
1631	0.8155	0.620689655172	3.60567375887	-2.53846153846	-8.79090909091
1632	0.816	0.620689655172	0.777304964539	-1.08076923077	-7.34545454545
1633	0.8165	-0.831034482759	2.1914893617	-3.99615384615	-4.45454545455
1634	0.817	-0.831034482759	-0.636879432624	0.376923076923	-3.00909090909
1635	0.8175	3.52413793103	0.777304964539	1.83461538462	-3.00909090909
1636	0.818	15.1379310345	-0.636879432624	-1.08076923077	-1.56363636364
1637	0.8185	4.97586206897	-0.636879432624	1.83461538462	-3.00909090909
1638	0.819	0.620689655172	0.777304964539	-1.08076923077	-3.00909090909
1639	0.8195	0.620689655172	-0.636879432624	-5.45384615385	-1.56363636364
1640	0.82	0.620689655172	0.777304964539	3.29230769231	-3.00909090909
1641	0.8205	-2.28275862069	-14.7787234043	0.376923076923	-4.45454545455
1642	0.821	3.52413793103	-6.29361702128	0.376923076923	-5.9
1643	0.8215	18.0413793103	-6.29361702128	0.376923076923	-8.79090909091
1644	0.822	3.52413793103	-7.70780141844	3.29230769231	-4.45454545455
1645	0.8225	-0.831034482759	-6.29361702128	-5.45384615385	-4.45454545455
1646	0.823	0.620689655172	-10.5361702128	-6.91153846154	-4.45454545455
1647	0.8235	0.620689655172	-6.29361702128	-8.36923076923	-5.9
1648	0.824	-5.18620689655	-11.9503546099	0.376923076923	-1.56363636364
1649	0.8245	-12.4448275862	-10.5361702128	1.83461538462	1.32727272727
1650	0.825	-10.9931034483	-9.1219858156	0.376923076923	-4.45454545455
1651	0.8255	0.620689655172	-10.5361702128	-2.53846153846	-13.1272727273
1652	0.826	-0.831034482759	-7.70780141844	-6.91153846154	-3.00909090909
1653	0.8265	-3.73448275862	-0.636879432624	3.29230769231	-0.118181818182
1654	0.827	-0.831034482759	-11.9503546099	1.83461538462	-1.56363636364
1655	0.8275	0.620689655172	0.777304964539	3.29230769231	-3.00909090909
1656	0.828	19.4931034483	0.777304964539	0.376923076923	-1.56363636364
1657	0.8285	0.620689655172	0.777304964539	3.29230769231	18.6727272727
1658	0.829	0.620689655172	3.60567375887	6.20769230769	-8.79090909091
1659	0.8295	0.620689655172	5.01985815603	-6.91153846154	-0.118181818182
1660	0.83	3.52413793103	21.990070922	3.29230769231	1.32727272727
1661	0.8305	-0.831034482759	7.84822695035	0.376923076923	-0.118181818182
1662	0.831	-12.4448275862	6.43404255319	0.376923076923	1.32727272727
1663	0.8315	-3.73448275862	3.60567375887	1.83461538462	-3.00909090909
1664	0.832	-2.28275862069	6.43404255319	-2.53846153846	-7.34545454545
1665	0.8325	0.620689655172	2.1914893617	-12.7423076923	-3.00909090909
1666	0.833	-0.831034482759	21.990070922	0.376923076923	-4.45454545455
1667	0.8335	-0.831034482759	-4.87943262411	1.83461538462	-1.56363636364
1668	0.834	3.52413793103	-6.29361702128	-1.08076923077	-4.45454545455
1669	0.8345	22.3965517241	0.777304964539	3.29230769231	-4.45454545455
1670	0.835	-0.831034482759	0.777304964539	-8.36923076923	-5.9
1671	0.8355	3.52413793103	-2.05106382979	-9.82692307692	-1.56363636364
1672	0.836	3.52413793103	0.777304964539	1.83461538462	-4.45454545455
1673	0.8365	-0.831034482759	-10.5361702128	0.376923076923	-1.56363636364
1674	0.837	-0.831034482759	-11.9503546099	0.376923076923	-3.00909090909
1675	0.8375	13.6862068966	-7.70780141844	-1.08076923077	-3.00909090909
1676	0.838	-0.831034482759	-6.29361702128	3.29230769231	-10.2363636364
1677	0.8385	-2.28275862069	-10.5361702128	-3.99615384615	-3.00909090909
1678	0.839	-0.831034482759	-17.6070921986	0.376923076923	-5.9
1679	0.8395	3.52413793103	-4.87943262411	1.83461538462	-4.45454545455
1680	0.84	2.0724137931	-10.5361702128	0.376923076923	-3.00909090909
1681	0.8405	10.7827586207	-10.5361702128	3.29230769231	-5.9
1682	0.841	-0.831034482759	-9.1219858156	-9.82692307692	-3.00909090909
1683	0.8415	-0.831034482759	-10.5361702128	-1.08076923077	-7.34545454545
1684	0.842	-2.28275862069	-17.6070921986	0.376923076923	-1.56363636364
1685	0.8425	2.0724137931	-10.5361702128	1.83461538462	-3.00909090909
1686	0.843	4.97586206897	-4.87943262411	0.376923076923	-1.56363636364
1687	0.8435	-9.54137931034	-2.05106382979	0.376923076923	15.7818181818
1688	0.844	-2.28275862069	-0.636879432624	0.376923076923	14.3363636364
1689	0.8445	0.620689655172	2.1914893617	0.376923076923	-11.6818181818
1690	0.845	-0.831034482759	2.1914893617	-2.53846153846	-1.56363636364
1691	0.8455	-0.831034482759	9.26241134752	-1.08076923077	-3.00909090909
1692	0.846	3.52413793103	5.01985815603	1.83461538462	-1.56363636364
1693	0.8465	-2.28275862069	6.43404255319	1.83461538462	-1.56363636364
1694	0.847	0.620689655172	6.43404255319	4.75	-4.45454545455
1695	0.8475	-2.28275862069	9.26241134752	19.3269230769	-3.00909090909
1696	0.848	-2.28275862069	3.60567375887	19.3269230769	-3.00909090909
1697	0.8485	3.52413793103	-4.87943262411	3.29230769231	-3.00909090909
1698	0.849	-0.831034482759	5.01985815603	3.29230769231	-7.34545454545
1699	0.8495	19.4931034483	5.01985815603	1.83461538462	-4.45454545455
1700	0.85	-0.831034482759	3.60567375887	-1.08076923077	-1.56363636364
1701	0.8505	-2.28275862069	5.01985815603	19.3269230769	-4.45454545455
1702	0.851	2.0724137931	5.01985815603	0.376923076923	-3.00909090909
1703	0.8515	-0.831034482759	16.3333333333	0.376923076923	-3.00909090909
1704	0.852	-5.18620689655	-2.05106382979	0.376923076923	-1.56363636364
1705	0.8525	-10.9931034483	-2.05106382979	4.75	-1.56363636364
1706	0.853	-0.831034482759	-2.05106382979	3.29230769231	-8.79090909091
1707	0.8535	-0.831034482759	-2.05106382979	-3.99615384615	2.77272727273
1708	0.854	-0.831034482759	-2.05106382979	0.376923076923	-4.45454545455
1709	0.8545	2.0724137931	-3.46524822695	-1.08076923077	-5.9
1710	0.855	-2.28275862069	-10.5361702128	-1.08076923077	-4.45454545455
1711	0.8555	-2.28275862069	-6.29361702128	-1.08076923077	-5.9
1712	0.856	16.5896551724	-6.29361702128	1.83461538462	-11.6818181818
1713	0.8565	-0.831034482759	-4.87943262411	3.29230769231	-10.2363636364
1714	0.857	2.0724137931	-6.29361702128	-6.91153846154	-4.45454545455
1715	0.8575	0.620689655172	0.777304964539	-8.36923076923	-5.9
1716	0.858	-0.831034482759	13.504964539	-1.08076923077	-5.9
1717	0.8585	-13.8965517241	-3.46524822695	-1.08076923077	-1.56363636364
1718	0.859	16.5896551724	-2.05106382979	1.83461538462	-1.56363636364
1719	0.8595	-6.63793103448	-2.05106382979	1.83461538462	7.10909090909
1720	0.86	-0.831034482759	0.777304964539	-5.45384615385	-4.45454545455
1721	0.8605	2.0724137931	3.60567375887	1.83461538462	-3.00909090909
1722	0.861	-0.831034482759	-7.70780141844	-1.08076923077	-1.56363636364
1723	0.8615	0.620689655172	0.777304964539	-1.08076923077	-4.45454545455
1724	0.862	16.5896551724	5.01985815603	-1.08076923077	1.32727272727
1725	0.8625	-10.9931034483	7.84822695035	-1.08076923077	1.32727272727
1726	0.863	-2.28275862069	9.26241134752	4.75	11.4454545455
1727	0.8635	-0.831034482759	6.43404255319	-1.08076923077	-0.118181818182
1728	0.864	-2.28275862069	0.777304964539	-1.08076923077	-1.56363636364
1729	0.8645	-0.831034482759	10.6765957447	0.376923076923	-1.56363636364
1730	0.865	3.52413793103	5.01985815603	0.376923076923	-1.56363636364
1731	0.8655	3.52413793103	9.26241134752	1.83461538462	4.21818181818
1732	0.866	0.620689655172	6.43404255319	-1.08076923077	-8.79090909091
1733	0.8665	0.620689655172	3.60567375887	-1.08076923077	-8.79090909091
1734	0.867	0.620689655172	3.60567375887	0.376923076923	-1.56363636364
1735	0.8675	3.52413793103	20.5758865248	-1.08076923077	-1.56363636364
1736	0.868	-0.831034482759	-0.636879432624	1.83461538462	-4.45454545455
1737	0.8685	-10.9931034483	-0.636879432624	1.83461538462	-3.00909090909
1738	0.869	-3.73448275862	-0.636879432624	3.29230769231	-1.56363636364
1739	0.8695	-2.28275862069	-4.87943262411	7.66538461538	-3.00909090909
1740	0.87	2.0724137931	-3.46524822695	1.83461538462	-3.00909090909
1741	0.8705	0.620689655172	-9.1219858156	0.376923076923	-3.00909090909
1742	0.871	0.620689655172	-11.9503546099	1.83461538462	-3.00909090909
1743	0.8715	-3.73448275862	-17.6070921986	3.29230769231	-3.00909090909
1744	0.872	10.7827586207	-9.1219858156	1.83461538462	-4.45454545455
1745	0.8725	-2.28275862069	-9.1219858156	1.83461538462	-4.45454545455
