	Time	Channel 1	Channel 2	Channel 3	Channel 4
0	0.0	-0.8	10.3347826087	1.81111111111	-8.53333333333
1	0.0005	-2.25	10.3347826087	12.0	-2.8
2	0.001	-9.5	14.5739130435	0.355555555556	-1.36666666667
3	0.0015	-2.25	15.9869565217	-1.1	-1.36666666667
4	0.002	-2.25	15.9869565217	-1.1	15.8333333333
5	0.0025	3.55	15.9869565217	3.26666666667	-1.36666666667
6	0.003	13.7	17.4	-1.1	-4.23333333333
7	0.0035	0.65	15.9869565217	3.26666666667	-14.2666666667
8	0.004	2.1	18.8130434783	3.26666666667	-2.8
9	0.0045	-10.95	11.747826087	-1.1	0.0666666666667
10	0.005	2.1	8.92173913043	0.355555555556	1.5
11	0.0055	16.6	1.85652173913	3.26666666667	-7.1
12	0.006	0.65	1.85652173913	-1.1	5.8
13	0.0065	-2.25	1.85652173913	-6.92222222222	-8.53333333333
14	0.007	-2.25	0.44347826087	-4.01111111111	-7.1
15	0.0075	0.65	13.1608695652	-1.1	-7.1
16	0.008	-5.15	-5.20869565217	1.81111111111	-2.8
17	0.0085	-9.5	-8.0347826087	3.26666666667	-2.8
18	0.009	-0.8	-9.44782608696	0.355555555556	4.36666666667
19	0.0095	-3.7	-12.2739130435	3.26666666667	-2.8
20	0.01	-3.7	-20.752173913	1.81111111111	-5.66666666667
21	0.0105	-3.7	-3.79565217391	1.81111111111	-8.53333333333
22	0.011	-2.25	-12.2739130435	0.355555555556	-2.8
23	0.0115	9.35	-8.0347826087	4.72222222222	-5.66666666667
24	0.012	-3.7	-10.8608695652	1.81111111111	-5.66666666667
25	0.0125	0.65	-8.0347826087	-4.01111111111	-4.23333333333
26	0.013	-0.8	-5.20869565217	3.26666666667	-2.8
27	0.0135	-0.8	-8.0347826087	1.81111111111	-2.8
28	0.014	0.65	-5.20869565217	4.72222222222	-4.23333333333
29	0.0145	15.15	1.85652173913	4.72222222222	0.0666666666667
30	0.015	0.65	6.09565217391	0.355555555556	-8.53333333333
31	0.0155	0.65	8.92173913043	-5.46666666667	-1.36666666667
32	0.016	-0.8	7.50869565217	-6.92222222222	-2.8
33	0.0165	2.1	-2.38260869565	0.355555555556	1.5
34	0.017	5.0	8.92173913043	3.26666666667	2.93333333333
35	0.0175	-13.85	10.3347826087	0.355555555556	4.36666666667
36	0.018	-6.6	13.1608695652	0.355555555556	12.9666666667
37	0.0185	-2.25	14.5739130435	14.9111111111	-2.8
38	0.019	-0.8	17.4	-2.55555555556	-4.23333333333
39	0.0195	-2.25	30.1173913043	1.81111111111	0.0666666666667
40	0.02	0.65	14.5739130435	1.81111111111	0.0666666666667
41	0.0205	9.35	14.5739130435	0.355555555556	-1.36666666667
42	0.021	-8.05	8.92173913043	0.355555555556	11.5333333333
43	0.0215	-0.8	10.3347826087	0.355555555556	14.4
44	0.022	0.65	3.26956521739	0.355555555556	-1.36666666667
45	0.0225	3.55	15.9869565217	0.355555555556	-4.23333333333
46	0.023	0.65	4.68260869565	3.26666666667	-5.66666666667
47	0.0235	0.65	3.26956521739	-1.1	-7.1
48	0.024	0.65	-2.38260869565	-4.01111111111	-11.4
49	0.0245	-0.8	-0.969565217391	6.17777777778	-5.66666666667
50	0.025	-2.25	-2.38260869565	13.4555555556	-7.1
51	0.0255	0.65	-0.969565217391	3.26666666667	-5.66666666667
52	0.026	-9.5	-2.38260869565	0.355555555556	-5.66666666667
53	0.0265	-2.25	-6.62173913043	0.355555555556	4.36666666667
54	0.027	-2.25	-6.62173913043	3.26666666667	2.93333333333
55	0.0275	-2.25	-8.0347826087	7.63333333333	-4.23333333333
56	0.028	-0.8	-12.2739130435	0.355555555556	-1.36666666667
57	0.0285	2.1	-5.20869565217	0.355555555556	-2.8
58	0.029	2.1	-5.20869565217	1.81111111111	0.0666666666667
59	0.0295	-5.15	0.44347826087	1.81111111111	4.36666666667
60	0.03	-0.8	1.85652173913	-1.1	0.0666666666667
61	0.0305	-3.7	1.85652173913	1.81111111111	-7.1
62	0.031	-0.8	1.85652173913	-5.46666666667	-1.36666666667
63	0.0315	0.65	21.6391304348	1.81111111111	-1.36666666667
64	0.032	-0.8	8.92173913043	3.26666666667	-1.36666666667
65	0.0325	-10.95	11.747826087	1.81111111111	0.0666666666667
66	0.033	-0.8	10.3347826087	-8.37777777778	-1.36666666667
67	0.0335	0.65	14.5739130435	-6.92222222222	1.5
68	0.034	-0.8	17.4	-1.1	-1.36666666667
69	0.0345	-0.8	25.8782608696	0.355555555556	0.0666666666667
70	0.035	-13.85	17.4	1.81111111111	-4.23333333333
71	0.0355	10.8	14.5739130435	0.355555555556	-2.8
72	0.036	-3.7	18.8130434783	1.81111111111	-1.36666666667
73	0.0365	2.1	15.9869565217	0.355555555556	-9.96666666667
74	0.037	0.65	13.1608695652	-6.92222222222	-2.8
75	0.0375	2.1	17.4	-6.92222222222	0.0666666666667
76	0.038	-0.8	31.5304347826	0.355555555556	-1.36666666667
77	0.0385	-12.4	10.3347826087	-1.1	-1.36666666667
78	0.039	-5.15	6.09565217391	0.355555555556	-2.8
79	0.0395	-0.8	6.09565217391	-8.37777777778	-4.23333333333
80	0.04	0.65	6.09565217391	6.17777777778	-4.23333333333
81	0.0405	-2.25	0.44347826087	0.355555555556	-5.66666666667
82	0.041	-2.25	-2.38260869565	1.81111111111	-2.8
83	0.0415	-2.25	0.44347826087	0.355555555556	-8.53333333333
84	0.042	20.95	0.44347826087	0.355555555556	-9.96666666667
85	0.0425	-2.25	0.44347826087	-1.1	-17.1333333333
86	0.043	0.65	0.44347826087	-1.1	-7.1
87	0.0435	0.65	0.44347826087	1.81111111111	-9.96666666667
88	0.044	0.65	4.68260869565	1.81111111111	-8.53333333333
89	0.0445	-2.25	-2.38260869565	0.355555555556	-5.66666666667
90	0.045	7.9	1.85652173913	0.355555555556	-5.66666666667
91	0.0455	-3.7	0.44347826087	4.72222222222	-5.66666666667
92	0.046	-3.7	4.68260869565	0.355555555556	-2.8
93	0.0465	-2.25	3.26956521739	4.72222222222	-1.36666666667
94	0.047	-0.8	21.6391304348	1.81111111111	-1.36666666667
95	0.0475	-0.8	24.4652173913	1.81111111111	-1.36666666667
96	0.048	-8.05	8.92173913043	-1.1	0.0666666666667
97	0.0485	-0.8	14.5739130435	3.26666666667	-12.8333333333
98	0.049	0.65	15.9869565217	17.8222222222	-1.36666666667
99	0.0495	-0.8	14.5739130435	1.81111111111	-2.8
100	0.05	-0.8	15.9869565217	-1.1	-1.36666666667
101	0.0505	3.55	18.8130434783	1.81111111111	-1.36666666667
102	0.051	20.95	18.8130434783	-1.1	-9.96666666667
103	0.0515	0.65	17.4	-2.55555555556	-5.66666666667
104	0.052	2.1	14.5739130435	-9.83333333333	-4.23333333333
105	0.0525	0.65	15.9869565217	0.355555555556	-1.36666666667
106	0.053	0.65	28.7043478261	-1.1	1.5
107	0.0535	2.1	8.92173913043	3.26666666667	-1.36666666667
108	0.054	-9.5	7.50869565217	1.81111111111	0.0666666666667
109	0.0545	-0.8	4.68260869565	4.72222222222	-4.23333333333
110	0.055	-0.8	7.50869565217	9.08888888889	-1.36666666667
111	0.0555	0.65	6.09565217391	-2.55555555556	-2.8
112	0.056	-0.8	0.44347826087	-6.92222222222	-1.36666666667
113	0.0565	0.65	14.5739130435	-1.1	-2.8
114	0.057	-8.05	0.44347826087	3.26666666667	-2.8
115	0.0575	-10.95	-0.969565217391	-1.1	-1.36666666667
116	0.058	-0.8	-3.79565217391	4.72222222222	12.9666666667
117	0.0585	0.65	-5.20869565217	0.355555555556	-2.8
118	0.059	0.65	-5.20869565217	-1.1	-7.1
119	0.0595	2.1	-5.20869565217	0.355555555556	-5.66666666667
120	0.06	10.8	-6.62173913043	3.26666666667	-2.8
121	0.0605	-5.15	-3.79565217391	1.81111111111	-12.8333333333
122	0.061	-3.7	-2.38260869565	-5.46666666667	-9.96666666667
123	0.0615	-2.25	0.44347826087	-2.55555555556	-5.66666666667
124	0.062	-2.25	6.09565217391	1.81111111111	-5.66666666667
125	0.0625	-5.15	-2.38260869565	0.355555555556	-2.8
126	0.063	-6.6	4.68260869565	1.81111111111	-1.36666666667
127	0.0635	-5.15	3.26956521739	3.26666666667	-5.66666666667
128	0.064	-0.8	7.50869565217	6.17777777778	-2.8
129	0.0645	-0.8	3.26956521739	-5.46666666667	-4.23333333333
130	0.065	0.65	8.92173913043	-4.01111111111	-1.36666666667
131	0.0655	0.65	10.3347826087	0.355555555556	1.5
132	0.066	3.55	10.3347826087	0.355555555556	2.93333333333
133	0.0665	-5.15	10.3347826087	1.81111111111	2.93333333333
134	0.067	3.55	10.3347826087	9.08888888889	0.0666666666667
135	0.0675	0.65	10.3347826087	16.3666666667	-1.36666666667
136	0.068	3.55	1.85652173913	1.81111111111	1.5
137	0.0685	2.1	24.4652173913	0.355555555556	2.93333333333
138	0.069	-6.6	4.68260869565	0.355555555556	-1.36666666667
139	0.0695	-8.05	1.85652173913	4.72222222222	15.8333333333
140	0.07	2.1	0.44347826087	1.81111111111	17.2666666667
141	0.0705	0.65	0.44347826087	0.355555555556	-1.36666666667
142	0.071	0.65	-8.0347826087	-1.1	-2.8
143	0.0715	2.1	-10.8608695652	-1.1	-1.36666666667
144	0.072	5.0	-3.79565217391	3.26666666667	-2.8
145	0.0725	22.4	-6.62173913043	3.26666666667	-12.8333333333
146	0.073	3.55	-3.79565217391	3.26666666667	-14.2666666667
147	0.0735	2.1	-6.62173913043	-2.55555555556	-5.66666666667
148	0.074	0.65	-13.6869565217	1.81111111111	-4.23333333333
149	0.0745	2.1	-16.5130434783	0.355555555556	-5.66666666667
150	0.075	-5.15	-16.5130434783	0.355555555556	-2.8
151	0.0755	13.7	-10.8608695652	3.26666666667	-5.66666666667
152	0.076	-0.8	-10.8608695652	3.26666666667	-7.1
153	0.0765	0.65	-10.8608695652	-2.55555555556	-4.23333333333
154	0.077	-3.7	-15.1	1.81111111111	-7.1
155	0.0775	-0.8	-13.6869565217	1.81111111111	-5.66666666667
156	0.078	-3.7	-13.6869565217	3.26666666667	-4.23333333333
157	0.0785	-8.05	-10.8608695652	1.81111111111	11.5333333333
158	0.079	-3.7	-6.62173913043	1.81111111111	14.4
159	0.0795	0.65	-5.20869565217	1.81111111111	-2.8
160	0.08	-0.8	-12.2739130435	1.81111111111	-4.23333333333
161	0.0805	0.65	-15.1	-1.1	-1.36666666667
162	0.081	2.1	-0.969565217391	3.26666666667	-4.23333333333
163	0.0815	16.6	-0.969565217391	0.355555555556	-2.8
164	0.082	-0.8	3.26956521739	0.355555555556	7.23333333333
165	0.0825	-3.7	3.26956521739	14.9111111111	-7.1
166	0.083	-2.25	6.09565217391	0.355555555556	-1.36666666667
167	0.0835	-2.25	0.44347826087	1.81111111111	-1.36666666667
168	0.084	0.65	7.50869565217	1.81111111111	-1.36666666667
169	0.0845	0.65	7.50869565217	-1.1	-5.66666666667
170	0.085	-0.8	8.92173913043	1.81111111111	-1.36666666667
171	0.0855	-0.8	10.3347826087	9.08888888889	0.0666666666667
172	0.086	0.65	6.09565217391	-1.1	4.36666666667
173	0.0865	0.65	4.68260869565	0.355555555556	0.0666666666667
174	0.087	-0.8	6.09565217391	-1.1	0.0666666666667
175	0.0875	18.05	7.50869565217	0.355555555556	-4.23333333333
176	0.088	-9.5	6.09565217391	1.81111111111	0.0666666666667
177	0.0885	-0.8	8.92173913043	19.2777777778	-4.23333333333
178	0.089	-2.25	13.1608695652	0.355555555556	-8.53333333333
179	0.0895	0.65	24.4652173913	1.81111111111	-5.66666666667
180	0.09	-3.7	3.26956521739	-1.1	-7.1
181	0.0905	23.85	3.26956521739	1.81111111111	-8.53333333333
182	0.091	0.65	0.44347826087	3.26666666667	-8.53333333333
183	0.0915	2.1	-3.79565217391	17.8222222222	-4.23333333333
184	0.092	0.65	-8.0347826087	3.26666666667	-4.23333333333
185	0.0925	-0.8	-8.0347826087	-1.1	-4.23333333333
186	0.093	3.55	-5.20869565217	3.26666666667	-4.23333333333
187	0.0935	18.05	-5.20869565217	0.355555555556	-15.7
188	0.094	-0.8	-6.62173913043	0.355555555556	-9.96666666667
189	0.0945	-0.8	-5.20869565217	0.355555555556	-8.53333333333
190	0.095	-2.25	-2.38260869565	1.81111111111	-1.36666666667
191	0.0955	-2.25	-0.969565217391	1.81111111111	-4.23333333333
192	0.096	-5.15	-3.79565217391	-1.1	-2.8
193	0.0965	-13.85	-2.38260869565	1.81111111111	4.36666666667
194	0.097	-0.8	-5.20869565217	4.72222222222	-7.1
195	0.0975	-0.8	-2.38260869565	-6.92222222222	7.23333333333
196	0.098	-0.8	-0.969565217391	12.0	-1.36666666667
197	0.0985	-2.25	0.44347826087	4.72222222222	0.0666666666667
198	0.099	0.65	-2.38260869565	1.81111111111	1.5
199	0.0995	-8.05	3.26956521739	0.355555555556	-2.8
200	0.1	0.65	3.26956521739	-1.1	-1.36666666667
201	0.1005	0.65	6.09565217391	-2.55555555556	2.93333333333
202	0.101	0.65	4.68260869565	-8.37777777778	1.5
203	0.1015	0.65	17.4	0.355555555556	0.0666666666667
204	0.102	2.1	4.68260869565	0.355555555556	-1.36666666667
205	0.1025	-9.5	1.85652173913	0.355555555556	2.93333333333
206	0.103	-5.15	0.44347826087	1.81111111111	2.93333333333
207	0.1035	0.65	0.44347826087	1.81111111111	12.9666666667
208	0.104	0.65	0.44347826087	0.355555555556	-1.36666666667
209	0.1045	0.65	-2.38260869565	0.355555555556	-2.8
210	0.105	3.55	-8.0347826087	1.81111111111	-2.8
211	0.1055	-6.6	-2.38260869565	0.355555555556	-1.36666666667
212	0.106	-8.05	-5.20869565217	-2.55555555556	12.9666666667
213	0.1065	0.65	-8.0347826087	-4.01111111111	-1.36666666667
214	0.107	0.65	-6.62173913043	-6.92222222222	-1.36666666667
215	0.1075	0.65	-9.44782608696	1.81111111111	0.0666666666667
216	0.108	-2.25	-9.44782608696	3.26666666667	-1.36666666667
217	0.1085	-12.4	-12.2739130435	1.81111111111	0.0666666666667
218	0.109	-9.5	-12.2739130435	3.26666666667	7.23333333333
219	0.1095	-0.8	-12.2739130435	3.26666666667	-11.4
220	0.11	-2.25	-13.6869565217	16.3666666667	-12.8333333333
221	0.1105	-0.8	-23.5782608696	0.355555555556	-8.53333333333
222	0.111	3.55	-9.44782608696	1.81111111111	-5.66666666667
223	0.1115	2.1	-2.38260869565	0.355555555556	-4.23333333333
224	0.112	-8.05	-10.8608695652	-1.1	4.36666666667
225	0.1125	-0.8	-10.8608695652	0.355555555556	11.5333333333
226	0.113	-2.25	-9.44782608696	0.355555555556	-11.4
227	0.1135	-0.8	-15.1	0.355555555556	-1.36666666667
228	0.114	-2.25	-16.5130434783	1.81111111111	-1.36666666667
229	0.1145	-0.8	-10.8608695652	0.355555555556	-4.23333333333
230	0.115	16.6	-9.44782608696	0.355555555556	-7.1
231	0.1155	-0.8	-8.0347826087	-1.1	-9.96666666667
232	0.116	2.1	-5.20869565217	-11.2888888889	-11.4
233	0.1165	-0.8	-0.969565217391	-1.1	0.0666666666667
234	0.117	-0.8	15.9869565217	0.355555555556	-1.36666666667
235	0.1175	-0.8	8.92173913043	-1.1	0.0666666666667
236	0.118	-5.15	-0.969565217391	0.355555555556	1.5
237	0.1185	5.0	-5.20869565217	3.26666666667	5.8
238	0.119	2.1	-5.20869565217	3.26666666667	1.5
239	0.1195	0.65	-6.62173913043	0.355555555556	4.36666666667
240	0.12	0.65	-2.38260869565	0.355555555556	-1.36666666667
241	0.1205	-0.8	-6.62173913043	0.355555555556	1.5
242	0.121	-10.95	-6.62173913043	3.26666666667	1.5
243	0.1215	-5.15	-5.20869565217	0.355555555556	-1.36666666667
244	0.122	3.55	-8.0347826087	9.08888888889	-8.53333333333
245	0.1225	3.55	-12.2739130435	-5.46666666667	-4.23333333333
246	0.123	0.65	-12.2739130435	-6.92222222222	-7.1
247	0.1235	-0.8	-13.6869565217	-1.1	-2.8
248	0.124	-12.4	-16.5130434783	0.355555555556	-2.8
249	0.1245	-8.05	-19.3391304348	3.26666666667	8.66666666667
250	0.125	0.65	-16.5130434783	4.72222222222	5.8
251	0.1255	-0.8	-24.9913043478	0.355555555556	-7.1
252	0.126	-0.8	-34.8826086957	-1.1	-4.23333333333
253	0.1265	0.65	-32.0565217391	-1.1	-7.1
254	0.127	10.8	-22.1652173913	-1.1	-12.8333333333
255	0.1275	-5.15	-19.3391304348	-1.1	-11.4
256	0.128	-0.8	-17.9260869565	-1.1	7.23333333333
257	0.1285	-2.25	-16.5130434783	13.4555555556	-4.23333333333
258	0.129	-3.7	-23.5782608696	0.355555555556	-2.8
259	0.1295	-0.8	-22.1652173913	1.81111111111	-2.8
260	0.13	3.55	-20.752173913	1.81111111111	-4.23333333333
261	0.1305	19.5	-9.44782608696	1.81111111111	-12.8333333333
262	0.131	-0.8	-9.44782608696	-9.83333333333	-5.66666666667
263	0.1315	2.1	-5.20869565217	-6.92222222222	1.5
264	0.132	-0.8	-0.969565217391	1.81111111111	0.0666666666667
265	0.1325	-3.7	-3.79565217391	-1.1	2.93333333333
266	0.133	-13.85	0.44347826087	0.355555555556	1.5
267	0.1335	-3.7	-0.969565217391	1.81111111111	1.5
268	0.134	0.65	1.85652173913	4.72222222222	1.5
269	0.1345	-0.8	-0.969565217391	1.81111111111	1.5
270	0.135	-0.8	0.44347826087	1.81111111111	1.5
271	0.1355	-0.8	18.8130434783	0.355555555556	1.5
272	0.136	-2.25	20.2260869565	0.355555555556	0.0666666666667
273	0.1365	-8.05	0.44347826087	4.72222222222	2.93333333333
274	0.137	0.65	-2.38260869565	0.355555555556	2.93333333333
275	0.1375	0.65	-6.62173913043	1.81111111111	4.36666666667
276	0.138	-0.8	-10.8608695652	0.355555555556	0.0666666666667
277	0.1385	2.1	3.26956521739	1.81111111111	-1.36666666667
278	0.139	3.55	-12.2739130435	0.355555555556	-4.23333333333
279	0.1395	12.25	-6.62173913043	3.26666666667	-5.66666666667
280	0.14	0.65	-9.44782608696	6.17777777778	-8.53333333333
281	0.1405	0.65	-12.2739130435	3.26666666667	-2.8
282	0.141	2.1	-22.1652173913	1.81111111111	-5.66666666667
283	0.1415	2.1	-13.6869565217	0.355555555556	-7.1
284	0.142	3.55	-13.6869565217	0.355555555556	-5.66666666667
285	0.1425	2.1	-15.1	-1.1	-2.8
286	0.143	-0.8	-15.1	1.81111111111	-15.7
287	0.1435	0.65	-13.6869565217	-8.37777777778	-14.2666666667
288	0.144	-2.25	-16.5130434783	-8.37777777778	-5.66666666667
289	0.1445	3.55	6.09565217391	0.355555555556	-5.66666666667
290	0.145	-2.25	-10.8608695652	-1.1	-4.23333333333
291	0.1455	-15.3	-9.44782608696	-2.55555555556	-4.23333333333
292	0.146	-0.8	-9.44782608696	-1.1	-15.7
293	0.1465	-0.8	-8.0347826087	14.9111111111	-4.23333333333
294	0.147	0.65	-9.44782608696	-4.01111111111	-2.8
295	0.1475	0.65	-6.62173913043	-4.01111111111	-1.36666666667
296	0.148	2.1	-2.38260869565	0.355555555556	-2.8
297	0.1485	10.8	-2.38260869565	-2.55555555556	-1.36666666667
298	0.149	-5.15	-0.969565217391	1.81111111111	-7.1
299	0.1495	-3.7	-0.969565217391	-4.01111111111	-7.1
300	0.15	-2.25	-2.38260869565	0.355555555556	1.5
301	0.1505	-0.8	1.85652173913	1.81111111111	-1.36666666667
302	0.151	-2.25	3.26956521739	-1.1	0.0666666666667
303	0.1515	5.0	-0.969565217391	4.72222222222	0.0666666666667
304	0.152	-0.8	-0.969565217391	3.26666666667	-5.66666666667
305	0.1525	-2.25	0.44347826087	4.72222222222	0.0666666666667
306	0.153	-2.25	0.44347826087	-6.92222222222	-2.8
307	0.1535	-2.25	-5.20869565217	-5.46666666667	-2.8
308	0.154	-3.7	6.09565217391	1.81111111111	-2.8
309	0.1545	2.1	-5.20869565217	0.355555555556	-1.36666666667
310	0.155	-5.15	-6.62173913043	0.355555555556	-5.66666666667
311	0.1555	0.65	-5.20869565217	3.26666666667	0.0666666666667
312	0.156	-0.8	-3.79565217391	1.81111111111	-4.23333333333
313	0.1565	-0.8	-17.9260869565	-1.1	-4.23333333333
314	0.157	5.0	-8.0347826087	3.26666666667	-8.53333333333
315	0.1575	18.05	-10.8608695652	4.72222222222	-15.7
316	0.158	0.65	-10.8608695652	3.26666666667	-15.7
317	0.1585	0.65	-10.8608695652	-4.01111111111	-14.2666666667
318	0.159	-2.25	-10.8608695652	-8.37777777778	-7.1
319	0.1595	-0.8	-9.44782608696	1.81111111111	-7.1
320	0.16	-0.8	-12.2739130435	0.355555555556	-7.1
321	0.1605	-6.6	-13.6869565217	0.355555555556	-5.66666666667
322	0.161	-9.5	-13.6869565217	-1.1	7.23333333333
323	0.1615	0.65	-10.8608695652	-2.55555555556	-4.23333333333
324	0.162	-0.8	-10.8608695652	0.355555555556	-1.36666666667
325	0.1625	-0.8	-22.1652173913	1.81111111111	-2.8
326	0.163	-2.25	-16.5130434783	0.355555555556	-1.36666666667
327	0.1635	19.5	-6.62173913043	0.355555555556	-2.8
328	0.164	0.65	-0.969565217391	0.355555555556	-2.8
329	0.1645	0.65	-0.969565217391	-2.55555555556	-1.36666666667
330	0.165	-0.8	1.85652173913	6.17777777778	0.0666666666667
331	0.1655	-2.25	-5.20869565217	0.355555555556	0.0666666666667
332	0.166	0.65	-3.79565217391	1.81111111111	-2.8
333	0.1665	-2.25	4.68260869565	1.81111111111	-2.8
334	0.167	16.6	3.26956521739	0.355555555556	-4.23333333333
335	0.1675	-0.8	3.26956521739	-5.46666666667	-4.23333333333
336	0.168	-0.8	1.85652173913	-6.92222222222	-2.8
337	0.1685	-0.8	4.68260869565	-1.1	-4.23333333333
338	0.169	0.65	15.9869565217	1.81111111111	-1.36666666667
339	0.1695	-15.3	1.85652173913	-1.1	-1.36666666667
340	0.17	-2.25	-3.79565217391	1.81111111111	7.23333333333
341	0.1705	0.65	-3.79565217391	0.355555555556	5.8
342	0.171	-3.7	-5.20869565217	-2.55555555556	1.5
343	0.1715	2.1	-12.2739130435	3.26666666667	-1.36666666667
344	0.172	0.65	-10.8608695652	1.81111111111	-2.8
345	0.1725	3.55	-8.0347826087	3.26666666667	-2.8
346	0.173	-6.6	-10.8608695652	1.81111111111	-5.66666666667
347	0.1735	-0.8	-10.8608695652	-1.1	-12.8333333333
348	0.174	0.65	-10.8608695652	-5.46666666667	-7.1
349	0.1745	0.65	-8.0347826087	3.26666666667	-4.23333333333
350	0.175	-0.8	0.44347826087	1.81111111111	-5.66666666667
351	0.1755	-5.15	-15.1	4.72222222222	-7.1
352	0.176	0.65	-13.6869565217	1.81111111111	-4.23333333333
353	0.1765	-0.8	-15.1	-4.01111111111	-12.8333333333
354	0.177	-0.8	-13.6869565217	-2.55555555556	-12.8333333333
355	0.1775	-0.8	-10.8608695652	3.26666666667	-4.23333333333
356	0.178	-3.7	-16.5130434783	0.355555555556	-4.23333333333
357	0.1785	-2.25	-13.6869565217	1.81111111111	-2.8
358	0.179	16.6	-13.6869565217	0.355555555556	-7.1
359	0.1795	-5.15	-12.2739130435	3.26666666667	-12.8333333333
360	0.18	-0.8	-9.44782608696	-11.2888888889	-4.23333333333
361	0.1805	-0.8	-3.79565217391	0.355555555556	0.0666666666667
362	0.181	-2.25	3.26956521739	1.81111111111	-4.23333333333
363	0.1815	-0.8	-10.8608695652	0.355555555556	-1.36666666667
364	0.182	-5.15	-9.44782608696	-1.1	0.0666666666667
365	0.1825	0.65	-2.38260869565	0.355555555556	-7.1
366	0.183	-0.8	-2.38260869565	1.81111111111	-4.23333333333
367	0.1835	-0.8	-0.969565217391	-2.55555555556	-1.36666666667
368	0.184	-3.7	-8.0347826087	1.81111111111	-1.36666666667
369	0.1845	-2.25	-3.79565217391	1.81111111111	1.5
370	0.185	-10.95	-5.20869565217	1.81111111111	2.93333333333
371	0.1855	-10.95	-5.20869565217	3.26666666667	2.93333333333
372	0.186	0.65	-2.38260869565	16.3666666667	-2.8
373	0.1865	0.65	1.85652173913	0.355555555556	-1.36666666667
374	0.187	-0.8	10.3347826087	3.26666666667	-2.8
375	0.1875	-0.8	-0.969565217391	3.26666666667	-2.8
376	0.188	5.0	-5.20869565217	1.81111111111	-1.36666666667
377	0.1885	-8.05	-6.62173913043	1.81111111111	0.0666666666667
378	0.189	0.65	-9.44782608696	-12.7444444444	-4.23333333333
379	0.1895	0.65	-10.8608695652	-8.37777777778	-8.53333333333
380	0.19	-0.8	-5.20869565217	0.355555555556	-4.23333333333
381	0.1905	-0.8	-20.752173913	1.81111111111	-4.23333333333
382	0.191	-0.8	-13.6869565217	-1.1	-5.66666666667
383	0.1915	18.05	-16.5130434783	-1.1	-8.53333333333
384	0.192	-0.8	-16.5130434783	-8.37777777778	-7.1
385	0.1925	0.65	-16.5130434783	-4.01111111111	-9.96666666667
386	0.193	-2.25	-17.9260869565	-4.01111111111	-7.1
387	0.1935	-5.15	-9.44782608696	0.355555555556	-7.1
388	0.194	-3.7	-19.3391304348	-1.1	-7.1
389	0.1945	-10.95	-13.6869565217	0.355555555556	-1.36666666667
390	0.195	-2.25	-13.6869565217	4.72222222222	-8.53333333333
391	0.1955	-2.25	-13.6869565217	10.5444444444	-4.23333333333
392	0.196	-3.7	-12.2739130435	-4.01111111111	-2.8
393	0.1965	-0.8	1.85652173913	0.355555555556	-2.8
394	0.197	-2.25	-17.9260869565	-1.1	-2.8
395	0.1975	-12.4	-8.0347826087	-1.1	-7.1
396	0.198	-2.25	-6.62173913043	3.26666666667	-8.53333333333
397	0.1985	-0.8	-2.38260869565	14.9111111111	-2.8
398	0.199	-0.8	-0.969565217391	6.17777777778	-1.36666666667
399	0.1995	-0.8	-8.0347826087	0.355555555556	-2.8
400	0.2	0.65	0.44347826087	1.81111111111	-1.36666666667
401	0.2005	2.1	3.26956521739	0.355555555556	0.0666666666667
402	0.201	-8.05	-0.969565217391	6.17777777778	-9.96666666667
403	0.2015	-0.8	1.85652173913	20.7333333333	-1.36666666667
404	0.202	-2.25	-2.38260869565	1.81111111111	0.0666666666667
405	0.2025	-0.8	-2.38260869565	-4.01111111111	-4.23333333333
406	0.203	-0.8	6.09565217391	0.355555555556	-1.36666666667
407	0.2035	-5.15	-5.20869565217	0.355555555556	0.0666666666667
408	0.204	-10.95	-6.62173913043	4.72222222222	-12.8333333333
409	0.2045	-3.7	-9.44782608696	3.26666666667	-9.96666666667
410	0.205	0.65	-12.2739130435	4.72222222222	-1.36666666667
411	0.2055	-2.25	-10.8608695652	14.9111111111	-1.36666666667
412	0.206	-2.25	-16.5130434783	1.81111111111	-2.8
413	0.2065	-0.8	-16.5130434783	1.81111111111	-5.66666666667
414	0.207	22.4	-16.5130434783	0.355555555556	-15.7
415	0.2075	-2.25	-20.752173913	-1.1	-11.4
416	0.208	-2.25	-22.1652173913	-6.92222222222	-5.66666666667
417	0.2085	-0.8	-17.9260869565	13.4555555556	-7.1
418	0.209	-0.8	-22.1652173913	0.355555555556	-11.4
419	0.2095	2.1	-29.2304347826	1.81111111111	-11.4
420	0.21	3.55	-16.5130434783	0.355555555556	-7.1
421	0.2105	-2.25	-15.1	-1.1	1.5
422	0.211	-0.8	-12.2739130435	3.26666666667	-7.1
423	0.2115	-3.7	-12.2739130435	7.63333333333	-4.23333333333
424	0.212	-3.7	-9.44782608696	0.355555555556	-4.23333333333
425	0.2125	-0.8	0.44347826087	-1.1	-2.8
426	0.213	0.65	-8.0347826087	0.355555555556	0.0666666666667
427	0.2135	-12.4	-8.0347826087	0.355555555556	12.9666666667
428	0.214	-0.8	-8.0347826087	-6.92222222222	-1.36666666667
429	0.2145	-0.8	-5.20869565217	-8.37777777778	-7.1
430	0.215	-0.8	-0.969565217391	0.355555555556	1.5
431	0.2155	0.65	-8.0347826087	1.81111111111	-1.36666666667
432	0.216	3.55	0.44347826087	3.26666666667	-1.36666666667
433	0.2165	22.4	3.26956521739	4.72222222222	-7.1
434	0.217	-5.15	3.26956521739	0.355555555556	-2.8
435	0.2175	-2.25	1.85652173913	-1.1	14.4
436	0.218	-2.25	3.26956521739	3.26666666667	0.0666666666667
437	0.2185	-2.25	-3.79565217391	1.81111111111	4.36666666667
438	0.219	3.55	-6.62173913043	1.81111111111	4.36666666667
439	0.2195	3.55	4.68260869565	1.81111111111	1.5
440	0.22	0.65	3.26956521739	7.63333333333	-2.8
441	0.2205	0.65	1.85652173913	14.9111111111	1.5
442	0.221	-0.8	4.68260869565	6.17777777778	-4.23333333333
443	0.2215	0.65	-2.38260869565	4.72222222222	-4.23333333333
444	0.222	2.1	-0.969565217391	0.355555555556	-5.66666666667
445	0.2225	-5.15	-5.20869565217	1.81111111111	-7.1
446	0.223	-8.05	-5.20869565217	1.81111111111	-4.23333333333
447	0.2235	2.1	-8.0347826087	3.26666666667	12.9666666667
448	0.224	0.65	-6.62173913043	17.8222222222	-7.1
449	0.2245	-0.8	-16.5130434783	3.26666666667	-4.23333333333
450	0.225	0.65	-16.5130434783	3.26666666667	-2.8
451	0.2255	0.65	-6.62173913043	3.26666666667	-5.66666666667
452	0.226	16.6	-8.0347826087	3.26666666667	-12.8333333333
453	0.2265	-2.25	-9.44782608696	-12.7444444444	-8.53333333333
454	0.227	-0.8	-12.2739130435	-5.46666666667	-2.8
455	0.2275	0.65	-19.3391304348	-1.1	-2.8
456	0.228	-0.8	-5.20869565217	-1.1	-2.8
457	0.2285	10.8	-5.20869565217	-1.1	-2.8
458	0.229	3.55	-3.79565217391	0.355555555556	-4.23333333333
459	0.2295	-0.8	-0.969565217391	3.26666666667	-4.23333333333
460	0.23	-2.25	1.85652173913	4.72222222222	0.0666666666667
461	0.2305	2.1	-8.0347826087	0.355555555556	1.5
462	0.231	0.65	4.68260869565	0.355555555556	0.0666666666667
463	0.2315	0.65	8.92173913043	0.355555555556	-1.36666666667
464	0.232	-8.05	10.3347826087	1.81111111111	-8.53333333333
465	0.2325	0.65	10.3347826087	4.72222222222	-11.4
466	0.233	0.65	14.5739130435	19.2777777778	-2.8
467	0.2335	0.65	10.3347826087	-1.1	0.0666666666667
468	0.234	2.1	8.92173913043	3.26666666667	0.0666666666667
469	0.2345	5.0	15.9869565217	1.81111111111	-1.36666666667
470	0.235	9.35	13.1608695652	0.355555555556	-9.96666666667
471	0.2355	-5.15	13.1608695652	0.355555555556	-5.66666666667
472	0.236	-2.25	13.1608695652	13.4555555556	-1.36666666667
473	0.2365	0.65	13.1608695652	0.355555555556	0.0666666666667
474	0.237	-0.8	7.50869565217	0.355555555556	-4.23333333333
475	0.2375	3.55	4.68260869565	3.26666666667	-2.8
476	0.238	18.05	8.92173913043	3.26666666667	-4.23333333333
477	0.2385	-2.25	10.3347826087	0.355555555556	-8.53333333333
478	0.239	-0.8	10.3347826087	0.355555555556	-7.1
479	0.2395	0.65	8.92173913043	-5.46666666667	-5.66666666667
480	0.24	-0.8	1.85652173913	-5.46666666667	-1.36666666667
481	0.2405	-0.8	21.6391304348	3.26666666667	-4.23333333333
482	0.241	-12.4	3.26956521739	0.355555555556	-2.8
483	0.2415	-10.95	3.26956521739	0.355555555556	8.66666666667
484	0.242	-0.8	0.44347826087	-11.2888888889	-7.1
485	0.2425	-2.25	0.44347826087	-6.92222222222	-9.96666666667
486	0.243	-5.15	3.26956521739	0.355555555556	-2.8
487	0.2435	-3.7	-6.62173913043	1.81111111111	-4.23333333333
488	0.244	-6.6	-5.20869565217	-1.1	-2.8
489	0.2445	12.25	-2.38260869565	0.355555555556	-7.1
490	0.245	-0.8	-3.79565217391	0.355555555556	-8.53333333333
491	0.2455	-0.8	-5.20869565217	-8.37777777778	-4.23333333333
492	0.246	-2.25	-0.969565217391	0.355555555556	-1.36666666667
493	0.2465	0.65	4.68260869565	0.355555555556	-1.36666666667
494	0.247	-3.7	3.26956521739	1.81111111111	1.5
495	0.2475	-8.05	4.68260869565	3.26666666667	2.93333333333
496	0.248	-0.8	6.09565217391	4.72222222222	1.5
497	0.2485	-3.7	7.50869565217	0.355555555556	-7.1
498	0.249	2.1	3.26956521739	1.81111111111	-2.8
499	0.2495	0.65	6.09565217391	-1.1	-1.36666666667
500	0.25	2.1	15.9869565217	-1.1	-1.36666666667
501	0.2505	5.0	17.4	0.355555555556	-2.8
502	0.251	0.65	17.4	4.72222222222	15.8333333333
503	0.2515	-3.7	17.4	19.2777777778	-2.8
504	0.252	-0.8	17.4	20.7333333333	-1.36666666667
505	0.2525	2.1	6.09565217391	0.355555555556	-2.8
506	0.253	5.0	18.8130434783	0.355555555556	-2.8
507	0.2535	18.05	18.8130434783	-1.1	-12.8333333333
508	0.254	-0.8	18.8130434783	0.355555555556	-12.8333333333
509	0.2545	0.65	18.8130434783	-4.01111111111	-4.23333333333
510	0.255	-0.8	20.2260869565	0.355555555556	-1.36666666667
511	0.2555	0.65	28.7043478261	3.26666666667	0.0666666666667
512	0.256	-2.25	6.09565217391	-1.1	-2.8
513	0.2565	0.65	7.50869565217	0.355555555556	-5.66666666667
514	0.257	-0.8	7.50869565217	0.355555555556	-9.96666666667
515	0.2575	0.65	6.09565217391	14.9111111111	-2.8
516	0.258	-0.8	0.44347826087	20.7333333333	-2.8
517	0.2585	0.65	-8.0347826087	0.355555555556	-2.8
518	0.259	2.1	1.85652173913	0.355555555556	-4.23333333333
519	0.2595	19.5	6.09565217391	0.355555555556	-11.4
520	0.26	-2.25	4.68260869565	0.355555555556	11.5333333333
521	0.2605	-2.25	4.68260869565	-5.46666666667	-2.8
522	0.261	-2.25	7.50869565217	-8.37777777778	-1.36666666667
523	0.2615	0.65	25.8782608696	0.355555555556	-4.23333333333
524	0.262	-10.95	4.68260869565	-1.1	-5.66666666667
525	0.2625	18.05	6.09565217391	-1.1	-2.8
526	0.263	-0.8	6.09565217391	1.81111111111	-8.53333333333
527	0.2635	-0.8	8.92173913043	-5.46666666667	0.0666666666667
528	0.264	0.65	10.3347826087	-8.37777777778	-2.8
529	0.2645	0.65	21.6391304348	3.26666666667	0.0666666666667
530	0.265	-3.7	10.3347826087	-1.1	-2.8
531	0.2655	15.15	10.3347826087	1.81111111111	-1.36666666667
532	0.266	-2.25	13.1608695652	0.355555555556	-4.23333333333
533	0.2665	-0.8	13.1608695652	-1.1	0.0666666666667
534	0.267	-2.25	8.92173913043	1.81111111111	-1.36666666667
535	0.2675	0.65	25.8782608696	3.26666666667	-1.36666666667
536	0.268	-2.25	17.4	0.355555555556	0.0666666666667
537	0.2685	-6.6	17.4	0.355555555556	-2.8
538	0.269	-0.8	15.9869565217	-1.1	-1.36666666667
539	0.2695	-0.8	17.4	17.8222222222	0.0666666666667
540	0.27	-0.8	14.5739130435	19.2777777778	-1.36666666667
541	0.2705	0.65	7.50869565217	1.81111111111	0.0666666666667
542	0.271	0.65	10.3347826087	-1.1	-1.36666666667
543	0.2715	19.5	7.50869565217	1.81111111111	-9.96666666667
544	0.272	0.65	10.3347826087	-1.1	17.2666666667
545	0.2725	2.1	4.68260869565	-6.92222222222	-1.36666666667
546	0.273	-0.8	3.26956521739	-6.92222222222	-4.23333333333
547	0.2735	-3.7	-9.44782608696	1.81111111111	-1.36666666667
548	0.274	-12.4	-2.38260869565	1.81111111111	-7.1
549	0.2745	18.05	-3.79565217391	1.81111111111	-7.1
550	0.275	-0.8	-3.79565217391	-9.83333333333	-4.23333333333
551	0.2755	-2.25	-3.79565217391	0.355555555556	-4.23333333333
552	0.276	3.55	-10.8608695652	-1.1	-5.66666666667
553	0.2765	0.65	-2.38260869565	1.81111111111	-5.66666666667
554	0.277	2.1	0.44347826087	0.355555555556	-2.8
555	0.2775	-5.15	-5.20869565217	0.355555555556	-1.36666666667
556	0.278	-0.8	-0.969565217391	-2.55555555556	-8.53333333333
557	0.2785	-0.8	-0.969565217391	14.9111111111	-1.36666666667
558	0.279	0.65	-0.969565217391	3.26666666667	0.0666666666667
559	0.2795	-2.25	6.09565217391	0.355555555556	-2.8
560	0.28	-5.15	-0.969565217391	1.81111111111	1.5
561	0.2805	-10.95	0.44347826087	4.72222222222	14.4
562	0.281	0.65	0.44347826087	4.72222222222	14.4
563	0.2815	-0.8	1.85652173913	19.2777777778	-2.8
564	0.282	0.65	3.26956521739	0.355555555556	-1.36666666667
565	0.2825	-0.8	-6.62173913043	1.81111111111	-4.23333333333
566	0.283	-13.85	-0.969565217391	1.81111111111	-4.23333333333
567	0.2835	18.05	1.85652173913	-1.1	-1.36666666667
568	0.284	0.65	0.44347826087	-6.92222222222	-4.23333333333
569	0.2845	0.65	1.85652173913	0.355555555556	-1.36666666667
570	0.285	-2.25	6.09565217391	4.72222222222	-2.8
571	0.2855	0.65	8.92173913043	0.355555555556	0.0666666666667
572	0.286	-5.15	3.26956521739	0.355555555556	-1.36666666667
573	0.2865	12.25	0.44347826087	1.81111111111	-8.53333333333
574	0.287	2.1	6.09565217391	-1.1	-12.8333333333
575	0.2875	0.65	4.68260869565	-5.46666666667	-1.36666666667
576	0.288	2.1	4.68260869565	0.355555555556	-1.36666666667
577	0.2885	0.65	8.92173913043	1.81111111111	-1.36666666667
578	0.289	-0.8	4.68260869565	0.355555555556	0.0666666666667
579	0.2895	-8.05	1.85652173913	1.81111111111	1.5
580	0.29	2.1	-0.969565217391	4.72222222222	11.5333333333
581	0.2905	0.65	-2.38260869565	19.2777777778	-1.36666666667
582	0.291	0.65	-12.2739130435	0.355555555556	-2.8
583	0.2915	2.1	-12.2739130435	0.355555555556	-5.66666666667
584	0.292	5.0	-5.20869565217	1.81111111111	-1.36666666667
585	0.2925	12.25	-5.20869565217	0.355555555556	-9.96666666667
586	0.293	0.65	-5.20869565217	1.81111111111	-4.23333333333
587	0.2935	0.65	-6.62173913043	6.17777777778	-11.4
588	0.294	0.65	-6.62173913043	-5.46666666667	-2.8
589	0.2945	0.65	-0.969565217391	1.81111111111	-1.36666666667
590	0.295	3.55	4.68260869565	1.81111111111	-1.36666666667
591	0.2955	3.55	-5.20869565217	0.355555555556	-2.8
592	0.296	-2.25	-6.62173913043	-4.01111111111	-8.53333333333
593	0.2965	0.65	-3.79565217391	-4.01111111111	-8.53333333333
594	0.297	3.55	-0.969565217391	-5.46666666667	0.0666666666667
595	0.2975	0.65	6.09565217391	-1.1	-1.36666666667
596	0.298	2.1	7.50869565217	-1.1	0.0666666666667
597	0.2985	7.9	0.44347826087	-1.1	1.5
598	0.299	0.65	0.44347826087	-11.2888888889	-5.66666666667
599	0.2995	2.1	4.68260869565	1.81111111111	-1.36666666667
600	0.3	2.1	3.26956521739	0.355555555556	-1.36666666667
601	0.3005	-2.25	6.09565217391	1.81111111111	-1.36666666667
602	0.301	-8.05	1.85652173913	0.355555555556	1.5
603	0.3015	0.65	4.68260869565	4.72222222222	12.9666666667
604	0.302	0.65	3.26956521739	6.17777777778	-1.36666666667
605	0.3025	2.1	3.26956521739	17.8222222222	-2.8
606	0.303	2.1	4.68260869565	3.26666666667	-1.36666666667
607	0.3035	-0.8	-8.0347826087	3.26666666667	-2.8
608	0.304	5.0	-2.38260869565	4.72222222222	-4.23333333333
609	0.3045	15.15	-0.969565217391	4.72222222222	-1.36666666667
610	0.305	-3.7	-5.20869565217	3.26666666667	-12.8333333333
611	0.3055	-0.8	-3.79565217391	-6.92222222222	-5.66666666667
612	0.306	2.1	-2.38260869565	1.81111111111	-2.8
613	0.3065	0.65	7.50869565217	4.72222222222	-4.23333333333
614	0.307	-10.95	-10.8608695652	0.355555555556	-2.8
615	0.3075	-6.6	-12.2739130435	0.355555555556	-4.23333333333
616	0.308	-0.8	-13.6869565217	4.72222222222	-7.1
617	0.3085	2.1	-17.9260869565	-1.1	-5.66666666667
618	0.309	2.1	-27.8173913043	3.26666666667	-4.23333333333
619	0.3095	5.0	-24.9913043478	1.81111111111	-5.66666666667
620	0.31	2.1	-17.9260869565	0.355555555556	-5.66666666667
621	0.3105	-3.7	-17.9260869565	-1.1	0.0666666666667
622	0.311	2.1	-19.3391304348	-2.55555555556	1.5
623	0.3115	0.65	-17.9260869565	14.9111111111	-11.4
624	0.312	-2.25	-30.6434782609	0.355555555556	-8.53333333333
625	0.3125	0.65	-24.9913043478	1.81111111111	-8.53333333333
626	0.313	3.55	-17.9260869565	0.355555555556	-8.53333333333
627	0.3135	15.15	-16.5130434783	3.26666666667	-4.23333333333
628	0.314	-2.25	-17.9260869565	-8.37777777778	-1.36666666667
629	0.3145	-0.8	-16.5130434783	3.26666666667	-1.36666666667
630	0.315	-0.8	-23.5782608696	1.81111111111	-1.36666666667
631	0.3155	2.1	-15.1	3.26666666667	-2.8
632	0.316	-5.15	-10.8608695652	3.26666666667	-7.1
633	0.3165	13.7	-12.2739130435	-1.1	-8.53333333333
634	0.317	-2.25	-8.0347826087	0.355555555556	-14.2666666667
635	0.3175	2.1	-10.8608695652	14.9111111111	-4.23333333333
636	0.318	-0.8	-8.0347826087	17.8222222222	-1.36666666667
637	0.3185	3.55	-13.6869565217	-1.1	-2.8
638	0.319	3.55	-5.20869565217	0.355555555556	-2.8
639	0.3195	18.05	-6.62173913043	0.355555555556	-1.36666666667
640	0.32	-2.25	-5.20869565217	1.81111111111	-5.66666666667
641	0.3205	0.65	-3.79565217391	-1.1	-2.8
642	0.321	-0.8	-3.79565217391	0.355555555556	4.36666666667
643	0.3215	3.55	-8.0347826087	0.355555555556	8.66666666667
644	0.322	2.1	-8.0347826087	1.81111111111	7.23333333333
645	0.3225	18.05	-6.62173913043	0.355555555556	-1.36666666667
646	0.323	0.65	-8.0347826087	-4.01111111111	0.0666666666667
647	0.3235	-2.25	-13.6869565217	-11.2888888889	4.36666666667
648	0.324	-0.8	-9.44782608696	-6.92222222222	4.36666666667
649	0.3245	-3.7	0.44347826087	-1.1	4.36666666667
650	0.325	-2.25	-10.8608695652	0.355555555556	7.23333333333
651	0.3255	-8.05	-8.0347826087	0.355555555556	5.8
652	0.326	13.7	-5.20869565217	-1.1	5.8
653	0.3265	-2.25	-2.38260869565	-8.37777777778	8.66666666667
654	0.327	-3.7	-5.20869565217	-12.7444444444	12.9666666667
655	0.3275	-5.15	4.68260869565	-8.37777777778	14.4
656	0.328	-0.8	15.9869565217	1.81111111111	14.4
657	0.3285	-16.75	-0.969565217391	-2.55555555556	14.4
658	0.329	-8.05	1.85652173913	1.81111111111	14.4
659	0.3295	-5.15	3.26956521739	4.72222222222	-4.23333333333
660	0.33	-0.8	1.85652173913	-6.92222222222	-5.66666666667
661	0.3305	-5.15	4.68260869565	0.355555555556	-1.36666666667
662	0.331	-2.25	24.4652173913	0.355555555556	-7.1
663	0.3315	-5.15	24.4652173913	1.81111111111	-4.23333333333
664	0.332	-10.95	8.92173913043	0.355555555556	7.23333333333
665	0.3325	-5.15	10.3347826087	1.81111111111	-2.8
666	0.333	-0.8	15.9869565217	0.355555555556	17.2666666667
667	0.3335	-2.25	15.9869565217	0.355555555556	1.5
668	0.334	-0.8	35.7695652174	0.355555555556	2.93333333333
669	0.3345	-3.7	14.5739130435	0.355555555556	-1.36666666667
670	0.335	-16.75	23.052173913	1.81111111111	-5.66666666667
671	0.3355	-3.7	23.052173913	1.81111111111	-1.36666666667
672	0.336	-2.25	24.4652173913	1.81111111111	4.36666666667
673	0.3365	0.65	24.4652173913	-6.92222222222	-9.96666666667
674	0.337	-0.8	27.2913043478	0.355555555556	-12.8333333333
675	0.3375	-8.05	28.7043478261	3.26666666667	-12.8333333333
676	0.338	-16.75	25.8782608696	0.355555555556	-12.8333333333
677	0.3385	-9.5	24.4652173913	3.26666666667	-21.4333333333
678	0.339	-5.15	23.052173913	-8.37777777778	-9.96666666667
679	0.3395	-5.15	23.052173913	9.08888888889	-12.8333333333
680	0.34	-2.25	18.8130434783	0.355555555556	-12.8333333333
681	0.3405	-3.7	11.747826087	1.81111111111	-9.96666666667
682	0.341	-2.25	4.68260869565	0.355555555556	-8.53333333333
683	0.3415	15.15	13.1608695652	0.355555555556	-17.1333333333
684	0.342	-5.15	10.3347826087	0.355555555556	-4.23333333333
685	0.3425	-3.7	13.1608695652	1.81111111111	0.0666666666667
686	0.343	-5.15	0.44347826087	0.355555555556	-12.8333333333
687	0.3435	-3.7	18.8130434783	0.355555555556	-8.53333333333
688	0.344	-5.15	7.50869565217	0.355555555556	-8.53333333333
689	0.3445	-13.85	6.09565217391	0.355555555556	-5.66666666667
690	0.345	-3.7	6.09565217391	3.26666666667	7.23333333333
691	0.3455	-5.15	3.26956521739	14.9111111111	-8.53333333333
692	0.346	-3.7	6.09565217391	9.08888888889	-7.1
693	0.3465	-3.7	8.92173913043	0.355555555556	-5.66666666667
694	0.347	2.1	14.5739130435	-1.1	-5.66666666667
695	0.3475	3.55	14.5739130435	0.355555555556	-8.53333333333
696	0.348	-10.95	14.5739130435	1.81111111111	-2.8
697	0.3485	-2.25	18.8130434783	10.5444444444	-1.36666666667
698	0.349	0.65	21.6391304348	14.9111111111	-2.8
699	0.3495	-0.8	18.8130434783	4.72222222222	0.0666666666667
700	0.35	-8.05	21.6391304348	1.81111111111	0.0666666666667
701	0.3505	-2.25	21.6391304348	0.355555555556	2.93333333333
702	0.351	-9.5	21.6391304348	3.26666666667	15.8333333333
703	0.3515	-2.25	20.2260869565	4.72222222222	0.0666666666667
704	0.352	-0.8	17.4	1.81111111111	-1.36666666667
705	0.3525	-0.8	4.68260869565	-1.1	0.0666666666667
706	0.353	0.65	1.85652173913	1.81111111111	0.0666666666667
707	0.3535	12.25	13.1608695652	1.81111111111	0.0666666666667
708	0.354	-5.15	6.09565217391	0.355555555556	-4.23333333333
709	0.3545	-2.25	10.3347826087	4.72222222222	-8.53333333333
710	0.355	-0.8	7.50869565217	-4.01111111111	-1.36666666667
711	0.3555	-2.25	3.26956521739	3.26666666667	-4.23333333333
712	0.356	0.65	0.44347826087	1.81111111111	-4.23333333333
713	0.3565	16.6	6.09565217391	-1.1	-2.8
714	0.357	-9.5	4.68260869565	0.355555555556	11.5333333333
715	0.3575	0.65	4.68260869565	-1.1	4.36666666667
716	0.358	-0.8	6.09565217391	-1.1	-4.23333333333
717	0.3585	-0.8	14.5739130435	-1.1	-4.23333333333
718	0.359	-0.8	0.44347826087	0.355555555556	-1.36666666667
719	0.3595	-5.15	3.26956521739	1.81111111111	-5.66666666667
720	0.36	16.6	1.85652173913	0.355555555556	-7.1
721	0.3605	-3.7	4.68260869565	-8.37777777778	-7.1
722	0.361	-0.8	7.50869565217	-8.37777777778	-5.66666666667
723	0.3615	0.65	13.1608695652	0.355555555556	-2.8
724	0.362	-2.25	14.5739130435	-1.1	-2.8
725	0.3625	-15.3	7.50869565217	0.355555555556	-2.8
726	0.363	0.65	10.3347826087	3.26666666667	1.5
727	0.3635	0.65	11.747826087	1.81111111111	-8.53333333333
728	0.364	0.65	14.5739130435	-2.55555555556	-9.96666666667
729	0.3645	0.65	14.5739130435	-8.37777777778	-1.36666666667
730	0.365	0.65	34.3565217391	0.355555555556	-1.36666666667
731	0.3655	-13.85	20.2260869565	-1.1	2.93333333333
732	0.366	-9.5	20.2260869565	1.81111111111	1.5
733	0.3665	2.1	23.052173913	0.355555555556	11.5333333333
734	0.367	0.65	23.052173913	17.8222222222	-1.36666666667
735	0.3675	0.65	10.3347826087	1.81111111111	-1.36666666667
736	0.368	0.65	31.5304347826	1.81111111111	-1.36666666667
737	0.3685	0.65	37.1826086957	0.355555555556	-1.36666666667
738	0.369	-10.95	21.6391304348	0.355555555556	2.93333333333
739	0.3695	0.65	20.2260869565	4.72222222222	15.8333333333
740	0.37	-0.8	21.6391304348	4.72222222222	-1.36666666667
741	0.3705	0.65	17.4	-4.01111111111	-1.36666666667
742	0.371	3.55	20.2260869565	0.355555555556	-2.8
743	0.3715	3.55	27.2913043478	1.81111111111	-1.36666666667
744	0.372	0.65	20.2260869565	-1.1	-1.36666666667
745	0.3725	-8.05	14.5739130435	0.355555555556	11.5333333333
746	0.373	-0.8	14.5739130435	0.355555555556	4.36666666667
747	0.3735	0.65	15.9869565217	-2.55555555556	-5.66666666667
748	0.374	-0.8	13.1608695652	-1.1	-7.1
749	0.3745	-2.25	0.44347826087	1.81111111111	-7.1
750	0.375	12.25	6.09565217391	-2.55555555556	-2.8
751	0.3755	-10.95	6.09565217391	3.26666666667	-1.36666666667
752	0.376	-2.25	6.09565217391	3.26666666667	1.5
753	0.3765	-3.7	7.50869565217	0.355555555556	-7.1
754	0.377	-2.25	3.26956521739	1.81111111111	-4.23333333333
755	0.3775	-0.8	25.8782608696	0.355555555556	-5.66666666667
756	0.378	-16.75	6.09565217391	0.355555555556	-2.8
757	0.3785	-2.25	3.26956521739	0.355555555556	-5.66666666667
758	0.379	-2.25	6.09565217391	-1.1	-8.53333333333
759	0.3795	-0.8	4.68260869565	17.8222222222	-2.8
760	0.38	-0.8	-8.0347826087	1.81111111111	-1.36666666667
761	0.3805	-0.8	-2.38260869565	-1.1	-1.36666666667
762	0.381	-0.8	7.50869565217	0.355555555556	-1.36666666667
763	0.3815	-0.8	10.3347826087	1.81111111111	4.36666666667
764	0.382	-0.8	8.92173913043	-6.92222222222	0.0666666666667
765	0.3825	-5.15	15.9869565217	-8.37777777778	0.0666666666667
766	0.383	2.1	15.9869565217	-4.01111111111	-1.36666666667
767	0.3835	-0.8	28.7043478261	0.355555555556	0.0666666666667
768	0.384	-2.25	13.1608695652	0.355555555556	-1.36666666667
769	0.3845	-6.6	15.9869565217	6.17777777778	1.5
770	0.385	-0.8	17.4	3.26666666667	-17.1333333333
771	0.3855	-3.7	17.4	-8.37777777778	-9.96666666667
772	0.386	0.65	21.6391304348	-1.1	-1.36666666667
773	0.3865	0.65	34.3565217391	0.355555555556	-4.23333333333
774	0.387	-2.25	31.5304347826	0.355555555556	-1.36666666667
775	0.3875	-10.95	10.3347826087	1.81111111111	14.4
776	0.388	0.65	15.9869565217	3.26666666667	-2.8
777	0.3885	0.65	15.9869565217	14.9111111111	-1.36666666667
778	0.389	0.65	13.1608695652	1.81111111111	-1.36666666667
779	0.3895	2.1	27.2913043478	1.81111111111	-5.66666666667
780	0.39	-0.8	6.09565217391	-1.1	-1.36666666667
781	0.3905	-12.4	6.09565217391	0.355555555556	0.0666666666667
782	0.391	0.65	3.26956521739	3.26666666667	-14.2666666667
783	0.3915	-0.8	1.85652173913	16.3666666667	-4.23333333333
784	0.392	-0.8	3.26956521739	19.2777777778	-4.23333333333
785	0.3925	0.65	-6.62173913043	0.355555555556	-2.8
786	0.393	-3.7	1.85652173913	1.81111111111	-5.66666666667
787	0.3935	12.25	0.44347826087	0.355555555556	-7.1
788	0.394	-5.15	3.26956521739	-2.55555555556	-5.66666666667
789	0.3945	-3.7	3.26956521739	-1.1	-5.66666666667
790	0.395	-2.25	0.44347826087	0.355555555556	-4.23333333333
791	0.3955	-2.25	15.9869565217	0.355555555556	-4.23333333333
792	0.396	0.65	6.09565217391	-1.1	-2.8
793	0.3965	6.45	7.50869565217	1.81111111111	-2.8
794	0.397	-3.7	7.50869565217	3.26666666667	-2.8
795	0.3975	-2.25	8.92173913043	6.17777777778	0.0666666666667
796	0.398	-3.7	1.85652173913	1.81111111111	-1.36666666667
797	0.3985	-2.25	18.8130434783	3.26666666667	-1.36666666667
798	0.399	5.0	10.3347826087	-1.1	-1.36666666667
799	0.3995	15.15	15.9869565217	0.355555555556	-11.4
800	0.4	-3.7	14.5739130435	-1.1	-8.53333333333
801	0.4005	0.65	15.9869565217	3.26666666667	-8.53333333333
802	0.401	0.65	3.26956521739	0.355555555556	-1.36666666667
803	0.4015	0.65	30.1173913043	0.355555555556	-1.36666666667
804	0.402	-6.6	15.9869565217	0.355555555556	-1.36666666667
805	0.4025	-10.95	15.9869565217	3.26666666667	2.93333333333
806	0.403	3.55	14.5739130435	3.26666666667	17.2666666667
807	0.4035	0.65	17.4	17.8222222222	-2.8
808	0.404	0.65	6.09565217391	1.81111111111	-2.8
809	0.4045	3.55	7.50869565217	0.355555555556	-4.23333333333
810	0.405	5.0	15.9869565217	0.355555555556	-4.23333333333
811	0.4055	9.35	15.9869565217	1.81111111111	-9.96666666667
812	0.406	-0.8	17.4	-6.92222222222	2.93333333333
813	0.4065	0.65	13.1608695652	6.17777777778	-5.66666666667
814	0.407	2.1	3.26956521739	0.355555555556	-4.23333333333
815	0.4075	0.65	6.09565217391	0.355555555556	-5.66666666667
816	0.408	0.65	-2.38260869565	3.26666666667	-4.23333333333
817	0.4085	20.95	3.26956521739	4.72222222222	-12.8333333333
818	0.409	-3.7	1.85652173913	3.26666666667	-11.4
819	0.4095	-2.25	-0.969565217391	1.81111111111	-4.23333333333
820	0.41	0.65	-9.44782608696	-1.1	-7.1
821	0.4105	-2.25	1.85652173913	0.355555555556	-5.66666666667
822	0.411	-0.8	-0.969565217391	3.26666666667	-1.36666666667
823	0.4115	-12.4	0.44347826087	0.355555555556	-1.36666666667
824	0.412	-3.7	3.26956521739	3.26666666667	-11.4
825	0.4125	0.65	1.85652173913	7.63333333333	-4.23333333333
826	0.413	0.65	-8.0347826087	0.355555555556	0.0666666666667
827	0.4135	2.1	21.6391304348	0.355555555556	1.5
828	0.414	2.1	4.68260869565	0.355555555556	1.5
829	0.4145	-5.15	8.92173913043	1.81111111111	2.93333333333
830	0.415	-3.7	8.92173913043	7.63333333333	-1.36666666667
831	0.4155	-0.8	14.5739130435	12.0	0.0666666666667
832	0.416	-2.25	17.4	-1.1	-1.36666666667
833	0.4165	-0.8	27.2913043478	0.355555555556	0.0666666666667
834	0.417	-12.4	15.9869565217	3.26666666667	-1.36666666667
835	0.4175	18.05	20.2260869565	1.81111111111	-1.36666666667
836	0.418	-0.8	18.8130434783	4.72222222222	1.5
837	0.4185	0.65	18.8130434783	-1.1	5.8
838	0.419	-0.8	7.50869565217	0.355555555556	-1.36666666667
839	0.4195	0.65	21.6391304348	-1.1	-1.36666666667
840	0.42	3.55	15.9869565217	1.81111111111	-1.36666666667
841	0.4205	5.0	13.1608695652	-2.55555555556	1.5
842	0.421	0.65	13.1608695652	0.355555555556	-7.1
843	0.4215	0.65	14.5739130435	0.355555555556	-2.8
844	0.422	0.65	8.92173913043	-5.46666666667	-2.8
845	0.4225	0.65	24.4652173913	0.355555555556	-4.23333333333
846	0.423	-5.15	6.09565217391	-1.1	-1.36666666667
847	0.4235	-10.95	3.26956521739	3.26666666667	-1.36666666667
848	0.424	-13.85	4.68260869565	0.355555555556	-1.36666666667
849	0.4245	-0.8	0.44347826087	17.8222222222	-2.8
850	0.425	0.65	-0.969565217391	1.81111111111	-2.8
851	0.4255	-2.25	-10.8608695652	3.26666666667	-1.36666666667
852	0.426	0.65	-12.2739130435	-1.1	-2.8
853	0.4265	19.5	-2.38260869565	-1.1	-14.2666666667
854	0.427	-3.7	-3.79565217391	0.355555555556	-14.2666666667
855	0.4275	-2.25	-5.20869565217	-1.1	0.0666666666667
856	0.428	-3.7	-3.79565217391	3.26666666667	-4.23333333333
857	0.4285	-2.25	6.09565217391	0.355555555556	-4.23333333333
858	0.429	-6.6	-9.44782608696	0.355555555556	-5.66666666667
859	0.4295	-9.5	-0.969565217391	0.355555555556	0.0666666666667
860	0.43	0.65	0.44347826087	1.81111111111	-5.66666666667
861	0.4305	0.65	1.85652173913	-4.01111111111	-1.36666666667
862	0.431	0.65	6.09565217391	-9.83333333333	-4.23333333333
863	0.4315	-2.25	28.7043478261	0.355555555556	-1.36666666667
864	0.432	-3.7	3.26956521739	0.355555555556	0.0666666666667
865	0.4325	-10.95	10.3347826087	1.81111111111	1.5
866	0.433	-2.25	17.4	4.72222222222	0.0666666666667
867	0.4335	0.65	15.9869565217	7.63333333333	4.36666666667
868	0.434	2.1	20.2260869565	7.63333333333	4.36666666667
869	0.4345	0.65	13.1608695652	3.26666666667	2.93333333333
870	0.435	0.65	21.6391304348	0.355555555556	0.0666666666667
871	0.4355	5.0	18.8130434783	0.355555555556	0.0666666666667
872	0.436	-5.15	17.4	1.81111111111	1.5
873	0.4365	0.65	18.8130434783	4.72222222222	18.7
874	0.437	0.65	18.8130434783	20.7333333333	-1.36666666667
875	0.4375	3.55	3.26956521739	0.355555555556	-2.8
876	0.438	0.65	6.09565217391	0.355555555556	-1.36666666667
877	0.4385	5.0	7.50869565217	0.355555555556	-1.36666666667
878	0.439	-0.8	7.50869565217	-1.1	2.93333333333
879	0.4395	-0.8	6.09565217391	-4.01111111111	4.36666666667
880	0.44	0.65	4.68260869565	-2.55555555556	-4.23333333333
881	0.4405	0.65	4.68260869565	0.355555555556	-4.23333333333
882	0.441	0.65	-6.62173913043	-1.1	-1.36666666667
883	0.4415	0.65	0.44347826087	-1.1	-4.23333333333
884	0.442	18.05	-0.969565217391	3.26666666667	-5.66666666667
885	0.4425	-0.8	-0.969565217391	-1.1	7.23333333333
886	0.443	-0.8	0.44347826087	-1.1	-5.66666666667
887	0.4435	-0.8	1.85652173913	6.17777777778	-7.1
888	0.444	-2.25	-3.79565217391	1.81111111111	-4.23333333333
889	0.4445	-6.6	1.85652173913	3.26666666667	-2.8
890	0.445	15.15	4.68260869565	0.355555555556	0.0666666666667
891	0.4455	0.65	4.68260869565	-8.37777777778	-1.36666666667
892	0.446	-2.25	6.09565217391	-6.92222222222	-4.23333333333
893	0.4465	0.65	10.3347826087	-4.01111111111	-1.36666666667
894	0.447	0.65	21.6391304348	-1.1	0.0666666666667
895	0.4475	-3.7	14.5739130435	3.26666666667	0.0666666666667
896	0.448	3.55	8.92173913043	1.81111111111	-1.36666666667
897	0.4485	-0.8	11.747826087	0.355555555556	-7.1
898	0.449	0.65	14.5739130435	-4.01111111111	-1.36666666667
899	0.4495	-0.8	13.1608695652	-4.01111111111	0.0666666666667
900	0.45	0.65	31.5304347826	0.355555555556	1.5
901	0.4505	0.65	20.2260869565	0.355555555556	1.5
902	0.451	-8.05	23.052173913	3.26666666667	-1.36666666667
903	0.4515	-8.05	23.052173913	3.26666666667	2.93333333333
904	0.452	0.65	21.6391304348	14.9111111111	-1.36666666667
905	0.4525	0.65	17.4	1.81111111111	1.5
906	0.453	5.0	32.9434782609	-1.1	4.36666666667
907	0.4535	0.65	8.92173913043	-1.1	4.36666666667
908	0.454	13.7	17.4	4.72222222222	-4.23333333333
909	0.4545	2.1	17.4	4.72222222222	-7.1
910	0.455	0.65	14.5739130435	16.3666666667	-1.36666666667
911	0.4555	-0.8	15.9869565217	1.81111111111	-2.8
912	0.456	5.0	4.68260869565	-1.1	-8.53333333333
913	0.4565	5.0	13.1608695652	1.81111111111	-11.4
914	0.457	19.5	10.3347826087	1.81111111111	-11.4
915	0.4575	-0.8	6.09565217391	1.81111111111	-9.96666666667
916	0.458	-2.25	3.26956521739	14.9111111111	-9.96666666667
917	0.4585	0.65	-6.62173913043	1.81111111111	-4.23333333333
918	0.459	2.1	0.44347826087	0.355555555556	-4.23333333333
919	0.4595	3.55	1.85652173913	3.26666666667	-7.1
920	0.46	12.25	-0.969565217391	1.81111111111	-2.8
921	0.4605	-0.8	0.44347826087	0.355555555556	-8.53333333333
922	0.461	-2.25	-0.969565217391	12.0	-4.23333333333
923	0.4615	-0.8	1.85652173913	17.8222222222	-7.1
924	0.462	-0.8	-9.44782608696	0.355555555556	-4.23333333333
925	0.4625	-0.8	-0.969565217391	1.81111111111	-4.23333333333
926	0.463	18.05	-0.969565217391	0.355555555556	-12.8333333333
927	0.4635	-0.8	1.85652173913	1.81111111111	-11.4
928	0.464	0.65	4.68260869565	-9.83333333333	-7.1
929	0.4645	0.65	7.50869565217	3.26666666667	0.0666666666667
930	0.465	-2.25	6.09565217391	-1.1	-1.36666666667
931	0.4655	-2.25	6.09565217391	0.355555555556	1.5
932	0.466	18.05	7.50869565217	0.355555555556	-11.4
933	0.4665	0.65	13.1608695652	1.81111111111	-9.96666666667
934	0.467	-0.8	10.3347826087	-9.83333333333	2.93333333333
935	0.4675	-2.25	18.8130434783	-1.1	1.5
936	0.468	2.1	27.2913043478	0.355555555556	2.93333333333
937	0.4685	-2.25	13.1608695652	0.355555555556	1.5
938	0.469	-2.25	14.5739130435	4.72222222222	-5.66666666667
939	0.4695	-0.8	15.9869565217	1.81111111111	-7.1
940	0.47	0.65	15.9869565217	9.08888888889	0.0666666666667
941	0.4705	0.65	6.09565217391	0.355555555556	-1.36666666667
942	0.471	3.55	20.2260869565	0.355555555556	0.0666666666667
943	0.4715	5.0	8.92173913043	0.355555555556	1.5
944	0.472	0.65	7.50869565217	1.81111111111	1.5
945	0.4725	0.65	6.09565217391	1.81111111111	-5.66666666667
946	0.473	0.65	6.09565217391	3.26666666667	-4.23333333333
947	0.4735	0.65	4.68260869565	-2.55555555556	-4.23333333333
948	0.474	2.1	6.09565217391	0.355555555556	-4.23333333333
949	0.4745	-9.5	0.44347826087	-1.1	-2.8
950	0.475	-2.25	1.85652173913	-1.1	-4.23333333333
951	0.4755	-8.05	-2.38260869565	1.81111111111	7.23333333333
952	0.476	0.65	0.44347826087	-2.55555555556	11.5333333333
953	0.4765	0.65	-2.38260869565	1.81111111111	-4.23333333333
954	0.477	0.65	-9.44782608696	-1.1	-4.23333333333
955	0.4775	-2.25	-10.8608695652	0.355555555556	-2.8
956	0.478	18.05	0.44347826087	1.81111111111	-7.1
957	0.4785	0.65	-2.38260869565	-1.1	-12.8333333333
958	0.479	-0.8	-5.20869565217	-11.2888888889	-5.66666666667
959	0.4795	-2.25	-0.969565217391	1.81111111111	-2.8
960	0.48	-2.25	-0.969565217391	1.81111111111	-2.8
961	0.4805	-0.8	-6.62173913043	-1.1	-2.8
962	0.481	5.0	1.85652173913	-1.1	-4.23333333333
963	0.4815	-0.8	0.44347826087	0.355555555556	-11.4
964	0.482	0.65	4.68260869565	0.355555555556	-5.66666666667
965	0.4825	-0.8	4.68260869565	-9.83333333333	-2.8
966	0.483	0.65	21.6391304348	-1.1	2.93333333333
967	0.4835	2.1	1.85652173913	0.355555555556	2.93333333333
968	0.484	-12.4	3.26956521739	0.355555555556	2.93333333333
969	0.4845	-3.7	0.44347826087	0.355555555556	-2.8
970	0.485	0.65	3.26956521739	3.26666666667	0.0666666666667
971	0.4855	5.0	-0.969565217391	-5.46666666667	1.5
972	0.486	-0.8	1.85652173913	-5.46666666667	1.5
973	0.4865	0.65	0.44347826087	1.81111111111	0.0666666666667
974	0.487	2.1	0.44347826087	0.355555555556	1.5
975	0.4875	-6.6	0.44347826087	0.355555555556	1.5
976	0.488	-2.25	0.44347826087	1.81111111111	-9.96666666667
977	0.4885	0.65	-2.38260869565	1.81111111111	0.0666666666667
978	0.489	-2.25	-10.8608695652	3.26666666667	0.0666666666667
979	0.4895	2.1	-12.2739130435	0.355555555556	-1.36666666667
980	0.49	3.55	-2.38260869565	0.355555555556	-4.23333333333
981	0.4905	-0.8	-6.62173913043	0.355555555556	11.5333333333
982	0.491	-0.8	-5.20869565217	3.26666666667	1.5
983	0.4915	-0.8	-5.20869565217	7.63333333333	-2.8
984	0.492	2.1	3.26956521739	0.355555555556	-2.8
985	0.4925	-2.25	-5.20869565217	-1.1	-4.23333333333
986	0.493	-8.05	-10.8608695652	1.81111111111	-2.8
987	0.4935	-3.7	-6.62173913043	1.81111111111	-11.4
988	0.494	-2.25	-8.0347826087	1.81111111111	-8.53333333333
989	0.4945	-2.25	-9.44782608696	0.355555555556	-1.36666666667
990	0.495	-2.25	-2.38260869565	-2.55555555556	-2.8
991	0.4955	-0.8	1.85652173913	-1.1	-1.36666666667
992	0.496	0.65	-6.62173913043	4.72222222222	-4.23333333333
993	0.4965	-3.7	-2.38260869565	0.355555555556	7.23333333333
994	0.497	0.65	-2.38260869565	7.63333333333	1.5
995	0.4975	2.1	-9.44782608696	1.81111111111	1.5
996	0.498	2.1	-2.38260869565	0.355555555556	0.0666666666667
997	0.4985	2.1	0.44347826087	-1.1	0.0666666666667
998	0.499	10.8	0.44347826087	-1.1	0.0666666666667
999	0.4995	3.55	3.26956521739	-1.1	1.5
1000	0.5	0.65	3.26956521739	4.72222222222	0.0666666666667
1001	0.5005	-0.8	0.44347826087	9.08888888889	1.5
1002	0.501	-0.8	-2.38260869565	1.81111111111	-1.36666666667
1003	0.5015	-6.6	3.26956521739	-1.1	0.0666666666667
1004	0.502	5.0	1.85652173913	1.81111111111	0.0666666666667
1005	0.5025	-0.8	0.44347826087	1.81111111111	11.5333333333
1006	0.503	3.55	3.26956521739	4.72222222222	-1.36666666667
1007	0.5035	2.1	-3.79565217391	1.81111111111	-2.8
1008	0.504	0.65	3.26956521739	1.81111111111	-1.36666666667
1009	0.5045	15.15	0.44347826087	4.72222222222	1.5
1010	0.505	0.65	-0.969565217391	0.355555555556	2.93333333333
1011	0.5055	3.55	0.44347826087	0.355555555556	4.36666666667
1012	0.506	2.1	-0.969565217391	13.4555555556	-7.1
1013	0.5065	0.65	-16.5130434783	0.355555555556	-4.23333333333
1014	0.507	0.65	-16.5130434783	0.355555555556	-2.8
1015	0.5075	5.0	-6.62173913043	-1.1	-2.8
1016	0.508	-2.25	-5.20869565217	0.355555555556	-1.36666666667
1017	0.5085	-0.8	-9.44782608696	-11.2888888889	-5.66666666667
1018	0.509	0.65	-6.62173913043	-4.01111111111	-4.23333333333
1019	0.5095	2.1	7.50869565217	0.355555555556	-2.8
1020	0.51	-2.25	-20.752173913	1.81111111111	-4.23333333333
1021	0.5105	-13.85	-9.44782608696	0.355555555556	-5.66666666667
1022	0.511	-3.7	-10.8608695652	3.26666666667	-8.53333333333
1023	0.5115	-0.8	-10.8608695652	19.2777777778	-1.36666666667
1024	0.512	-0.8	-13.6869565217	0.355555555556	-2.8
1025	0.5125	-0.8	-13.6869565217	0.355555555556	-1.36666666667
1026	0.513	0.65	-17.9260869565	-4.01111111111	-1.36666666667
1027	0.5135	20.95	-10.8608695652	0.355555555556	-2.8
1028	0.514	-0.8	-10.8608695652	-1.1	-8.53333333333
1029	0.5145	0.65	-8.0347826087	-11.2888888889	-1.36666666667
1030	0.515	-0.8	-8.0347826087	-5.46666666667	-1.36666666667
1031	0.5155	0.65	-10.8608695652	0.355555555556	-1.36666666667
1032	0.516	7.9	0.44347826087	1.81111111111	0.0666666666667
1033	0.5165	-12.4	-2.38260869565	1.81111111111	1.5
1034	0.517	-9.5	0.44347826087	0.355555555556	2.93333333333
1035	0.5175	3.55	3.26956521739	14.9111111111	-2.8
1036	0.518	3.55	0.44347826087	16.3666666667	-1.36666666667
1037	0.5185	0.65	-0.969565217391	0.355555555556	0.0666666666667
1038	0.519	0.65	4.68260869565	-1.1	-1.36666666667
1039	0.5195	18.05	3.26956521739	3.26666666667	-8.53333333333
1040	0.52	3.55	0.44347826087	-1.1	-8.53333333333
1041	0.5205	0.65	0.44347826087	-1.1	-11.4
1042	0.521	0.65	-2.38260869565	-1.1	-2.8
1043	0.5215	2.1	-2.38260869565	3.26666666667	-1.36666666667
1044	0.522	3.55	-0.969565217391	0.355555555556	0.0666666666667
1045	0.5225	-2.25	-2.38260869565	-1.1	-7.1
1046	0.523	-0.8	-0.969565217391	-1.1	-8.53333333333
1047	0.5235	-2.25	-2.38260869565	7.63333333333	-1.36666666667
1048	0.524	-0.8	-5.20869565217	0.355555555556	-2.8
1049	0.5245	0.65	-15.1	0.355555555556	-2.8
1050	0.525	-5.15	-9.44782608696	1.81111111111	-1.36666666667
1051	0.5255	9.35	-12.2739130435	-1.1	-2.8
1052	0.526	-0.8	-15.1	-1.1	-8.53333333333
1053	0.5265	-0.8	-16.5130434783	0.355555555556	-4.23333333333
1054	0.527	-2.25	-19.3391304348	-1.1	-2.8
1055	0.5275	-2.25	-6.62173913043	1.81111111111	-1.36666666667
1056	0.528	-0.8	-2.38260869565	1.81111111111	-1.36666666667
1057	0.5285	-8.05	-13.6869565217	1.81111111111	12.9666666667
1058	0.529	-3.7	-12.2739130435	-1.1	15.8333333333
1059	0.5295	-3.7	-12.2739130435	3.26666666667	-2.8
1060	0.53	-0.8	-10.8608695652	-1.1	-4.23333333333
1061	0.5305	2.1	-16.5130434783	1.81111111111	-4.23333333333
1062	0.531	-0.8	-5.20869565217	0.355555555556	-7.1
1063	0.5315	16.6	-3.79565217391	3.26666666667	-4.23333333333
1064	0.532	0.65	-3.79565217391	-8.37777777778	-2.8
1065	0.5325	-2.25	-0.969565217391	-11.2888888889	-2.8
1066	0.533	-0.8	1.85652173913	0.355555555556	0.0666666666667
1067	0.5335	-0.8	-5.20869565217	0.355555555556	-1.36666666667
1068	0.534	2.1	4.68260869565	0.355555555556	-2.8
1069	0.5345	23.85	7.50869565217	3.26666666667	-9.96666666667
1070	0.535	0.65	8.92173913043	17.8222222222	0.0666666666667
1071	0.5355	2.1	4.68260869565	1.81111111111	0.0666666666667
1072	0.536	2.1	1.85652173913	-1.1	-1.36666666667
1073	0.5365	3.55	1.85652173913	0.355555555556	-1.36666666667
1074	0.537	18.05	3.26956521739	0.355555555556	-2.8
1075	0.5375	0.65	4.68260869565	-1.1	7.23333333333
1076	0.538	0.65	0.44347826087	-1.1	4.36666666667
1077	0.5385	-0.8	6.09565217391	-1.1	1.5
1078	0.539	-0.8	-2.38260869565	-4.01111111111	-1.36666666667
1079	0.5395	0.65	14.5739130435	0.355555555556	-1.36666666667
1080	0.54	-5.15	-2.38260869565	-1.1	-5.66666666667
1081	0.5405	-8.05	-5.20869565217	-1.1	-1.36666666667
1082	0.541	-0.8	-9.44782608696	1.81111111111	-5.66666666667
1083	0.5415	-2.25	-10.8608695652	19.2777777778	-4.23333333333
1084	0.542	-3.7	-20.752173913	0.355555555556	-4.23333333333
1085	0.5425	0.65	-19.3391304348	1.81111111111	-4.23333333333
1086	0.543	0.65	-20.752173913	-1.1	-2.8
1087	0.5435	-2.25	-13.6869565217	-2.55555555556	-12.8333333333
1088	0.544	-0.8	-15.1	-11.2888888889	-11.4
1089	0.5445	-2.25	-15.1	-8.37777777778	0.0666666666667
1090	0.545	-2.25	-24.9913043478	-1.1	-1.36666666667
1091	0.5455	0.65	-12.2739130435	-1.1	-2.8
1092	0.546	16.6	-12.2739130435	0.355555555556	-1.36666666667
1093	0.5465	-6.6	-10.8608695652	-1.1	14.4
1094	0.547	-0.8	-8.0347826087	14.9111111111	-2.8
1095	0.5475	-2.25	-3.79565217391	-2.55555555556	-1.36666666667
1096	0.548	-2.25	8.92173913043	1.81111111111	0.0666666666667
1097	0.5485	-3.7	-8.0347826087	1.81111111111	0.0666666666667
1098	0.549	18.05	-0.969565217391	-1.1	-2.8
1099	0.5495	-3.7	-2.38260869565	0.355555555556	4.36666666667
1100	0.55	0.65	-0.969565217391	17.8222222222	-1.36666666667
1101	0.5505	-0.8	3.26956521739	0.355555555556	-1.36666666667
1102	0.551	-3.7	-8.0347826087	-1.1	1.5
1103	0.5515	3.55	0.44347826087	-1.1	-1.36666666667
1104	0.552	15.15	4.68260869565	0.355555555556	-4.23333333333
1105	0.5525	-8.05	3.26956521739	0.355555555556	4.36666666667
1106	0.553	0.65	1.85652173913	-4.01111111111	5.8
1107	0.5535	0.65	1.85652173913	-1.1	0.0666666666667
1108	0.554	0.65	-8.0347826087	3.26666666667	-1.36666666667
1109	0.5545	-0.8	-12.2739130435	1.81111111111	-2.8
1110	0.555	-10.95	-2.38260869565	1.81111111111	1.5
1111	0.5555	0.65	-5.20869565217	4.72222222222	-14.2666666667
1112	0.556	0.65	-5.20869565217	-9.83333333333	-7.1
1113	0.5565	2.1	-10.8608695652	-2.55555555556	-2.8
1114	0.557	3.55	-13.6869565217	-1.1	-4.23333333333
1115	0.5575	3.55	-13.6869565217	0.355555555556	-4.23333333333
1116	0.558	15.15	-17.9260869565	1.81111111111	-7.1
1117	0.5585	-5.15	-17.9260869565	0.355555555556	-1.36666666667
1118	0.559	0.65	-19.3391304348	-8.37777777778	2.93333333333
1119	0.5595	-0.8	-16.5130434783	0.355555555556	-7.1
1120	0.56	-0.8	-10.8608695652	-1.1	-8.53333333333
1121	0.5605	-2.25	-20.752173913	-1.1	-7.1
1122	0.561	-6.6	-13.6869565217	3.26666666667	-1.36666666667
1123	0.5615	-0.8	-13.6869565217	4.72222222222	-7.1
1124	0.562	0.65	-10.8608695652	19.2777777778	-2.8
1125	0.5625	-2.25	-9.44782608696	-1.1	-1.36666666667
1126	0.563	0.65	-16.5130434783	-1.1	-2.8
1127	0.5635	0.65	-13.6869565217	-1.1	0.0666666666667
1128	0.564	7.9	-5.20869565217	-1.1	-1.36666666667
1129	0.5645	-0.8	-3.79565217391	3.26666666667	8.66666666667
1130	0.565	-3.7	-0.969565217391	-4.01111111111	0.0666666666667
1131	0.5655	2.1	-8.0347826087	4.72222222222	2.93333333333
1132	0.566	2.1	-5.20869565217	1.81111111111	1.5
1133	0.5665	12.25	1.85652173913	1.81111111111	-7.1
1134	0.567	-5.15	4.68260869565	3.26666666667	-8.53333333333
1135	0.5675	-2.25	6.09565217391	3.26666666667	-1.36666666667
1136	0.568	-0.8	7.50869565217	0.355555555556	0.0666666666667
1137	0.5685	-0.8	17.4	1.81111111111	-1.36666666667
1138	0.569	-2.25	1.85652173913	1.81111111111	0.0666666666667
1139	0.5695	-9.5	4.68260869565	3.26666666667	-1.36666666667
1140	0.57	0.65	4.68260869565	4.72222222222	-2.8
1141	0.5705	-0.8	3.26956521739	4.72222222222	1.5
1142	0.571	3.55	4.68260869565	0.355555555556	-5.66666666667
1143	0.5715	2.1	0.44347826087	-1.1	-8.53333333333
1144	0.572	9.35	1.85652173913	1.81111111111	-7.1
1145	0.5725	13.7	3.26956521739	1.81111111111	-14.2666666667
1146	0.573	-2.25	0.44347826087	-1.1	-15.7
1147	0.5735	-0.8	3.26956521739	-1.1	-7.1
1148	0.574	-0.8	-0.969565217391	0.355555555556	-7.1
1149	0.5745	0.65	7.50869565217	3.26666666667	-7.1
1150	0.575	-2.25	-8.0347826087	0.355555555556	-4.23333333333
1151	0.5755	3.55	-3.79565217391	-1.1	-4.23333333333
1152	0.576	-0.8	-5.20869565217	-4.01111111111	-12.8333333333
1153	0.5765	-0.8	-5.20869565217	-2.55555555556	-14.2666666667
1154	0.577	-2.25	-8.0347826087	0.355555555556	-4.23333333333
1155	0.5775	-0.8	-8.0347826087	0.355555555556	-4.23333333333
1156	0.578	-3.7	-3.79565217391	-1.1	-4.23333333333
1157	0.5785	19.5	-2.38260869565	0.355555555556	-12.8333333333
1158	0.579	-2.25	-0.969565217391	-4.01111111111	-15.7
1159	0.5795	-3.7	0.44347826087	-12.7444444444	-9.96666666667
1160	0.58	-0.8	4.68260869565	0.355555555556	-2.8
1161	0.5805	-0.8	7.50869565217	-1.1	-1.36666666667
1162	0.581	-13.85	4.68260869565	0.355555555556	-1.36666666667
1163	0.5815	0.65	6.09565217391	0.355555555556	5.8
1164	0.582	-0.8	7.50869565217	4.72222222222	-4.23333333333
1165	0.5825	0.65	10.3347826087	9.08888888889	-8.53333333333
1166	0.583	-3.7	1.85652173913	-2.55555555556	-2.8
1167	0.5835	0.65	14.5739130435	0.355555555556	-2.8
1168	0.584	3.55	10.3347826087	1.81111111111	-4.23333333333
1169	0.5845	15.15	8.92173913043	1.81111111111	-2.8
1170	0.585	0.65	7.50869565217	-6.92222222222	0.0666666666667
1171	0.5855	2.1	10.3347826087	-8.37777777778	0.0666666666667
1172	0.586	0.65	13.1608695652	-1.1	-1.36666666667
1173	0.5865	-2.25	8.92173913043	1.81111111111	-1.36666666667
1174	0.587	-12.4	6.09565217391	1.81111111111	-2.8
1175	0.5875	-8.05	3.26956521739	1.81111111111	0.0666666666667
1176	0.588	-2.25	3.26956521739	16.3666666667	-1.36666666667
1177	0.5885	0.65	3.26956521739	14.9111111111	-2.8
1178	0.589	0.65	-9.44782608696	3.26666666667	-4.23333333333
1179	0.5895	3.55	-6.62173913043	0.355555555556	-4.23333333333
1180	0.59	5.0	-5.20869565217	-1.1	-5.66666666667
1181	0.5905	-3.7	-8.0347826087	1.81111111111	4.36666666667
1182	0.591	0.65	-6.62173913043	-2.55555555556	5.8
1183	0.5915	0.65	-3.79565217391	3.26666666667	-4.23333333333
1184	0.592	0.65	-5.20869565217	1.81111111111	-5.66666666667
1185	0.5925	-0.8	-9.44782608696	3.26666666667	-7.1
1186	0.593	0.65	-5.20869565217	0.355555555556	-12.8333333333
1187	0.5935	-5.15	-8.0347826087	1.81111111111	-12.8333333333
1188	0.594	-3.7	-8.0347826087	-5.46666666667	-2.8
1189	0.5945	-2.25	-0.969565217391	3.26666666667	-5.66666666667
1190	0.595	-0.8	8.92173913043	1.81111111111	-2.8
1191	0.5955	-3.7	-2.38260869565	0.355555555556	-1.36666666667
1192	0.596	-16.75	0.44347826087	-1.1	-1.36666666667
1193	0.5965	-2.25	4.68260869565	1.81111111111	17.2666666667
1194	0.597	-5.15	6.09565217391	1.81111111111	-11.4
1195	0.5975	-2.25	6.09565217391	-9.83333333333	-1.36666666667
1196	0.598	-0.8	27.2913043478	1.81111111111	-1.36666666667
1197	0.5985	0.65	15.9869565217	-1.1	-1.36666666667
1198	0.599	-16.75	17.4	0.355555555556	0.0666666666667
1199	0.5995	-0.8	17.4	4.72222222222	10.1
1200	0.6	-2.25	23.052173913	16.3666666667	-1.36666666667
1201	0.6005	-0.8	25.8782608696	-1.1	-1.36666666667
1202	0.601	-2.25	38.5956521739	-2.55555555556	-1.36666666667
1203	0.6015	2.1	14.5739130435	0.355555555556	-2.8
1204	0.602	20.95	23.052173913	-1.1	-12.8333333333
1205	0.6025	-0.8	23.052173913	0.355555555556	-14.2666666667
1206	0.603	0.65	20.2260869565	-11.2888888889	-2.8
1207	0.6035	0.65	24.4652173913	-6.92222222222	-1.36666666667
1208	0.604	0.65	38.5956521739	-1.1	-2.8
1209	0.6045	-12.4	18.8130434783	0.355555555556	0.0666666666667
1210	0.605	-9.5	17.4	1.81111111111	15.8333333333
1211	0.6055	-0.8	15.9869565217	1.81111111111	18.7
1212	0.606	0.65	14.5739130435	6.17777777778	-1.36666666667
1213	0.6065	0.65	6.09565217391	0.355555555556	2.93333333333
1214	0.607	3.55	-2.38260869565	0.355555555556	-2.8
1215	0.6075	5.0	3.26956521739	1.81111111111	-7.1
1216	0.608	20.95	1.85652173913	1.81111111111	-12.8333333333
1217	0.6085	-0.8	1.85652173913	-9.83333333333	-9.96666666667
1218	0.609	0.65	0.44347826087	-4.01111111111	-9.96666666667
1219	0.6095	-0.8	-9.44782608696	1.81111111111	-8.53333333333
1220	0.61	-3.7	-5.20869565217	0.355555555556	-9.96666666667
1221	0.6105	15.15	0.44347826087	1.81111111111	-7.1
1222	0.611	-6.6	1.85652173913	1.81111111111	0.0666666666667
1223	0.6115	0.65	6.09565217391	-1.1	-1.36666666667
1224	0.612	-2.25	7.50869565217	-2.55555555556	-5.66666666667
1225	0.6125	0.65	18.8130434783	-1.1	-4.23333333333
1226	0.613	-2.25	3.26956521739	-1.1	1.5
1227	0.6135	-10.95	8.92173913043	1.81111111111	1.5
1228	0.614	5.0	13.1608695652	0.355555555556	-1.36666666667
1229	0.6145	0.65	14.5739130435	1.81111111111	0.0666666666667
1230	0.615	-2.25	15.9869565217	-4.01111111111	-1.36666666667
1231	0.6155	-0.8	13.1608695652	1.81111111111	0.0666666666667
1232	0.616	0.65	17.4	1.81111111111	-1.36666666667
1233	0.6165	5.0	21.6391304348	0.355555555556	-7.1
1234	0.617	-3.7	21.6391304348	-1.1	0.0666666666667
1235	0.6175	-0.8	17.4	-9.83333333333	4.36666666667
1236	0.618	0.65	21.6391304348	0.355555555556	1.5
1237	0.6185	-2.25	32.9434782609	0.355555555556	0.0666666666667
1238	0.619	-2.25	32.9434782609	0.355555555556	-1.36666666667
1239	0.6195	-12.4	18.8130434783	1.81111111111	0.0666666666667
1240	0.62	-0.8	17.4	3.26666666667	-11.4
1241	0.6205	0.65	15.9869565217	20.7333333333	-1.36666666667
1242	0.621	-0.8	13.1608695652	0.355555555556	-2.8
1243	0.6215	3.55	6.09565217391	1.81111111111	-2.8
1244	0.622	5.0	7.50869565217	1.81111111111	-5.66666666667
1245	0.6225	19.5	15.9869565217	1.81111111111	-7.1
1246	0.623	0.65	13.1608695652	-1.1	8.66666666667
1247	0.6235	2.1	11.747826087	-4.01111111111	-2.8
1248	0.624	-0.8	7.50869565217	-2.55555555556	-2.8
1249	0.6245	0.65	7.50869565217	1.81111111111	-2.8
1250	0.625	-12.4	4.68260869565	-1.1	-1.36666666667
1251	0.6255	-2.25	3.26956521739	1.81111111111	0.0666666666667
1252	0.626	-2.25	0.44347826087	4.72222222222	-1.36666666667
1253	0.6265	-0.8	0.44347826087	4.72222222222	-7.1
1254	0.627	-0.8	-9.44782608696	0.355555555556	-5.66666666667
1255	0.6275	0.65	-2.38260869565	-1.1	-4.23333333333
1256	0.628	0.65	4.68260869565	0.355555555556	-2.8
1257	0.6285	-5.15	3.26956521739	-1.1	-8.53333333333
1258	0.629	0.65	4.68260869565	-8.37777777778	-4.23333333333
1259	0.6295	0.65	6.09565217391	3.26666666667	-1.36666666667
1260	0.63	0.65	15.9869565217	0.355555555556	-2.8
1261	0.6305	2.1	6.09565217391	-1.1	-1.36666666667
1262	0.631	0.65	14.5739130435	-1.1	-4.23333333333
1263	0.6315	19.5	14.5739130435	-1.1	-1.36666666667
1264	0.632	3.55	17.4	-11.2888888889	-1.36666666667
1265	0.6325	0.65	13.1608695652	-6.92222222222	0.0666666666667
1266	0.633	-0.8	4.68260869565	-1.1	0.0666666666667
1267	0.6335	2.1	15.9869565217	-1.1	-1.36666666667
1268	0.634	18.05	21.6391304348	0.355555555556	4.36666666667
1269	0.6345	-3.7	20.2260869565	0.355555555556	1.5
1270	0.635	0.65	21.6391304348	-4.01111111111	-4.23333333333
1271	0.6355	2.1	24.4652173913	3.26666666667	-1.36666666667
1272	0.636	0.65	28.7043478261	0.355555555556	0.0666666666667
1273	0.6365	0.65	24.4652173913	1.81111111111	-1.36666666667
1274	0.637	-5.15	18.8130434783	-2.55555555556	-1.36666666667
1275	0.6375	20.95	20.2260869565	0.355555555556	-4.23333333333
1276	0.638	0.65	18.8130434783	-6.92222222222	0.0666666666667
1277	0.6385	-0.8	15.9869565217	-6.92222222222	-1.36666666667
1278	0.639	-0.8	3.26956521739	-1.1	-2.8
1279	0.6395	0.65	4.68260869565	0.355555555556	-4.23333333333
1280	0.64	18.05	14.5739130435	1.81111111111	-15.7
1281	0.6405	-0.8	13.1608695652	-1.1	-8.53333333333
1282	0.641	0.65	8.92173913043	-8.37777777778	-2.8
1283	0.6415	0.65	6.09565217391	-1.1	-7.1
1284	0.642	-2.25	-2.38260869565	1.81111111111	-7.1
1285	0.6425	6.45	4.68260869565	0.355555555556	-2.8
1286	0.643	-10.95	1.85652173913	-1.1	-5.66666666667
1287	0.6435	0.65	3.26956521739	0.355555555556	-5.66666666667
1288	0.644	-3.7	6.09565217391	3.26666666667	-11.4
1289	0.6445	-2.25	6.09565217391	-1.1	-2.8
1290	0.645	0.65	6.09565217391	1.81111111111	-1.36666666667
1291	0.6455	-2.25	6.09565217391	1.81111111111	-1.36666666667
1292	0.646	-3.7	8.92173913043	-1.1	-2.8
1293	0.6465	-6.6	10.3347826087	0.355555555556	8.66666666667
1294	0.647	0.65	10.3347826087	-2.55555555556	12.9666666667
1295	0.6475	0.65	14.5739130435	12.0	0.0666666666667
1296	0.648	2.1	15.9869565217	0.355555555556	0.0666666666667
1297	0.6485	-2.25	17.4	1.81111111111	-2.8
1298	0.649	-5.15	17.4	1.81111111111	0.0666666666667
1299	0.6495	-2.25	18.8130434783	0.355555555556	-9.96666666667
1300	0.65	-0.8	20.2260869565	-1.1	-9.96666666667
1301	0.6505	0.65	21.6391304348	-4.01111111111	-1.36666666667
1302	0.651	0.65	27.2913043478	0.355555555556	0.0666666666667
1303	0.6515	0.65	23.052173913	0.355555555556	-1.36666666667
1304	0.652	9.35	23.052173913	-1.1	-7.1
1305	0.6525	-5.15	23.052173913	0.355555555556	-5.66666666667
1306	0.653	-0.8	24.4652173913	0.355555555556	-2.8
1307	0.6535	0.65	25.8782608696	4.72222222222	-2.8
1308	0.654	0.65	28.7043478261	1.81111111111	-2.8
1309	0.6545	-8.05	24.4652173913	0.355555555556	-1.36666666667
1310	0.655	12.25	21.6391304348	1.81111111111	-4.23333333333
1311	0.6555	-3.7	23.052173913	0.355555555556	2.93333333333
1312	0.656	0.65	18.8130434783	7.63333333333	-4.23333333333
1313	0.6565	-0.8	8.92173913043	4.72222222222	-4.23333333333
1314	0.657	0.65	17.4	3.26666666667	-7.1
1315	0.6575	5.0	10.3347826087	0.355555555556	-8.53333333333
1316	0.658	0.65	14.5739130435	1.81111111111	-4.23333333333
1317	0.6585	0.65	10.3347826087	1.81111111111	-5.66666666667
1318	0.659	0.65	13.1608695652	-1.1	-4.23333333333
1319	0.6595	0.65	8.92173913043	-5.46666666667	-4.23333333333
1320	0.66	-0.8	21.6391304348	-1.1	-7.1
1321	0.6605	-5.15	27.2913043478	1.81111111111	-2.8
1322	0.661	-13.85	6.09565217391	1.81111111111	0.0666666666667
1323	0.6615	-2.25	8.92173913043	1.81111111111	17.2666666667
1324	0.662	-0.8	8.92173913043	20.7333333333	-4.23333333333
1325	0.6625	-0.8	8.92173913043	3.26666666667	-2.8
1326	0.663	-0.8	-2.38260869565	0.355555555556	-1.36666666667
1327	0.6635	3.55	6.09565217391	0.355555555556	-4.23333333333
1328	0.664	10.8	10.3347826087	-1.1	-2.8
1329	0.6645	-6.6	8.92173913043	-1.1	11.5333333333
1330	0.665	-0.8	13.1608695652	-6.92222222222	0.0666666666667
1331	0.6655	-2.25	15.9869565217	-6.92222222222	-1.36666666667
1332	0.666	-0.8	32.9434782609	-1.1	-1.36666666667
1333	0.6665	-3.7	32.9434782609	0.355555555556	-1.36666666667
1334	0.667	-8.05	17.4	3.26666666667	0.0666666666667
1335	0.6675	0.65	20.2260869565	1.81111111111	12.9666666667
1336	0.668	2.1	17.4	7.63333333333	-1.36666666667
1337	0.6685	0.65	21.6391304348	-4.01111111111	1.5
1338	0.669	0.65	18.8130434783	-1.1	-1.36666666667
1339	0.6695	-5.15	17.4	0.355555555556	-1.36666666667
1340	0.67	-5.15	17.4	3.26666666667	0.0666666666667
1341	0.6705	2.1	15.9869565217	0.355555555556	-2.8
1342	0.671	2.1	20.2260869565	16.3666666667	-1.36666666667
1343	0.6715	2.1	13.1608695652	17.8222222222	-1.36666666667
1344	0.672	3.55	4.68260869565	-1.1	-1.36666666667
1345	0.6725	3.55	1.85652173913	-1.1	-1.36666666667
1346	0.673	16.6	4.68260869565	1.81111111111	-14.2666666667
1347	0.6735	-0.8	4.68260869565	6.17777777778	-11.4
1348	0.674	-0.8	1.85652173913	1.81111111111	-2.8
1349	0.6745	0.65	-6.62173913043	1.81111111111	-4.23333333333
1350	0.675	0.65	-10.8608695652	1.81111111111	-1.36666666667
1351	0.6755	5.0	0.44347826087	-1.1	-5.66666666667
1352	0.676	18.05	0.44347826087	0.355555555556	-5.66666666667
1353	0.6765	-0.8	0.44347826087	-9.83333333333	-5.66666666667
1354	0.677	-3.7	0.44347826087	-2.55555555556	-4.23333333333
1355	0.6775	-0.8	-9.44782608696	0.355555555556	-2.8
1356	0.678	-0.8	0.44347826087	3.26666666667	-5.66666666667
1357	0.6785	13.7	0.44347826087	0.355555555556	-2.8
1358	0.679	-5.15	3.26956521739	0.355555555556	-1.36666666667
1359	0.6795	-2.25	4.68260869565	0.355555555556	-2.8
1360	0.68	-0.8	6.09565217391	-4.01111111111	0.0666666666667
1361	0.6805	-2.25	17.4	-1.1	0.0666666666667
1362	0.681	-2.25	6.09565217391	1.81111111111	-1.36666666667
1363	0.6815	0.65	8.92173913043	3.26666666667	-5.66666666667
1364	0.682	-5.15	8.92173913043	3.26666666667	-1.36666666667
1365	0.6825	-2.25	14.5739130435	-2.55555555556	15.8333333333
1366	0.683	-0.8	14.5739130435	17.8222222222	1.5
1367	0.6835	-3.7	6.09565217391	0.355555555556	-1.36666666667
1368	0.684	3.55	15.9869565217	-1.1	-1.36666666667
1369	0.6845	18.05	17.4	3.26666666667	-11.4
1370	0.685	-2.25	15.9869565217	0.355555555556	-7.1
1371	0.6855	3.55	13.1608695652	0.355555555556	4.36666666667
1372	0.686	2.1	15.9869565217	6.17777777778	-1.36666666667
1373	0.6865	0.65	14.5739130435	-4.01111111111	-1.36666666667
1374	0.687	-0.8	3.26956521739	0.355555555556	-1.36666666667
1375	0.6875	10.8	10.3347826087	1.81111111111	-2.8
1376	0.688	-0.8	10.3347826087	0.355555555556	-8.53333333333
1377	0.6885	-0.8	13.1608695652	-5.46666666667	-8.53333333333
1378	0.689	0.65	13.1608695652	-9.83333333333	1.5
1379	0.6895	0.65	10.3347826087	1.81111111111	-1.36666666667
1380	0.69	-3.7	3.26956521739	0.355555555556	-1.36666666667
1381	0.6905	-12.4	3.26956521739	1.81111111111	-4.23333333333
1382	0.691	0.65	1.85652173913	0.355555555556	-4.23333333333
1383	0.6915	0.65	3.26956521739	-1.1	-12.8333333333
1384	0.692	0.65	4.68260869565	-9.83333333333	-5.66666666667
1385	0.6925	-2.25	18.8130434783	0.355555555556	-8.53333333333
1386	0.693	-5.15	-5.20869565217	-1.1	-4.23333333333
1387	0.6935	-12.4	-0.969565217391	1.81111111111	-1.36666666667
1388	0.694	-6.6	-2.38260869565	0.355555555556	0.0666666666667
1389	0.6945	-3.7	1.85652173913	0.355555555556	2.93333333333
1390	0.695	-0.8	1.85652173913	17.8222222222	0.0666666666667
1391	0.6955	-2.25	-8.0347826087	-1.1	-1.36666666667
1392	0.696	-0.8	-10.8608695652	0.355555555556	-1.36666666667
1393	0.6965	3.55	-2.38260869565	1.81111111111	-2.8
1394	0.697	-6.6	0.44347826087	-1.1	-7.1
1395	0.6975	-3.7	4.68260869565	-8.37777777778	-1.36666666667
1396	0.698	-0.8	6.09565217391	12.0	-2.8
1397	0.6985	-2.25	6.09565217391	1.81111111111	-4.23333333333
1398	0.699	-2.25	3.26956521739	0.355555555556	-2.8
1399	0.6995	-0.8	7.50869565217	1.81111111111	-5.66666666667
1400	0.7	18.05	7.50869565217	1.81111111111	-9.96666666667
1401	0.7005	-0.8	10.3347826087	20.7333333333	-2.8
1402	0.701	0.65	13.1608695652	19.2777777778	-1.36666666667
1403	0.7015	-0.8	0.44347826087	0.355555555556	-2.8
1404	0.702	0.65	4.68260869565	3.26666666667	-1.36666666667
1405	0.7025	15.15	13.1608695652	0.355555555556	-1.36666666667
1406	0.703	-5.15	14.5739130435	0.355555555556	-2.8
1407	0.7035	-2.25	8.92173913043	3.26666666667	-9.96666666667
1408	0.704	-5.15	6.09565217391	-8.37777777778	-1.36666666667
1409	0.7045	-2.25	-3.79565217391	0.355555555556	-1.36666666667
1410	0.705	0.65	-2.38260869565	3.26666666667	0.0666666666667
1411	0.7055	3.55	6.09565217391	4.72222222222	-1.36666666667
1412	0.706	-0.8	6.09565217391	0.355555555556	-12.8333333333
1413	0.7065	0.65	1.85652173913	-8.37777777778	-5.66666666667
1414	0.707	2.1	1.85652173913	-6.92222222222	-8.53333333333
1415	0.7075	-2.25	13.1608695652	-1.1	-1.36666666667
1416	0.708	-2.25	-3.79565217391	0.355555555556	-4.23333333333
1417	0.7085	-8.05	4.68260869565	3.26666666667	-4.23333333333
1418	0.709	16.6	1.85652173913	1.81111111111	-12.8333333333
1419	0.7095	0.65	3.26956521739	0.355555555556	-11.4
1420	0.71	-5.15	4.68260869565	-8.37777777778	-5.66666666667
1421	0.7105	-2.25	4.68260869565	-6.92222222222	-4.23333333333
1422	0.711	-3.7	3.26956521739	1.81111111111	-4.23333333333
1423	0.7115	-10.95	1.85652173913	1.81111111111	-4.23333333333
1424	0.712	-10.95	4.68260869565	0.355555555556	-4.23333333333
1425	0.7125	-2.25	4.68260869565	-2.55555555556	-4.23333333333
1426	0.713	-2.25	4.68260869565	-5.46666666667	-2.8
1427	0.7135	-2.25	1.85652173913	0.355555555556	-5.66666666667
1428	0.714	-2.25	0.44347826087	0.355555555556	-2.8
1429	0.7145	-6.6	8.92173913043	3.26666666667	0.0666666666667
1430	0.715	3.55	15.9869565217	0.355555555556	-1.36666666667
1431	0.7155	-0.8	18.8130434783	3.26666666667	2.93333333333
1432	0.716	-0.8	20.2260869565	-5.46666666667	-2.8
1433	0.7165	-0.8	21.6391304348	0.355555555556	-1.36666666667
1434	0.717	0.65	10.3347826087	0.355555555556	-2.8
1435	0.7175	-2.25	20.2260869565	3.26666666667	-2.8
1436	0.718	2.1	21.6391304348	-2.55555555556	-8.53333333333
1437	0.7185	-2.25	23.052173913	-6.92222222222	-1.36666666667
1438	0.719	-2.25	17.4	-11.2888888889	-1.36666666667
1439	0.7195	0.65	20.2260869565	-8.37777777778	-2.8
1440	0.72	0.65	18.8130434783	0.355555555556	0.0666666666667
1441	0.7205	-6.6	15.9869565217	0.355555555556	-1.36666666667
1442	0.721	-9.5	15.9869565217	1.81111111111	0.0666666666667
1443	0.7215	-0.8	15.9869565217	3.26666666667	14.4
1444	0.722	2.1	13.1608695652	16.3666666667	-4.23333333333
1445	0.7225	0.65	0.44347826087	1.81111111111	-1.36666666667
1446	0.723	2.1	-0.969565217391	-1.1	-4.23333333333
1447	0.7235	0.65	7.50869565217	0.355555555556	-5.66666666667
1448	0.724	0.65	4.68260869565	-1.1	-15.7
1449	0.7245	-0.8	0.44347826087	-1.1	11.5333333333
1450	0.725	-2.25	1.85652173913	-8.37777777778	-5.66666666667
1451	0.7255	2.1	15.9869565217	1.81111111111	-7.1
1452	0.726	-3.7	-8.0347826087	-1.1	-5.66666666667
1453	0.7265	-10.95	0.44347826087	1.81111111111	-8.53333333333
1454	0.727	-0.8	-0.969565217391	1.81111111111	-12.8333333333
1455	0.7275	-0.8	1.85652173913	14.9111111111	-7.1
1456	0.728	-2.25	0.44347826087	9.08888888889	-2.8
1457	0.7285	-0.8	-0.969565217391	1.81111111111	-5.66666666667
1458	0.729	-2.25	-3.79565217391	1.81111111111	-4.23333333333
1459	0.7295	16.6	1.85652173913	3.26666666667	-12.8333333333
1460	0.73	-0.8	4.68260869565	3.26666666667	-11.4
1461	0.7305	-3.7	4.68260869565	4.72222222222	-7.1
1462	0.731	-2.25	1.85652173913	-8.37777777778	-1.36666666667
1463	0.7315	-0.8	23.052173913	3.26666666667	-1.36666666667
1464	0.732	-0.8	7.50869565217	3.26666666667	0.0666666666667
1465	0.7325	-12.4	8.92173913043	-1.1	0.0666666666667
1466	0.733	-9.5	10.3347826087	0.355555555556	0.0666666666667
1467	0.7335	0.65	7.50869565217	4.72222222222	-2.8
1468	0.734	-0.8	8.92173913043	-1.1	-1.36666666667
1469	0.7345	-0.8	-0.969565217391	1.81111111111	1.5
1470	0.735	2.1	10.3347826087	-1.1	-2.8
1471	0.7355	15.15	14.5739130435	0.355555555556	-4.23333333333
1472	0.736	-2.25	15.9869565217	3.26666666667	0.0666666666667
1473	0.7365	0.65	14.5739130435	14.9111111111	-5.66666666667
1474	0.737	2.1	10.3347826087	20.7333333333	-2.8
1475	0.7375	0.65	1.85652173913	1.81111111111	-2.8
1476	0.738	0.65	11.747826087	-1.1	-1.36666666667
1477	0.7385	-8.05	10.3347826087	0.355555555556	-1.36666666667
1478	0.739	-6.6	10.3347826087	-1.1	11.5333333333
1479	0.7395	0.65	6.09565217391	-1.1	-4.23333333333
1480	0.74	0.65	-2.38260869565	3.26666666667	-7.1
1481	0.7405	2.1	0.44347826087	0.355555555556	-8.53333333333
1482	0.741	-0.8	-5.20869565217	1.81111111111	-5.66666666667
1483	0.7415	-5.15	-0.969565217391	4.72222222222	-4.23333333333
1484	0.742	0.65	-5.20869565217	3.26666666667	4.36666666667
1485	0.7425	-2.25	-5.20869565217	19.2777777778	-7.1
1486	0.743	0.65	-13.6869565217	1.81111111111	-8.53333333333
1487	0.7435	2.1	15.9869565217	3.26666666667	-5.66666666667
1488	0.744	-2.25	-3.79565217391	0.355555555556	-7.1
1489	0.7445	-8.05	-2.38260869565	3.26666666667	-9.96666666667
1490	0.745	0.65	-2.38260869565	-2.55555555556	-11.4
1491	0.7455	-0.8	0.44347826087	4.72222222222	-9.96666666667
1492	0.746	-0.8	-10.8608695652	1.81111111111	-2.8
1493	0.7465	0.65	-5.20869565217	1.81111111111	-1.36666666667
1494	0.747	0.65	0.44347826087	1.81111111111	-4.23333333333
1495	0.7475	-5.15	4.68260869565	-2.55555555556	5.8
1496	0.748	-2.25	3.26956521739	-6.92222222222	-7.1
1497	0.7485	-2.25	6.09565217391	-6.92222222222	-5.66666666667
1498	0.749	0.65	8.92173913043	-4.01111111111	-1.36666666667
1499	0.7495	-2.25	10.3347826087	1.81111111111	-2.8
1500	0.75	0.65	4.68260869565	1.81111111111	0.0666666666667
1501	0.7505	-3.7	6.09565217391	-1.1	2.93333333333
1502	0.751	2.1	7.50869565217	1.81111111111	17.2666666667
1503	0.7515	0.65	10.3347826087	14.9111111111	-2.8
1504	0.752	0.65	14.5739130435	0.355555555556	-2.8
1505	0.7525	2.1	-2.38260869565	1.81111111111	-1.36666666667
1506	0.753	2.1	13.1608695652	1.81111111111	-1.36666666667
1507	0.7535	18.05	6.09565217391	1.81111111111	-12.8333333333
1508	0.754	0.65	8.92173913043	4.72222222222	-12.8333333333
1509	0.7545	0.65	3.26956521739	3.26666666667	-11.4
1510	0.755	-0.8	3.26956521739	-6.92222222222	-1.36666666667
1511	0.7555	2.1	20.2260869565	3.26666666667	-2.8
1512	0.756	-3.7	0.44347826087	0.355555555556	-1.36666666667
1513	0.7565	-5.15	-2.38260869565	1.81111111111	-5.66666666667
1514	0.757	-6.6	-3.79565217391	0.355555555556	-4.23333333333
1515	0.7575	0.65	-5.20869565217	14.9111111111	-7.1
1516	0.758	-0.8	-8.0347826087	20.7333333333	-4.23333333333
1517	0.7585	0.65	-16.5130434783	-1.1	-2.8
1518	0.759	0.65	-6.62173913043	1.81111111111	-4.23333333333
1519	0.7595	19.5	-9.44782608696	1.81111111111	-7.1
1520	0.76	-2.25	-10.8608695652	0.355555555556	4.36666666667
1521	0.7605	-0.8	-6.62173913043	-4.01111111111	-5.66666666667
1522	0.761	-2.25	-10.8608695652	-4.01111111111	-5.66666666667
1523	0.7615	-2.25	1.85652173913	0.355555555556	-4.23333333333
1524	0.762	-10.95	-3.79565217391	1.81111111111	-4.23333333333
1525	0.7625	-0.8	-5.20869565217	1.81111111111	-7.1
1526	0.763	-12.4	-5.20869565217	-1.1	-4.23333333333
1527	0.7635	-2.25	-2.38260869565	19.2777777778	-2.8
1528	0.764	0.65	0.44347826087	-1.1	-1.36666666667
1529	0.7645	-0.8	18.8130434783	-1.1	-2.8
1530	0.765	-3.7	0.44347826087	-1.1	-1.36666666667
1531	0.7655	-5.15	6.09565217391	4.72222222222	-12.8333333333
1532	0.766	-3.7	8.92173913043	3.26666666667	-7.1
1533	0.7665	2.1	6.09565217391	4.72222222222	-1.36666666667
1534	0.767	0.65	0.44347826087	-1.1	-2.8
1535	0.7675	2.1	21.6391304348	1.81111111111	-1.36666666667
1536	0.768	0.65	1.85652173913	1.81111111111	-2.8
1537	0.7685	18.05	10.3347826087	1.81111111111	-1.36666666667
1538	0.769	-2.25	10.3347826087	3.26666666667	-5.66666666667
1539	0.7695	0.65	10.3347826087	4.72222222222	-1.36666666667
1540	0.77	-0.8	8.92173913043	-1.1	-1.36666666667
1541	0.7705	3.55	8.92173913043	-1.1	-2.8
1542	0.771	2.1	8.92173913043	0.355555555556	0.0666666666667
1543	0.7715	2.1	7.50869565217	4.72222222222	0.0666666666667
1544	0.772	-6.6	6.09565217391	4.72222222222	15.8333333333
1545	0.7725	0.65	3.26956521739	4.72222222222	-11.4
1546	0.773	0.65	-0.969565217391	1.81111111111	-2.8
1547	0.7735	-0.8	-3.79565217391	1.81111111111	-5.66666666667
1548	0.774	3.55	-5.20869565217	0.355555555556	-8.53333333333
1549	0.7745	12.25	-3.79565217391	-1.1	-7.1
1550	0.775	-3.7	-2.38260869565	1.81111111111	-8.53333333333
1551	0.7755	0.65	-5.20869565217	9.08888888889	-7.1
1552	0.776	2.1	-8.0347826087	1.81111111111	-4.23333333333
1553	0.7765	-2.25	-9.44782608696	1.81111111111	-2.8
1554	0.777	-0.8	-13.6869565217	1.81111111111	-1.36666666667
1555	0.7775	18.05	-8.0347826087	0.355555555556	0.0666666666667
1556	0.778	-5.15	-3.79565217391	0.355555555556	-1.36666666667
1557	0.7785	-0.8	-2.38260869565	-6.92222222222	-12.8333333333
1558	0.779	-2.25	-2.38260869565	-6.92222222222	-14.2666666667
1559	0.7795	-2.25	4.68260869565	1.81111111111	-7.1
1560	0.78	-2.25	-2.38260869565	0.355555555556	-7.1
1561	0.7805	-0.8	6.09565217391	0.355555555556	-9.96666666667
1562	0.781	18.05	8.92173913043	1.81111111111	-15.7
1563	0.7815	0.65	8.92173913043	-2.55555555556	-12.8333333333
1564	0.782	0.65	11.747826087	-6.92222222222	0.0666666666667
1565	0.7825	-2.25	14.5739130435	-1.1	-1.36666666667
1566	0.783	0.65	17.4	1.81111111111	-2.8
1567	0.7835	-13.85	10.3347826087	0.355555555556	2.93333333333
1568	0.784	-5.15	13.1608695652	4.72222222222	1.5
1569	0.7845	2.1	17.4	1.81111111111	4.36666666667
1570	0.785	0.65	14.5739130435	3.26666666667	-2.8
1571	0.7855	2.1	3.26956521739	0.355555555556	-2.8
1572	0.786	3.55	20.2260869565	1.81111111111	-2.8
1573	0.7865	0.65	25.8782608696	0.355555555556	-1.36666666667
1574	0.787	-6.6	8.92173913043	6.17777777778	11.5333333333
1575	0.7875	0.65	7.50869565217	-2.55555555556	12.9666666667
1576	0.788	0.65	6.09565217391	0.355555555556	-1.36666666667
1577	0.7885	2.1	3.26956521739	1.81111111111	-2.8
1578	0.789	0.65	-2.38260869565	1.81111111111	-1.36666666667
1579	0.7895	-5.15	0.44347826087	0.355555555556	-4.23333333333
1580	0.79	3.55	-0.969565217391	3.26666666667	-2.8
1581	0.7905	-3.7	-5.20869565217	1.81111111111	-2.8
1582	0.791	0.65	-6.62173913043	-2.55555555556	-5.66666666667
1583	0.7915	-0.8	-6.62173913043	-1.1	-8.53333333333
1584	0.792	0.65	-13.6869565217	-1.1	-8.53333333333
1585	0.7925	-8.05	-12.2739130435	0.355555555556	-7.1
1586	0.793	7.9	-9.44782608696	-1.1	-9.96666666667
1587	0.7935	-2.25	-12.2739130435	-1.1	-15.7
1588	0.794	-2.25	-10.8608695652	0.355555555556	-4.23333333333
1589	0.7945	-2.25	-5.20869565217	1.81111111111	-4.23333333333
1590	0.795	-2.25	-2.38260869565	0.355555555556	-4.23333333333
1591	0.7955	-10.95	-8.0347826087	1.81111111111	-1.36666666667
1592	0.796	-2.25	-8.0347826087	0.355555555556	4.36666666667
1593	0.7965	-0.8	-5.20869565217	14.9111111111	-8.53333333333
1594	0.797	0.65	-0.969565217391	-1.1	-1.36666666667
1595	0.7975	0.65	10.3347826087	0.355555555556	-1.36666666667
1596	0.798	-5.15	-2.38260869565	-2.55555555556	-1.36666666667
1597	0.7985	-9.5	-0.969565217391	0.355555555556	-5.66666666667
1598	0.799	0.65	3.26956521739	4.72222222222	-5.66666666667
1599	0.7995	2.1	3.26956521739	16.3666666667	-1.36666666667
1600	0.8	0.65	6.09565217391	16.3666666667	-1.36666666667
1601	0.8005	2.1	0.44347826087	3.26666666667	-2.8
1602	0.801	5.0	7.50869565217	0.355555555556	-1.36666666667
1603	0.8015	22.4	6.09565217391	0.355555555556	-12.8333333333
1604	0.802	-0.8	8.92173913043	-1.1	-12.8333333333
1605	0.8025	-0.8	8.92173913043	-8.37777777778	0.0666666666667
1606	0.803	0.65	10.3347826087	-4.01111111111	1.5
1607	0.8035	2.1	27.2913043478	0.355555555556	-1.36666666667
1608	0.804	-9.5	8.92173913043	0.355555555556	1.5
1609	0.8045	-0.8	6.09565217391	-1.1	11.5333333333
1610	0.805	0.65	4.68260869565	-6.92222222222	-4.23333333333
1611	0.8055	2.1	3.26956521739	-8.37777777778	-7.1
1612	0.806	-0.8	6.09565217391	0.355555555556	-1.36666666667
1613	0.8065	0.65	-2.38260869565	0.355555555556	-5.66666666667
1614	0.807	-10.95	-0.969565217391	3.26666666667	-2.8
1615	0.8075	-8.05	-3.79565217391	1.81111111111	12.9666666667
1616	0.808	-0.8	-5.20869565217	-1.1	10.1
1617	0.8085	-3.7	-6.62173913043	9.08888888889	-2.8
1618	0.809	-0.8	-3.79565217391	0.355555555556	-2.8
1619	0.8095	-0.8	-6.62173913043	-1.1	-4.23333333333
1620	0.81	-8.05	-5.20869565217	0.355555555556	-1.36666666667
1621	0.8105	-2.25	-6.62173913043	1.81111111111	-12.8333333333
1622	0.811	2.1	-3.79565217391	14.9111111111	-4.23333333333
1623	0.8115	0.65	-8.0347826087	-1.1	-2.8
1624	0.812	2.1	-13.6869565217	0.355555555556	-5.66666666667
1625	0.8125	-2.25	-6.62173913043	-1.1	-5.66666666667
1626	0.813	16.6	-5.20869565217	1.81111111111	-5.66666666667
1627	0.8135	-3.7	0.44347826087	3.26666666667	-11.4
1628	0.814	-2.25	0.44347826087	-4.01111111111	-2.8
1629	0.8145	-2.25	1.85652173913	-2.55555555556	-2.8
1630	0.815	0.65	7.50869565217	0.355555555556	-1.36666666667
1631	0.8155	12.25	4.68260869565	0.355555555556	1.5
1632	0.816	-2.25	6.09565217391	-1.1	12.9666666667
1633	0.8165	-0.8	4.68260869565	0.355555555556	8.66666666667
1634	0.817	-0.8	13.1608695652	0.355555555556	-1.36666666667
1635	0.8175	0.65	27.2913043478	3.26666666667	0.0666666666667
1636	0.818	-0.8	8.92173913043	0.355555555556	4.36666666667
1637	0.8185	-10.95	8.92173913043	1.81111111111	5.8
1638	0.819	-0.8	8.92173913043	3.26666666667	-2.8
1639	0.8195	0.65	8.92173913043	-6.92222222222	5.8
1640	0.82	2.1	6.09565217391	3.26666666667	-1.36666666667
1641	0.8205	2.1	18.8130434783	-2.55555555556	-1.36666666667
1642	0.821	7.9	0.44347826087	-1.1	-2.8
1643	0.8215	-8.05	3.26956521739	0.355555555556	-1.36666666667
1644	0.822	2.1	0.44347826087	4.72222222222	7.23333333333
1645	0.8225	0.65	0.44347826087	4.72222222222	-7.1
1646	0.823	-0.8	-3.79565217391	0.355555555556	-2.8
1647	0.8235	0.65	-10.8608695652	1.81111111111	-9.96666666667
1648	0.824	5.0	-5.20869565217	1.81111111111	-9.96666666667
1649	0.8245	19.5	-6.62173913043	0.355555555556	-18.5666666667
1650	0.825	-2.25	-6.62173913043	-1.1	-15.7
1651	0.8255	2.1	-2.38260869565	-5.46666666667	-4.23333333333
1652	0.826	-2.25	-3.79565217391	0.355555555556	-4.23333333333
1653	0.8265	0.65	-3.79565217391	1.81111111111	-7.1
1654	0.827	-5.15	-6.62173913043	0.355555555556	-7.1
1655	0.8275	-9.5	-6.62173913043	3.26666666667	0.0666666666667
1656	0.828	-0.8	-3.79565217391	0.355555555556	-12.8333333333
1657	0.8285	-0.8	-2.38260869565	4.72222222222	-12.8333333333
1658	0.829	0.65	-10.8608695652	3.26666666667	-4.23333333333
1659	0.8295	2.1	15.9869565217	0.355555555556	-7.1
1660	0.83	-2.25	0.44347826087	3.26666666667	-4.23333333333
1661	0.8305	-10.95	0.44347826087	-1.1	14.4
1662	0.831	-0.8	1.85652173913	-6.92222222222	-1.36666666667
1663	0.8315	0.65	4.68260869565	-8.37777777778	-1.36666666667
1664	0.832	2.1	11.747826087	3.26666666667	-2.8
1665	0.8325	-2.25	8.92173913043	1.81111111111	-1.36666666667
1666	0.833	-13.85	7.50869565217	0.355555555556	0.0666666666667
1667	0.8335	-9.5	10.3347826087	4.72222222222	0.0666666666667
1668	0.834	-0.8	10.3347826087	6.17777777778	17.2666666667
1669	0.8345	-2.25	13.1608695652	17.8222222222	2.93333333333
1670	0.835	0.65	3.26956521739	4.72222222222	-1.36666666667
1671	0.8355	0.65	0.44347826087	1.81111111111	0.0666666666667
1672	0.836	-3.7	1.85652173913	3.26666666667	-1.36666666667
1673	0.8365	0.65	7.50869565217	3.26666666667	-5.66666666667
1674	0.837	2.1	6.09565217391	-1.1	1.5
1675	0.8375	0.65	4.68260869565	-5.46666666667	0.0666666666667
1676	0.838	2.1	13.1608695652	-1.1	-1.36666666667
1677	0.8385	0.65	13.1608695652	3.26666666667	-1.36666666667
1678	0.839	2.1	0.44347826087	4.72222222222	-8.53333333333
1679	0.8395	-3.7	-3.79565217391	-1.1	-7.1
1680	0.84	0.65	-2.38260869565	3.26666666667	-4.23333333333
1681	0.8405	0.65	-12.2739130435	1.81111111111	-7.1
1682	0.841	0.65	1.85652173913	1.81111111111	-5.66666666667
1683	0.8415	-9.5	-12.2739130435	3.26666666667	-2.8
1684	0.842	3.55	-6.62173913043	-1.1	2.93333333333
1685	0.8425	0.65	-9.44782608696	1.81111111111	-7.1
1686	0.843	-0.8	-10.8608695652	13.4555555556	-4.23333333333
1687	0.8435	-2.25	-13.6869565217	3.26666666667	-2.8
1688	0.844	-0.8	-20.752173913	3.26666666667	-4.23333333333
1689	0.8445	0.65	-20.752173913	0.355555555556	-2.8
1690	0.845	18.05	-10.8608695652	3.26666666667	-14.2666666667
1691	0.8455	-0.8	-6.62173913043	-8.37777777778	-11.4
1692	0.846	-3.7	-8.0347826087	-5.46666666667	-4.23333333333
1693	0.8465	-3.7	-17.9260869565	-1.1	-4.23333333333
1694	0.847	0.65	-13.6869565217	-1.1	-4.23333333333
1695	0.8475	18.05	-6.62173913043	-1.1	-4.23333333333
1696	0.848	0.65	-6.62173913043	0.355555555556	1.5
1697	0.8485	-2.25	-2.38260869565	-11.2888888889	-2.8
1698	0.849	2.1	3.26956521739	0.355555555556	-1.36666666667
1699	0.8495	0.65	17.4	0.355555555556	0.0666666666667
1700	0.85	-3.7	17.4	3.26666666667	-1.36666666667
1701	0.8505	-10.95	6.09565217391	3.26666666667	-1.36666666667
1702	0.851	-0.8	4.68260869565	3.26666666667	-9.96666666667
1703	0.8515	-0.8	8.92173913043	20.7333333333	-1.36666666667
1704	0.852	-0.8	6.09565217391	1.81111111111	0.0666666666667
1705	0.8525	-0.8	6.09565217391	0.355555555556	-1.36666666667
1706	0.853	3.55	8.92173913043	1.81111111111	-2.8
1707	0.8535	20.95	7.50869565217	0.355555555556	-4.23333333333
1708	0.854	0.65	10.3347826087	3.26666666667	-14.2666666667
1709	0.8545	-0.8	8.92173913043	-6.92222222222	-2.8
1710	0.855	-0.8	14.5739130435	3.26666666667	-4.23333333333
1711	0.8555	0.65	15.9869565217	0.355555555556	-1.36666666667
1712	0.856	-2.25	8.92173913043	1.81111111111	-2.8
1713	0.8565	-10.95	4.68260869565	-1.1	15.8333333333
1714	0.857	-3.7	0.44347826087	-8.37777777778	-4.23333333333
1715	0.8575	-0.8	0.44347826087	-8.37777777778	-7.1
1716	0.858	-0.8	4.68260869565	0.355555555556	-4.23333333333
1717	0.8585	-2.25	3.26956521739	4.72222222222	-4.23333333333
1718	0.859	-13.85	-0.969565217391	3.26666666667	-4.23333333333
1719	0.8595	-6.6	-2.38260869565	1.81111111111	-4.23333333333
1720	0.86	-2.25	-3.79565217391	3.26666666667	-8.53333333333
1721	0.8605	-3.7	-5.20869565217	0.355555555556	-5.66666666667
1722	0.861	-0.8	-16.5130434783	0.355555555556	-5.66666666667
1723	0.8615	0.65	-13.6869565217	3.26666666667	-4.23333333333
1724	0.862	2.1	-3.79565217391	1.81111111111	-2.8
1725	0.8625	0.65	-2.38260869565	0.355555555556	-1.36666666667
1726	0.863	-0.8	-5.20869565217	-6.92222222222	-4.23333333333
1727	0.8635	-0.8	-2.38260869565	-8.37777777778	-1.36666666667
1728	0.864	2.1	17.4	-1.1	-2.8
1729	0.8645	-3.7	0.44347826087	-1.1	-1.36666666667
1730	0.865	-8.05	-0.969565217391	0.355555555556	-1.36666666667
1731	0.8655	-0.8	-0.969565217391	4.72222222222	-8.53333333333
1732	0.866	-0.8	1.85652173913	-4.01111111111	-12.8333333333
1733	0.8665	-2.25	1.85652173913	-4.01111111111	-1.36666666667
1734	0.867	0.65	17.4	-1.1	-1.36666666667
1735	0.8675	-2.25	23.052173913	1.81111111111	1.5
1736	0.868	-13.85	4.68260869565	0.355555555556	2.93333333333
1737	0.8685	-10.95	6.09565217391	1.81111111111	1.5
1738	0.869	-0.8	8.92173913043	16.3666666667	-5.66666666667
1739	0.8695	2.1	6.09565217391	0.355555555556	-1.36666666667
1740	0.87	0.65	14.5739130435	0.355555555556	-4.23333333333
1741	0.8705	-10.95	0.44347826087	0.355555555556	0.0666666666667
1742	0.871	3.55	0.44347826087	0.355555555556	-4.23333333333
1743	0.8715	-6.6	-0.969565217391	1.81111111111	-4.23333333333
1744	0.872	0.65	1.85652173913	14.9111111111	-4.23333333333
1745	0.8725	0.65	-3.79565217391	0.355555555556	-2.8
1746	0.873	0.65	13.1608695652	-1.1	-4.23333333333
1747	0.8735	-3.7	-6.62173913043	-1.1	-1.36666666667
1748	0.874	-9.5	-9.44782608696	3.26666666667	-1.36666666667
1749	0.8745	-2.25	-10.8608695652	1.81111111111	-11.4
1750	0.875	-2.25	-8.0347826087	16.3666666667	-4.23333333333
1751	0.8755	-0.8	-10.8608695652	19.2777777778	-5.66666666667
1752	0.876	0.65	-17.9260869565	3.26666666667	-4.23333333333
1753	0.8765	-3.7	-13.6869565217	3.26666666667	-7.1
1754	0.877	12.25	-10.8608695652	0.355555555556	-5.66666666667
1755	0.8775	-2.25	-10.8608695652	-1.1	11.5333333333
1756	0.878	-3.7	-10.8608695652	20.7333333333	-4.23333333333
1757	0.8785	-3.7	-9.44782608696	1.81111111111	-2.8
1758	0.879	-2.25	-19.3391304348	-2.55555555556	-2.8
1759	0.8795	-12.4	-8.0347826087	1.81111111111	-1.36666666667
1760	0.88	-13.85	-5.20869565217	1.81111111111	-12.8333333333
1761	0.8805	-0.8	-5.20869565217	16.3666666667	-2.8
1762	0.881	-2.25	-3.79565217391	1.81111111111	-2.8
1763	0.8815	0.65	-9.44782608696	0.355555555556	-4.23333333333
1764	0.882	0.65	-6.62173913043	1.81111111111	0.0666666666667
1765	0.8825	-5.15	0.44347826087	1.81111111111	-2.8
1766	0.883	0.65	3.26956521739	0.355555555556	-8.53333333333
1767	0.8835	-0.8	3.26956521739	-5.46666666667	0.0666666666667
1768	0.884	3.55	1.85652173913	-4.01111111111	0.0666666666667
1769	0.8845	-0.8	0.44347826087	1.81111111111	-1.36666666667
1770	0.885	-5.15	6.09565217391	1.81111111111	0.0666666666667
1771	0.8855	12.25	4.68260869565	3.26666666667	-1.36666666667
1772	0.886	-8.05	4.68260869565	3.26666666667	2.93333333333
1773	0.8865	0.65	6.09565217391	19.2777777778	-1.36666666667
1774	0.887	0.65	4.68260869565	0.355555555556	0.0666666666667
1775	0.8875	0.65	18.8130434783	0.355555555556	1.5
1776	0.888	2.1	4.68260869565	1.81111111111	0.0666666666667
1777	0.8885	-6.6	3.26956521739	4.72222222222	-2.8
1778	0.889	2.1	4.68260869565	6.17777777778	-9.96666666667
1779	0.8895	2.1	1.85652173913	6.17777777778	-8.53333333333
1780	0.89	0.65	-10.8608695652	0.355555555556	-4.23333333333
1781	0.8905	0.65	-9.44782608696	3.26666666667	-5.66666666667
1782	0.891	5.0	-0.969565217391	3.26666666667	-4.23333333333
1783	0.8915	18.05	-3.79565217391	-1.1	-1.36666666667
1784	0.892	-2.25	-3.79565217391	3.26666666667	-4.23333333333
1785	0.8925	-0.8	-2.38260869565	17.8222222222	-4.23333333333
1786	0.893	-0.8	-9.44782608696	16.3666666667	-7.1
1787	0.8935	-3.7	-15.1	0.355555555556	-5.66666666667
1788	0.894	-2.25	-5.20869565217	-1.1	-4.23333333333
1789	0.8945	16.6	-3.79565217391	0.355555555556	-5.66666666667
1790	0.895	-3.7	-0.969565217391	-1.1	-12.8333333333
1791	0.8955	-0.8	-2.38260869565	-8.37777777778	-4.23333333333
1792	0.896	-3.7	-5.20869565217	-1.1	-4.23333333333
1793	0.8965	-0.8	8.92173913043	1.81111111111	-2.8
1794	0.897	0.65	3.26956521739	1.81111111111	-1.36666666667
1795	0.8975	-5.15	0.44347826087	-1.1	0.0666666666667
1796	0.898	-0.8	0.44347826087	-5.46666666667	-2.8
1797	0.8985	-0.8	3.26956521739	1.81111111111	-1.36666666667
1798	0.899	0.65	21.6391304348	-1.1	-1.36666666667
1799	0.8995	-2.25	6.09565217391	1.81111111111	0.0666666666667
1800	0.9	-12.4	6.09565217391	0.355555555556	-1.36666666667
1801	0.9005	-6.6	10.3347826087	-1.1	15.8333333333
1802	0.901	2.1	15.9869565217	20.7333333333	-1.36666666667
1803	0.9015	-0.8	13.1608695652	17.8222222222	-2.8
1804	0.902	-0.8	6.09565217391	-1.1	-1.36666666667
1805	0.9025	-5.15	13.1608695652	-1.1	-2.8
1806	0.903	5.0	13.1608695652	0.355555555556	-2.8
1807	0.9035	0.65	14.5739130435	-2.55555555556	-7.1
1808	0.904	-0.8	13.1608695652	-8.37777777778	-8.53333333333
1809	0.9045	0.65	14.5739130435	-1.1	-2.8
1810	0.905	-2.25	1.85652173913	-1.1	-4.23333333333
1811	0.9055	6.45	-2.38260869565	0.355555555556	-4.23333333333
1812	0.906	18.05	3.26956521739	3.26666666667	-7.1
1813	0.9065	0.65	6.09565217391	0.355555555556	4.36666666667
1814	0.907	0.65	3.26956521739	-4.01111111111	-7.1
1815	0.9075	0.65	1.85652173913	-6.92222222222	-2.8
1816	0.908	2.1	3.26956521739	0.355555555556	-4.23333333333
1817	0.9085	5.0	3.26956521739	1.81111111111	-4.23333333333
1818	0.909	-5.15	-0.969565217391	1.81111111111	4.36666666667
1819	0.9095	-0.8	-0.969565217391	-6.92222222222	-5.66666666667
1820	0.91	-2.25	-5.20869565217	4.72222222222	-5.66666666667
1821	0.9105	-3.7	6.09565217391	3.26666666667	-7.1
1822	0.911	-3.7	13.1608695652	1.81111111111	-4.23333333333
1823	0.9115	-13.85	0.44347826087	-1.1	0.0666666666667
1824	0.912	-2.25	0.44347826087	-9.83333333333	-4.23333333333
1825	0.9125	-0.8	0.44347826087	-6.92222222222	-2.8
1826	0.913	-3.7	1.85652173913	-9.83333333333	-4.23333333333
1827	0.9135	-2.25	20.2260869565	0.355555555556	-2.8
1828	0.914	-2.25	20.2260869565	0.355555555556	-2.8
1829	0.9145	-10.95	6.09565217391	3.26666666667	-1.36666666667
1830	0.915	-3.7	7.50869565217	-1.1	14.4
1831	0.9155	-3.7	6.09565217391	20.7333333333	-1.36666666667
1832	0.916	-3.7	-0.969565217391	3.26666666667	-2.8
1833	0.9165	-0.8	-0.969565217391	0.355555555556	0.0666666666667
1834	0.917	0.65	14.5739130435	0.355555555556	0.0666666666667
1835	0.9175	-6.6	14.5739130435	0.355555555556	14.4
1836	0.918	-3.7	13.1608695652	1.81111111111	17.2666666667
1837	0.9185	-0.8	13.1608695652	3.26666666667	-1.36666666667
1838	0.919	-0.8	6.09565217391	1.81111111111	-1.36666666667
1839	0.9195	0.65	8.92173913043	0.355555555556	1.5
1840	0.92	-3.7	14.5739130435	0.355555555556	-2.8
1841	0.9205	0.65	10.3347826087	1.81111111111	4.36666666667
1842	0.921	-0.8	6.09565217391	1.81111111111	7.23333333333
1843	0.9215	0.65	6.09565217391	-4.01111111111	-1.36666666667
1844	0.922	0.65	0.44347826087	1.81111111111	-4.23333333333
1845	0.9225	-3.7	-2.38260869565	1.81111111111	-4.23333333333
1846	0.923	-5.15	-2.38260869565	-1.1	-7.1
1847	0.9235	-9.5	-6.62173913043	0.355555555556	-4.23333333333
1848	0.924	-0.8	-8.0347826087	1.81111111111	-5.66666666667
1849	0.9245	-0.8	-10.8608695652	19.2777777778	-2.8
1850	0.925	-2.25	-22.1652173913	0.355555555556	-2.8
1851	0.9255	-2.25	-19.3391304348	0.355555555556	-2.8
1852	0.926	16.6	-12.2739130435	0.355555555556	-5.66666666667
1853	0.9265	-5.15	-9.44782608696	-2.55555555556	-15.7
1854	0.927	-0.8	-9.44782608696	-11.2888888889	-7.1
1855	0.9275	-0.8	-6.62173913043	-8.37777777778	-5.66666666667
1856	0.928	-0.8	-3.79565217391	0.355555555556	-4.23333333333
1857	0.9285	-0.8	-3.79565217391	0.355555555556	-8.53333333333
1858	0.929	-5.15	-5.20869565217	0.355555555556	-8.53333333333
1859	0.9295	-5.15	-3.79565217391	0.355555555556	-15.7
1860	0.93	-0.8	-3.79565217391	19.2777777778	-5.66666666667
1861	0.9305	-2.25	-0.969565217391	17.8222222222	-4.23333333333
1862	0.931	-3.7	-8.0347826087	1.81111111111	-4.23333333333
1863	0.9315	-0.8	-10.8608695652	-2.55555555556	-2.8
1864	0.932	15.15	4.68260869565	0.355555555556	-5.66666666667
1865	0.9325	-2.25	1.85652173913	-1.1	-11.4
1866	0.933	-3.7	3.26956521739	-5.46666666667	-1.36666666667
1867	0.9335	-3.7	6.09565217391	1.81111111111	0.0666666666667
1868	0.934	0.65	17.4	0.355555555556	-1.36666666667
1869	0.9345	-3.7	20.2260869565	0.355555555556	0.0666666666667
1870	0.935	-10.95	3.26956521739	1.81111111111	18.7
1871	0.9355	-2.25	0.44347826087	1.81111111111	0.0666666666667
1872	0.936	0.65	0.44347826087	17.8222222222	-2.8
1873	0.9365	0.65	4.68260869565	0.355555555556	-1.36666666667
1874	0.937	2.1	15.9869565217	1.81111111111	-1.36666666667
1875	0.9375	-10.95	-0.969565217391	-1.1	-5.66666666667
1876	0.938	18.05	-2.38260869565	1.81111111111	-5.66666666667
1877	0.9385	-2.25	-3.79565217391	-1.1	12.9666666667
1878	0.939	-0.8	-3.79565217391	-6.92222222222	-5.66666666667
1879	0.9395	-0.8	-3.79565217391	1.81111111111	-5.66666666667
1880	0.94	-0.8	-5.20869565217	-1.1	-2.8
1881	0.9405	-12.4	-9.44782608696	0.355555555556	-5.66666666667
1882	0.941	-6.6	-9.44782608696	0.355555555556	-1.36666666667
1883	0.9415	-2.25	-10.8608695652	1.81111111111	-2.8
1884	0.942	-0.8	-13.6869565217	-1.1	-8.53333333333
1885	0.9425	-3.7	-23.5782608696	-1.1	-5.66666666667
1886	0.943	0.65	-24.9913043478	-1.1	-5.66666666667
1887	0.9435	0.65	-15.1	0.355555555556	-5.66666666667
1888	0.944	-5.15	-12.2739130435	0.355555555556	-2.8
1889	0.9445	-5.15	-13.6869565217	-8.37777777778	-7.1
1890	0.945	-0.8	-12.2739130435	-6.92222222222	-4.23333333333
1891	0.9455	-0.8	4.68260869565	0.355555555556	-4.23333333333
1892	0.946	-5.15	6.09565217391	-1.1	-1.36666666667
1893	0.9465	-13.85	-10.8608695652	0.355555555556	-2.8
1894	0.947	-10.95	-9.44782608696	3.26666666667	-1.36666666667
1895	0.9475	-0.8	-10.8608695652	0.355555555556	-9.96666666667
1896	0.948	-2.25	-6.62173913043	1.81111111111	-1.36666666667
1897	0.9485	-3.7	-10.8608695652	1.81111111111	-2.8
1898	0.949	-3.7	-10.8608695652	3.26666666667	-1.36666666667
1899	0.9495	12.25	-2.38260869565	1.81111111111	0.0666666666667
1900	0.95	-3.7	-6.62173913043	0.355555555556	-7.1
1901	0.9505	-0.8	-2.38260869565	-6.92222222222	1.5
1902	0.951	-0.8	-0.969565217391	0.355555555556	0.0666666666667
1903	0.9515	-2.25	8.92173913043	0.355555555556	1.5
1904	0.952	-2.25	-0.969565217391	-1.1	0.0666666666667
1905	0.9525	-5.15	-0.969565217391	4.72222222222	-2.8
1906	0.953	-2.25	0.44347826087	1.81111111111	-7.1
1907	0.9535	-0.8	0.44347826087	-4.01111111111	-4.23333333333
1908	0.954	0.65	-2.38260869565	-6.92222222222	-2.8
1909	0.9545	-0.8	8.92173913043	0.355555555556	-4.23333333333
1910	0.955	0.65	14.5739130435	0.355555555556	-5.66666666667
1911	0.9555	-8.05	-0.969565217391	3.26666666667	-1.36666666667
1912	0.956	0.65	-2.38260869565	1.81111111111	8.66666666667
1913	0.9565	0.65	-5.20869565217	16.3666666667	-7.1
1914	0.957	0.65	-17.9260869565	1.81111111111	-8.53333333333
1915	0.9575	0.65	-13.6869565217	-1.1	-8.53333333333
1916	0.958	-0.8	-8.0347826087	1.81111111111	-5.66666666667
1917	0.9585	3.55	-10.8608695652	-1.1	-8.53333333333
1918	0.959	-9.5	-10.8608695652	0.355555555556	-7.1
1919	0.9595	-0.8	-10.8608695652	14.9111111111	-8.53333333333
1920	0.96	-3.7	-15.1	-1.1	-7.1
1921	0.9605	-3.7	-0.969565217391	1.81111111111	-5.66666666667
1922	0.961	-12.4	-15.1	0.355555555556	-4.23333333333
1923	0.9615	16.6	-15.1	1.81111111111	-14.2666666667
1924	0.962	-3.7	-15.1	3.26666666667	-12.8333333333
1925	0.9625	-3.7	-13.6869565217	4.72222222222	-11.4
1926	0.963	-2.25	-19.3391304348	1.81111111111	-5.66666666667
1927	0.9635	0.65	-17.9260869565	-1.1	0.0666666666667
1928	0.964	0.65	-9.44782608696	0.355555555556	-1.36666666667
1929	0.9645	-10.95	-5.20869565217	-1.1	18.7
1930	0.965	-2.25	-6.62173913043	-1.1	14.4
1931	0.9655	-3.7	-5.20869565217	20.7333333333	-1.36666666667
1932	0.966	-5.15	-2.38260869565	0.355555555556	0.0666666666667
1933	0.9665	-3.7	-16.5130434783	1.81111111111	-2.8
1934	0.967	0.65	-3.79565217391	0.355555555556	-1.36666666667
1935	0.9675	16.6	-6.62173913043	3.26666666667	-11.4
1936	0.968	2.1	-2.38260869565	1.81111111111	-12.8333333333
1937	0.9685	-0.8	-2.38260869565	-9.83333333333	1.5
1938	0.969	-0.8	-8.0347826087	-1.1	-2.8
1939	0.9695	-0.8	-12.2739130435	0.355555555556	-1.36666666667
1940	0.97	3.55	-2.38260869565	3.26666666667	-1.36666666667
1941	0.9705	-10.95	-3.79565217391	3.26666666667	1.5
1942	0.971	-0.8	-3.79565217391	-9.83333333333	-4.23333333333
1943	0.9715	-0.8	-6.62173913043	-8.37777777778	-2.8
1944	0.972	0.65	10.3347826087	1.81111111111	-4.23333333333
1945	0.9725	-2.25	-16.5130434783	1.81111111111	-1.36666666667
1946	0.973	3.55	-9.44782608696	3.26666666667	-7.1
1947	0.9735	-2.25	-10.8608695652	-1.1	-12.8333333333
1948	0.974	0.65	-8.0347826087	-2.55555555556	-4.23333333333
1949	0.9745	-2.25	-9.44782608696	-4.01111111111	-4.23333333333
1950	0.975	-2.25	-19.3391304348	-4.01111111111	-7.1
1951	0.9755	-0.8	-12.2739130435	1.81111111111	-4.23333333333
1952	0.976	10.8	-15.1	1.81111111111	-14.2666666667
1953	0.9765	-5.15	-12.2739130435	3.26666666667	-18.5666666667
1954	0.977	-5.15	-12.2739130435	-6.92222222222	-5.66666666667
1955	0.9775	-0.8	-12.2739130435	-4.01111111111	-7.1
1956	0.978	-3.7	0.44347826087	0.355555555556	-4.23333333333
1957	0.9785	-2.25	-13.6869565217	-1.1	-5.66666666667
1958	0.979	-8.05	-13.6869565217	3.26666666667	-7.1
1959	0.9795	-2.25	-12.2739130435	3.26666666667	-4.23333333333
1960	0.98	-0.8	-12.2739130435	16.3666666667	-1.36666666667
1961	0.9805	-2.25	-9.44782608696	17.8222222222	-4.23333333333
1962	0.981	-0.8	-16.5130434783	0.355555555556	-2.8
1963	0.9815	0.65	-8.0347826087	3.26666666667	-2.8
1964	0.982	16.6	-6.62173913043	1.81111111111	2.93333333333
1965	0.9825	-2.25	-6.62173913043	4.72222222222	18.7
1966	0.983	-0.8	-0.969565217391	20.7333333333	1.5
1967	0.9835	-0.8	-2.38260869565	0.355555555556	-2.8
1968	0.984	0.65	10.3347826087	1.81111111111	-1.36666666667
1969	0.9845	-6.6	3.26956521739	-1.1	-4.23333333333
1970	0.985	16.6	-0.969565217391	0.355555555556	-4.23333333333
1971	0.9855	0.65	-0.969565217391	1.81111111111	-8.53333333333
1972	0.986	0.65	1.85652173913	-2.55555555556	-2.8
1973	0.9865	2.1	1.85652173913	-4.01111111111	-2.8
1974	0.987	3.55	-0.969565217391	0.355555555556	-2.8
1975	0.9875	19.5	0.44347826087	-1.1	0.0666666666667
1976	0.988	-8.05	1.85652173913	1.81111111111	1.5
1977	0.9885	0.65	0.44347826087	-5.46666666667	-4.23333333333
1978	0.989	2.1	-2.38260869565	1.81111111111	-4.23333333333
1979	0.9895	0.65	-3.79565217391	1.81111111111	-5.66666666667
1980	0.99	0.65	-13.6869565217	0.355555555556	-5.66666666667
1981	0.9905	3.55	-8.0347826087	1.81111111111	-5.66666666667
1982	0.991	-2.25	-12.2739130435	3.26666666667	-5.66666666667
1983	0.9915	-0.8	-12.2739130435	19.2777777778	-4.23333333333
1984	0.992	-0.8	-15.1	19.2777777778	-5.66666666667
1985	0.9925	0.65	-24.9913043478	0.355555555556	-2.8
1986	0.993	-3.7	-15.1	1.81111111111	-4.23333333333
1987	0.9935	9.35	-19.3391304348	0.355555555556	-5.66666666667
1988	0.994	-0.8	-17.9260869565	0.355555555556	5.8
1989	0.9945	-0.8	-16.5130434783	-4.01111111111	-5.66666666667
1990	0.995	-2.25	-17.9260869565	1.81111111111	-5.66666666667
1991	0.9955	0.65	-3.79565217391	3.26666666667	-7.1
1992	0.996	-0.8	-0.969565217391	1.81111111111	-5.66666666667
1993	0.9965	-6.6	-8.0347826087	-1.1	-7.1
1994	0.997	-2.25	-6.62173913043	-6.92222222222	-5.66666666667
1995	0.9975	0.65	-5.20869565217	1.81111111111	0.0666666666667
1996	0.998	-0.8	6.09565217391	0.355555555556	-1.36666666667
1997	0.9985	-5.15	-6.62173913043	1.81111111111	1.5
1998	0.999	-13.85	-2.38260869565	0.355555555556	1.5
1999	0.9995	-8.05	-3.79565217391	-1.1	12.9666666667
2000	1.0	-2.25	-0.969565217391	0.355555555556	15.8333333333
2001	1.0005	0.65	-0.969565217391	1.81111111111	0.0666666666667
2002	1.001	0.65	17.4	0.355555555556	-1.36666666667
2003	1.0015	-2.25	-8.0347826087	1.81111111111	-1.36666666667
2004	1.002	-0.8	-2.38260869565	0.355555555556	-2.8
2005	1.0025	2.1	-0.969565217391	-1.1	-8.53333333333
2006	1.003	-0.8	-2.38260869565	-1.1	-1.36666666667
2007	1.0035	0.65	0.44347826087	-4.01111111111	-2.8
2008	1.004	-0.8	1.85652173913	-2.55555555556	-4.23333333333
2009	1.0045	0.65	3.26956521739	1.81111111111	-2.8
2010	1.005	12.25	-2.38260869565	0.355555555556	-2.8
2011	1.0055	-0.8	-5.20869565217	0.355555555556	0.0666666666667
2012	1.006	2.1	-2.38260869565	9.08888888889	-7.1
2013	1.0065	-0.8	-3.79565217391	-4.01111111111	-4.23333333333
2014	1.007	-0.8	1.85652173913	1.81111111111	-7.1
2015	1.0075	0.65	1.85652173913	0.355555555556	-7.1
2016	1.008	-0.8	-6.62173913043	0.355555555556	-8.53333333333
2017	1.0085	-5.15	-6.62173913043	1.81111111111	5.8
2018	1.009	-0.8	-5.20869565217	9.08888888889	-7.1
2019	1.0095	0.65	-10.8608695652	1.81111111111	-7.1
2020	1.01	2.1	1.85652173913	0.355555555556	-7.1
2021	1.0105	-5.15	-9.44782608696	0.355555555556	-5.66666666667
2022	1.011	-10.95	-6.62173913043	0.355555555556	-1.36666666667
2023	1.0115	-0.8	-6.62173913043	3.26666666667	-11.4
2024	1.012	-0.8	-6.62173913043	6.17777777778	-9.96666666667
2025	1.0125	-0.8	-17.9260869565	1.81111111111	-4.23333333333
2026	1.013	0.65	-8.0347826087	0.355555555556	-2.8
2027	1.0135	3.55	-0.969565217391	1.81111111111	-1.36666666667
2028	1.014	12.25	-0.969565217391	1.81111111111	-9.96666666667
2029	1.0145	-3.7	0.44347826087	-1.1	2.93333333333
2030	1.015	-2.25	0.44347826087	-2.55555555556	4.36666666667
2031	1.0155	0.65	4.68260869565	1.81111111111	-1.36666666667
2032	1.016	-0.8	7.50869565217	0.355555555556	1.5
2033	1.0165	-0.8	3.26956521739	0.355555555556	-2.8
2034	1.017	10.8	4.68260869565	1.81111111111	-8.53333333333
2035	1.0175	2.1	4.68260869565	-1.1	-8.53333333333
2036	1.018	2.1	4.68260869565	-4.01111111111	-11.4
2037	1.0185	-0.8	7.50869565217	-9.83333333333	0.0666666666667
2038	1.019	-0.8	25.8782608696	0.355555555556	-1.36666666667
2039	1.0195	-2.25	27.2913043478	1.81111111111	-1.36666666667
2040	1.02	-10.95	7.50869565217	1.81111111111	1.5
2041	1.0205	-6.6	6.09565217391	4.72222222222	1.5
2042	1.021	0.65	6.09565217391	14.9111111111	-5.66666666667
2043	1.0215	-0.8	3.26956521739	7.63333333333	-4.23333333333
2044	1.022	-0.8	-9.44782608696	0.355555555556	-4.23333333333
2045	1.0225	3.55	-5.20869565217	3.26666666667	-2.8
2046	1.023	-3.7	-10.8608695652	1.81111111111	-5.66666666667
2047	1.0235	13.7	-6.62173913043	3.26666666667	-12.8333333333
2048	1.024	0.65	-9.44782608696	3.26666666667	-15.7
2049	1.0245	0.65	-12.2739130435	-6.92222222222	-7.1
2050	1.025	0.65	-23.5782608696	1.81111111111	-8.53333333333
2051	1.0255	2.1	-22.1652173913	0.355555555556	-7.1
2052	1.026	5.0	-13.6869565217	0.355555555556	-7.1
2053	1.0265	19.5	-16.5130434783	1.81111111111	-17.1333333333
2054	1.027	-0.8	-16.5130434783	0.355555555556	-12.8333333333
2055	1.0275	0.65	-15.1	-8.37777777778	-4.23333333333
2056	1.028	0.65	-15.1	-4.01111111111	-5.66666666667
2057	1.0285	-0.8	-16.5130434783	0.355555555556	-2.8
2058	1.029	-12.4	-16.5130434783	-1.1	-2.8
2059	1.0295	-5.15	-13.6869565217	3.26666666667	5.8
2060	1.03	0.65	-13.6869565217	0.355555555556	2.93333333333
2061	1.0305	0.65	-12.2739130435	0.355555555556	-1.36666666667
2062	1.031	-0.8	-17.9260869565	0.355555555556	0.0666666666667
2063	1.0315	-3.7	-6.62173913043	1.81111111111	-1.36666666667
2064	1.032	2.1	-3.79565217391	1.81111111111	-1.36666666667
2065	1.0325	-0.8	-6.62173913043	1.81111111111	-2.8
2066	1.033	2.1	-3.79565217391	-8.37777777778	-2.8
2067	1.0335	0.65	-5.20869565217	0.355555555556	-1.36666666667
2068	1.034	2.1	3.26956521739	1.81111111111	-2.8
2069	1.0345	-0.8	-2.38260869565	0.355555555556	0.0666666666667
2070	1.035	-12.4	0.44347826087	1.81111111111	-1.36666666667
2071	1.0355	0.65	-0.969565217391	1.81111111111	10.1
2072	1.036	0.65	-2.38260869565	7.63333333333	-2.8
2073	1.0365	2.1	-3.79565217391	0.355555555556	-2.8
2074	1.037	3.55	-16.5130434783	0.355555555556	-2.8
2075	1.0375	3.55	-17.9260869565	3.26666666667	-4.23333333333
2076	1.038	22.4	-8.0347826087	0.355555555556	-2.8
2077	1.0385	2.1	-5.20869565217	1.81111111111	-12.8333333333
2078	1.039	2.1	-6.62173913043	-1.1	17.2666666667
2079	1.0395	0.65	-10.8608695652	3.26666666667	-4.23333333333
2080	1.04	2.1	1.85652173913	3.26666666667	-5.66666666667
2081	1.0405	0.65	-19.3391304348	1.81111111111	-5.66666666667
2082	1.041	9.35	-13.6869565217	-1.1	-11.4
2083	1.0415	0.65	-10.8608695652	0.355555555556	-12.8333333333
2084	1.042	0.65	-15.1	-4.01111111111	-11.4
2085	1.0425	0.65	-13.6869565217	-1.1	-7.1
2086	1.043	2.1	-23.5782608696	0.355555555556	-5.66666666667
2087	1.0435	0.65	-15.1	0.355555555556	-5.66666666667
2088	1.044	13.7	-15.1	0.355555555556	-7.1
2089	1.0445	-0.8	-15.1	-9.83333333333	-5.66666666667
2090	1.045	-0.8	-13.6869565217	-9.83333333333	-5.66666666667
2091	1.0455	2.1	-12.2739130435	1.81111111111	-4.23333333333
2092	1.046	0.65	6.09565217391	1.81111111111	-2.8
2093	1.0465	-8.05	-12.2739130435	1.81111111111	-1.36666666667
2094	1.047	-10.95	-9.44782608696	1.81111111111	8.66666666667
2095	1.0475	0.65	-9.44782608696	0.355555555556	8.66666666667
2096	1.048	-2.25	-8.0347826087	-2.55555555556	-4.23333333333
2097	1.0485	-0.8	-6.62173913043	1.81111111111	-1.36666666667
2098	1.049	-0.8	-13.6869565217	3.26666666667	-1.36666666667
2099	1.0495	-6.6	-6.62173913043	1.81111111111	1.5
2100	1.05	5.0	-5.20869565217	0.355555555556	1.5
2101	1.0505	-2.25	-2.38260869565	6.17777777778	-4.23333333333
2102	1.051	0.65	-0.969565217391	4.72222222222	0.0666666666667
2103	1.0515	-0.8	-6.62173913043	3.26666666667	-2.8
2104	1.052	2.1	1.85652173913	0.355555555556	-1.36666666667
2105	1.0525	7.9	0.44347826087	3.26666666667	-2.8
2106	1.053	-5.15	-0.969565217391	3.26666666667	2.93333333333
2107	1.0535	2.1	-2.38260869565	9.08888888889	-1.36666666667
2108	1.054	-0.8	-10.8608695652	4.72222222222	-1.36666666667
2109	1.0545	3.55	-3.79565217391	1.81111111111	-1.36666666667
2110	1.055	5.0	-2.38260869565	1.81111111111	-2.8
2111	1.0555	10.8	-5.20869565217	-1.1	-4.23333333333
2112	1.056	0.65	-10.8608695652	3.26666666667	5.8
2113	1.0565	2.1	-9.44782608696	0.355555555556	-5.66666666667
2114	1.057	-2.25	-10.8608695652	4.72222222222	-2.8
2115	1.0575	-0.8	-3.79565217391	3.26666666667	-4.23333333333
2116	1.058	-15.3	-15.1	1.81111111111	0.0666666666667
2117	1.0585	-8.05	-16.5130434783	0.355555555556	-1.36666666667
2118	1.059	2.1	-17.9260869565	4.72222222222	7.23333333333
2119	1.0595	0.65	-20.752173913	22.1888888889	-4.23333333333
2120	1.06	-2.25	-33.4695652174	1.81111111111	-5.66666666667
2121	1.0605	0.65	-30.6434782609	-2.55555555556	-5.66666666667
2122	1.061	-3.7	-22.1652173913	1.81111111111	-4.23333333333
2123	1.0615	-2.25	-20.752173913	1.81111111111	7.23333333333
2124	1.062	0.65	-19.3391304348	1.81111111111	2.93333333333
2125	1.0625	-3.7	-19.3391304348	0.355555555556	-1.36666666667
2126	1.063	-0.8	-6.62173913043	1.81111111111	-1.36666666667
2127	1.0635	-5.15	-6.62173913043	-2.55555555556	0.0666666666667
2128	1.064	-10.95	-12.2739130435	1.81111111111	-2.8
2129	1.0645	-0.8	-12.2739130435	3.26666666667	-7.1
2130	1.065	-0.8	-10.8608695652	3.26666666667	-1.36666666667
2131	1.0655	0.65	-9.44782608696	-2.55555555556	-1.36666666667
2132	1.066	0.65	-2.38260869565	-1.1	-1.36666666667
2133	1.0665	-0.8	-9.44782608696	-1.1	-1.36666666667
2134	1.067	3.55	-8.0347826087	0.355555555556	-1.36666666667
2135	1.0675	-2.25	-8.0347826087	-2.55555555556	-7.1
2136	1.068	-2.25	-9.44782608696	-2.55555555556	-8.53333333333
2137	1.0685	0.65	-6.62173913043	1.81111111111	-1.36666666667
2138	1.069	-2.25	-9.44782608696	3.26666666667	0.0666666666667
2139	1.0695	-2.25	-6.62173913043	0.355555555556	0.0666666666667
2140	1.07	15.15	-9.44782608696	1.81111111111	-1.36666666667
2141	1.0705	-2.25	-12.2739130435	0.355555555556	12.9666666667
2142	1.071	-2.25	-13.6869565217	-5.46666666667	-2.8
2143	1.0715	-0.8	-13.6869565217	3.26666666667	-1.36666666667
2144	1.072	2.1	-10.8608695652	0.355555555556	-4.23333333333
2145	1.0725	2.1	-10.8608695652	1.81111111111	0.0666666666667
2146	1.073	-6.6	-10.8608695652	-1.1	-1.36666666667
2147	1.0735	0.65	-13.6869565217	1.81111111111	-5.66666666667
2148	1.074	0.65	-17.9260869565	12.0	-4.23333333333
2149	1.0745	-3.7	-16.5130434783	1.81111111111	-5.66666666667
2150	1.075	-2.25	-23.5782608696	0.355555555556	-5.66666666667
2151	1.0755	-0.8	-16.5130434783	1.81111111111	-4.23333333333
2152	1.076	15.15	-17.9260869565	0.355555555556	-11.4
2153	1.0765	-0.8	-20.752173913	1.81111111111	-12.8333333333
2154	1.077	-2.25	-19.3391304348	-6.92222222222	-7.1
2155	1.0775	-2.25	-26.4043478261	0.355555555556	-1.36666666667
2156	1.078	-0.8	-6.62173913043	1.81111111111	-2.8
2157	1.0785	-5.15	-17.9260869565	-1.1	0.0666666666667
2158	1.079	-9.5	-16.5130434783	3.26666666667	15.8333333333
2159	1.0795	-2.25	-16.5130434783	-1.1	17.2666666667
2160	1.08	-5.15	-13.6869565217	4.72222222222	-1.36666666667
2161	1.0805	-2.25	-20.752173913	1.81111111111	-2.8
2162	1.081	-0.8	-19.3391304348	3.26666666667	-1.36666666667
2163	1.0815	5.0	-9.44782608696	1.81111111111	1.5
2164	1.082	-2.25	-8.0347826087	0.355555555556	15.8333333333
2165	1.0825	-2.25	-6.62173913043	-1.1	12.9666666667
2166	1.083	-0.8	-2.38260869565	16.3666666667	-1.36666666667
2167	1.0835	-2.25	-13.6869565217	-2.55555555556	-1.36666666667
2168	1.084	2.1	-2.38260869565	3.26666666667	1.5
2169	1.0845	-0.8	1.85652173913	3.26666666667	1.5
2170	1.085	-0.8	1.85652173913	1.81111111111	0.0666666666667
2171	1.0855	-0.8	1.85652173913	-8.37777777778	0.0666666666667
2172	1.086	-0.8	0.44347826087	-1.1	-1.36666666667
2173	1.0865	-0.8	1.85652173913	1.81111111111	-1.36666666667
2174	1.087	-3.7	-5.20869565217	1.81111111111	0.0666666666667
