	Time	Channel 1	Channel 2	Channel 3	Channel 4
0	0.0	-7.8	-10.6493243243	0.431578947368	-9.87394957983
1	0.0005	-2.15714285714	-16.2844594595	1.87105263158	-8.45798319328
2	0.001	-4.97857142857	-10.6493243243	-1.00789473684	-14.1218487395
3	0.0015	-3.56785714286	4.8472972973	-2.44736842105	-16.9537815126
4	0.002	-16.2642857143	-7.83175675676	1.87105263158	-8.45798319328
5	0.0025	-13.4428571429	-10.6493243243	-1.00789473684	-9.87394957983
6	0.003	-3.56785714286	-12.0581081081	3.31052631579	-11.2899159664
7	0.0035	0.664285714286	-6.42297297297	-9.64473684211	-9.87394957983
8	0.004	-0.746428571429	-6.42297297297	4.75	-11.2899159664
9	0.0045	0.664285714286	-5.01418918919	3.31052631579	4.28571428571
10	0.005	0.664285714286	-6.42297297297	7.62894736842	-8.45798319328
11	0.0055	7.71785714286	-10.6493243243	-1.00789473684	-9.87394957983
12	0.006	16.1821428571	-7.83175675676	-1.00789473684	-11.2899159664
13	0.0065	-3.56785714286	-5.01418918919	-1.00789473684	-16.9537815126
14	0.007	-2.15714285714	-5.01418918919	-5.32631578947	-9.87394957983
15	0.0075	0.664285714286	-12.0581081081	0.431578947368	-7.04201680672
16	0.008	-0.746428571429	6.25608108108	-1.00789473684	-9.87394957983
17	0.0085	-4.97857142857	-5.01418918919	1.87105263158	-8.45798319328
18	0.009	16.1821428571	-2.19662162162	-1.00789473684	-9.87394957983
19	0.0095	-2.15714285714	-3.60540540541	-8.20526315789	-7.04201680672
20	0.01	-2.15714285714	-5.01418918919	1.87105263158	-4.21008403361
21	0.0105	-0.746428571429	-20.5108108108	0.431578947368	-4.21008403361
22	0.011	-3.56785714286	-14.8756756757	0.431578947368	-2.79411764706
23	0.0115	11.95	-10.6493243243	-1.00789473684	0.0378151260504
24	0.012	-6.38928571429	-12.0581081081	3.31052631579	5.70168067227
25	0.0125	-3.56785714286	-7.83175675676	-2.44736842105	-9.87394957983
26	0.013	-2.15714285714	-5.01418918919	-8.20526315789	-4.21008403361
27	0.0135	-2.15714285714	9.07364864865	-1.00789473684	-4.21008403361
28	0.014	0.664285714286	-3.60540540541	-1.00789473684	-5.62605042017
29	0.0145	0.664285714286	-3.60540540541	0.431578947368	-15.5378151261
30	0.015	-3.56785714286	-3.60540540541	-2.44736842105	2.86974789916
31	0.0155	-0.746428571429	-3.60540540541	9.06842105263	-5.62605042017
32	0.016	-2.15714285714	6.25608108108	3.31052631579	-7.04201680672
33	0.0165	-3.56785714286	-6.42297297297	0.431578947368	-2.79411764706
34	0.017	17.5928571429	-10.6493243243	0.431578947368	-7.04201680672
35	0.0175	-7.8	-10.6493243243	1.87105263158	-4.21008403361
36	0.018	-7.8	-7.83175675676	3.31052631579	-7.04201680672
37	0.0185	-3.56785714286	-3.60540540541	1.87105263158	-8.45798319328
38	0.019	-3.56785714286	-3.60540540541	-1.00789473684	-7.04201680672
39	0.0195	-4.97857142857	-6.42297297297	1.87105263158	-7.04201680672
40	0.02	16.1821428571	-5.01418918919	0.431578947368	-9.87394957983
41	0.0205	0.664285714286	-5.01418918919	0.431578947368	-18.3697478992
42	0.021	0.664285714286	-2.19662162162	-2.44736842105	-7.04201680672
43	0.0215	-0.746428571429	-7.83175675676	0.431578947368	-8.45798319328
44	0.022	-0.746428571429	-3.60540540541	1.87105263158	-8.45798319328
45	0.0225	-12.0321428571	-5.01418918919	3.31052631579	-5.62605042017
46	0.023	-9.21071428571	-7.83175675676	-1.00789473684	0.0378151260504
47	0.0235	-3.56785714286	-9.24054054054	-1.00789473684	-8.45798319328
48	0.024	-4.97857142857	-7.83175675676	3.31052631579	-12.7058823529
49	0.0245	-3.56785714286	-10.6493243243	1.87105263158	-12.7058823529
50	0.025	-2.15714285714	-16.2844594595	3.31052631579	-9.87394957983
51	0.0255	10.5392857143	-10.6493243243	3.31052631579	-11.2899159664
52	0.026	2.075	-6.42297297297	1.87105263158	-18.3697478992
53	0.0265	0.664285714286	-10.6493243243	-5.32631578947	-8.45798319328
54	0.027	0.664285714286	-19.102027027	-1.00789473684	-8.45798319328
55	0.0275	0.664285714286	-16.2844594595	-1.00789473684	-7.04201680672
56	0.028	-13.4428571429	-6.42297297297	0.431578947368	-7.04201680672
57	0.0285	-0.746428571429	-6.42297297297	0.431578947368	-1.3781512605
58	0.029	-0.746428571429	-5.01418918919	6.18947368421	-14.1218487395
59	0.0295	-4.97857142857	-2.19662162162	-3.88684210526	-8.45798319328
60	0.03	-2.15714285714	-10.6493243243	0.431578947368	-9.87394957983
61	0.0305	-4.97857142857	-3.60540540541	0.431578947368	-8.45798319328
62	0.031	16.1821428571	-3.60540540541	3.31052631579	-18.3697478992
63	0.0315	-0.746428571429	-0.787837837838	0.431578947368	-16.9537815126
64	0.032	0.664285714286	-0.787837837838	-2.44736842105	-8.45798319328
65	0.0325	2.075	0.620945945946	-1.00789473684	-5.62605042017
66	0.033	2.075	4.8472972973	0.431578947368	-7.04201680672
67	0.0335	14.7714285714	2.02972972973	0.431578947368	-15.5378151261
68	0.034	-4.97857142857	0.620945945946	1.87105263158	-8.45798319328
69	0.0345	-0.746428571429	-3.60540540541	-8.20526315789	-8.45798319328
70	0.035	-0.746428571429	-0.787837837838	-6.76578947368	-8.45798319328
71	0.0355	3.48571428571	16.1175675676	0.431578947368	-7.04201680672
72	0.036	2.075	-5.01418918919	1.87105263158	-7.04201680672
73	0.0365	-6.38928571429	-5.01418918919	0.431578947368	-2.79411764706
74	0.037	-0.746428571429	-7.83175675676	-8.20526315789	-8.45798319328
75	0.0375	-0.746428571429	-7.83175675676	-8.20526315789	-8.45798319328
76	0.038	-2.15714285714	7.66486486486	-2.44736842105	-4.21008403361
77	0.0385	-4.97857142857	-7.83175675676	0.431578947368	-4.21008403361
78	0.039	0.664285714286	-6.42297297297	-1.00789473684	-5.62605042017
79	0.0395	-0.746428571429	-5.01418918919	0.431578947368	-9.87394957983
80	0.04	-2.15714285714	-5.01418918919	9.06842105263	-2.79411764706
81	0.0405	2.075	-2.19662162162	13.3868421053	-2.79411764706
82	0.041	-0.746428571429	-9.24054054054	3.31052631579	-1.3781512605
83	0.0415	-0.746428571429	-3.60540540541	1.87105263158	-4.21008403361
84	0.042	20.4142857143	-2.19662162162	-1.00789473684	-4.21008403361
85	0.0425	-0.746428571429	-3.60540540541	17.7052631579	-4.21008403361
86	0.043	-2.15714285714	-5.01418918919	11.9473684211	-2.79411764706
87	0.0435	-2.15714285714	-12.0581081081	-1.00789473684	-1.3781512605
88	0.044	0.664285714286	-0.787837837838	-1.00789473684	-5.62605042017
89	0.0445	-0.746428571429	-6.42297297297	-1.00789473684	-2.79411764706
90	0.045	-0.746428571429	-9.24054054054	0.431578947368	-11.2899159664
91	0.0455	-2.15714285714	-7.83175675676	-8.20526315789	-12.7058823529
92	0.046	-0.746428571429	-21.9195945946	1.87105263158	-4.21008403361
93	0.0465	0.664285714286	-16.2844594595	3.31052631579	-5.62605042017
94	0.047	4.89642857143	-5.01418918919	3.31052631579	-4.21008403361
95	0.0475	10.5392857143	-6.42297297297	0.431578947368	-5.62605042017
96	0.048	-0.746428571429	-7.83175675676	0.431578947368	14.1974789916
97	0.0485	0.664285714286	-3.60540540541	-6.76578947368	-4.21008403361
98	0.049	-2.15714285714	13.3	0.431578947368	-7.04201680672
99	0.0495	-2.15714285714	9.07364864865	1.87105263158	-9.87394957983
100	0.05	-13.4428571429	-5.01418918919	-1.00789473684	-5.62605042017
101	0.0505	-4.97857142857	-5.01418918919	-1.00789473684	-14.1218487395
102	0.051	-4.97857142857	-9.24054054054	-2.44736842105	-16.9537815126
103	0.0515	-2.15714285714	-9.24054054054	1.87105263158	-9.87394957983
104	0.052	-3.56785714286	-16.2844594595	0.431578947368	-9.87394957983
105	0.0525	7.71785714286	-12.0581081081	1.87105263158	-7.04201680672
106	0.053	17.5928571429	-3.60540540541	4.75	-14.1218487395
107	0.0535	-3.56785714286	-5.01418918919	-1.00789473684	-9.87394957983
108	0.054	3.48571428571	-0.787837837838	13.3868421053	-8.45798319328
109	0.0545	0.664285714286	0.620945945946	0.431578947368	-8.45798319328
110	0.055	-2.15714285714	3.43851351351	-1.00789473684	-8.45798319328
111	0.0555	-12.0321428571	0.620945945946	1.87105263158	-4.21008403361
112	0.056	-7.8	0.620945945946	-1.00789473684	-1.3781512605
113	0.0565	-2.15714285714	3.43851351351	0.431578947368	-16.9537815126
114	0.057	-2.15714285714	0.620945945946	0.431578947368	-8.45798319328
115	0.0575	-2.15714285714	-3.60540540541	-2.44736842105	-9.87394957983
116	0.058	0.664285714286	-5.01418918919	-1.00789473684	-9.87394957983
117	0.0585	10.5392857143	-5.01418918919	3.31052631579	-15.5378151261
118	0.059	-7.8	-5.01418918919	0.431578947368	-16.9537815126
119	0.0595	0.664285714286	-0.787837837838	-2.44736842105	-11.2899159664
120	0.06	-2.15714285714	2.02972972973	-5.32631578947	-4.21008403361
121	0.0605	0.664285714286	11.8912162162	-2.44736842105	-2.79411764706
122	0.061	2.075	-6.42297297297	-2.44736842105	-7.04201680672
123	0.0615	-7.8	-2.19662162162	1.87105263158	-2.79411764706
124	0.062	-0.746428571429	-3.60540540541	-1.00789473684	-4.21008403361
125	0.0625	0.664285714286	0.620945945946	-9.64473684211	-4.21008403361
126	0.063	-0.746428571429	4.8472972973	-8.20526315789	-4.21008403361
127	0.0635	-4.97857142857	3.43851351351	-1.00789473684	-5.62605042017
128	0.064	7.71785714286	2.02972972973	0.431578947368	-8.45798319328
129	0.0645	-9.21071428571	0.620945945946	1.87105263158	-4.21008403361
130	0.065	-2.15714285714	-0.787837837838	17.7052631579	-5.62605042017
131	0.0655	-0.746428571429	3.43851351351	0.431578947368	-7.04201680672
132	0.066	-0.746428571429	3.43851351351	1.87105263158	-4.21008403361
133	0.0665	-10.6214285714	-10.6493243243	1.87105263158	-4.21008403361
134	0.067	17.5928571429	-5.01418918919	-1.00789473684	-5.62605042017
135	0.0675	2.075	-7.83175675676	-9.64473684211	-2.79411764706
136	0.068	0.664285714286	-7.83175675676	-1.00789473684	-2.79411764706
137	0.0685	0.664285714286	-5.01418918919	-3.88684210526	-5.62605042017
138	0.069	-0.746428571429	-3.60540540541	-1.00789473684	-5.62605042017
139	0.0695	-4.97857142857	-7.83175675676	1.87105263158	-2.79411764706
140	0.07	-7.8	-6.42297297297	-1.00789473684	14.1974789916
141	0.0705	-0.746428571429	-6.42297297297	-8.20526315789	-7.04201680672
142	0.071	-2.15714285714	-5.01418918919	-2.44736842105	-4.21008403361
143	0.0715	-0.746428571429	7.66486486486	1.87105263158	-4.21008403361
144	0.072	2.075	-9.24054054054	-1.00789473684	-1.3781512605
145	0.0725	-10.6214285714	-10.6493243243	3.31052631579	-2.79411764706
146	0.073	-2.15714285714	-9.24054054054	-9.64473684211	-8.45798319328
147	0.0735	-0.746428571429	-7.83175675676	-3.88684210526	-8.45798319328
148	0.074	-0.746428571429	-6.42297297297	4.75	-5.62605042017
149	0.0745	0.664285714286	-13.4668918919	1.87105263158	-7.04201680672
150	0.075	-10.6214285714	-3.60540540541	3.31052631579	-1.3781512605
151	0.0755	0.664285714286	-3.60540540541	4.75	5.70168067227
152	0.076	0.664285714286	-6.42297297297	3.31052631579	-9.87394957983
153	0.0765	-2.15714285714	-2.19662162162	-3.88684210526	-5.62605042017
154	0.077	0.664285714286	10.4824324324	1.87105263158	-5.62605042017
155	0.0775	2.075	0.620945945946	0.431578947368	-8.45798319328
156	0.078	11.95	-0.787837837838	1.87105263158	-8.45798319328
157	0.0785	-3.56785714286	0.620945945946	0.431578947368	-14.1218487395
158	0.079	-2.15714285714	0.620945945946	-6.76578947368	-4.21008403361
159	0.0795	0.664285714286	3.43851351351	-5.32631578947	-2.79411764706
160	0.08	2.075	0.620945945946	3.31052631579	-4.21008403361
161	0.0805	11.95	3.43851351351	0.431578947368	-2.79411764706
162	0.081	-2.15714285714	0.620945945946	1.87105263158	-1.3781512605
163	0.0815	7.71785714286	-2.19662162162	3.31052631579	12.781512605
164	0.082	3.48571428571	3.43851351351	0.431578947368	-2.79411764706
165	0.0825	3.48571428571	16.1175675676	1.87105263158	-4.21008403361
166	0.083	3.48571428571	-5.01418918919	1.87105263158	-1.3781512605
167	0.0835	4.89642857143	-5.01418918919	1.87105263158	-9.87394957983
168	0.084	-3.56785714286	-6.42297297297	1.87105263158	-15.5378151261
169	0.0845	-2.15714285714	-2.19662162162	17.7052631579	-4.21008403361
170	0.085	-0.746428571429	-10.6493243243	3.31052631579	-5.62605042017
171	0.0855	-3.56785714286	-9.24054054054	1.87105263158	-7.04201680672
172	0.086	-4.97857142857	-0.787837837838	0.431578947368	-7.04201680672
173	0.0865	-14.8535714286	-2.19662162162	0.431578947368	7.11764705882
174	0.087	-4.97857142857	-3.60540540541	-8.20526315789	-9.87394957983
175	0.0875	-2.15714285714	-5.01418918919	-6.76578947368	-5.62605042017
176	0.088	-2.15714285714	-14.8756756757	0.431578947368	-9.87394957983
177	0.0885	2.075	-3.60540540541	0.431578947368	-8.45798319328
178	0.089	-2.15714285714	-5.01418918919	1.87105263158	-1.3781512605
179	0.0895	-2.15714285714	-3.60540540541	4.75	-9.87394957983
180	0.09	-2.15714285714	-6.42297297297	3.31052631579	-8.45798319328
181	0.0905	-0.746428571429	-3.60540540541	9.06842105263	-5.62605042017
182	0.091	-0.746428571429	-10.6493243243	0.431578947368	-4.21008403361
183	0.0915	-6.38928571429	-5.01418918919	0.431578947368	-8.45798319328
184	0.092	0.664285714286	-9.24054054054	0.431578947368	-5.62605042017
185	0.0925	-0.746428571429	-7.83175675676	0.431578947368	-12.7058823529
186	0.093	0.664285714286	-6.42297297297	-5.32631578947	-5.62605042017
187	0.0935	0.664285714286	-12.0581081081	0.431578947368	-5.62605042017
188	0.094	0.664285714286	-20.5108108108	3.31052631579	-7.04201680672
189	0.0945	17.5928571429	-12.0581081081	3.31052631579	-19.7857142857
190	0.095	-3.56785714286	-12.0581081081	1.87105263158	-14.1218487395
191	0.0955	-3.56785714286	-14.8756756757	-2.44736842105	-7.04201680672
192	0.096	-2.15714285714	-13.4668918919	-2.44736842105	-7.04201680672
193	0.0965	-0.746428571429	-9.24054054054	0.431578947368	-5.62605042017
194	0.097	-4.97857142857	-12.0581081081	1.87105263158	-7.04201680672
195	0.0975	-9.21071428571	-10.6493243243	3.31052631579	-5.62605042017
196	0.098	-0.746428571429	-13.4668918919	-9.64473684211	-2.79411764706
197	0.0985	-2.15714285714	-10.6493243243	-8.20526315789	-4.21008403361
198	0.099	0.664285714286	6.25608108108	0.431578947368	-2.79411764706
199	0.0995	3.48571428571	-7.83175675676	-1.00789473684	-7.04201680672
200	0.1	19.0035714286	-5.01418918919	1.87105263158	-12.7058823529
201	0.1005	-0.746428571429	-9.24054054054	1.87105263158	-7.04201680672
202	0.101	3.48571428571	-10.6493243243	13.3868421053	-2.79411764706
203	0.1015	-2.15714285714	-6.42297297297	1.87105263158	-5.62605042017
204	0.102	-4.97857142857	-2.19662162162	0.431578947368	-7.04201680672
205	0.1025	-16.2642857143	-10.6493243243	0.431578947368	-4.21008403361
206	0.103	-0.746428571429	-0.787837837838	-1.00789473684	-8.45798319328
207	0.1035	-0.746428571429	-0.787837837838	1.87105263158	7.11764705882
208	0.104	-0.746428571429	3.43851351351	14.8263157895	-7.04201680672
209	0.1045	-0.746428571429	-6.42297297297	-1.00789473684	-5.62605042017
210	0.105	2.075	-7.83175675676	-1.00789473684	-8.45798319328
211	0.1055	19.0035714286	2.02972972973	0.431578947368	-9.87394957983
212	0.106	-4.97857142857	2.02972972973	-2.44736842105	-18.3697478992
213	0.1065	-7.8	-2.19662162162	-3.88684210526	-8.45798319328
214	0.107	-4.97857142857	-13.4668918919	-1.00789473684	-5.62605042017
215	0.1075	-0.746428571429	-12.0581081081	-1.00789473684	-7.04201680672
216	0.108	0.664285714286	-5.01418918919	-1.00789473684	-7.04201680672
217	0.1085	-7.8	-6.42297297297	-1.00789473684	7.11764705882
218	0.109	-0.746428571429	-3.60540540541	1.87105263158	7.11764705882
219	0.1095	-3.56785714286	-0.787837837838	-8.20526315789	-8.45798319328
220	0.11	-3.56785714286	0.620945945946	0.431578947368	-5.62605042017
221	0.1105	-4.97857142857	14.7087837838	3.31052631579	-8.45798319328
222	0.111	-12.0321428571	-6.42297297297	0.431578947368	-4.21008403361
223	0.1115	0.664285714286	-7.83175675676	-9.64473684211	-8.45798319328
224	0.112	-0.746428571429	-9.24054054054	-8.20526315789	-7.04201680672
225	0.1125	-0.746428571429	-3.60540540541	-1.00789473684	-5.62605042017
226	0.113	-3.56785714286	-7.83175675676	0.431578947368	-8.45798319328
227	0.1135	-7.8	-6.42297297297	0.431578947368	-7.04201680672
228	0.114	-6.38928571429	-6.42297297297	-1.00789473684	5.70168067227
229	0.1145	0.664285714286	-7.83175675676	0.431578947368	8.53361344538
230	0.115	-0.746428571429	-9.24054054054	16.2657894737	-9.87394957983
231	0.1155	-2.15714285714	6.25608108108	0.431578947368	-7.04201680672
232	0.116	-3.56785714286	-6.42297297297	3.31052631579	-4.21008403361
233	0.1165	-10.6214285714	-10.6493243243	-1.00789473684	-4.21008403361
234	0.117	-2.15714285714	-3.60540540541	1.87105263158	-11.2899159664
235	0.1175	0.664285714286	0.620945945946	17.7052631579	-7.04201680672
236	0.118	0.664285714286	-2.19662162162	19.1447368421	-7.04201680672
237	0.1185	2.075	-10.6493243243	-1.00789473684	-7.04201680672
238	0.119	2.075	2.02972972973	1.87105263158	-9.87394957983
239	0.1195	20.4142857143	2.02972972973	-1.00789473684	-11.2899159664
240	0.12	0.664285714286	3.43851351351	-11.0842105263	-9.87394957983
241	0.1205	-2.15714285714	-3.60540540541	-5.32631578947	-8.45798319328
242	0.121	0.664285714286	13.3	0.431578947368	-8.45798319328
243	0.1215	3.48571428571	-5.01418918919	0.431578947368	-9.87394957983
244	0.122	13.3607142857	-5.01418918919	0.431578947368	-11.2899159664
245	0.1225	-2.15714285714	-3.60540540541	0.431578947368	-2.79411764706
246	0.123	-0.746428571429	-6.42297297297	-5.32631578947	-9.87394957983
247	0.1235	0.664285714286	-9.24054054054	4.75	-11.2899159664
248	0.124	-0.746428571429	-6.42297297297	1.87105263158	-9.87394957983
249	0.1245	-7.8	-5.01418918919	3.31052631579	-9.87394957983
250	0.125	-6.38928571429	0.620945945946	-1.00789473684	0.0378151260504
251	0.1255	3.48571428571	0.620945945946	1.87105263158	1.45378151261
252	0.126	-0.746428571429	-2.19662162162	14.8263157895	-8.45798319328
253	0.1265	0.664285714286	-6.42297297297	0.431578947368	-9.87394957983
254	0.127	-3.56785714286	-10.6493243243	-2.44736842105	-8.45798319328
255	0.1275	-10.6214285714	-6.42297297297	0.431578947368	-4.21008403361
256	0.128	-0.746428571429	-0.787837837838	1.87105263158	12.781512605
257	0.1285	-3.56785714286	-0.787837837838	4.75	-5.62605042017
258	0.129	-2.15714285714	-12.0581081081	0.431578947368	-4.21008403361
259	0.1295	-0.746428571429	-12.0581081081	1.87105263158	-4.21008403361
260	0.13	-13.4428571429	-3.60540540541	-1.00789473684	-2.79411764706
261	0.1305	2.075	-0.787837837838	0.431578947368	4.28571428571
262	0.131	0.664285714286	-2.19662162162	4.75	-9.87394957983
263	0.1315	-0.746428571429	-2.19662162162	6.18947368421	-7.04201680672
264	0.132	0.664285714286	2.02972972973	0.431578947368	-4.21008403361
265	0.1325	-10.6214285714	0.620945945946	0.431578947368	-4.21008403361
266	0.133	-4.97857142857	-2.19662162162	0.431578947368	-1.3781512605
267	0.1335	0.664285714286	-0.787837837838	4.75	-8.45798319328
268	0.134	-3.56785714286	-3.60540540541	16.2657894737	-4.21008403361
269	0.1345	-2.15714285714	17.5263513514	0.431578947368	-8.45798319328
270	0.135	-2.15714285714	-0.787837837838	-1.00789473684	-7.04201680672
271	0.1355	-2.15714285714	4.8472972973	-2.44736842105	2.86974789916
272	0.136	0.664285714286	0.620945945946	-2.44736842105	-1.3781512605
273	0.1365	0.664285714286	0.620945945946	1.87105263158	-11.2899159664
274	0.137	2.075	4.8472972973	3.31052631579	-7.04201680672
275	0.1375	0.664285714286	6.25608108108	1.87105263158	-8.45798319328
276	0.138	-9.21071428571	2.02972972973	0.431578947368	-8.45798319328
277	0.1385	9.12857142857	0.620945945946	1.87105263158	-11.2899159664
278	0.139	2.075	0.620945945946	3.31052631579	-15.5378151261
279	0.1395	2.075	-2.19662162162	1.87105263158	-8.45798319328
280	0.14	-0.746428571429	-5.01418918919	0.431578947368	-9.87394957983
281	0.1405	-4.97857142857	-6.42297297297	0.431578947368	-8.45798319328
282	0.141	9.12857142857	-6.42297297297	1.87105263158	-7.04201680672
283	0.1415	3.48571428571	-3.60540540541	0.431578947368	-15.5378151261
284	0.142	0.664285714286	-5.01418918919	-1.00789473684	-8.45798319328
285	0.1425	-0.746428571429	-6.42297297297	-6.76578947368	-9.87394957983
286	0.143	-2.15714285714	7.66486486486	4.75	-11.2899159664
287	0.1435	-4.97857142857	-5.01418918919	0.431578947368	-8.45798319328
288	0.144	-7.8	-6.42297297297	1.87105263158	-5.62605042017
289	0.1445	0.664285714286	-2.19662162162	-8.20526315789	-7.04201680672
290	0.145	-2.15714285714	0.620945945946	-9.64473684211	-8.45798319328
291	0.1455	-0.746428571429	21.7527027027	-1.00789473684	-7.04201680672
292	0.146	-14.8535714286	-0.787837837838	0.431578947368	-9.87394957983
293	0.1465	-0.746428571429	-2.19662162162	-1.00789473684	-18.3697478992
294	0.147	-2.15714285714	0.620945945946	-1.00789473684	-9.87394957983
295	0.1475	0.664285714286	2.02972972973	-2.44736842105	-7.04201680672
296	0.148	-0.746428571429	16.1175675676	0.431578947368	-8.45798319328
297	0.1485	-2.15714285714	13.3	-1.00789473684	-9.87394957983
298	0.149	-6.38928571429	0.620945945946	-1.00789473684	2.86974789916
299	0.1495	-3.56785714286	0.620945945946	-12.5236842105	-8.45798319328
300	0.15	0.664285714286	2.02972972973	3.31052631579	-9.87394957983
301	0.1505	2.075	-6.42297297297	1.87105263158	-7.04201680672
302	0.151	4.89642857143	0.620945945946	0.431578947368	-8.45798319328
303	0.1515	9.12857142857	-5.01418918919	0.431578947368	-7.04201680672
304	0.152	-4.97857142857	-3.60540540541	1.87105263158	-1.3781512605
305	0.1525	2.075	-2.19662162162	-1.00789473684	-9.87394957983
306	0.153	0.664285714286	0.620945945946	-3.88684210526	-8.45798319328
307	0.1535	0.664285714286	3.43851351351	3.31052631579	-9.87394957983
308	0.154	-7.8	-3.60540540541	0.431578947368	-8.45798319328
309	0.1545	-6.38928571429	-5.01418918919	0.431578947368	-8.45798319328
310	0.155	0.664285714286	-5.01418918919	-3.88684210526	-9.87394957983
311	0.1555	2.075	-0.787837837838	0.431578947368	-8.45798319328
312	0.156	3.48571428571	18.9351351351	-1.00789473684	-8.45798319328
313	0.1565	2.075	-2.19662162162	-1.00789473684	-8.45798319328
314	0.157	19.0035714286	-0.787837837838	3.31052631579	-21.2016806723
315	0.1575	-2.15714285714	2.02972972973	3.31052631579	-16.9537815126
316	0.158	-0.746428571429	-0.787837837838	-1.00789473684	-8.45798319328
317	0.1585	-0.746428571429	-9.24054054054	-1.00789473684	-8.45798319328
318	0.159	2.075	-6.42297297297	0.431578947368	-7.04201680672
319	0.1595	16.1821428571	-0.787837837838	-1.00789473684	-8.45798319328
320	0.16	-3.56785714286	-2.19662162162	0.431578947368	-9.87394957983
321	0.1605	0.664285714286	-5.01418918919	9.06842105263	-8.45798319328
322	0.161	-2.15714285714	-6.42297297297	0.431578947368	-8.45798319328
323	0.1615	0.664285714286	7.66486486486	0.431578947368	-8.45798319328
324	0.162	0.664285714286	17.5263513514	0.431578947368	-9.87394957983
325	0.1625	-7.8	3.43851351351	-1.00789473684	-7.04201680672
326	0.163	3.48571428571	0.620945945946	-13.9631578947	-8.45798319328
327	0.1635	0.664285714286	-2.19662162162	-8.20526315789	-12.7058823529
328	0.164	4.89642857143	4.8472972973	-1.00789473684	-4.21008403361
329	0.1645	4.89642857143	-2.19662162162	0.431578947368	-4.21008403361
330	0.165	3.48571428571	-6.42297297297	-1.00789473684	-4.21008403361
331	0.1655	10.5392857143	0.620945945946	1.87105263158	-14.1218487395
332	0.166	7.71785714286	3.43851351351	-9.64473684211	-15.5378151261
333	0.1665	6.30714285714	-2.19662162162	-1.00789473684	-7.04201680672
334	0.167	3.48571428571	-3.60540540541	-1.00789473684	-8.45798319328
335	0.1675	3.48571428571	0.620945945946	0.431578947368	-7.04201680672
336	0.168	-3.56785714286	-0.787837837838	1.87105263158	-18.3697478992
337	0.1685	-2.15714285714	-0.787837837838	-9.64473684211	-8.45798319328
338	0.169	-2.15714285714	-0.787837837838	1.87105263158	-8.45798319328
339	0.1695	0.664285714286	-0.787837837838	3.31052631579	-7.04201680672
340	0.17	2.075	2.02972972973	1.87105263158	-5.62605042017
341	0.1705	3.48571428571	0.620945945946	1.87105263158	-11.2899159664
342	0.171	-6.38928571429	3.43851351351	3.31052631579	-7.04201680672
343	0.1715	-0.746428571429	3.43851351351	14.8263157895	-8.45798319328
344	0.172	0.664285714286	-0.787837837838	4.75	-5.62605042017
345	0.1725	-0.746428571429	-0.787837837838	3.31052631579	-7.04201680672
346	0.173	-2.15714285714	2.02972972973	1.87105263158	-8.45798319328
347	0.1735	-4.97857142857	3.43851351351	3.31052631579	-5.62605042017
348	0.174	2.075	4.8472972973	-6.76578947368	-7.04201680672
349	0.1745	2.075	3.43851351351	-1.00789473684	-5.62605042017
350	0.175	2.075	4.8472972973	0.431578947368	-4.21008403361
351	0.1755	-2.15714285714	0.620945945946	0.431578947368	-7.04201680672
352	0.176	-3.56785714286	0.620945945946	-2.44736842105	4.28571428571
353	0.1765	0.664285714286	0.620945945946	-2.44736842105	1.45378151261
354	0.177	3.48571428571	6.25608108108	-2.44736842105	-7.04201680672
355	0.1775	0.664285714286	9.07364864865	0.431578947368	-8.45798319328
356	0.178	-0.746428571429	-0.787837837838	1.87105263158	-9.87394957983
357	0.1785	-3.56785714286	0.620945945946	-1.00789473684	-7.04201680672
358	0.179	-2.15714285714	-2.19662162162	-2.44736842105	-12.7058823529
359	0.1795	-3.56785714286	0.620945945946	-1.00789473684	-15.5378151261
360	0.18	-3.56785714286	0.620945945946	14.8263157895	-7.04201680672
361	0.1805	2.075	-3.60540540541	-1.00789473684	-2.79411764706
362	0.181	2.075	-7.83175675676	1.87105263158	-5.62605042017
363	0.1815	-6.38928571429	0.620945945946	0.431578947368	-1.3781512605
364	0.182	2.075	-2.19662162162	6.18947368421	4.28571428571
365	0.1825	0.664285714286	-9.24054054054	7.62894736842	-2.79411764706
366	0.183	-0.746428571429	0.620945945946	0.431578947368	-4.21008403361
367	0.1835	0.664285714286	-9.24054054054	0.431578947368	-2.79411764706
368	0.184	13.3607142857	-5.01418918919	0.431578947368	-11.2899159664
369	0.1845	-0.746428571429	-3.60540540541	3.31052631579	-14.1218487395
370	0.185	-3.56785714286	-7.83175675676	4.75	-5.62605042017
371	0.1855	0.664285714286	-14.8756756757	-1.00789473684	-1.3781512605
372	0.186	0.664285714286	0.620945945946	-1.00789473684	-1.3781512605
373	0.1865	-7.8	-3.60540540541	3.31052631579	-1.3781512605
374	0.187	-4.97857142857	-2.19662162162	0.431578947368	-1.3781512605
375	0.1875	2.075	2.02972972973	-6.76578947368	-1.3781512605
376	0.188	2.075	7.66486486486	0.431578947368	0.0378151260504
377	0.1885	3.48571428571	23.1614864865	-1.00789473684	1.45378151261
378	0.189	7.71785714286	-0.787837837838	0.431578947368	0.0378151260504
379	0.1895	16.1821428571	-0.787837837838	-1.00789473684	-7.04201680672
380	0.19	0.664285714286	0.620945945946	-8.20526315789	7.11764705882
381	0.1905	0.664285714286	-2.19662162162	-6.76578947368	-1.3781512605
382	0.191	-0.746428571429	2.02972972973	-8.20526315789	-1.3781512605
383	0.1915	2.075	4.8472972973	0.431578947368	0.0378151260504
384	0.192	-4.97857142857	2.02972972973	1.87105263158	2.86974789916
385	0.1925	-4.97857142857	2.02972972973	1.87105263158	2.86974789916
386	0.193	0.664285714286	2.02972972973	20.5842105263	-1.3781512605
387	0.1935	-0.746428571429	6.25608108108	0.431578947368	-2.79411764706
388	0.194	2.075	16.1175675676	0.431578947368	-1.3781512605
389	0.1945	-9.21071428571	-3.60540540541	-1.00789473684	-4.21008403361
390	0.195	-6.38928571429	0.620945945946	1.87105263158	12.781512605
391	0.1955	0.664285714286	2.02972972973	-12.5236842105	-4.21008403361
392	0.196	2.075	2.02972972973	-9.64473684211	-4.21008403361
393	0.1965	3.48571428571	20.3439189189	-2.44736842105	1.45378151261
394	0.197	0.664285714286	21.7527027027	-2.44736842105	0.0378151260504
395	0.1975	-9.21071428571	4.8472972973	0.431578947368	2.86974789916
396	0.198	2.075	3.43851351351	-9.64473684211	-2.79411764706
397	0.1985	3.48571428571	2.02972972973	-8.20526315789	-4.21008403361
398	0.199	3.48571428571	6.25608108108	3.31052631579	2.86974789916
399	0.1995	3.48571428571	4.8472972973	1.87105263158	2.86974789916
400	0.2	-6.38928571429	2.02972972973	3.31052631579	0.0378151260504
401	0.2005	14.7714285714	0.620945945946	0.431578947368	0.0378151260504
402	0.201	2.075	3.43851351351	20.5842105263	0.0378151260504
403	0.2015	3.48571428571	6.25608108108	19.1447368421	-1.3781512605
404	0.202	2.075	-6.42297297297	-1.00789473684	2.86974789916
405	0.2025	-2.15714285714	2.02972972973	1.87105263158	1.45378151261
406	0.203	-0.746428571429	0.620945945946	0.431578947368	7.11764705882
407	0.2035	2.075	0.620945945946	1.87105263158	4.28571428571
408	0.204	0.664285714286	3.43851351351	4.75	-4.21008403361
409	0.2045	3.48571428571	-7.83175675676	-3.88684210526	1.45378151261
410	0.205	-0.746428571429	6.25608108108	-1.00789473684	1.45378151261
411	0.2055	-7.8	4.8472972973	-1.00789473684	1.45378151261
412	0.206	6.30714285714	0.620945945946	-1.00789473684	-1.3781512605
413	0.2065	-0.746428571429	2.02972972973	7.62894736842	0.0378151260504
414	0.207	-0.746428571429	0.620945945946	-1.00789473684	-1.3781512605
415	0.2075	4.89642857143	7.66486486486	0.431578947368	1.45378151261
416	0.208	6.30714285714	-0.787837837838	-1.00789473684	0.0378151260504
417	0.2085	-3.56785714286	2.02972972973	1.87105263158	-1.3781512605
418	0.209	3.48571428571	0.620945945946	1.87105263158	14.1974789916
419	0.2095	2.075	2.02972972973	17.7052631579	-1.3781512605
420	0.21	3.48571428571	20.3439189189	-2.44736842105	0.0378151260504
421	0.2105	-4.97857142857	-2.19662162162	4.75	0.0378151260504
422	0.211	-12.0321428571	4.8472972973	0.431578947368	2.86974789916
423	0.2115	-3.56785714286	4.8472972973	4.75	15.6134453782
424	0.212	3.48571428571	10.4824324324	14.8263157895	0.0378151260504
425	0.2125	-0.746428571429	16.1175675676	-2.44736842105	0.0378151260504
426	0.213	-0.746428571429	9.07364864865	0.431578947368	2.86974789916
427	0.2135	-10.6214285714	6.25608108108	0.431578947368	2.86974789916
428	0.214	-4.97857142857	3.43851351351	0.431578947368	-7.04201680672
429	0.2145	-2.15714285714	3.43851351351	0.431578947368	7.11764705882
430	0.215	0.664285714286	3.43851351351	7.62894736842	1.45378151261
431	0.2155	2.075	0.620945945946	0.431578947368	0.0378151260504
432	0.216	0.664285714286	-2.19662162162	0.431578947368	1.45378151261
433	0.2165	-7.8	2.02972972973	-1.00789473684	17.0294117647
434	0.217	-3.56785714286	-6.42297297297	-2.44736842105	15.6134453782
435	0.2175	-3.56785714286	-9.24054054054	14.8263157895	1.45378151261
436	0.218	-2.15714285714	-14.8756756757	-1.00789473684	0.0378151260504
437	0.2185	0.664285714286	-16.2844594595	0.431578947368	1.45378151261
438	0.219	0.664285714286	-7.83175675676	1.87105263158	-1.3781512605
439	0.2195	-10.6214285714	-10.6493243243	-2.44736842105	15.6134453782
440	0.22	-2.15714285714	-10.6493243243	-1.00789473684	18.4453781513
441	0.2205	-4.97857142857	-9.24054054054	-2.44736842105	-1.3781512605
442	0.221	-3.56785714286	-9.24054054054	0.431578947368	-1.3781512605
443	0.2215	-4.97857142857	7.66486486486	-1.00789473684	0.0378151260504
444	0.222	-12.0321428571	-7.83175675676	-1.00789473684	17.0294117647
445	0.2225	-2.15714285714	-6.42297297297	-1.00789473684	17.0294117647
446	0.223	-0.746428571429	-7.83175675676	-11.0842105263	-1.3781512605
447	0.2235	2.075	9.07364864865	0.431578947368	0.0378151260504
448	0.224	-2.15714285714	9.07364864865	-1.00789473684	1.45378151261
449	0.2245	-14.8535714286	-3.60540540541	-1.00789473684	2.86974789916
450	0.225	-13.4428571429	0.620945945946	0.431578947368	1.45378151261
451	0.2255	2.075	6.25608108108	22.0236842105	2.86974789916
452	0.226	3.48571428571	11.8912162162	0.431578947368	0.0378151260504
453	0.2265	2.075	0.620945945946	1.87105263158	0.0378151260504
454	0.227	-2.15714285714	10.4824324324	0.431578947368	1.45378151261
455	0.2275	-4.97857142857	13.3	3.31052631579	4.28571428571
456	0.228	2.075	10.4824324324	1.87105263158	-7.04201680672
457	0.2285	2.075	9.07364864865	0.431578947368	0.0378151260504
458	0.229	3.48571428571	7.66486486486	-1.00789473684	1.45378151261
459	0.2295	3.48571428571	13.3	-2.44736842105	1.45378151261
460	0.23	20.4142857143	17.5263513514	-1.00789473684	-9.87394957983
461	0.2305	0.664285714286	14.7087837838	0.431578947368	-8.45798319328
462	0.231	-2.15714285714	13.3	-6.76578947368	4.28571428571
463	0.2315	-3.56785714286	-5.01418918919	0.431578947368	4.28571428571
464	0.232	-0.746428571429	0.620945945946	1.87105263158	4.28571428571
465	0.2325	11.95	-3.60540540541	0.431578947368	-5.62605042017
466	0.233	-3.56785714286	-3.60540540541	0.431578947368	4.28571428571
467	0.2335	0.664285714286	0.620945945946	0.431578947368	-2.79411764706
468	0.234	2.075	4.8472972973	-6.76578947368	4.28571428571
469	0.2345	-0.746428571429	-0.787837837838	0.431578947368	4.28571428571
470	0.235	-10.6214285714	3.43851351351	0.431578947368	4.28571428571
471	0.2355	0.664285714286	2.02972972973	1.87105263158	2.86974789916
472	0.236	0.664285714286	4.8472972973	0.431578947368	1.45378151261
473	0.2365	0.664285714286	-2.19662162162	0.431578947368	1.45378151261
474	0.237	0.664285714286	-5.01418918919	0.431578947368	2.86974789916
475	0.2375	0.664285714286	-10.6493243243	-1.00789473684	1.45378151261
476	0.238	14.7714285714	-0.787837837838	-1.00789473684	-7.04201680672
477	0.2385	0.664285714286	2.02972972973	1.87105263158	-8.45798319328
478	0.239	0.664285714286	7.66486486486	19.1447368421	1.45378151261
479	0.2395	3.48571428571	3.43851351351	20.5842105263	0.0378151260504
480	0.24	4.89642857143	-6.42297297297	-2.44736842105	-1.3781512605
481	0.2405	7.71785714286	2.02972972973	0.431578947368	-1.3781512605
482	0.241	-2.15714285714	2.02972972973	4.75	7.11764705882
483	0.2415	0.664285714286	0.620945945946	3.31052631579	-7.04201680672
484	0.242	0.664285714286	0.620945945946	6.18947368421	-2.79411764706
485	0.2425	0.664285714286	-6.42297297297	-3.88684210526	0.0378151260504
486	0.243	-7.8	0.620945945946	0.431578947368	0.0378151260504
487	0.2435	14.7714285714	0.620945945946	0.431578947368	0.0378151260504
488	0.244	-0.746428571429	2.02972972973	0.431578947368	-7.04201680672
489	0.2445	0.664285714286	3.43851351351	-6.76578947368	1.45378151261
490	0.245	0.664285714286	-10.6493243243	1.87105263158	1.45378151261
491	0.2455	2.075	-0.787837837838	0.431578947368	1.45378151261
492	0.246	4.89642857143	-0.787837837838	4.75	0.0378151260504
493	0.2465	-2.15714285714	3.43851351351	-1.00789473684	-2.79411764706
494	0.247	0.664285714286	6.25608108108	0.431578947368	15.6134453782
495	0.2475	2.075	2.02972972973	-1.00789473684	1.45378151261
496	0.248	0.664285714286	-9.24054054054	-2.44736842105	1.45378151261
497	0.2485	-0.746428571429	-5.01418918919	0.431578947368	1.45378151261
498	0.249	-10.6214285714	4.8472972973	1.87105263158	4.28571428571
499	0.2495	-0.746428571429	3.43851351351	-1.00789473684	-8.45798319328
500	0.25	-0.746428571429	-0.787837837838	16.2657894737	0.0378151260504
501	0.2505	-2.15714285714	-2.19662162162	9.06842105263	0.0378151260504
502	0.251	-0.746428571429	4.8472972973	-1.00789473684	0.0378151260504
503	0.2515	0.664285714286	3.43851351351	1.87105263158	0.0378151260504
504	0.252	26.0571428571	2.02972972973	0.431578947368	1.45378151261
505	0.2525	9.12857142857	2.02972972973	-11.0842105263	2.86974789916
506	0.253	9.12857142857	4.8472972973	-5.32631578947	1.45378151261
507	0.2535	7.71785714286	7.66486486486	-6.76578947368	-1.3781512605
508	0.254	2.075	6.25608108108	-1.00789473684	0.0378151260504
509	0.2545	-4.97857142857	4.8472972973	1.87105263158	4.28571428571
510	0.255	-12.0321428571	6.25608108108	-1.00789473684	2.86974789916
511	0.2555	-4.97857142857	4.8472972973	11.9473684211	-4.21008403361
512	0.256	-4.97857142857	2.02972972973	1.87105263158	0.0378151260504
513	0.2565	-4.97857142857	-0.787837837838	0.431578947368	-2.79411764706
514	0.257	-2.15714285714	3.43851351351	1.87105263158	-5.62605042017
515	0.2575	14.7714285714	-0.787837837838	0.431578947368	-2.79411764706
516	0.258	-7.8	-2.19662162162	-1.00789473684	2.86974789916
517	0.2585	-3.56785714286	-5.01418918919	-2.44736842105	0.0378151260504
518	0.259	0.664285714286	-7.83175675676	-6.76578947368	0.0378151260504
519	0.2595	2.075	6.25608108108	0.431578947368	-1.3781512605
520	0.26	4.89642857143	-6.42297297297	1.87105263158	1.45378151261
521	0.2605	-4.97857142857	-2.19662162162	-1.00789473684	-1.3781512605
522	0.261	0.664285714286	-3.60540540541	-2.44736842105	2.86974789916
523	0.2615	2.075	0.620945945946	-5.32631578947	1.45378151261
524	0.262	-0.746428571429	-0.787837837838	-6.76578947368	0.0378151260504
525	0.2625	-0.746428571429	-6.42297297297	1.87105263158	1.45378151261
526	0.263	-10.6214285714	-9.24054054054	0.431578947368	4.28571428571
527	0.2635	-3.56785714286	-6.42297297297	-2.44736842105	14.1974789916
528	0.264	0.664285714286	-6.42297297297	-8.20526315789	-1.3781512605
529	0.2645	-2.15714285714	-5.01418918919	0.431578947368	2.86974789916
530	0.265	0.664285714286	-5.01418918919	-1.00789473684	1.45378151261
531	0.2655	-9.21071428571	-7.83175675676	-1.00789473684	4.28571428571
532	0.266	9.12857142857	-5.01418918919	-1.00789473684	2.86974789916
533	0.2665	0.664285714286	-3.60540540541	-1.00789473684	-2.79411764706
534	0.267	0.664285714286	-6.42297297297	4.75	1.45378151261
535	0.2675	0.664285714286	-16.2844594595	-2.44736842105	0.0378151260504
536	0.268	-0.746428571429	-5.01418918919	0.431578947368	-1.3781512605
537	0.2685	7.71785714286	-10.6493243243	0.431578947368	-2.79411764706
538	0.269	-3.56785714286	-9.24054054054	1.87105263158	5.70168067227
539	0.2695	0.664285714286	-5.01418918919	1.87105263158	-2.79411764706
540	0.27	0.664285714286	-2.19662162162	-5.32631578947	-4.21008403361
541	0.2705	-0.746428571429	7.66486486486	-1.00789473684	-4.21008403361
542	0.271	-4.97857142857	7.66486486486	0.431578947368	-1.3781512605
543	0.2715	0.664285714286	4.8472972973	0.431578947368	-2.79411764706
544	0.272	-0.746428571429	6.25608108108	1.87105263158	2.86974789916
545	0.2725	0.664285714286	4.8472972973	-1.00789473684	-2.79411764706
546	0.273	3.48571428571	6.25608108108	-5.32631578947	-1.3781512605
547	0.2735	3.48571428571	6.25608108108	-2.44736842105	-1.3781512605
548	0.274	11.95	7.66486486486	0.431578947368	-2.79411764706
549	0.2745	0.664285714286	6.25608108108	-1.00789473684	1.45378151261
550	0.275	2.075	10.4824324324	-11.0842105263	-1.3781512605
551	0.2755	0.664285714286	13.3	-3.88684210526	-1.3781512605
552	0.276	9.12857142857	6.25608108108	-1.00789473684	-1.3781512605
553	0.2765	20.4142857143	9.07364864865	-1.00789473684	-2.79411764706
554	0.277	-0.746428571429	13.3	-2.44736842105	-9.87394957983
555	0.2775	6.30714285714	16.1175675676	-12.5236842105	-4.21008403361
556	0.278	4.89642857143	3.43851351351	0.431578947368	1.45378151261
557	0.2785	9.12857142857	9.07364864865	-1.00789473684	-1.3781512605
558	0.279	9.12857142857	9.07364864865	0.431578947368	-1.3781512605
559	0.2795	0.664285714286	10.4824324324	1.87105263158	2.86974789916
560	0.28	3.48571428571	11.8912162162	11.9473684211	-2.79411764706
561	0.2805	3.48571428571	14.7087837838	-1.00789473684	-2.79411764706
562	0.281	2.075	23.1614864865	-1.00789473684	-1.3781512605
563	0.2815	-13.4428571429	4.8472972973	1.87105263158	0.0378151260504
564	0.282	-4.97857142857	2.02972972973	0.431578947368	1.45378151261
565	0.2825	0.664285714286	2.02972972973	4.75	-4.21008403361
566	0.283	0.664285714286	3.43851351351	19.1447368421	-2.79411764706
567	0.2835	2.075	21.7527027027	0.431578947368	-1.3781512605
568	0.284	-0.746428571429	0.620945945946	-1.00789473684	0.0378151260504
569	0.2845	-9.21071428571	-0.787837837838	-1.00789473684	-1.3781512605
570	0.285	3.48571428571	-2.19662162162	1.87105263158	12.781512605
571	0.2855	-0.746428571429	-0.787837837838	1.87105263158	-5.62605042017
572	0.286	0.664285714286	0.620945945946	-2.44736842105	-1.3781512605
573	0.2865	-0.746428571429	7.66486486486	0.431578947368	-1.3781512605
574	0.287	-7.8	-0.787837837838	0.431578947368	-2.79411764706
575	0.2875	-6.38928571429	-2.19662162162	-1.00789473684	-5.62605042017
576	0.288	-3.56785714286	0.620945945946	0.431578947368	12.781512605
577	0.2885	-0.746428571429	2.02972972973	1.87105263158	-4.21008403361
578	0.289	0.664285714286	0.620945945946	-1.00789473684	-4.21008403361
579	0.2895	0.664285714286	-0.787837837838	-1.00789473684	-7.04201680672
580	0.29	19.0035714286	2.02972972973	-1.00789473684	-8.45798319328
581	0.2905	0.664285714286	2.02972972973	-3.88684210526	-15.5378151261
582	0.291	0.664285714286	4.8472972973	-9.64473684211	-12.7058823529
583	0.2915	0.664285714286	0.620945945946	-8.20526315789	-2.79411764706
584	0.292	0.664285714286	-7.83175675676	3.31052631579	-4.21008403361
585	0.2925	9.12857142857	-0.787837837838	0.431578947368	-4.21008403361
586	0.293	-6.38928571429	2.02972972973	3.31052631579	7.11764705882
587	0.2935	0.664285714286	-0.787837837838	-1.00789473684	5.70168067227
588	0.294	0.664285714286	-0.787837837838	9.06842105263	0.0378151260504
589	0.2945	-0.746428571429	3.43851351351	-1.00789473684	-1.3781512605
590	0.295	-3.56785714286	-7.83175675676	0.431578947368	1.45378151261
591	0.2955	13.3607142857	-0.787837837838	-1.00789473684	-1.3781512605
592	0.296	-2.15714285714	-3.60540540541	-2.44736842105	-7.04201680672
593	0.2965	0.664285714286	-0.787837837838	13.3868421053	2.86974789916
594	0.297	2.075	-7.83175675676	0.431578947368	4.28571428571
595	0.2975	2.075	6.25608108108	-1.00789473684	1.45378151261
596	0.298	-0.746428571429	2.02972972973	1.87105263158	0.0378151260504
597	0.2985	20.4142857143	0.620945945946	0.431578947368	-2.79411764706
598	0.299	0.664285714286	0.620945945946	-9.64473684211	-5.62605042017
599	0.2995	0.664285714286	-3.60540540541	-8.20526315789	1.45378151261
600	0.3	2.075	-9.24054054054	0.431578947368	-1.3781512605
601	0.3005	4.89642857143	4.8472972973	-2.44736842105	0.0378151260504
602	0.301	2.075	2.02972972973	-1.00789473684	0.0378151260504
603	0.3015	2.075	2.02972972973	-2.44736842105	-7.04201680672
604	0.302	-0.746428571429	2.02972972973	-2.44736842105	-9.87394957983
605	0.3025	2.075	0.620945945946	-2.44736842105	-1.3781512605
606	0.303	2.075	-10.6493243243	0.431578947368	-2.79411764706
607	0.3035	0.664285714286	-5.01418918919	0.431578947368	-5.62605042017
608	0.304	2.075	-3.60540540541	0.431578947368	-5.62605042017
609	0.3045	0.664285714286	-2.19662162162	3.31052631579	-4.21008403361
610	0.305	2.075	-2.19662162162	4.75	-4.21008403361
611	0.3055	0.664285714286	-2.19662162162	-1.00789473684	-4.21008403361
612	0.306	3.48571428571	-2.19662162162	0.431578947368	-1.3781512605
613	0.3065	10.5392857143	-2.19662162162	0.431578947368	-2.79411764706
614	0.307	0.664285714286	0.620945945946	-1.00789473684	2.86974789916
615	0.3075	0.664285714286	2.02972972973	-3.88684210526	-5.62605042017
616	0.308	0.664285714286	4.8472972973	1.87105263158	-2.79411764706
617	0.3085	2.075	13.3	1.87105263158	-2.79411764706
618	0.309	-4.97857142857	0.620945945946	-1.00789473684	-2.79411764706
619	0.3095	0.664285714286	6.25608108108	0.431578947368	-1.3781512605
620	0.31	2.075	13.3	6.18947368421	0.0378151260504
621	0.3105	3.48571428571	14.7087837838	-1.00789473684	-1.3781512605
622	0.311	2.075	9.07364864865	0.431578947368	0.0378151260504
623	0.3115	-2.15714285714	4.8472972973	-1.00789473684	-2.79411764706
624	0.312	16.1821428571	3.43851351351	-1.00789473684	-1.3781512605
625	0.3125	3.48571428571	0.620945945946	-2.44736842105	-9.87394957983
626	0.313	3.48571428571	0.620945945946	-8.20526315789	0.0378151260504
627	0.3135	0.664285714286	-5.01418918919	-1.00789473684	0.0378151260504
628	0.314	-0.746428571429	-6.42297297297	-1.00789473684	1.45378151261
629	0.3145	-10.6214285714	4.8472972973	-1.00789473684	0.0378151260504
630	0.315	0.664285714286	3.43851351351	1.87105263158	2.86974789916
631	0.3155	-0.746428571429	3.43851351351	-3.88684210526	-4.21008403361
632	0.316	0.664285714286	6.25608108108	-1.00789473684	1.45378151261
633	0.3165	0.664285714286	16.1175675676	-2.44736842105	1.45378151261
634	0.317	3.48571428571	4.8472972973	1.87105263158	0.0378151260504
635	0.3175	20.4142857143	0.620945945946	1.87105263158	-12.7058823529
636	0.318	-0.746428571429	2.02972972973	-12.5236842105	-5.62605042017
637	0.3185	-3.56785714286	-3.60540540541	-1.00789473684	1.45378151261
638	0.319	-2.15714285714	-5.01418918919	-2.44736842105	1.45378151261
639	0.3195	2.075	-6.42297297297	0.431578947368	-1.3781512605
640	0.32	11.95	3.43851351351	3.31052631579	-1.3781512605
641	0.3205	-0.746428571429	4.8472972973	0.431578947368	-4.21008403361
642	0.321	0.664285714286	3.43851351351	-2.44736842105	-2.79411764706
643	0.3215	-0.746428571429	2.02972972973	13.3868421053	-2.79411764706
644	0.322	-2.15714285714	-2.19662162162	-1.00789473684	-1.3781512605
645	0.3225	0.664285714286	-5.01418918919	-1.00789473684	0.0378151260504
646	0.323	19.0035714286	2.02972972973	-1.00789473684	-11.2899159664
647	0.3235	0.664285714286	4.8472972973	0.431578947368	-12.7058823529
648	0.324	0.664285714286	6.25608108108	-8.20526315789	-1.3781512605
649	0.3245	-2.15714285714	3.43851351351	-2.44736842105	-1.3781512605
650	0.325	0.664285714286	-2.19662162162	-1.00789473684	1.45378151261
651	0.3255	17.5928571429	6.25608108108	-1.00789473684	-1.3781512605
652	0.326	3.48571428571	7.66486486486	0.431578947368	-9.87394957983
653	0.3265	3.48571428571	6.25608108108	0.431578947368	-8.45798319328
654	0.327	-0.746428571429	3.43851351351	-6.76578947368	0.0378151260504
655	0.3275	4.89642857143	-5.01418918919	-1.00789473684	-1.3781512605
656	0.328	10.5392857143	9.07364864865	1.87105263158	-1.3781512605
657	0.3285	3.48571428571	-2.19662162162	-2.44736842105	4.28571428571
658	0.329	9.12857142857	-5.01418918919	-1.00789473684	7.11764705882
659	0.3295	13.3607142857	-6.42297297297	-5.32631578947	-2.79411764706
660	0.33	11.95	0.620945945946	0.431578947368	-2.79411764706
661	0.3305	9.12857142857	-6.42297297297	-1.00789473684	-1.3781512605
662	0.331	24.6464285714	-0.787837837838	-1.00789473684	-1.3781512605
663	0.3315	4.89642857143	2.02972972973	-2.44736842105	-8.45798319328
664	0.332	0.664285714286	6.25608108108	-3.88684210526	-1.3781512605
665	0.3325	-0.746428571429	-6.42297297297	0.431578947368	0.0378151260504
666	0.333	-2.15714285714	2.02972972973	0.431578947368	0.0378151260504
667	0.3335	7.71785714286	4.8472972973	0.431578947368	-1.3781512605
668	0.334	-4.97857142857	4.8472972973	-1.00789473684	-5.62605042017
669	0.3345	-3.56785714286	4.8472972973	0.431578947368	7.11764705882
670	0.335	-3.56785714286	4.8472972973	1.87105263158	-1.3781512605
671	0.3355	0.664285714286	9.07364864865	3.31052631579	-1.3781512605
672	0.336	2.075	4.8472972973	0.431578947368	-1.3781512605
673	0.3365	-3.56785714286	6.25608108108	0.431578947368	-1.3781512605
674	0.337	-9.21071428571	4.8472972973	1.87105263158	2.86974789916
675	0.3375	3.48571428571	6.25608108108	20.5842105263	-2.79411764706
676	0.338	2.075	9.07364864865	0.431578947368	-1.3781512605
677	0.3385	-2.15714285714	-7.83175675676	-1.00789473684	-4.21008403361
678	0.339	-10.6214285714	0.620945945946	1.87105263158	4.28571428571
679	0.3395	-10.6214285714	-0.787837837838	-1.00789473684	12.781512605
680	0.34	-0.746428571429	3.43851351351	0.431578947368	7.11764705882
681	0.3405	0.664285714286	7.66486486486	-3.88684210526	-1.3781512605
682	0.341	0.664285714286	6.25608108108	3.31052631579	0.0378151260504
683	0.3415	-0.746428571429	0.620945945946	0.431578947368	1.45378151261
684	0.342	13.3607142857	3.43851351351	1.87105263158	-1.3781512605
685	0.3425	-0.746428571429	2.02972972973	3.31052631579	-7.04201680672
686	0.343	-2.15714285714	2.02972972973	4.75	-1.3781512605
687	0.3435	0.664285714286	2.02972972973	-1.00789473684	2.86974789916
688	0.344	3.48571428571	7.66486486486	0.431578947368	0.0378151260504
689	0.3445	2.075	23.1614864865	-1.00789473684	1.45378151261
690	0.345	-4.97857142857	14.7087837838	-1.00789473684	1.45378151261
691	0.3455	2.075	14.7087837838	-6.76578947368	0.0378151260504
692	0.346	4.89642857143	16.1175675676	-12.5236842105	-1.3781512605
693	0.3465	3.48571428571	28.7966216216	-1.00789473684	0.0378151260504
694	0.347	-0.746428571429	9.07364864865	1.87105263158	1.45378151261
695	0.3475	-6.38928571429	9.07364864865	3.31052631579	4.28571428571
696	0.348	2.075	10.4824324324	6.18947368421	8.53361344538
697	0.3485	4.89642857143	9.07364864865	6.18947368421	-4.21008403361
698	0.349	3.48571428571	2.02972972973	-8.20526315789	-1.3781512605
699	0.3495	3.48571428571	3.43851351351	0.431578947368	2.86974789916
700	0.35	0.664285714286	7.66486486486	0.431578947368	-4.21008403361
701	0.3505	-6.38928571429	6.25608108108	0.431578947368	17.0294117647
702	0.351	0.664285714286	4.8472972973	4.75	14.1974789916
703	0.3515	2.075	6.25608108108	0.431578947368	-1.3781512605
704	0.352	0.664285714286	14.7087837838	1.87105263158	-1.3781512605
705	0.3525	4.89642857143	0.620945945946	0.431578947368	-1.3781512605
706	0.353	0.664285714286	4.8472972973	-1.00789473684	-1.3781512605
707	0.3535	-0.746428571429	2.02972972973	3.31052631579	-1.3781512605
708	0.354	0.664285714286	3.43851351351	17.7052631579	-4.21008403361
709	0.3545	0.664285714286	6.25608108108	-1.00789473684	-1.3781512605
710	0.355	-0.746428571429	0.620945945946	3.31052631579	0.0378151260504
711	0.3555	-7.8	2.02972972973	-2.44736842105	-1.3781512605
712	0.356	0.664285714286	0.620945945946	-2.44736842105	-4.21008403361
713	0.3565	-2.15714285714	0.620945945946	-6.76578947368	-8.45798319328
714	0.357	0.664285714286	0.620945945946	17.7052631579	-1.3781512605
715	0.3575	0.664285714286	-12.0581081081	-1.00789473684	-2.79411764706
716	0.358	-0.746428571429	-6.42297297297	1.87105263158	-2.79411764706
717	0.3585	14.7714285714	-2.19662162162	1.87105263158	0.0378151260504
718	0.359	-4.97857142857	-2.19662162162	-1.00789473684	15.6134453782
719	0.3595	0.664285714286	-2.19662162162	-1.00789473684	15.6134453782
720	0.36	0.664285714286	0.620945945946	-1.00789473684	1.45378151261
721	0.3605	-0.746428571429	16.1175675676	-1.00789473684	-2.79411764706
722	0.361	-0.746428571429	14.7087837838	0.431578947368	1.45378151261
723	0.3615	0.664285714286	6.25608108108	3.31052631579	0.0378151260504
724	0.362	2.075	6.25608108108	-5.32631578947	-7.04201680672
725	0.3625	0.664285714286	6.25608108108	1.87105263158	-9.87394957983
726	0.363	3.48571428571	-5.01418918919	-1.00789473684	-1.3781512605
727	0.3635	7.71785714286	-6.42297297297	-1.00789473684	-1.3781512605
728	0.364	20.4142857143	4.8472972973	-2.44736842105	-1.3781512605
729	0.3645	-2.15714285714	2.02972972973	3.31052631579	0.0378151260504
730	0.365	0.664285714286	4.8472972973	3.31052631579	4.28571428571
731	0.3655	2.075	2.02972972973	1.87105263158	-1.3781512605
732	0.366	3.48571428571	18.9351351351	0.431578947368	0.0378151260504
733	0.3665	0.664285714286	6.25608108108	-1.00789473684	-1.3781512605
734	0.367	-9.21071428571	4.8472972973	0.431578947368	0.0378151260504
735	0.3675	3.48571428571	3.43851351351	4.75	12.781512605
736	0.368	0.664285714286	4.8472972973	13.3868421053	-5.62605042017
737	0.3685	0.664285714286	13.3	-1.00789473684	-1.3781512605
738	0.369	0.664285714286	-2.19662162162	-1.00789473684	-4.21008403361
739	0.3695	-2.15714285714	-0.787837837838	-1.00789473684	0.0378151260504
740	0.37	-6.38928571429	0.620945945946	-1.00789473684	2.86974789916
741	0.3705	2.075	0.620945945946	6.18947368421	0.0378151260504
742	0.371	3.48571428571	-0.787837837838	-5.32631578947	0.0378151260504
743	0.3715	2.075	13.3	-1.00789473684	2.86974789916
744	0.372	0.664285714286	23.1614864865	1.87105263158	-1.3781512605
745	0.3725	23.2357142857	3.43851351351	3.31052631579	-1.3781512605
746	0.373	3.48571428571	2.02972972973	-1.00789473684	8.53361344538
747	0.3735	3.48571428571	0.620945945946	-5.32631578947	-7.04201680672
748	0.374	0.664285714286	6.25608108108	0.431578947368	-1.3781512605
749	0.3745	3.48571428571	-9.24054054054	0.431578947368	-1.3781512605
750	0.375	9.12857142857	-10.6493243243	0.431578947368	-4.21008403361
751	0.3755	2.075	0.620945945946	1.87105263158	-2.79411764706
752	0.376	9.12857142857	-2.19662162162	1.87105263158	-8.45798319328
753	0.3765	4.89642857143	-2.19662162162	0.431578947368	0.0378151260504
754	0.377	4.89642857143	-9.24054054054	-3.88684210526	0.0378151260504
755	0.3775	-0.746428571429	-5.01418918919	0.431578947368	-1.3781512605
756	0.378	17.5928571429	-3.60540540541	-1.00789473684	-4.21008403361
757	0.3785	-2.15714285714	-0.787837837838	-2.44736842105	-12.7058823529
758	0.379	-2.15714285714	0.620945945946	-9.64473684211	0.0378151260504
759	0.3795	0.664285714286	-7.83175675676	1.87105263158	-1.3781512605
760	0.38	7.71785714286	4.8472972973	0.431578947368	-5.62605042017
761	0.3805	11.95	7.66486486486	3.31052631579	-2.79411764706
762	0.381	-6.38928571429	3.43851351351	-3.88684210526	11.3655462185
763	0.3815	3.48571428571	3.43851351351	-2.44736842105	12.781512605
764	0.382	3.48571428571	9.07364864865	0.431578947368	-1.3781512605
765	0.3825	2.075	4.8472972973	-1.00789473684	-2.79411764706
766	0.383	2.075	0.620945945946	0.431578947368	-1.3781512605
767	0.3835	14.7714285714	-0.787837837838	0.431578947368	-9.87394957983
768	0.384	2.075	-3.60540540541	-1.00789473684	-14.1218487395
769	0.3845	0.664285714286	-6.42297297297	-1.00789473684	-2.79411764706
770	0.385	0.664285714286	-6.42297297297	-2.44736842105	0.0378151260504
771	0.3855	0.664285714286	2.02972972973	0.431578947368	-1.3781512605
772	0.386	-4.97857142857	0.620945945946	0.431578947368	0.0378151260504
773	0.3865	-9.21071428571	2.02972972973	-1.00789473684	1.45378151261
774	0.387	0.664285714286	3.43851351351	-6.76578947368	-4.21008403361
775	0.3875	0.664285714286	4.8472972973	0.431578947368	-1.3781512605
776	0.388	0.664285714286	3.43851351351	0.431578947368	-1.3781512605
777	0.3885	3.48571428571	-2.19662162162	-1.00789473684	1.45378151261
778	0.389	23.2357142857	3.43851351351	0.431578947368	0.0378151260504
779	0.3895	0.664285714286	0.620945945946	1.87105263158	-1.3781512605
780	0.39	3.48571428571	2.02972972973	3.31052631579	4.28571428571
781	0.3905	3.48571428571	-10.6493243243	-1.00789473684	1.45378151261
782	0.391	3.48571428571	0.620945945946	1.87105263158	0.0378151260504
783	0.3915	3.48571428571	-0.787837837838	-1.00789473684	-1.3781512605
784	0.392	0.664285714286	0.620945945946	0.431578947368	-1.3781512605
785	0.3925	0.664285714286	2.02972972973	0.431578947368	15.6134453782
786	0.393	7.71785714286	-0.787837837838	4.75	1.45378151261
787	0.3935	-0.746428571429	-13.4668918919	-1.00789473684	-1.3781512605
788	0.394	0.664285714286	-9.24054054054	0.431578947368	1.45378151261
789	0.3945	-6.38928571429	-9.24054054054	-1.00789473684	-1.3781512605
790	0.395	2.075	-7.83175675676	3.31052631579	-7.04201680672
791	0.3955	0.664285714286	-6.42297297297	-1.00789473684	-7.04201680672
792	0.396	0.664285714286	-7.83175675676	-6.76578947368	0.0378151260504
793	0.3965	7.71785714286	-12.0581081081	1.87105263158	-1.3781512605
794	0.397	10.5392857143	0.620945945946	-1.00789473684	-1.3781512605
795	0.3975	19.0035714286	2.02972972973	0.431578947368	1.45378151261
796	0.398	4.89642857143	0.620945945946	-9.64473684211	-1.3781512605
797	0.3985	2.075	-3.60540540541	4.75	-2.79411764706
798	0.399	2.075	-10.6493243243	1.87105263158	-2.79411764706
799	0.3995	3.48571428571	-6.42297297297	-1.00789473684	-1.3781512605
800	0.4	3.48571428571	-6.42297297297	0.431578947368	-2.79411764706
801	0.4005	-4.97857142857	-2.19662162162	-1.00789473684	0.0378151260504
802	0.401	4.89642857143	-2.19662162162	-9.64473684211	-1.3781512605
803	0.4015	2.075	3.43851351351	1.87105263158	-2.79411764706
804	0.402	7.71785714286	10.4824324324	3.31052631579	0.0378151260504
805	0.4025	9.12857142857	-0.787837837838	0.431578947368	0.0378151260504
806	0.403	0.664285714286	0.620945945946	-1.00789473684	-1.3781512605
807	0.4035	6.30714285714	0.620945945946	0.431578947368	15.6134453782
808	0.404	3.48571428571	3.43851351351	4.75	-4.21008403361
809	0.4045	7.71785714286	-0.787837837838	-1.00789473684	-2.79411764706
810	0.405	9.12857142857	-2.19662162162	3.31052631579	0.0378151260504
811	0.4055	11.95	6.25608108108	1.87105263158	-4.21008403361
812	0.406	3.48571428571	4.8472972973	1.87105263158	-5.62605042017
813	0.4065	3.48571428571	2.02972972973	-3.88684210526	12.781512605
814	0.407	3.48571428571	0.620945945946	14.8263157895	-2.79411764706
815	0.4075	4.89642857143	-13.4668918919	0.431578947368	-1.3781512605
816	0.408	0.664285714286	-3.60540540541	1.87105263158	-1.3781512605
817	0.4085	-7.8	-2.19662162162	-1.00789473684	4.28571428571
818	0.409	0.664285714286	-2.19662162162	7.62894736842	-2.79411764706
819	0.4095	-0.746428571429	-0.787837837838	6.18947368421	-1.3781512605
820	0.41	3.48571428571	-3.60540540541	11.9473684211	0.0378151260504
821	0.4105	2.075	-3.60540540541	1.87105263158	-4.21008403361
822	0.411	-0.746428571429	-2.19662162162	0.431578947368	-1.3781512605
823	0.4115	17.5928571429	-0.787837837838	0.431578947368	-1.3781512605
824	0.412	2.075	0.620945945946	-9.64473684211	-5.62605042017
825	0.4125	3.48571428571	0.620945945946	0.431578947368	2.86974789916
826	0.413	3.48571428571	0.620945945946	0.431578947368	1.45378151261
827	0.4135	7.71785714286	0.620945945946	1.87105263158	0.0378151260504
828	0.414	21.825	0.620945945946	-1.00789473684	-1.3781512605
829	0.4145	2.075	0.620945945946	4.75	0.0378151260504
830	0.415	0.664285714286	0.620945945946	9.06842105263	-2.79411764706
831	0.4155	3.48571428571	-6.42297297297	3.31052631579	-1.3781512605
832	0.416	4.89642857143	-3.60540540541	0.431578947368	1.45378151261
833	0.4165	3.48571428571	2.02972972973	1.87105263158	-2.79411764706
834	0.417	-0.746428571429	2.02972972973	1.87105263158	-1.3781512605
835	0.4175	7.71785714286	6.25608108108	-2.44736842105	0.0378151260504
836	0.418	10.5392857143	9.07364864865	-5.32631578947	-2.79411764706
837	0.4185	7.71785714286	20.3439189189	1.87105263158	-2.79411764706
838	0.419	7.71785714286	24.5702702703	-1.00789473684	-5.62605042017
839	0.4195	-4.97857142857	10.4824324324	-1.00789473684	14.1974789916
840	0.42	3.48571428571	9.07364864865	-2.44736842105	5.70168067227
841	0.4205	2.075	14.7087837838	-8.20526315789	-2.79411764706
842	0.421	2.075	25.9790540541	-1.00789473684	-1.3781512605
843	0.4215	4.89642857143	10.4824324324	-1.00789473684	-2.79411764706
844	0.422	14.7714285714	10.4824324324	-1.00789473684	-2.79411764706
845	0.4225	-0.746428571429	11.8912162162	-2.44736842105	1.45378151261
846	0.423	-0.746428571429	14.7087837838	-1.00789473684	-1.3781512605
847	0.4235	-0.746428571429	13.3	-2.44736842105	-2.79411764706
848	0.424	0.664285714286	2.02972972973	0.431578947368	-1.3781512605
849	0.4245	-10.6214285714	13.3	1.87105263158	0.0378151260504
850	0.425	-2.15714285714	17.5263513514	-2.44736842105	5.70168067227
851	0.4255	7.71785714286	16.1175675676	0.431578947368	5.70168067227
852	0.426	4.89642857143	16.1175675676	14.8263157895	-1.3781512605
853	0.4265	3.48571428571	14.7087837838	-1.00789473684	-2.79411764706
854	0.427	9.12857142857	17.5263513514	-1.00789473684	-2.79411764706
855	0.4275	23.2357142857	17.5263513514	-1.00789473684	-7.04201680672
856	0.428	4.89642857143	17.5263513514	3.31052631579	-7.04201680672
857	0.4285	4.89642857143	14.7087837838	-2.44736842105	-2.79411764706
858	0.429	3.48571428571	13.3	-1.00789473684	-1.3781512605
859	0.4295	3.48571428571	2.02972972973	0.431578947368	-1.3781512605
860	0.43	14.7714285714	16.1175675676	-1.00789473684	0.0378151260504
861	0.4305	-2.15714285714	17.5263513514	-1.00789473684	-2.79411764706
862	0.431	3.48571428571	18.9351351351	4.75	-1.3781512605
863	0.4315	3.48571428571	10.4824324324	-1.00789473684	-4.21008403361
864	0.432	0.664285714286	31.6141891892	-1.00789473684	-1.3781512605
865	0.4325	0.664285714286	20.3439189189	0.431578947368	-2.79411764706
866	0.433	23.2357142857	20.3439189189	-1.00789473684	-9.87394957983
867	0.4335	3.48571428571	20.3439189189	-8.20526315789	-9.87394957983
868	0.434	0.664285714286	20.3439189189	-5.32631578947	0.0378151260504
869	0.4345	0.664285714286	6.25608108108	0.431578947368	-1.3781512605
870	0.435	4.89642857143	7.66486486486	-1.00789473684	0.0378151260504
871	0.4355	10.5392857143	17.5263513514	0.431578947368	-1.3781512605
872	0.436	-6.38928571429	16.1175675676	-2.44736842105	17.0294117647
873	0.4365	2.075	13.3	-2.44736842105	-8.45798319328
874	0.437	2.075	14.7087837838	-6.76578947368	-1.3781512605
875	0.4375	4.89642857143	31.6141891892	0.431578947368	-2.79411764706
876	0.438	-10.6214285714	13.3	-1.00789473684	-1.3781512605
877	0.4385	3.48571428571	10.4824324324	-1.00789473684	-2.79411764706
878	0.439	2.075	10.4824324324	0.431578947368	12.781512605
879	0.4395	-0.746428571429	13.3	-1.00789473684	-1.3781512605
880	0.44	-0.746428571429	6.25608108108	-1.00789473684	-2.79411764706
881	0.4405	0.664285714286	2.02972972973	-1.00789473684	-1.3781512605
882	0.441	-13.4428571429	13.3	-2.44736842105	-1.3781512605
883	0.4415	0.664285714286	9.07364864865	1.87105263158	7.11764705882
884	0.442	0.664285714286	4.8472972973	1.87105263158	-2.79411764706
885	0.4425	0.664285714286	6.25608108108	-5.32631578947	0.0378151260504
886	0.443	3.48571428571	-3.60540540541	1.87105263158	1.45378151261
887	0.4435	3.48571428571	2.02972972973	1.87105263158	-2.79411764706
888	0.444	20.4142857143	3.43851351351	3.31052631579	-9.87394957983
889	0.4445	-2.15714285714	4.8472972973	3.31052631579	-8.45798319328
890	0.445	0.664285714286	2.02972972973	-5.32631578947	-1.3781512605
891	0.4455	3.48571428571	6.25608108108	-8.20526315789	-4.21008403361
892	0.446	2.075	4.8472972973	0.431578947368	-1.3781512605
893	0.4465	-4.97857142857	10.4824324324	1.87105263158	2.86974789916
894	0.447	-10.6214285714	13.3	3.31052631579	1.45378151261
895	0.4475	0.664285714286	17.5263513514	0.431578947368	0.0378151260504
896	0.448	3.48571428571	14.7087837838	7.62894736842	0.0378151260504
897	0.4485	9.12857142857	-0.787837837838	0.431578947368	-1.3781512605
898	0.449	2.075	6.25608108108	0.431578947368	0.0378151260504
899	0.4495	-3.56785714286	6.25608108108	1.87105263158	2.86974789916
900	0.45	0.664285714286	6.25608108108	-6.76578947368	-2.79411764706
901	0.4505	0.664285714286	9.07364864865	13.3868421053	0.0378151260504
902	0.451	0.664285714286	6.25608108108	1.87105263158	0.0378151260504
903	0.4515	-0.746428571429	9.07364864865	0.431578947368	1.45378151261
904	0.452	-12.0321428571	7.66486486486	-1.00789473684	4.28571428571
905	0.4525	-0.746428571429	10.4824324324	0.431578947368	0.0378151260504
906	0.453	4.89642857143	13.3	6.18947368421	-1.3781512605
907	0.4535	0.664285714286	10.4824324324	14.8263157895	-1.3781512605
908	0.454	2.075	2.02972972973	0.431578947368	-1.3781512605
909	0.4545	-10.6214285714	7.66486486486	1.87105263158	0.0378151260504
910	0.455	-7.8	6.25608108108	0.431578947368	1.45378151261
911	0.4555	2.075	4.8472972973	1.87105263158	-7.04201680672
912	0.456	0.664285714286	3.43851351351	-5.32631578947	-1.3781512605
913	0.4565	0.664285714286	-6.42297297297	1.87105263158	-1.3781512605
914	0.457	4.89642857143	-6.42297297297	1.87105263158	-2.79411764706
915	0.4575	7.71785714286	-2.19662162162	0.431578947368	-2.79411764706
916	0.458	2.075	0.620945945946	3.31052631579	-1.3781512605
917	0.4585	-0.746428571429	2.02972972973	0.431578947368	9.94957983193
918	0.459	-0.746428571429	-6.42297297297	1.87105263158	-7.04201680672
919	0.4595	0.664285714286	-0.787837837838	1.87105263158	-5.62605042017
920	0.46	2.075	0.620945945946	0.431578947368	-4.21008403361
921	0.4605	24.6464285714	3.43851351351	1.87105263158	-5.62605042017
922	0.461	2.075	2.02972972973	0.431578947368	-9.87394957983
923	0.4615	0.664285714286	0.620945945946	-11.0842105263	-1.3781512605
924	0.462	-0.746428571429	-10.6493243243	0.431578947368	-1.3781512605
925	0.4625	2.075	-3.60540540541	0.431578947368	-1.3781512605
926	0.463	-0.746428571429	0.620945945946	-1.00789473684	0.0378151260504
927	0.4635	-4.97857142857	3.43851351351	3.31052631579	4.28571428571
928	0.464	4.89642857143	2.02972972973	19.1447368421	-1.3781512605
929	0.4645	2.075	3.43851351351	-1.00789473684	-1.3781512605
930	0.465	4.89642857143	10.4824324324	0.431578947368	-1.3781512605
931	0.4655	-7.8	-2.19662162162	-2.44736842105	-1.3781512605
932	0.466	-3.56785714286	3.43851351351	0.431578947368	-2.79411764706
933	0.4665	2.075	2.02972972973	3.31052631579	17.0294117647
934	0.467	3.48571428571	0.620945945946	19.1447368421	0.0378151260504
935	0.4675	0.664285714286	-10.6493243243	0.431578947368	-2.79411764706
936	0.468	2.075	-0.787837837838	-1.00789473684	-2.79411764706
937	0.4685	16.1821428571	0.620945945946	1.87105263158	-1.3781512605
938	0.469	-2.15714285714	0.620945945946	3.31052631579	7.11764705882
939	0.4695	2.075	2.02972972973	-1.00789473684	14.1974789916
940	0.47	2.075	0.620945945946	0.431578947368	-2.79411764706
941	0.4705	3.48571428571	17.5263513514	1.87105263158	0.0378151260504
942	0.471	0.664285714286	18.9351351351	1.87105263158	-1.3781512605
943	0.4715	-3.56785714286	3.43851351351	-1.00789473684	2.86974789916
944	0.472	7.71785714286	2.02972972973	-11.0842105263	-1.3781512605
945	0.4725	7.71785714286	4.8472972973	-3.88684210526	-5.62605042017
946	0.473	4.89642857143	2.02972972973	-1.00789473684	0.0378151260504
947	0.4735	7.71785714286	-0.787837837838	0.431578947368	0.0378151260504
948	0.474	16.1821428571	3.43851351351	1.87105263158	-4.21008403361
949	0.4745	0.664285714286	4.8472972973	3.31052631579	-5.62605042017
950	0.475	0.664285714286	3.43851351351	1.87105263158	-1.3781512605
951	0.4755	-3.56785714286	-5.01418918919	0.431578947368	0.0378151260504
952	0.476	-0.746428571429	-2.19662162162	-1.00789473684	2.86974789916
953	0.4765	-3.56785714286	4.8472972973	3.31052631579	1.45378151261
954	0.477	4.89642857143	2.02972972973	0.431578947368	-1.3781512605
955	0.4775	-10.6214285714	0.620945945946	-2.44736842105	15.6134453782
956	0.478	-7.8	0.620945945946	-6.76578947368	-1.3781512605
957	0.4785	-3.56785714286	16.1175675676	1.87105263158	0.0378151260504
958	0.479	-2.15714285714	16.1175675676	-1.00789473684	-1.3781512605
959	0.4795	-9.21071428571	2.02972972973	-1.00789473684	1.45378151261
960	0.48	-4.97857142857	0.620945945946	0.431578947368	11.3655462185
961	0.4805	-2.15714285714	-0.787837837838	1.87105263158	-1.3781512605
962	0.481	0.664285714286	-0.787837837838	-2.44736842105	0.0378151260504
963	0.4815	-0.746428571429	16.1175675676	-2.44736842105	1.45378151261
964	0.482	-13.4428571429	-0.787837837838	0.431578947368	1.45378151261
965	0.4825	-3.56785714286	-0.787837837838	3.31052631579	2.86974789916
966	0.483	0.664285714286	-0.787837837838	-2.44736842105	-2.79411764706
967	0.4835	-2.15714285714	-2.19662162162	-6.76578947368	4.28571428571
968	0.484	0.664285714286	-7.83175675676	-1.00789473684	4.28571428571
969	0.4845	0.664285714286	-7.83175675676	-1.00789473684	1.45378151261
970	0.485	20.4142857143	-0.787837837838	0.431578947368	2.86974789916
971	0.4855	-2.15714285714	-2.19662162162	1.87105263158	-8.45798319328
972	0.486	-2.15714285714	-0.787837837838	-1.00789473684	2.86974789916
973	0.4865	-2.15714285714	-0.787837837838	-1.00789473684	0.0378151260504
974	0.487	0.664285714286	-7.83175675676	0.431578947368	1.45378151261
975	0.4875	7.71785714286	-3.60540540541	-2.44736842105	0.0378151260504
976	0.488	10.5392857143	-3.60540540541	-1.00789473684	0.0378151260504
977	0.4885	3.48571428571	0.620945945946	-3.88684210526	12.781512605
978	0.489	-0.746428571429	-2.19662162162	-3.88684210526	-1.3781512605
979	0.4895	2.075	-2.19662162162	-5.32631578947	0.0378151260504
980	0.49	0.664285714286	-0.787837837838	-1.00789473684	1.45378151261
981	0.4905	0.664285714286	-0.787837837838	1.87105263158	4.28571428571
982	0.491	-9.21071428571	-3.60540540541	-1.00789473684	1.45378151261
983	0.4915	0.664285714286	0.620945945946	7.62894736842	2.86974789916
984	0.492	-3.56785714286	-0.787837837838	-1.00789473684	0.0378151260504
985	0.4925	0.664285714286	18.9351351351	0.431578947368	0.0378151260504
986	0.493	-2.15714285714	6.25608108108	-1.00789473684	2.86974789916
987	0.4935	-4.97857142857	7.66486486486	0.431578947368	4.28571428571
988	0.494	3.48571428571	9.07364864865	1.87105263158	15.6134453782
989	0.4945	2.075	17.5263513514	-3.88684210526	0.0378151260504
990	0.495	0.664285714286	27.3878378378	0.431578947368	0.0378151260504
991	0.4955	0.664285714286	6.25608108108	0.431578947368	2.86974789916
992	0.496	-7.8	4.8472972973	0.431578947368	-1.3781512605
993	0.4965	2.075	6.25608108108	1.87105263158	2.86974789916
994	0.497	2.075	9.07364864865	4.75	-4.21008403361
995	0.4975	0.664285714286	10.4824324324	-1.00789473684	0.0378151260504
996	0.498	2.075	-0.787837837838	-1.00789473684	-1.3781512605
997	0.4985	-2.15714285714	2.02972972973	1.87105263158	0.0378151260504
998	0.499	-0.746428571429	0.620945945946	-1.00789473684	-9.87394957983
999	0.4995	0.664285714286	4.8472972973	-8.20526315789	-8.45798319328
1000	0.5	-0.746428571429	6.25608108108	0.431578947368	-1.3781512605
1001	0.5005	-0.746428571429	3.43851351351	0.431578947368	1.45378151261
1002	0.501	2.075	4.8472972973	1.87105263158	-1.3781512605
1003	0.5015	17.5928571429	3.43851351351	3.31052631579	-8.45798319328
1004	0.502	-3.56785714286	2.02972972973	3.31052631579	-1.3781512605
1005	0.5025	3.48571428571	4.8472972973	-3.88684210526	-1.3781512605
1006	0.503	-0.746428571429	4.8472972973	-9.64473684211	-1.3781512605
1007	0.5035	0.664285714286	3.43851351351	1.87105263158	0.0378151260504
1008	0.504	-13.4428571429	-0.787837837838	1.87105263158	-1.3781512605
1009	0.5045	-2.15714285714	6.25608108108	0.431578947368	-1.3781512605
1010	0.505	-0.746428571429	7.66486486486	3.31052631579	-8.45798319328
1011	0.5055	0.664285714286	7.66486486486	-6.76578947368	-1.3781512605
1012	0.506	0.664285714286	2.02972972973	0.431578947368	-2.79411764706
1013	0.5065	0.664285714286	4.8472972973	0.431578947368	-5.62605042017
1014	0.507	21.825	3.43851351351	-2.44736842105	-5.62605042017
1015	0.5075	-3.56785714286	6.25608108108	0.431578947368	1.45378151261
1016	0.508	2.075	3.43851351351	-5.32631578947	-1.3781512605
1017	0.5085	0.664285714286	6.25608108108	-8.20526315789	0.0378151260504
1018	0.509	0.664285714286	23.1614864865	0.431578947368	-1.3781512605
1019	0.5095	-7.8	6.25608108108	0.431578947368	-1.3781512605
1020	0.51	-9.21071428571	4.8472972973	-2.44736842105	12.781512605
1021	0.5105	-2.15714285714	7.66486486486	0.431578947368	-4.21008403361
1022	0.511	0.664285714286	9.07364864865	3.31052631579	-4.21008403361
1023	0.5115	0.664285714286	9.07364864865	0.431578947368	-4.21008403361
1024	0.512	0.664285714286	2.02972972973	0.431578947368	-4.21008403361
1025	0.5125	11.95	2.02972972973	-1.00789473684	-2.79411764706
1026	0.513	-0.746428571429	0.620945945946	0.431578947368	-8.45798319328
1027	0.5135	0.664285714286	-0.787837837838	3.31052631579	-11.2899159664
1028	0.514	0.664285714286	-9.24054054054	1.87105263158	0.0378151260504
1029	0.5145	-2.15714285714	-10.6493243243	-1.00789473684	0.0378151260504
1030	0.515	17.5928571429	-0.787837837838	1.87105263158	-2.79411764706
1031	0.5155	-0.746428571429	0.620945945946	-2.44736842105	-9.87394957983
1032	0.516	0.664285714286	0.620945945946	17.7052631579	-2.79411764706
1033	0.5165	0.664285714286	-0.787837837838	14.8263157895	0.0378151260504
1034	0.517	0.664285714286	-10.6493243243	0.431578947368	-4.21008403361
1035	0.5175	4.89642857143	-0.787837837838	-1.00789473684	-2.79411764706
1036	0.518	3.48571428571	0.620945945946	-1.00789473684	-1.3781512605
1037	0.5185	-0.746428571429	0.620945945946	-2.44736842105	-2.79411764706
1038	0.519	-0.746428571429	0.620945945946	-6.76578947368	0.0378151260504
1039	0.5195	-2.15714285714	0.620945945946	-1.00789473684	1.45378151261
1040	0.52	-2.15714285714	3.43851351351	0.431578947368	-1.3781512605
1041	0.5205	17.5928571429	2.02972972973	0.431578947368	-2.79411764706
1042	0.521	0.664285714286	2.02972972973	-1.00789473684	-14.1218487395
1043	0.5215	0.664285714286	2.02972972973	-1.00789473684	-2.79411764706
1044	0.522	-2.15714285714	6.25608108108	3.31052631579	-4.21008403361
1045	0.5225	0.664285714286	9.07364864865	-1.00789473684	-4.21008403361
1046	0.523	-0.746428571429	-2.19662162162	-1.00789473684	-7.04201680672
1047	0.5235	-9.21071428571	4.8472972973	-1.00789473684	-1.3781512605
1048	0.524	0.664285714286	4.8472972973	3.31052631579	-5.62605042017
1049	0.5245	0.664285714286	10.4824324324	-3.88684210526	-7.04201680672
1050	0.525	2.075	16.1175675676	1.87105263158	-4.21008403361
1051	0.5255	-0.746428571429	13.3	-1.00789473684	-4.21008403361
1052	0.526	-6.38928571429	9.07364864865	0.431578947368	-2.79411764706
1053	0.5265	-6.38928571429	10.4824324324	0.431578947368	-1.3781512605
1054	0.527	2.075	16.1175675676	1.87105263158	-12.7058823529
1055	0.5275	2.075	16.1175675676	1.87105263158	-2.79411764706
1056	0.528	3.48571428571	6.25608108108	-1.00789473684	-1.3781512605
1057	0.5285	4.89642857143	10.4824324324	0.431578947368	-2.79411764706
1058	0.529	17.5928571429	13.3	4.75	-11.2899159664
1059	0.5295	3.48571428571	9.07364864865	0.431578947368	7.11764705882
1060	0.53	-0.746428571429	6.25608108108	9.06842105263	-2.79411764706
1061	0.5305	0.664285714286	-2.19662162162	1.87105263158	-1.3781512605
1062	0.531	0.664285714286	6.25608108108	-1.00789473684	-1.3781512605
1063	0.5315	-0.746428571429	6.25608108108	1.87105263158	-1.3781512605
1064	0.532	2.075	9.07364864865	1.87105263158	-8.45798319328
1065	0.5325	0.664285714286	9.07364864865	-2.44736842105	-7.04201680672
1066	0.533	2.075	10.4824324324	-8.20526315789	0.0378151260504
1067	0.5335	0.664285714286	25.9790540541	-1.00789473684	0.0378151260504
1068	0.534	4.89642857143	6.25608108108	0.431578947368	-1.3781512605
1069	0.5345	0.664285714286	6.25608108108	-1.00789473684	-7.04201680672
1070	0.535	4.89642857143	6.25608108108	-11.0842105263	-5.62605042017
1071	0.5355	11.95	3.43851351351	-2.44736842105	-1.3781512605
1072	0.536	10.5392857143	23.1614864865	-1.00789473684	-1.3781512605
1073	0.5365	10.5392857143	6.25608108108	0.431578947368	-4.21008403361
1074	0.537	16.1821428571	3.43851351351	0.431578947368	-7.04201680672
1075	0.5375	-0.746428571429	4.8472972973	0.431578947368	-4.21008403361
1076	0.538	3.48571428571	4.8472972973	9.06842105263	-2.79411764706
1077	0.5385	0.664285714286	-2.19662162162	0.431578947368	-2.79411764706
1078	0.539	2.075	16.1175675676	0.431578947368	-1.3781512605
1079	0.5395	-12.0321428571	4.8472972973	-1.00789473684	4.28571428571
1080	0.54	-13.4428571429	0.620945945946	-2.44736842105	12.781512605
1081	0.5405	-4.97857142857	-0.787837837838	0.431578947368	2.86974789916
1082	0.541	-2.15714285714	-3.60540540541	7.62894736842	-2.79411764706
1083	0.5415	-3.56785714286	3.43851351351	0.431578947368	0.0378151260504
1084	0.542	0.664285714286	-5.01418918919	1.87105263158	1.45378151261
1085	0.5425	-12.0321428571	-5.01418918919	0.431578947368	4.28571428571
1086	0.543	0.664285714286	-5.01418918919	-11.0842105263	4.28571428571
1087	0.5435	-3.56785714286	-2.19662162162	-11.0842105263	1.45378151261
1088	0.544	-4.97857142857	2.02972972973	1.87105263158	2.86974789916
1089	0.5445	-0.746428571429	-3.60540540541	1.87105263158	4.28571428571
1090	0.545	-7.8	-2.19662162162	-1.00789473684	4.28571428571
1091	0.5455	2.075	-3.60540540541	1.87105263158	2.86974789916
1092	0.546	-3.56785714286	-0.787837837838	-3.88684210526	-2.79411764706
1093	0.5465	-2.15714285714	-0.787837837838	-9.64473684211	4.28571428571
1094	0.547	-3.56785714286	-12.0581081081	-1.00789473684	5.70168067227
1095	0.5475	2.075	-2.19662162162	-1.00789473684	5.70168067227
1096	0.548	17.5928571429	-5.01418918919	0.431578947368	4.28571428571
1097	0.5485	-2.15714285714	-3.60540540541	-2.44736842105	11.3655462185
1098	0.549	0.664285714286	-3.60540540541	-1.00789473684	7.11764705882
1099	0.5495	-0.746428571429	-5.01418918919	1.87105263158	8.53361344538
1100	0.55	2.075	17.5263513514	0.431578947368	12.781512605
1101	0.5505	4.89642857143	-0.787837837838	0.431578947368	11.3655462185
1102	0.551	20.4142857143	4.8472972973	0.431578947368	17.0294117647
1103	0.5515	0.664285714286	4.8472972973	-1.00789473684	28.3571428571
1104	0.552	3.48571428571	9.07364864865	-1.00789473684	19.8613445378
1105	0.5525	0.664285714286	7.66486486486	4.75	21.2773109244
1106	0.553	7.71785714286	3.43851351351	-1.00789473684	21.2773109244
1107	0.5535	4.89642857143	9.07364864865	-1.00789473684	18.4453781513
1108	0.554	20.4142857143	14.7087837838	-1.00789473684	17.0294117647
1109	0.5545	3.48571428571	17.5263513514	14.8263157895	19.8613445378
1110	0.555	4.89642857143	21.7527027027	9.06842105263	21.2773109244
1111	0.5555	9.12857142857	18.9351351351	-1.00789473684	18.4453781513
1112	0.556	9.12857142857	23.1614864865	-1.00789473684	21.2773109244
1113	0.5565	10.5392857143	20.3439189189	0.431578947368	21.2773109244
1114	0.557	3.48571428571	20.3439189189	-6.76578947368	21.2773109244
1115	0.5575	4.89642857143	18.9351351351	-8.20526315789	19.8613445378
1116	0.558	7.71785714286	21.7527027027	-2.44736842105	18.4453781513
1117	0.5585	4.89642857143	16.1175675676	-1.00789473684	19.8613445378
1118	0.559	11.95	23.1614864865	1.87105263158	17.0294117647
1119	0.5595	-0.746428571429	24.5702702703	-1.00789473684	11.3655462185
1120	0.56	10.5392857143	25.9790540541	-1.00789473684	22.6932773109
1121	0.5605	10.5392857143	27.3878378378	7.62894736842	4.28571428571
1122	0.561	7.71785714286	23.1614864865	0.431578947368	1.45378151261
1123	0.5615	4.89642857143	16.1175675676	0.431578947368	-2.79411764706
1124	0.562	21.825	17.5263513514	0.431578947368	-11.2899159664
1125	0.5625	4.89642857143	16.1175675676	1.87105263158	-21.2016806723
1126	0.563	3.48571428571	13.3	4.75	-18.3697478992
1127	0.5635	3.48571428571	-0.787837837838	0.431578947368	-18.3697478992
1128	0.564	4.89642857143	2.02972972973	-1.00789473684	-14.1218487395
1129	0.5645	16.1821428571	10.4824324324	0.431578947368	-18.3697478992
1130	0.565	-3.56785714286	10.4824324324	-2.44736842105	-21.2016806723
1131	0.5655	4.89642857143	13.3	-3.88684210526	-22.6176470588
1132	0.566	0.664285714286	13.3	-9.64473684211	-25.4495798319
1133	0.5665	2.075	30.2054054054	1.87105263158	-25.4495798319
1134	0.567	-2.15714285714	7.66486486486	0.431578947368	-28.281512605
1135	0.5675	-3.56785714286	7.66486486486	0.431578947368	-22.6176470588
1136	0.568	2.075	10.4824324324	3.31052631579	-26.8655462185
1137	0.5685	3.48571428571	13.3	0.431578947368	-32.5294117647
1138	0.569	0.664285714286	10.4824324324	-6.76578947368	-22.6176470588
1139	0.5695	0.664285714286	27.3878378378	0.431578947368	-19.7857142857
1140	0.57	0.664285714286	11.8912162162	-1.00789473684	-19.7857142857
1141	0.5705	-10.6214285714	6.25608108108	0.431578947368	-26.8655462185
1142	0.571	2.075	6.25608108108	-2.44736842105	-15.5378151261
1143	0.5715	2.075	7.66486486486	-8.20526315789	-9.87394957983
1144	0.572	3.48571428571	17.5263513514	-1.00789473684	-8.45798319328
1145	0.5725	3.48571428571	3.43851351351	-1.00789473684	-9.87394957983
1146	0.573	14.7714285714	4.8472972973	-1.00789473684	-7.04201680672
1147	0.5735	4.89642857143	3.43851351351	0.431578947368	-1.3781512605
1148	0.574	3.48571428571	6.25608108108	-6.76578947368	-4.21008403361
1149	0.5745	3.48571428571	0.620945945946	-1.00789473684	-1.3781512605
1150	0.575	2.075	14.7087837838	0.431578947368	-1.3781512605
1151	0.5755	0.664285714286	9.07364864865	-1.00789473684	5.70168067227
1152	0.576	-4.97857142857	6.25608108108	0.431578947368	18.4453781513
1153	0.5765	-0.746428571429	6.25608108108	-2.44736842105	22.6932773109
1154	0.577	-3.56785714286	7.66486486486	-1.00789473684	11.3655462185
1155	0.5775	-3.56785714286	3.43851351351	-1.00789473684	12.781512605
1156	0.578	-3.56785714286	0.620945945946	-1.00789473684	15.6134453782
1157	0.5785	-10.6214285714	2.02972972973	-3.88684210526	25.525210084
1158	0.579	-3.56785714286	2.02972972973	-6.76578947368	18.4453781513
1159	0.5795	-2.15714285714	-0.787837837838	-8.20526315789	2.86974789916
1160	0.58	-3.56785714286	7.66486486486	-1.00789473684	5.70168067227
1161	0.5805	-2.15714285714	-7.83175675676	-1.00789473684	4.28571428571
1162	0.581	-0.746428571429	-2.19662162162	-1.00789473684	0.0378151260504
1163	0.5815	0.664285714286	-2.19662162162	-1.00789473684	-4.21008403361
1164	0.582	2.075	-10.6493243243	3.31052631579	0.0378151260504
1165	0.5825	2.075	-13.4668918919	-5.32631578947	0.0378151260504
1166	0.583	2.075	-9.24054054054	1.87105263158	0.0378151260504
1167	0.5835	-2.15714285714	-13.4668918919	-1.00789473684	0.0378151260504
1168	0.584	11.95	-13.4668918919	0.431578947368	-1.3781512605
1169	0.5845	-4.97857142857	-13.4668918919	-11.0842105263	-1.3781512605
1170	0.585	-9.21071428571	-12.0581081081	-3.88684210526	2.86974789916
1171	0.5855	-7.8	-17.6932432432	0.431578947368	2.86974789916
1172	0.586	-3.56785714286	2.02972972973	0.431578947368	1.45378151261
1173	0.5865	-7.8	-2.19662162162	-2.44736842105	0.0378151260504
1174	0.587	-14.8535714286	-2.19662162162	0.431578947368	4.28571428571
1175	0.5875	-6.38928571429	-0.787837837838	-12.5236842105	0.0378151260504
1176	0.588	-4.97857142857	-0.787837837838	-11.0842105263	1.45378151261
1177	0.5885	-2.15714285714	6.25608108108	0.431578947368	-2.79411764706
1178	0.589	-2.15714285714	2.02972972973	1.87105263158	-4.21008403361
1179	0.5895	-14.8535714286	0.620945945946	-2.44736842105	-2.79411764706
1180	0.59	-0.746428571429	-0.787837837838	-6.76578947368	-11.2899159664
1181	0.5905	-0.746428571429	0.620945945946	-6.76578947368	-9.87394957983
1182	0.591	-0.746428571429	-2.19662162162	9.06842105263	-5.62605042017
1183	0.5915	-2.15714285714	-9.24054054054	0.431578947368	-4.21008403361
1184	0.592	0.664285714286	-9.24054054054	-1.00789473684	-4.21008403361
1185	0.5925	21.825	-3.60540540541	0.431578947368	-15.5378151261
1186	0.593	-2.15714285714	-3.60540540541	17.7052631579	-5.62605042017
1187	0.5935	-0.746428571429	-0.787837837838	20.5842105263	-5.62605042017
1188	0.594	-0.746428571429	-10.6493243243	1.87105263158	-5.62605042017
1189	0.5945	-3.56785714286	-5.01418918919	-1.00789473684	-2.79411764706
1190	0.595	-0.746428571429	-2.19662162162	1.87105263158	-2.79411764706
1191	0.5955	-0.746428571429	-2.19662162162	3.31052631579	-8.45798319328
1192	0.596	0.664285714286	-7.83175675676	1.87105263158	-14.1218487395
1193	0.5965	-2.15714285714	-6.42297297297	-8.20526315789	-7.04201680672
1194	0.597	-3.56785714286	9.07364864865	1.87105263158	-4.21008403361
1195	0.5975	0.664285714286	-9.24054054054	-1.00789473684	-7.04201680672
1196	0.598	0.664285714286	-2.19662162162	-1.00789473684	-7.04201680672
1197	0.5985	-0.746428571429	-0.787837837838	-1.00789473684	-15.5378151261
1198	0.599	0.664285714286	0.620945945946	3.31052631579	-5.62605042017
1199	0.5995	2.075	0.620945945946	1.87105263158	-4.21008403361
1200	0.6	3.48571428571	-6.42297297297	0.431578947368	-7.04201680672
1201	0.6005	-12.0321428571	0.620945945946	1.87105263158	-4.21008403361
1202	0.601	0.664285714286	-0.787837837838	3.31052631579	-9.87394957983
1203	0.6015	3.48571428571	2.02972972973	-3.88684210526	-9.87394957983
1204	0.602	-2.15714285714	3.43851351351	-1.00789473684	-5.62605042017
1205	0.6025	-0.746428571429	2.02972972973	-1.00789473684	-2.79411764706
1206	0.603	0.664285714286	9.07364864865	0.431578947368	-5.62605042017
1207	0.6035	17.5928571429	10.4824324324	-1.00789473684	-8.45798319328
1208	0.604	-6.38928571429	16.1175675676	0.431578947368	-11.2899159664
1209	0.6045	-3.56785714286	9.07364864865	6.18947368421	-7.04201680672
1210	0.605	0.664285714286	2.02972972973	0.431578947368	-8.45798319328
1211	0.6055	0.664285714286	3.43851351351	-1.00789473684	-8.45798319328
1212	0.606	2.075	3.43851351351	1.87105263158	-5.62605042017
1213	0.6065	-10.6214285714	3.43851351351	-1.00789473684	8.53361344538
1214	0.607	2.075	6.25608108108	0.431578947368	2.86974789916
1215	0.6075	2.075	4.8472972973	-6.76578947368	-9.87394957983
1216	0.608	3.48571428571	14.7087837838	0.431578947368	-7.04201680672
1217	0.6085	0.664285714286	2.02972972973	-1.00789473684	-4.21008403361
1218	0.609	0.664285714286	-0.787837837838	1.87105263158	-7.04201680672
1219	0.6095	0.664285714286	9.07364864865	-1.00789473684	-14.1218487395
1220	0.61	-3.56785714286	7.66486486486	13.3868421053	-4.21008403361
1221	0.6105	-4.97857142857	6.25608108108	-3.88684210526	-4.21008403361
1222	0.611	-2.15714285714	10.4824324324	0.431578947368	-5.62605042017
1223	0.6115	-6.38928571429	4.8472972973	0.431578947368	-8.45798319328
1224	0.612	17.5928571429	7.66486486486	1.87105263158	-16.9537815126
1225	0.6125	2.075	6.25608108108	3.31052631579	-14.1218487395
1226	0.613	0.664285714286	6.25608108108	-2.44736842105	-7.04201680672
1227	0.6135	-0.746428571429	6.25608108108	-5.32631578947	-4.21008403361
1228	0.614	-0.746428571429	17.5263513514	-1.00789473684	-4.21008403361
1229	0.6145	-10.6214285714	2.02972972973	0.431578947368	-1.3781512605
1230	0.615	-10.6214285714	3.43851351351	-2.44736842105	-1.3781512605
1231	0.6155	-0.746428571429	2.02972972973	-1.00789473684	2.86974789916
1232	0.616	0.664285714286	4.8472972973	-2.44736842105	-4.21008403361
1233	0.6165	-2.15714285714	16.1175675676	0.431578947368	-4.21008403361
1234	0.617	-3.56785714286	-2.19662162162	1.87105263158	-4.21008403361
1235	0.6175	4.89642857143	-0.787837837838	0.431578947368	-7.04201680672
1236	0.618	0.664285714286	-2.19662162162	-1.00789473684	-14.1218487395
1237	0.6185	-2.15714285714	-2.19662162162	-9.64473684211	-9.87394957983
1238	0.619	0.664285714286	4.8472972973	-1.00789473684	-7.04201680672
1239	0.6195	-0.746428571429	-2.19662162162	-1.00789473684	-5.62605042017
1240	0.62	-0.746428571429	-3.60540540541	1.87105263158	-2.79411764706
1241	0.6205	-7.8	-5.01418918919	-1.00789473684	-2.79411764706
1242	0.621	-2.15714285714	-3.60540540541	1.87105263158	8.53361344538
1243	0.6215	0.664285714286	-0.787837837838	20.5842105263	-5.62605042017
1244	0.622	-0.746428571429	-13.4668918919	-1.00789473684	-2.79411764706
1245	0.6225	0.664285714286	-2.19662162162	1.87105263158	-4.21008403361
1246	0.623	-9.21071428571	0.620945945946	-1.00789473684	-1.3781512605
1247	0.6235	-3.56785714286	0.620945945946	-1.00789473684	-1.3781512605
1248	0.624	-0.746428571429	0.620945945946	13.3868421053	-5.62605042017
1249	0.6245	2.075	2.02972972973	-1.00789473684	-1.3781512605
1250	0.625	-3.56785714286	-3.60540540541	1.87105263158	-2.79411764706
1251	0.6255	-10.6214285714	-0.787837837838	1.87105263158	-4.21008403361
1252	0.626	2.075	-2.19662162162	1.87105263158	-1.3781512605
1253	0.6265	-3.56785714286	-2.19662162162	1.87105263158	14.1974789916
1254	0.627	-3.56785714286	-2.19662162162	1.87105263158	-2.79411764706
1255	0.6275	2.075	17.5263513514	-1.00789473684	-2.79411764706
1256	0.628	-4.97857142857	0.620945945946	3.31052631579	-2.79411764706
1257	0.6285	-16.2642857143	2.02972972973	1.87105263158	-1.3781512605
1258	0.629	-0.746428571429	0.620945945946	3.31052631579	8.53361344538
1259	0.6295	-2.15714285714	4.8472972973	16.2657894737	-7.04201680672
1260	0.63	2.075	6.25608108108	3.31052631579	-2.79411764706
1261	0.6305	-2.15714285714	0.620945945946	-1.00789473684	-1.3781512605
1262	0.631	-6.38928571429	-2.19662162162	0.431578947368	-5.62605042017
1263	0.6315	9.12857142857	-2.19662162162	3.31052631579	-7.04201680672
1264	0.632	-0.746428571429	-5.01418918919	13.3868421053	-4.21008403361
1265	0.6325	-3.56785714286	-9.24054054054	16.2657894737	-5.62605042017
1266	0.633	-0.746428571429	-13.4668918919	-1.00789473684	-5.62605042017
1267	0.6335	2.075	-10.6493243243	0.431578947368	-4.21008403361
1268	0.634	-9.21071428571	-2.19662162162	0.431578947368	-2.79411764706
1269	0.6345	2.075	-0.787837837838	3.31052631579	-7.04201680672
1270	0.635	-0.746428571429	-0.787837837838	-3.88684210526	-5.62605042017
1271	0.6355	-0.746428571429	13.3	1.87105263158	-4.21008403361
1272	0.636	-0.746428571429	-3.60540540541	3.31052631579	-5.62605042017
1273	0.6365	-2.15714285714	-2.19662162162	-1.00789473684	-8.45798319328
1274	0.637	-0.746428571429	-2.19662162162	4.75	-16.9537815126
1275	0.6375	0.664285714286	-5.01418918919	1.87105263158	-11.2899159664
1276	0.638	-0.746428571429	-13.4668918919	0.431578947368	-4.21008403361
1277	0.6385	-0.746428571429	-6.42297297297	0.431578947368	-1.3781512605
1278	0.639	2.075	-2.19662162162	1.87105263158	-8.45798319328
1279	0.6395	11.95	-0.787837837838	0.431578947368	-5.62605042017
1280	0.64	-0.746428571429	-3.60540540541	-1.00789473684	-4.21008403361
1281	0.6405	0.664285714286	-3.60540540541	-8.20526315789	-4.21008403361
1282	0.641	-0.746428571429	-0.787837837838	-6.76578947368	-2.79411764706
1283	0.6415	4.89642857143	-3.60540540541	0.431578947368	-5.62605042017
1284	0.642	17.5928571429	-6.42297297297	0.431578947368	-5.62605042017
1285	0.6425	-0.746428571429	-7.83175675676	1.87105263158	2.86974789916
1286	0.643	-0.746428571429	-7.83175675676	4.75	-2.79411764706
1287	0.6435	2.075	-10.6493243243	-2.44736842105	-2.79411764706
1288	0.644	-0.746428571429	6.25608108108	3.31052631579	-2.79411764706
1289	0.6445	-2.15714285714	-3.60540540541	0.431578947368	-2.79411764706
1290	0.645	0.664285714286	-0.787837837838	1.87105263158	-8.45798319328
1291	0.6455	2.075	0.620945945946	-5.32631578947	-1.3781512605
1292	0.646	3.48571428571	0.620945945946	0.431578947368	-5.62605042017
1293	0.6465	2.075	6.25608108108	0.431578947368	-1.3781512605
1294	0.647	3.48571428571	6.25608108108	0.431578947368	-1.3781512605
1295	0.6475	17.5928571429	6.25608108108	-1.00789473684	-4.21008403361
1296	0.648	-0.746428571429	2.02972972973	3.31052631579	-12.7058823529
1297	0.6485	-2.15714285714	-2.19662162162	1.87105263158	-1.3781512605
1298	0.649	2.075	-13.4668918919	-2.44736842105	-1.3781512605
1299	0.6495	0.664285714286	-9.24054054054	1.87105263158	-1.3781512605
1300	0.65	-9.21071428571	-6.42297297297	3.31052631579	0.0378151260504
1301	0.6505	0.664285714286	-5.01418918919	3.31052631579	8.53361344538
1302	0.651	0.664285714286	-2.19662162162	16.2657894737	-7.04201680672
1303	0.6515	2.075	2.02972972973	-1.00789473684	-4.21008403361
1304	0.652	-0.746428571429	-2.19662162162	3.31052631579	-4.21008403361
1305	0.6525	-10.6214285714	2.02972972973	0.431578947368	-4.21008403361
1306	0.653	-3.56785714286	3.43851351351	4.75	-1.3781512605
1307	0.6535	2.075	6.25608108108	14.8263157895	-8.45798319328
1308	0.654	0.664285714286	9.07364864865	0.431578947368	-2.79411764706
1309	0.6545	3.48571428571	13.3	1.87105263158	-2.79411764706
1310	0.655	-0.746428571429	9.07364864865	0.431578947368	-5.62605042017
1311	0.6555	13.3607142857	7.66486486486	1.87105263158	-5.62605042017
1312	0.656	9.12857142857	4.8472972973	1.87105263158	-7.04201680672
1313	0.6565	4.89642857143	6.25608108108	-2.44736842105	-5.62605042017
1314	0.657	2.075	9.07364864865	-2.44736842105	-2.79411764706
1315	0.6575	2.075	3.43851351351	0.431578947368	-2.79411764706
1316	0.658	4.89642857143	2.02972972973	3.31052631579	-1.3781512605
1317	0.6585	-2.15714285714	0.620945945946	-1.00789473684	-4.21008403361
1318	0.659	-3.56785714286	0.620945945946	20.5842105263	-1.3781512605
1319	0.6595	-0.746428571429	2.02972972973	0.431578947368	-1.3781512605
1320	0.66	-4.97857142857	21.7527027027	1.87105263158	-1.3781512605
1321	0.6605	-16.2642857143	2.02972972973	1.87105263158	2.86974789916
1322	0.661	-3.56785714286	3.43851351351	-1.00789473684	-9.87394957983
1323	0.6615	-6.38928571429	4.8472972973	4.75	4.28571428571
1324	0.662	-0.746428571429	4.8472972973	3.31052631579	0.0378151260504
1325	0.6625	0.664285714286	3.43851351351	1.87105263158	0.0378151260504
1326	0.663	0.664285714286	6.25608108108	0.431578947368	-1.3781512605
1327	0.6635	16.1821428571	4.8472972973	-1.00789473684	-2.79411764706
1328	0.664	-0.746428571429	3.43851351351	-12.5236842105	0.0378151260504
1329	0.6645	0.664285714286	0.620945945946	-1.00789473684	-1.3781512605
1330	0.665	-0.746428571429	-7.83175675676	0.431578947368	1.45378151261
1331	0.6655	-3.56785714286	0.620945945946	-1.00789473684	0.0378151260504
1332	0.666	-10.6214285714	0.620945945946	-1.00789473684	0.0378151260504
1333	0.6665	3.48571428571	0.620945945946	4.75	11.3655462185
1334	0.667	2.075	3.43851351351	16.2657894737	-4.21008403361
1335	0.6675	0.664285714286	6.25608108108	-1.00789473684	-4.21008403361
1336	0.668	-0.746428571429	-2.19662162162	0.431578947368	-2.79411764706
1337	0.6685	-9.21071428571	-3.60540540541	0.431578947368	-4.21008403361
1338	0.669	-3.56785714286	0.620945945946	-1.00789473684	-1.3781512605
1339	0.6695	-2.15714285714	0.620945945946	1.87105263158	-5.62605042017
1340	0.67	-0.746428571429	0.620945945946	1.87105263158	-8.45798319328
1341	0.6705	-0.746428571429	0.620945945946	3.31052631579	-5.62605042017
1342	0.671	-9.21071428571	-0.787837837838	0.431578947368	-4.21008403361
1343	0.6715	0.664285714286	0.620945945946	0.431578947368	1.45378151261
1344	0.672	-0.746428571429	-0.787837837838	1.87105263158	-4.21008403361
1345	0.6725	-0.746428571429	0.620945945946	0.431578947368	-1.3781512605
1346	0.673	2.075	0.620945945946	3.31052631579	-5.62605042017
1347	0.6735	0.664285714286	0.620945945946	-2.44736842105	-4.21008403361
1348	0.674	-6.38928571429	4.8472972973	0.431578947368	-4.21008403361
1349	0.6745	-2.15714285714	4.8472972973	1.87105263158	15.6134453782
1350	0.675	-3.56785714286	6.25608108108	17.7052631579	-2.79411764706
1351	0.6755	0.664285714286	17.5263513514	0.431578947368	-4.21008403361
1352	0.676	-0.746428571429	0.620945945946	-1.00789473684	-2.79411764706
1353	0.6765	-12.0321428571	2.02972972973	0.431578947368	1.45378151261
1354	0.677	-3.56785714286	0.620945945946	1.87105263158	14.1974789916
1355	0.6775	-0.746428571429	3.43851351351	19.1447368421	-2.79411764706
1356	0.678	0.664285714286	10.4824324324	1.87105263158	-1.3781512605
1357	0.6785	-0.746428571429	10.4824324324	-1.00789473684	-1.3781512605
1358	0.679	-9.21071428571	3.43851351351	-1.00789473684	2.86974789916
1359	0.6795	-4.97857142857	6.25608108108	1.87105263158	1.45378151261
1360	0.68	-0.746428571429	11.8912162162	3.31052631579	-1.3781512605
1361	0.6805	-0.746428571429	18.9351351351	-2.44736842105	-2.79411764706
1362	0.681	0.664285714286	28.7966216216	-1.00789473684	-1.3781512605
1363	0.6815	-10.6214285714	17.5263513514	-1.00789473684	-1.3781512605
1364	0.682	-3.56785714286	16.1175675676	0.431578947368	5.70168067227
1365	0.6825	2.075	14.7087837838	-8.20526315789	-7.04201680672
1366	0.683	2.075	10.4824324324	1.87105263158	-4.21008403361
1367	0.6835	2.075	0.620945945946	-1.00789473684	-2.79411764706
1368	0.684	3.48571428571	6.25608108108	0.431578947368	-8.45798319328
1369	0.6845	3.48571428571	4.8472972973	0.431578947368	-4.21008403361
1370	0.685	-6.38928571429	4.8472972973	1.87105263158	-4.21008403361
1371	0.6855	0.664285714286	6.25608108108	-2.44736842105	-2.79411764706
1372	0.686	2.075	-2.19662162162	-1.00789473684	-8.45798319328
1373	0.6865	0.664285714286	16.1175675676	1.87105263158	-7.04201680672
1374	0.687	0.664285714286	0.620945945946	1.87105263158	-9.87394957983
1375	0.6875	2.075	3.43851351351	0.431578947368	-16.9537815126
1376	0.688	2.075	7.66486486486	-5.32631578947	-1.3781512605
1377	0.6885	0.664285714286	6.25608108108	3.31052631579	-7.04201680672
1378	0.689	3.48571428571	7.66486486486	1.87105263158	-8.45798319328
1379	0.6895	-0.746428571429	6.25608108108	0.431578947368	-8.45798319328
1380	0.69	0.664285714286	3.43851351351	0.431578947368	-7.04201680672
1381	0.6905	-7.8	4.8472972973	-1.00789473684	7.11764705882
1382	0.691	-0.746428571429	4.8472972973	-5.32631578947	-7.04201680672
1383	0.6915	0.664285714286	7.66486486486	-5.32631578947	-4.21008403361
1384	0.692	0.664285714286	21.7527027027	0.431578947368	-4.21008403361
1385	0.6925	19.0035714286	0.620945945946	0.431578947368	-5.62605042017
1386	0.693	-2.15714285714	6.25608108108	1.87105263158	-8.45798319328
1387	0.6935	-0.746428571429	4.8472972973	0.431578947368	5.70168067227
1388	0.694	-0.746428571429	6.25608108108	14.8263157895	-1.3781512605
1389	0.6945	2.075	-2.19662162162	1.87105263158	-4.21008403361
1390	0.695	3.48571428571	-7.83175675676	0.431578947368	-2.79411764706
1391	0.6955	23.2357142857	4.8472972973	0.431578947368	-4.21008403361
1392	0.696	-0.746428571429	4.8472972973	4.75	-1.3781512605
1393	0.6965	0.664285714286	6.25608108108	1.87105263158	1.45378151261
1394	0.697	0.664285714286	0.620945945946	0.431578947368	-2.79411764706
1395	0.6975	2.075	0.620945945946	-1.00789473684	-2.79411764706
1396	0.698	3.48571428571	6.25608108108	3.31052631579	-2.79411764706
1397	0.6985	-6.38928571429	3.43851351351	0.431578947368	14.1974789916
1398	0.699	0.664285714286	2.02972972973	-1.00789473684	12.781512605
1399	0.6995	7.71785714286	9.07364864865	3.31052631579	-4.21008403361
1400	0.7	9.12857142857	24.5702702703	0.431578947368	-4.21008403361
1401	0.7005	3.48571428571	6.25608108108	-1.00789473684	-1.3781512605
1402	0.701	-6.38928571429	6.25608108108	0.431578947368	-2.79411764706
1403	0.7015	4.89642857143	6.25608108108	4.75	4.28571428571
1404	0.702	10.5392857143	6.25608108108	16.2657894737	-7.04201680672
1405	0.7025	2.075	-3.60540540541	-1.00789473684	-1.3781512605
1406	0.703	-0.746428571429	-0.787837837838	0.431578947368	-4.21008403361
1407	0.7035	-16.2642857143	7.66486486486	0.431578947368	-2.79411764706
1408	0.704	-4.97857142857	6.25608108108	-1.00789473684	1.45378151261
1409	0.7045	-4.97857142857	3.43851351351	9.06842105263	-2.79411764706
1410	0.705	-6.38928571429	4.8472972973	3.31052631579	-4.21008403361
1411	0.7055	-3.56785714286	6.25608108108	3.31052631579	-4.21008403361
1412	0.706	-10.6214285714	-2.19662162162	1.87105263158	-5.62605042017
1413	0.7065	9.12857142857	3.43851351351	-1.00789473684	-8.45798319328
1414	0.707	0.664285714286	4.8472972973	1.87105263158	-11.2899159664
1415	0.7075	0.664285714286	6.25608108108	1.87105263158	-2.79411764706
1416	0.708	2.075	3.43851351351	0.431578947368	-7.04201680672
1417	0.7085	-2.15714285714	-2.19662162162	-1.00789473684	-2.79411764706
1418	0.709	-9.21071428571	3.43851351351	0.431578947368	-1.3781512605
1419	0.7095	2.075	4.8472972973	4.75	8.53361344538
1420	0.71	-2.15714285714	4.8472972973	1.87105263158	-8.45798319328
1421	0.7105	0.664285714286	-7.83175675676	-1.00789473684	-4.21008403361
1422	0.711	-3.56785714286	3.43851351351	-1.00789473684	-4.21008403361
1423	0.7115	-10.6214285714	2.02972972973	0.431578947368	-1.3781512605
1424	0.712	-6.38928571429	0.620945945946	-1.00789473684	-2.79411764706
1425	0.7125	-2.15714285714	-0.787837837838	0.431578947368	-12.7058823529
1426	0.713	0.664285714286	-3.60540540541	-1.00789473684	-2.79411764706
1427	0.7135	0.664285714286	-2.19662162162	0.431578947368	-2.79411764706
1428	0.714	7.71785714286	0.620945945946	0.431578947368	-4.21008403361
1429	0.7145	20.4142857143	2.02972972973	0.431578947368	-12.7058823529
1430	0.715	-0.746428571429	2.02972972973	1.87105263158	-11.2899159664
1431	0.7155	0.664285714286	3.43851351351	-2.44736842105	-5.62605042017
1432	0.716	0.664285714286	0.620945945946	-5.32631578947	-1.3781512605
1433	0.7165	2.075	2.02972972973	0.431578947368	-1.3781512605
1434	0.717	-6.38928571429	0.620945945946	0.431578947368	0.0378151260504
1435	0.7175	-12.0321428571	-0.787837837838	0.431578947368	14.1974789916
1436	0.718	-0.746428571429	3.43851351351	-3.88684210526	0.0378151260504
1437	0.7185	-0.746428571429	9.07364864865	0.431578947368	-4.21008403361
1438	0.719	0.664285714286	13.3	0.431578947368	-2.79411764706
1439	0.7195	0.664285714286	6.25608108108	0.431578947368	-2.79411764706
1440	0.72	-7.8	6.25608108108	-1.00789473684	2.86974789916
1441	0.7205	-0.746428571429	2.02972972973	6.18947368421	-1.3781512605
1442	0.721	3.48571428571	6.25608108108	-3.88684210526	-4.21008403361
1443	0.7215	0.664285714286	4.8472972973	-1.00789473684	-5.62605042017
1444	0.722	4.89642857143	-2.19662162162	1.87105263158	-7.04201680672
1445	0.7225	7.71785714286	2.02972972973	0.431578947368	-5.62605042017
1446	0.723	-4.97857142857	2.02972972973	0.431578947368	-5.62605042017
1447	0.7235	0.664285714286	3.43851351351	0.431578947368	-9.87394957983
1448	0.724	-0.746428571429	-0.787837837838	3.31052631579	-5.62605042017
1449	0.7245	0.664285714286	18.9351351351	0.431578947368	-5.62605042017
1450	0.725	-2.15714285714	21.7527027027	3.31052631579	-5.62605042017
1451	0.7255	-10.6214285714	6.25608108108	-1.00789473684	8.53361344538
1452	0.726	0.664285714286	3.43851351351	0.431578947368	11.3655462185
1453	0.7265	2.075	6.25608108108	-9.64473684211	-7.04201680672
1454	0.727	-0.746428571429	7.66486486486	0.431578947368	-7.04201680672
1455	0.7275	-4.97857142857	7.66486486486	3.31052631579	-4.21008403361
1456	0.728	-13.4428571429	0.620945945946	1.87105263158	-5.62605042017
1457	0.7285	0.664285714286	3.43851351351	3.31052631579	2.86974789916
1458	0.729	-0.746428571429	4.8472972973	6.18947368421	-4.21008403361
1459	0.7295	-0.746428571429	3.43851351351	17.7052631579	-5.62605042017
1460	0.73	0.664285714286	-2.19662162162	1.87105263158	-4.21008403361
1461	0.7305	0.664285714286	4.8472972973	3.31052631579	-9.87394957983
1462	0.731	19.0035714286	3.43851351351	-1.00789473684	-7.04201680672
1463	0.7315	-2.15714285714	4.8472972973	-11.0842105263	-8.45798319328
1464	0.732	-3.56785714286	4.8472972973	-1.00789473684	-2.79411764706
1465	0.7325	-0.746428571429	-2.19662162162	0.431578947368	-4.21008403361
1466	0.733	6.30714285714	7.66486486486	1.87105263158	-7.04201680672
1467	0.7335	13.3607142857	4.8472972973	0.431578947368	-9.87394957983
1468	0.734	0.664285714286	2.02972972973	0.431578947368	-9.87394957983
1469	0.7345	-2.15714285714	-0.787837837838	4.75	-11.2899159664
1470	0.735	0.664285714286	-3.60540540541	-2.44736842105	-4.21008403361
1471	0.7355	2.075	14.7087837838	0.431578947368	-5.62605042017
1472	0.736	-2.15714285714	0.620945945946	0.431578947368	-5.62605042017
1473	0.7365	0.664285714286	0.620945945946	1.87105263158	-11.2899159664
1474	0.737	-0.746428571429	-0.787837837838	-2.44736842105	-14.1218487395
1475	0.7375	0.664285714286	-3.60540540541	-9.64473684211	-7.04201680672
1476	0.738	-0.746428571429	3.43851351351	1.87105263158	-8.45798319328
1477	0.7385	-0.746428571429	3.43851351351	1.87105263158	-8.45798319328
1478	0.739	19.0035714286	2.02972972973	-1.00789473684	-8.45798319328
1479	0.7395	-0.746428571429	4.8472972973	4.75	4.28571428571
1480	0.74	0.664285714286	2.02972972973	-3.88684210526	-8.45798319328
1481	0.7405	0.664285714286	3.43851351351	6.18947368421	-8.45798319328
1482	0.741	-0.746428571429	-2.19662162162	0.431578947368	-7.04201680672
1483	0.7415	-0.746428571429	-3.60540540541	0.431578947368	-7.04201680672
1484	0.742	-6.38928571429	2.02972972973	-1.00789473684	-4.21008403361
1485	0.7425	-0.746428571429	2.02972972973	1.87105263158	-12.7058823529
1486	0.743	-0.746428571429	3.43851351351	4.75	-5.62605042017
1487	0.7435	0.664285714286	-5.01418918919	0.431578947368	-7.04201680672
1488	0.744	-0.746428571429	4.8472972973	1.87105263158	-5.62605042017
1489	0.7445	2.075	7.66486486486	1.87105263158	-5.62605042017
1490	0.745	4.89642857143	10.4824324324	3.31052631579	-2.79411764706
1491	0.7455	2.075	10.4824324324	3.31052631579	-8.45798319328
1492	0.746	4.89642857143	9.07364864865	-8.20526315789	-2.79411764706
1493	0.7465	3.48571428571	3.43851351351	0.431578947368	-4.21008403361
1494	0.747	4.89642857143	6.25608108108	-1.00789473684	-7.04201680672
1495	0.7475	19.0035714286	6.25608108108	0.431578947368	-4.21008403361
1496	0.748	-0.746428571429	6.25608108108	-9.64473684211	-8.45798319328
1497	0.7485	0.664285714286	0.620945945946	-1.00789473684	-1.3781512605
1498	0.749	-0.746428571429	0.620945945946	-3.88684210526	-5.62605042017
1499	0.7495	-0.746428571429	-0.787837837838	3.31052631579	-5.62605042017
1500	0.75	-4.97857142857	-2.19662162162	1.87105263158	-7.04201680672
1501	0.7505	-0.746428571429	-5.01418918919	1.87105263158	-16.9537815126
1502	0.751	0.664285714286	-2.19662162162	-8.20526315789	-5.62605042017
1503	0.7515	0.664285714286	2.02972972973	3.31052631579	-7.04201680672
1504	0.752	2.075	3.43851351351	-1.00789473684	-7.04201680672
1505	0.7525	2.075	3.43851351351	0.431578947368	-5.62605042017
1506	0.753	-9.21071428571	4.8472972973	1.87105263158	7.11764705882
1507	0.7535	-2.15714285714	2.02972972973	-6.76578947368	-5.62605042017
1508	0.754	-2.15714285714	0.620945945946	-6.76578947368	-7.04201680672
1509	0.7545	0.664285714286	17.5263513514	0.431578947368	-8.45798319328
1510	0.755	2.075	4.8472972973	0.431578947368	-7.04201680672
1511	0.7555	11.95	4.8472972973	1.87105263158	-11.2899159664
1512	0.756	-9.21071428571	6.25608108108	-1.00789473684	-5.62605042017
1513	0.7565	0.664285714286	7.66486486486	-8.20526315789	-9.87394957983
1514	0.757	2.075	14.7087837838	-8.20526315789	-5.62605042017
1515	0.7575	-2.15714285714	16.1175675676	0.431578947368	-7.04201680672
1516	0.758	-12.0321428571	10.4824324324	0.431578947368	-2.79411764706
1517	0.7585	-0.746428571429	13.3	0.431578947368	-8.45798319328
1518	0.759	-0.746428571429	10.4824324324	11.9473684211	-5.62605042017
1519	0.7595	-0.746428571429	4.8472972973	17.7052631579	-5.62605042017
1520	0.76	3.48571428571	-2.19662162162	-2.44736842105	-5.62605042017
1521	0.7605	3.48571428571	7.66486486486	1.87105263158	-7.04201680672
1522	0.761	7.71785714286	13.3	-2.44736842105	-8.45798319328
1523	0.7615	3.48571428571	13.3	1.87105263158	-15.5378151261
1524	0.762	0.664285714286	10.4824324324	-11.0842105263	-12.7058823529
1525	0.7625	0.664285714286	11.8912162162	-9.64473684211	-4.21008403361
1526	0.763	7.71785714286	4.8472972973	-1.00789473684	-5.62605042017
1527	0.7635	7.71785714286	13.3	-1.00789473684	-5.62605042017
1528	0.764	16.1821428571	16.1175675676	0.431578947368	-1.3781512605
1529	0.7645	3.48571428571	16.1175675676	0.431578947368	-7.04201680672
1530	0.765	4.89642857143	14.7087837838	-6.76578947368	-2.79411764706
1531	0.7655	2.075	25.9790540541	0.431578947368	-4.21008403361
1532	0.766	3.48571428571	31.6141891892	-1.00789473684	-4.21008403361
1533	0.7665	-9.21071428571	11.8912162162	-1.00789473684	-1.3781512605
1534	0.767	2.075	14.7087837838	-11.0842105263	-7.04201680672
1535	0.7675	2.075	14.7087837838	-3.88684210526	-5.62605042017
1536	0.768	2.075	10.4824324324	14.8263157895	-4.21008403361
1537	0.7685	2.075	25.9790540541	0.431578947368	-5.62605042017
1538	0.769	-12.0321428571	9.07364864865	0.431578947368	-2.79411764706
1539	0.7695	-6.38928571429	9.07364864865	-1.00789473684	5.70168067227
1540	0.77	4.89642857143	13.3	-1.00789473684	0.0378151260504
1541	0.7705	10.5392857143	10.4824324324	6.18947368421	-4.21008403361
1542	0.771	11.95	21.7527027027	3.31052631579	-4.21008403361
1543	0.7715	10.5392857143	14.7087837838	0.431578947368	-4.21008403361
1544	0.772	-0.746428571429	14.7087837838	-1.00789473684	-5.62605042017
1545	0.7725	9.12857142857	14.7087837838	-1.00789473684	-14.1218487395
1546	0.773	7.71785714286	9.07364864865	-8.20526315789	-8.45798319328
1547	0.7735	0.664285714286	10.4824324324	6.18947368421	-4.21008403361
1548	0.774	-2.15714285714	3.43851351351	1.87105263158	-5.62605042017
1549	0.7745	-7.8	9.07364864865	1.87105263158	-8.45798319328
1550	0.775	11.95	10.4824324324	3.31052631579	-12.7058823529
1551	0.7755	-7.8	6.25608108108	14.8263157895	-8.45798319328
1552	0.776	-6.38928571429	9.07364864865	19.1447368421	-7.04201680672
1553	0.7765	-4.97857142857	-5.01418918919	1.87105263158	-4.21008403361
1554	0.777	0.664285714286	6.25608108108	-1.00789473684	-5.62605042017
1555	0.7775	-0.746428571429	7.66486486486	-1.00789473684	-2.79411764706
1556	0.778	-0.746428571429	4.8472972973	1.87105263158	-12.7058823529
1557	0.7785	0.664285714286	7.66486486486	-9.64473684211	-1.3781512605
1558	0.779	-0.746428571429	-3.60540540541	1.87105263158	-4.21008403361
1559	0.7795	-0.746428571429	16.1175675676	0.431578947368	-1.3781512605
1560	0.78	-2.15714285714	25.9790540541	-1.00789473684	-1.3781512605
1561	0.7805	-9.21071428571	10.4824324324	-1.00789473684	-9.87394957983
1562	0.781	2.075	13.3	-1.00789473684	14.1974789916
1563	0.7815	0.664285714286	16.1175675676	17.7052631579	-2.79411764706
1564	0.782	0.664285714286	30.2054054054	0.431578947368	2.86974789916
1565	0.7825	-2.15714285714	13.3	0.431578947368	0.0378151260504
1566	0.783	-2.15714285714	17.5263513514	0.431578947368	2.86974789916
1567	0.7835	-12.0321428571	10.4824324324	0.431578947368	1.45378151261
1568	0.784	-4.97857142857	7.66486486486	16.2657894737	-1.3781512605
1569	0.7845	-2.15714285714	11.8912162162	0.431578947368	0.0378151260504
1570	0.785	-2.15714285714	10.4824324324	1.87105263158	0.0378151260504
1571	0.7855	-10.6214285714	13.3	1.87105263158	0.0378151260504
1572	0.786	3.48571428571	10.4824324324	1.87105263158	-1.3781512605
1573	0.7865	-0.746428571429	10.4824324324	-1.00789473684	-9.87394957983
1574	0.787	0.664285714286	14.7087837838	-1.00789473684	-4.21008403361
1575	0.7875	2.075	6.25608108108	1.87105263158	-1.3781512605
1576	0.788	3.48571428571	10.4824324324	1.87105263158	-2.79411764706
1577	0.7885	-7.8	14.7087837838	0.431578947368	0.0378151260504
1578	0.789	3.48571428571	16.1175675676	6.18947368421	14.1974789916
1579	0.7895	0.664285714286	16.1175675676	16.2657894737	-4.21008403361
1580	0.79	2.075	16.1175675676	-1.00789473684	0.0378151260504
1581	0.7905	-2.15714285714	23.1614864865	0.431578947368	1.45378151261
1582	0.791	-7.8	16.1175675676	0.431578947368	1.45378151261
1583	0.7915	-4.97857142857	17.5263513514	1.87105263158	2.86974789916
1584	0.792	3.48571428571	14.7087837838	1.87105263158	-7.04201680672
1585	0.7925	2.075	13.3	14.8263157895	2.86974789916
1586	0.793	2.075	9.07364864865	0.431578947368	2.86974789916
1587	0.7935	4.89642857143	9.07364864865	3.31052631579	0.0378151260504
1588	0.794	0.664285714286	6.25608108108	1.87105263158	-1.3781512605
1589	0.7945	0.664285714286	3.43851351351	-1.00789473684	-9.87394957983
1590	0.795	0.664285714286	6.25608108108	-9.64473684211	2.86974789916
1591	0.7955	0.664285714286	7.66486486486	-6.76578947368	1.45378151261
1592	0.796	-3.56785714286	6.25608108108	-1.00789473684	2.86974789916
1593	0.7965	-12.0321428571	9.07364864865	-1.00789473684	5.70168067227
1594	0.797	-2.15714285714	9.07364864865	-1.00789473684	11.3655462185
1595	0.7975	0.664285714286	7.66486486486	-5.32631578947	-1.3781512605
1596	0.798	-0.746428571429	13.3	1.87105263158	4.28571428571
1597	0.7985	3.48571428571	4.8472972973	0.431578947368	5.70168067227
1598	0.799	0.664285714286	9.07364864865	-1.00789473684	5.70168067227
1599	0.7995	-7.8	9.07364864865	-3.88684210526	22.6932773109
1600	0.8	2.075	9.07364864865	-2.44736842105	12.781512605
1601	0.8005	0.664285714286	9.07364864865	3.31052631579	1.45378151261
1602	0.801	2.075	9.07364864865	1.87105263158	1.45378151261
1603	0.8015	2.075	0.620945945946	-1.00789473684	2.86974789916
1604	0.802	3.48571428571	2.02972972973	0.431578947368	2.86974789916
1605	0.8025	3.48571428571	10.4824324324	1.87105263158	1.45378151261
1606	0.803	2.075	13.3	3.31052631579	2.86974789916
1607	0.8035	-0.746428571429	2.02972972973	-1.00789473684	4.28571428571
1608	0.804	0.664285714286	14.7087837838	-2.44736842105	0.0378151260504
1609	0.8045	-0.746428571429	7.66486486486	0.431578947368	2.86974789916
1610	0.805	-2.15714285714	6.25608108108	-1.00789473684	1.45378151261
1611	0.8055	3.48571428571	10.4824324324	-2.44736842105	15.6134453782
1612	0.806	3.48571428571	17.5263513514	-1.00789473684	4.28571428571
1613	0.8065	0.664285714286	17.5263513514	0.431578947368	5.70168067227
1614	0.807	3.48571428571	4.8472972973	-1.00789473684	2.86974789916
1615	0.8075	-6.38928571429	16.1175675676	-1.00789473684	4.28571428571
1616	0.808	-4.97857142857	13.3	-1.00789473684	11.3655462185
1617	0.8085	3.48571428571	14.7087837838	3.31052631579	1.45378151261
1618	0.809	2.075	4.8472972973	7.62894736842	5.70168067227
1619	0.8095	0.664285714286	3.43851351351	-5.32631578947	4.28571428571
1620	0.81	-0.746428571429	6.25608108108	-1.00789473684	4.28571428571
1621	0.8105	20.4142857143	3.43851351351	0.431578947368	-5.62605042017
1622	0.811	-2.15714285714	3.43851351351	4.75	11.3655462185
1623	0.8115	0.664285714286	4.8472972973	-3.88684210526	4.28571428571
1624	0.812	-0.746428571429	3.43851351351	3.31052631579	2.86974789916
1625	0.8125	0.664285714286	-5.01418918919	-1.00789473684	2.86974789916
1626	0.813	4.89642857143	3.43851351351	1.87105263158	1.45378151261
1627	0.8135	7.71785714286	4.8472972973	-1.00789473684	-1.3781512605
1628	0.814	2.075	4.8472972973	-1.00789473684	18.4453781513
1629	0.8145	2.075	9.07364864865	-2.44736842105	1.45378151261
1630	0.815	2.075	17.5263513514	0.431578947368	0.0378151260504
1631	0.8155	0.664285714286	0.620945945946	1.87105263158	0.0378151260504
1632	0.816	-6.38928571429	10.4824324324	1.87105263158	0.0378151260504
1633	0.8165	-2.15714285714	10.4824324324	0.431578947368	0.0378151260504
1634	0.817	-0.746428571429	10.4824324324	-3.88684210526	-11.2899159664
1635	0.8175	0.664285714286	9.07364864865	-8.20526315789	-1.3781512605
1636	0.818	2.075	-2.19662162162	0.431578947368	-4.21008403361
1637	0.8185	2.075	9.07364864865	1.87105263158	-1.3781512605
1638	0.819	-3.56785714286	4.8472972973	-1.00789473684	-1.3781512605
1639	0.8195	-12.0321428571	6.25608108108	0.431578947368	0.0378151260504
1640	0.82	-0.746428571429	3.43851351351	-3.88684210526	-4.21008403361
1641	0.8205	-0.746428571429	3.43851351351	4.75	-2.79411764706
1642	0.821	0.664285714286	-5.01418918919	-1.00789473684	-2.79411764706
1643	0.8215	2.075	-6.42297297297	0.431578947368	-2.79411764706
1644	0.822	-7.8	4.8472972973	1.87105263158	-8.45798319328
1645	0.8225	0.664285714286	4.8472972973	1.87105263158	-14.1218487395
1646	0.823	0.664285714286	2.02972972973	0.431578947368	-4.21008403361
1647	0.8235	2.075	4.8472972973	1.87105263158	-4.21008403361
1648	0.824	-3.56785714286	-0.787837837838	0.431578947368	-2.79411764706
1649	0.8245	-13.4428571429	6.25608108108	0.431578947368	-1.3781512605
1650	0.825	0.664285714286	9.07364864865	3.31052631579	4.28571428571
1651	0.8255	2.075	10.4824324324	4.75	-7.04201680672
1652	0.826	0.664285714286	9.07364864865	-1.00789473684	0.0378151260504
1653	0.8265	2.075	-0.787837837838	1.87105263158	2.86974789916
1654	0.827	4.89642857143	4.8472972973	0.431578947368	1.45378151261
1655	0.8275	16.1821428571	4.8472972973	-1.00789473684	2.86974789916
1656	0.828	-2.15714285714	0.620945945946	-6.76578947368	7.11764705882
1657	0.8285	-2.15714285714	0.620945945946	-6.76578947368	1.45378151261
1658	0.829	-2.15714285714	0.620945945946	-6.76578947368	2.86974789916
1659	0.8295	3.48571428571	2.02972972973	3.31052631579	1.45378151261
1660	0.83	19.0035714286	4.8472972973	0.431578947368	-2.79411764706
1661	0.8305	-3.56785714286	4.8472972973	-1.00789473684	0.0378151260504
1662	0.831	0.664285714286	4.8472972973	1.87105263158	-5.62605042017
1663	0.8315	-0.746428571429	4.8472972973	-8.20526315789	1.45378151261
1664	0.832	0.664285714286	20.3439189189	1.87105263158	5.70168067227
1665	0.8325	3.48571428571	3.43851351351	0.431578947368	1.45378151261
1666	0.833	-0.746428571429	4.8472972973	0.431578947368	7.11764705882
1667	0.8335	0.664285714286	6.25608108108	1.87105263158	4.28571428571
1668	0.834	0.664285714286	7.66486486486	-6.76578947368	4.28571428571
1669	0.8345	-0.746428571429	0.620945945946	1.87105263158	2.86974789916
1670	0.835	-0.746428571429	3.43851351351	0.431578947368	1.45378151261
1671	0.8355	20.4142857143	-2.19662162162	0.431578947368	2.86974789916
1672	0.836	2.075	-2.19662162162	4.75	2.86974789916
1673	0.8365	0.664285714286	-5.01418918919	1.87105263158	14.1974789916
1674	0.837	-0.746428571429	-9.24054054054	1.87105263158	4.28571428571
1675	0.8375	0.664285714286	-2.19662162162	-1.00789473684	4.28571428571
1676	0.838	-7.8	2.02972972973	0.431578947368	8.53361344538
1677	0.8385	-9.21071428571	4.8472972973	-1.00789473684	21.2773109244
1678	0.839	-0.746428571429	7.66486486486	-1.00789473684	18.4453781513
1679	0.8395	2.075	18.9351351351	-5.32631578947	2.86974789916
1680	0.84	2.075	20.3439189189	-1.00789473684	4.28571428571
1681	0.8405	2.075	7.66486486486	-1.00789473684	2.86974789916
1682	0.841	-7.8	14.7087837838	1.87105263158	7.11764705882
1683	0.8415	7.71785714286	13.3	0.431578947368	19.8613445378
1684	0.842	9.12857142857	17.5263513514	4.75	0.0378151260504
1685	0.8425	11.95	10.4824324324	7.62894736842	2.86974789916
1686	0.843	2.075	16.1175675676	-2.44736842105	0.0378151260504
1687	0.8435	2.075	9.07364864865	-1.00789473684	2.86974789916
1688	0.844	24.6464285714	9.07364864865	-1.00789473684	4.28571428571
1689	0.8445	3.48571428571	7.66486486486	-11.0842105263	8.53361344538
1690	0.845	0.664285714286	4.8472972973	4.75	5.70168067227
1691	0.8455	-2.15714285714	7.66486486486	-1.00789473684	5.70168067227
1692	0.846	-4.97857142857	6.25608108108	0.431578947368	5.70168067227
1693	0.8465	-14.8535714286	-0.787837837838	1.87105263158	4.28571428571
1694	0.847	7.71785714286	6.25608108108	1.87105263158	-4.21008403361
1695	0.8475	-4.97857142857	6.25608108108	17.7052631579	5.70168067227
1696	0.848	-6.38928571429	4.8472972973	16.2657894737	1.45378151261
1697	0.8485	-4.97857142857	-6.42297297297	-3.88684210526	4.28571428571
1698	0.849	-6.38928571429	4.8472972973	0.431578947368	1.45378151261
1699	0.8495	17.5928571429	6.25608108108	0.431578947368	-1.3781512605
1700	0.85	-0.746428571429	6.25608108108	-2.44736842105	-7.04201680672
1701	0.8505	-2.15714285714	4.8472972973	3.31052631579	4.28571428571
1702	0.851	-0.746428571429	9.07364864865	-1.00789473684	2.86974789916
1703	0.8515	-0.746428571429	13.3	3.31052631579	5.70168067227
1704	0.852	-13.4428571429	6.25608108108	1.87105263158	5.70168067227
1705	0.8525	3.48571428571	3.43851351351	0.431578947368	-4.21008403361
1706	0.853	-3.56785714286	2.02972972973	3.31052631579	18.4453781513
1707	0.8535	-0.746428571429	4.8472972973	3.31052631579	-2.79411764706
1708	0.854	-0.746428571429	0.620945945946	-3.88684210526	2.86974789916
1709	0.8545	0.664285714286	-0.787837837838	-1.00789473684	2.86974789916
1710	0.855	4.89642857143	7.66486486486	0.431578947368	-4.21008403361
1711	0.8555	0.664285714286	9.07364864865	0.431578947368	-1.3781512605
1712	0.856	0.664285714286	9.07364864865	1.87105263158	1.45378151261
1713	0.8565	0.664285714286	9.07364864865	-6.76578947368	0.0378151260504
1714	0.857	-0.746428571429	31.6141891892	1.87105263158	4.28571428571
1715	0.8575	-4.97857142857	27.3878378378	-1.00789473684	4.28571428571
1716	0.858	4.89642857143	13.3	0.431578947368	8.53361344538
1717	0.8585	-2.15714285714	7.66486486486	0.431578947368	21.2773109244
1718	0.859	-0.746428571429	4.8472972973	3.31052631579	1.45378151261
1719	0.8595	-3.56785714286	6.25608108108	-1.00789473684	7.11764705882
1720	0.86	-3.56785714286	-0.787837837838	-1.00789473684	4.28571428571
1721	0.8605	-14.8535714286	4.8472972973	0.431578947368	7.11764705882
1722	0.861	3.48571428571	6.25608108108	1.87105263158	4.28571428571
1723	0.8615	-3.56785714286	7.66486486486	-8.20526315789	-2.79411764706
1724	0.862	-2.15714285714	3.43851351351	-1.00789473684	5.70168067227
1725	0.8625	-2.15714285714	3.43851351351	-1.00789473684	5.70168067227
1726	0.863	3.48571428571	6.25608108108	0.431578947368	2.86974789916
1727	0.8635	0.664285714286	7.66486486486	0.431578947368	1.45378151261
1728	0.864	-7.8	10.4824324324	-1.00789473684	17.0294117647
1729	0.8645	-2.15714285714	6.25608108108	-8.20526315789	2.86974789916
1730	0.865	-0.746428571429	13.3	-6.76578947368	4.28571428571
1731	0.8655	-0.746428571429	25.9790540541	-1.00789473684	2.86974789916
1732	0.866	11.95	9.07364864865	-1.00789473684	4.28571428571
1733	0.8665	-4.97857142857	9.07364864865	0.431578947368	4.28571428571
1734	0.867	-0.746428571429	4.8472972973	4.75	21.2773109244
1735	0.8675	0.664285714286	3.43851351351	17.7052631579	2.86974789916
1736	0.868	-0.746428571429	17.5263513514	-1.00789473684	2.86974789916
1737	0.8685	0.664285714286	-2.19662162162	0.431578947368	4.28571428571
1738	0.869	-3.56785714286	-2.19662162162	3.31052631579	4.28571428571
1739	0.8695	0.664285714286	2.02972972973	-1.00789473684	-8.45798319328
1740	0.87	-0.746428571429	4.8472972973	13.3868421053	2.86974789916
1741	0.8705	2.075	3.43851351351	4.75	2.86974789916
1742	0.871	0.664285714286	16.1175675676	-1.00789473684	2.86974789916
1743	0.8715	-3.56785714286	23.1614864865	-1.00789473684	2.86974789916
1744	0.872	-9.21071428571	6.25608108108	3.31052631579	5.70168067227
1745	0.8725	-2.15714285714	4.8472972973	-11.0842105263	1.45378151261
1746	0.873	0.664285714286	4.8472972973	-12.5236842105	1.45378151261
1747	0.8735	-0.746428571429	16.1175675676	-2.44736842105	2.86974789916
1748	0.874	0.664285714286	3.43851351351	1.87105263158	1.45378151261
1749	0.8745	0.664285714286	2.02972972973	0.431578947368	2.86974789916
1750	0.875	0.664285714286	10.4824324324	-1.00789473684	-8.45798319328
1751	0.8755	0.664285714286	7.66486486486	13.3868421053	2.86974789916
1752	0.876	0.664285714286	10.4824324324	-2.44736842105	4.28571428571
1753	0.8765	0.664285714286	25.9790540541	1.87105263158	0.0378151260504
1754	0.877	0.664285714286	13.3	-1.00789473684	-1.3781512605
1755	0.8775	17.5928571429	9.07364864865	0.431578947368	2.86974789916
1756	0.878	-0.746428571429	10.4824324324	3.31052631579	-1.3781512605
1757	0.8785	-0.746428571429	10.4824324324	-8.20526315789	0.0378151260504
1758	0.879	0.664285714286	-9.24054054054	1.87105263158	2.86974789916
1759	0.8795	-0.746428571429	4.8472972973	1.87105263158	2.86974789916
1760	0.88	-6.38928571429	7.66486486486	0.431578947368	4.28571428571
1761	0.8805	2.075	9.07364864865	0.431578947368	-8.45798319328
1762	0.881	0.664285714286	4.8472972973	-8.20526315789	7.11764705882
1763	0.8815	-0.746428571429	6.25608108108	-1.00789473684	2.86974789916
1764	0.882	-0.746428571429	13.3	0.431578947368	4.28571428571
1765	0.8825	-2.15714285714	17.5263513514	0.431578947368	4.28571428571
1766	0.883	-12.0321428571	-0.787837837838	-1.00789473684	4.28571428571
1767	0.8835	2.075	0.620945945946	4.75	11.3655462185
1768	0.884	-0.746428571429	2.02972972973	4.75	2.86974789916
1769	0.8845	0.664285714286	0.620945945946	1.87105263158	4.28571428571
1770	0.885	-2.15714285714	-6.42297297297	-1.00789473684	2.86974789916
1771	0.8855	-13.4428571429	0.620945945946	1.87105263158	1.45378151261
1772	0.886	0.664285714286	3.43851351351	3.31052631579	4.28571428571
