	Time	Channel 1	Channel 2	Channel 3	Channel 4
0	0.0	3.48363636364	-13.3037151703	1.82903225806	1.48550724638
1	0.0005	19.0636363636	-18.9371517028	1.82903225806	1.48550724638
2	0.001	4.9	-16.1204334365	0.38064516129	1.48550724638
3	0.0015	2.06727272727	-10.486996904	0.38064516129	1.48550724638
4	0.002	6.31636363636	5.00495356037	3.27741935484	4.3347826087
5	0.0025	-2.18181818182	-4.85356037152	-9.75806451613	-1.36376811594
6	0.003	2.06727272727	-9.0786377709	-1.06774193548	0.0608695652174
7	0.0035	-5.01454545455	-9.0786377709	1.82903225806	0.0608695652174
8	0.004	-6.43090909091	-7.67027863777	0.38064516129	0.0608695652174
9	0.0045	11.9818181818	-6.26191950464	0.38064516129	-8.48695652174
10	0.005	-7.84727272727	-6.26191950464	-3.96451612903	-7.06231884058
11	0.0055	-6.43090909091	-4.85356037152	-2.51612903226	1.48550724638
12	0.006	-6.43090909091	-6.26191950464	1.82903225806	1.48550724638
13	0.0065	-16.3454545455	-4.85356037152	1.82903225806	-1.36376811594
14	0.007	-3.59818181818	-0.628482972136	4.72580645161	-4.21304347826
15	0.0075	-3.59818181818	-2.03684210526	1.82903225806	1.48550724638
16	0.008	-5.01454545455	-2.03684210526	7.62258064516	-1.36376811594
17	0.0085	-5.01454545455	-6.26191950464	0.38064516129	-4.21304347826
18	0.009	-10.68	-9.0786377709	3.27741935484	-1.36376811594
19	0.0095	-10.68	-10.486996904	1.82903225806	1.48550724638
20	0.01	-2.18181818182	-11.8953560372	6.17419354839	7.18405797101
21	0.0105	-2.18181818182	-7.67027863777	-2.51612903226	0.0608695652174
22	0.011	-2.18181818182	-4.85356037152	1.82903225806	1.48550724638
23	0.0115	-2.18181818182	-13.3037151703	0.38064516129	1.48550724638
24	0.012	-10.68	-9.0786377709	3.27741935484	0.0608695652174
25	0.0125	-3.59818181818	-9.0786377709	3.27741935484	-11.3362318841
26	0.013	0.650909090909	-10.486996904	19.2096774194	-1.36376811594
27	0.0135	-2.18181818182	-16.1204334365	-2.51612903226	-1.36376811594
28	0.014	-0.765454545455	-6.26191950464	3.27741935484	0.0608695652174
29	0.0145	-10.68	-14.7120743034	-1.06774193548	0.0608695652174
30	0.015	0.650909090909	-13.3037151703	4.72580645161	-4.21304347826
31	0.0155	-3.59818181818	-7.67027863777	0.38064516129	-9.9115942029
32	0.016	-3.59818181818	-6.26191950464	-9.75806451613	0.0608695652174
33	0.0165	-2.18181818182	-18.9371517028	3.27741935484	0.0608695652174
34	0.017	-2.18181818182	0.779876160991	3.27741935484	2.91014492754
35	0.0175	-10.68	-6.26191950464	0.38064516129	2.91014492754
36	0.018	-10.68	-7.67027863777	0.38064516129	2.91014492754
37	0.0185	-0.765454545455	-10.486996904	-3.96451612903	-7.06231884058
38	0.019	-3.59818181818	-3.44520123839	1.82903225806	0.0608695652174
39	0.0195	-3.59818181818	-13.3037151703	3.27741935484	-1.36376811594
40	0.02	-3.59818181818	-6.26191950464	0.38064516129	1.48550724638
41	0.0205	-14.9290909091	-4.85356037152	-1.06774193548	0.0608695652174
42	0.021	-3.59818181818	-6.26191950464	-6.86129032258	-2.7884057971
43	0.0215	-5.01454545455	-6.26191950464	-1.06774193548	-7.06231884058
44	0.022	-3.59818181818	-6.26191950464	3.27741935484	1.48550724638
45	0.0225	-0.765454545455	-9.0786377709	1.82903225806	-1.36376811594
46	0.023	-0.765454545455	-11.8953560372	-1.06774193548	1.48550724638
47	0.0235	-6.43090909091	-9.0786377709	3.27741935484	7.18405797101
48	0.024	-2.18181818182	-9.0786377709	-5.41290322581	4.3347826087
49	0.0245	-5.01454545455	-9.0786377709	3.27741935484	0.0608695652174
50	0.025	-2.18181818182	-6.26191950464	1.82903225806	-4.21304347826
51	0.0255	-5.01454545455	-11.8953560372	1.82903225806	-2.7884057971
52	0.026	0.650909090909	-9.0786377709	1.82903225806	-1.36376811594
53	0.0265	-3.59818181818	-7.67027863777	-6.86129032258	-2.7884057971
54	0.027	-3.59818181818	-4.85356037152	14.864516129	-2.7884057971
55	0.0275	-2.18181818182	-2.03684210526	-1.06774193548	0.0608695652174
56	0.028	-3.59818181818	-0.628482972136	-1.06774193548	0.0608695652174
57	0.0285	-16.3454545455	-0.628482972136	0.38064516129	-1.36376811594
58	0.029	-5.01454545455	-2.03684210526	-2.51612903226	7.18405797101
59	0.0295	-5.01454545455	-3.44520123839	-1.06774193548	2.91014492754
60	0.03	-2.18181818182	-6.26191950464	-3.96451612903	0.0608695652174
61	0.0305	-5.01454545455	-10.486996904	0.38064516129	-1.36376811594
62	0.031	-7.84727272727	-9.0786377709	0.38064516129	-1.36376811594
63	0.0315	13.3981818182	-10.486996904	0.38064516129	-2.7884057971
64	0.032	-0.765454545455	-4.85356037152	-1.06774193548	-11.3362318841
65	0.0325	-2.18181818182	-7.67027863777	-6.86129032258	-1.36376811594
66	0.033	-3.59818181818	-11.8953560372	-1.06774193548	0.0608695652174
67	0.0335	0.650909090909	-14.7120743034	0.38064516129	-1.36376811594
68	0.034	2.06727272727	-2.03684210526	1.82903225806	-2.7884057971
69	0.0345	-2.18181818182	-3.44520123839	3.27741935484	-11.3362318841
70	0.035	-2.18181818182	-3.44520123839	3.27741935484	-4.21304347826
71	0.0355	2.06727272727	-3.44520123839	14.864516129	-4.21304347826
72	0.036	-0.765454545455	-6.26191950464	0.38064516129	-1.36376811594
73	0.0365	-10.68	-3.44520123839	0.38064516129	-1.36376811594
74	0.037	4.9	-6.26191950464	0.38064516129	-4.21304347826
75	0.0375	-0.765454545455	-6.26191950464	-1.06774193548	-9.9115942029
76	0.038	-5.01454545455	-7.67027863777	-6.86129032258	-2.7884057971
77	0.0385	0.650909090909	-18.9371517028	0.38064516129	0.0608695652174
78	0.039	10.5654545455	-10.486996904	1.82903225806	-4.21304347826
79	0.0395	17.6472727273	-6.26191950464	1.82903225806	-1.36376811594
80	0.04	-0.765454545455	-6.26191950464	0.38064516129	-1.36376811594
81	0.0405	0.650909090909	-4.85356037152	17.7612903226	-4.21304347826
82	0.041	0.650909090909	-4.85356037152	0.38064516129	-1.36376811594
83	0.0415	-3.59818181818	9.23003095975	1.82903225806	-4.21304347826
84	0.042	-6.43090909091	3.59659442724	1.82903225806	-1.36376811594
85	0.0425	-9.26363636364	-7.67027863777	1.82903225806	-1.36376811594
86	0.043	-7.84727272727	-10.486996904	-6.86129032258	-4.21304347826
87	0.0435	-6.43090909091	-4.85356037152	-1.06774193548	0.0608695652174
88	0.044	-5.01454545455	-3.44520123839	0.38064516129	-2.7884057971
89	0.0445	-6.43090909091	-9.0786377709	1.82903225806	-2.7884057971
90	0.045	-13.5127272727	-0.628482972136	-1.06774193548	-1.36376811594
91	0.0455	-7.84727272727	2.18823529412	1.82903225806	12.8826086957
92	0.046	0.650909090909	2.18823529412	16.3129032258	-4.21304347826
93	0.0465	-2.18181818182	6.4133126935	0.38064516129	-2.7884057971
94	0.047	-0.765454545455	5.00495356037	-1.06774193548	-1.36376811594
95	0.0475	-3.59818181818	-7.67027863777	1.82903225806	-1.36376811594
96	0.048	11.9818181818	-2.03684210526	-1.06774193548	-11.3362318841
97	0.0485	-2.18181818182	-4.85356037152	3.27741935484	-12.7608695652
98	0.049	-2.18181818182	-7.67027863777	1.82903225806	-1.36376811594
99	0.0495	-3.59818181818	-14.7120743034	-2.51612903226	0.0608695652174
100	0.05	-2.18181818182	2.18823529412	1.82903225806	-1.36376811594
101	0.0505	11.9818181818	-2.03684210526	0.38064516129	-2.7884057971
102	0.051	0.650909090909	-3.44520123839	-1.06774193548	-8.48695652174
103	0.0515	0.650909090909	-4.85356037152	-3.96451612903	4.3347826087
104	0.052	-3.59818181818	-7.67027863777	0.38064516129	-1.36376811594
105	0.0525	0.650909090909	13.4551083591	-1.06774193548	-1.36376811594
106	0.053	0.650909090909	-3.44520123839	-1.06774193548	-2.7884057971
107	0.0535	11.9818181818	-3.44520123839	3.27741935484	-2.7884057971
108	0.054	-3.59818181818	-4.85356037152	0.38064516129	12.8826086957
109	0.0545	-2.18181818182	-6.26191950464	16.3129032258	-4.21304347826
110	0.055	-5.01454545455	-4.85356037152	1.82903225806	-5.63768115942
111	0.0555	-5.01454545455	-10.486996904	0.38064516129	-1.36376811594
112	0.056	-7.84727272727	-6.26191950464	-1.06774193548	-4.21304347826
113	0.0565	14.8145454545	-9.0786377709	-1.06774193548	-11.3362318841
114	0.057	-2.18181818182	-4.85356037152	3.27741935484	5.75942028986
115	0.0575	-2.18181818182	-3.44520123839	7.62258064516	0.0608695652174
116	0.058	-5.01454545455	-10.486996904	-3.96451612903	-2.7884057971
117	0.0585	-0.765454545455	-9.0786377709	0.38064516129	-1.36376811594
118	0.059	16.2309090909	-4.85356037152	3.27741935484	-4.21304347826
119	0.0595	-3.59818181818	-4.85356037152	-1.06774193548	-9.9115942029
120	0.06	-3.59818181818	-4.85356037152	-8.30967741935	0.0608695652174
121	0.0605	-5.01454545455	-11.8953560372	3.27741935484	-1.36376811594
122	0.061	-0.765454545455	3.59659442724	1.82903225806	0.0608695652174
123	0.0615	-0.765454545455	-2.03684210526	1.82903225806	0.0608695652174
124	0.062	-7.84727272727	0.779876160991	-1.06774193548	18.5811594203
125	0.0625	-0.765454545455	-2.03684210526	-1.06774193548	-2.7884057971
126	0.063	-0.765454545455	-2.03684210526	-6.86129032258	-1.36376811594
127	0.0635	2.06727272727	0.779876160991	-1.06774193548	-2.7884057971
128	0.064	-5.01454545455	-11.8953560372	3.27741935484	-1.36376811594
129	0.0645	-13.5127272727	-4.85356037152	-2.51612903226	-1.36376811594
130	0.065	-2.18181818182	-4.85356037152	3.27741935484	14.3072463768
131	0.0655	-2.18181818182	-3.44520123839	3.27741935484	-2.7884057971
132	0.066	-0.765454545455	-4.85356037152	14.864516129	-1.36376811594
133	0.0665	-5.01454545455	-10.486996904	0.38064516129	-2.7884057971
134	0.067	-13.5127272727	-6.26191950464	-1.06774193548	0.0608695652174
135	0.0675	2.06727272727	-3.44520123839	3.27741935484	0.0608695652174
136	0.068	-5.01454545455	-3.44520123839	-1.06774193548	-9.9115942029
137	0.0685	-3.59818181818	-9.0786377709	-8.30967741935	0.0608695652174
138	0.069	-3.59818181818	-14.7120743034	-1.06774193548	-2.7884057971
139	0.0695	0.650909090909	-0.628482972136	1.82903225806	-1.36376811594
140	0.07	14.8145454545	-3.44520123839	3.27741935484	-8.48695652174
141	0.0705	-2.18181818182	-4.85356037152	0.38064516129	2.91014492754
142	0.071	-3.59818181818	-4.85356037152	0.38064516129	-8.48695652174
143	0.0715	-3.59818181818	-7.67027863777	-5.41290322581	-2.7884057971
144	0.072	-0.765454545455	10.6383900929	1.82903225806	-2.7884057971
145	0.0725	-2.18181818182	-6.26191950464	0.38064516129	-4.21304347826
146	0.073	16.2309090909	-6.26191950464	3.27741935484	-9.9115942029
147	0.0735	-5.01454545455	-9.0786377709	19.2096774194	0.0608695652174
148	0.074	-2.18181818182	-9.0786377709	14.864516129	-2.7884057971
149	0.0745	-2.18181818182	-13.3037151703	1.82903225806	-1.36376811594
150	0.075	-2.18181818182	-6.26191950464	3.27741935484	-2.7884057971
151	0.0755	-6.43090909091	-3.44520123839	1.82903225806	4.3347826087
152	0.076	-12.0963636364	-6.26191950464	0.38064516129	18.5811594203
153	0.0765	-3.59818181818	-4.85356037152	-8.30967741935	-1.36376811594
154	0.077	-2.18181818182	-3.44520123839	-1.06774193548	-2.7884057971
155	0.0775	-2.18181818182	2.18823529412	0.38064516129	0.0608695652174
156	0.078	-13.5127272727	-4.85356037152	0.38064516129	2.91014492754
157	0.0785	-5.01454545455	-4.85356037152	-1.06774193548	-4.21304347826
158	0.079	-2.18181818182	-3.44520123839	0.38064516129	8.60869565217
159	0.0795	-0.765454545455	-4.85356037152	-1.06774193548	-1.36376811594
160	0.08	-3.59818181818	-9.0786377709	0.38064516129	-1.36376811594
161	0.0805	0.650909090909	-18.9371517028	1.82903225806	-2.7884057971
162	0.081	20.48	-7.67027863777	0.38064516129	-11.3362318841
163	0.0815	-3.59818181818	-7.67027863777	0.38064516129	0.0608695652174
164	0.082	-2.18181818182	-0.628482972136	-3.96451612903	-9.9115942029
165	0.0825	-3.59818181818	-7.67027863777	1.82903225806	0.0608695652174
166	0.083	2.06727272727	-11.8953560372	1.82903225806	-4.21304347826
167	0.0835	2.06727272727	-4.85356037152	3.27741935484	-2.7884057971
168	0.084	4.9	-3.44520123839	1.82903225806	-4.21304347826
169	0.0845	-5.01454545455	-4.85356037152	1.82903225806	12.8826086957
170	0.085	-3.59818181818	-0.628482972136	-8.30967741935	-1.36376811594
171	0.0855	-3.59818181818	0.779876160991	3.27741935484	-4.21304347826
172	0.086	-6.43090909091	-2.03684210526	3.27741935484	0.0608695652174
173	0.0865	14.8145454545	-2.03684210526	0.38064516129	-5.63768115942
174	0.087	-5.01454545455	-3.44520123839	0.38064516129	-8.48695652174
175	0.0875	-3.59818181818	-4.85356037152	0.38064516129	11.4579710145
176	0.088	-0.765454545455	0.779876160991	16.3129032258	-1.36376811594
177	0.0885	-2.18181818182	-10.486996904	0.38064516129	-2.7884057971
178	0.089	-6.43090909091	-0.628482972136	1.82903225806	-1.36376811594
179	0.0895	-12.0963636364	-2.03684210526	3.27741935484	-1.36376811594
180	0.09	-2.18181818182	-6.26191950464	4.72580645161	2.91014492754
181	0.0905	0.650909090909	-4.85356037152	3.27741935484	-8.48695652174
182	0.091	-2.18181818182	-6.26191950464	-1.06774193548	-1.36376811594
183	0.0915	0.650909090909	-10.486996904	-1.06774193548	-1.36376811594
184	0.092	-0.765454545455	-3.44520123839	0.38064516129	0.0608695652174
185	0.0925	-3.59818181818	2.18823529412	-1.06774193548	-12.7608695652
186	0.093	-3.59818181818	0.779876160991	11.9677419355	-1.36376811594
187	0.0935	-0.765454545455	-0.628482972136	1.82903225806	0.0608695652174
188	0.094	-0.765454545455	5.00495356037	3.27741935484	-1.36376811594
189	0.0945	-3.59818181818	10.6383900929	-1.06774193548	-2.7884057971
190	0.095	-13.5127272727	-7.67027863777	0.38064516129	1.48550724638
191	0.0955	-2.18181818182	-4.85356037152	-11.2064516129	-4.21304347826
192	0.096	-0.765454545455	-3.44520123839	-5.41290322581	-4.21304347826
193	0.0965	-5.01454545455	-3.44520123839	9.07096774194	-1.36376811594
194	0.097	-0.765454545455	6.4133126935	1.82903225806	0.0608695652174
195	0.0975	-10.68	-6.26191950464	-1.06774193548	1.48550724638
196	0.098	-10.68	-6.26191950464	4.72580645161	0.0608695652174
197	0.0985	-3.59818181818	-4.85356037152	-2.51612903226	-7.06231884058
198	0.099	-2.18181818182	-9.0786377709	14.864516129	-4.21304347826
199	0.0995	-3.59818181818	-10.486996904	1.82903225806	-5.63768115942
200	0.1	-2.18181818182	-16.1204334365	-1.06774193548	-1.36376811594
201	0.1005	14.8145454545	-4.85356037152	3.27741935484	-1.36376811594
202	0.101	-6.43090909091	-9.0786377709	3.27741935484	-1.36376811594
203	0.1015	-3.59818181818	-11.8953560372	-1.06774193548	-2.7884057971
204	0.102	0.650909090909	-9.0786377709	-6.86129032258	-1.36376811594
205	0.1025	2.06727272727	6.4133126935	0.38064516129	-1.36376811594
206	0.103	-9.26363636364	-13.3037151703	-1.06774193548	0.0608695652174
207	0.1035	0.650909090909	-9.0786377709	0.38064516129	-8.48695652174
208	0.104	3.48363636364	-7.67027863777	-2.51612903226	-2.7884057971
209	0.1045	0.650909090909	-9.0786377709	-5.41290322581	-4.21304347826
210	0.105	-2.18181818182	-6.26191950464	0.38064516129	-1.36376811594
211	0.1055	-7.84727272727	-10.486996904	1.82903225806	-1.36376811594
212	0.106	14.8145454545	-9.0786377709	1.82903225806	-5.63768115942
213	0.1065	-6.43090909091	-9.0786377709	-1.06774193548	4.3347826087
214	0.107	-7.84727272727	-6.26191950464	3.27741935484	-2.7884057971
215	0.1075	-5.01454545455	-2.03684210526	17.7612903226	-4.21304347826
216	0.108	-5.01454545455	-9.0786377709	1.82903225806	-4.21304347826
217	0.1085	-3.59818181818	0.779876160991	1.82903225806	-2.7884057971
218	0.109	-6.43090909091	-2.03684210526	1.82903225806	-14.1855072464
219	0.1095	-2.18181818182	-3.44520123839	-6.86129032258	-2.7884057971
220	0.11	-3.59818181818	-4.85356037152	-3.96451612903	-2.7884057971
221	0.1105	-3.59818181818	-2.03684210526	1.82903225806	-2.7884057971
222	0.111	-3.59818181818	-3.44520123839	-1.06774193548	-4.21304347826
223	0.1115	14.8145454545	-3.44520123839	1.82903225806	-5.63768115942
224	0.112	-5.01454545455	-6.26191950464	1.82903225806	-4.21304347826
225	0.1125	-2.18181818182	-7.67027863777	-1.06774193548	-2.7884057971
226	0.113	-2.18181818182	-9.0786377709	20.6580645161	-1.36376811594
227	0.1135	-3.59818181818	14.8634674923	-1.06774193548	-2.7884057971
228	0.114	-17.7618181818	-6.26191950464	0.38064516129	-1.36376811594
229	0.1145	-6.43090909091	-4.85356037152	1.82903225806	-2.7884057971
230	0.115	-5.01454545455	-6.26191950464	1.82903225806	-4.21304347826
231	0.1155	-3.59818181818	-6.26191950464	-5.41290322581	-1.36376811594
232	0.116	-0.765454545455	-7.67027863777	-1.06774193548	-1.36376811594
233	0.1165	-2.18181818182	-11.8953560372	-1.06774193548	-1.36376811594
234	0.117	2.06727272727	-2.03684210526	-1.06774193548	-2.7884057971
235	0.1175	-5.01454545455	-0.628482972136	3.27741935484	-12.7608695652
236	0.118	-3.59818181818	-0.628482972136	22.1064516129	-1.36376811594
237	0.1185	-5.01454545455	-0.628482972136	11.9677419355	-2.7884057971
238	0.119	-0.765454545455	-0.628482972136	0.38064516129	0.0608695652174
239	0.1195	0.650909090909	0.779876160991	3.27741935484	-2.7884057971
240	0.12	-7.84727272727	-3.44520123839	0.38064516129	-2.7884057971
241	0.1205	-2.18181818182	-0.628482972136	3.27741935484	17.1565217391
242	0.121	-3.59818181818	3.59659442724	19.2096774194	-2.7884057971
243	0.1215	-2.18181818182	3.59659442724	0.38064516129	-1.36376811594
244	0.122	-5.01454545455	-2.03684210526	1.82903225806	-1.36376811594
245	0.1225	-13.5127272727	-4.85356037152	0.38064516129	1.48550724638
246	0.123	-3.59818181818	-6.26191950464	3.27741935484	-2.7884057971
247	0.1235	-2.18181818182	-6.26191950464	3.27741935484	-4.21304347826
248	0.124	-5.01454545455	-7.67027863777	-2.51612903226	-1.36376811594
249	0.1245	-3.59818181818	-10.486996904	-9.75806451613	0.0608695652174
250	0.125	-5.01454545455	3.59659442724	-1.06774193548	-1.36376811594
251	0.1255	-14.9290909091	-9.0786377709	0.38064516129	1.48550724638
252	0.126	-12.0963636364	-9.0786377709	4.72580645161	0.0608695652174
253	0.1265	-3.59818181818	-6.26191950464	13.4161290323	-8.48695652174
254	0.127	-3.59818181818	-7.67027863777	-5.41290322581	-7.06231884058
255	0.1275	-5.01454545455	-11.8953560372	-1.06774193548	-7.06231884058
256	0.128	-7.84727272727	-7.67027863777	1.82903225806	-9.9115942029
257	0.1285	-10.68	-9.0786377709	0.38064516129	8.60869565217
258	0.129	-3.59818181818	-9.0786377709	3.27741935484	-1.36376811594
259	0.1295	-3.59818181818	-6.26191950464	7.62258064516	-1.36376811594
260	0.13	-5.01454545455	-6.26191950464	1.82903225806	-2.7884057971
261	0.1305	-5.01454545455	-13.3037151703	3.27741935484	-1.36376811594
262	0.131	-16.3454545455	-6.26191950464	1.82903225806	-1.36376811594
263	0.1315	2.06727272727	-0.628482972136	1.82903225806	-2.7884057971
264	0.132	0.650909090909	-2.03684210526	-1.06774193548	-11.3362318841
265	0.1325	0.650909090909	0.779876160991	-9.75806451613	-5.63768115942
266	0.133	-2.18181818182	-10.486996904	0.38064516129	-2.7884057971
267	0.1335	0.650909090909	-2.03684210526	-1.06774193548	-2.7884057971
268	0.134	-2.18181818182	2.18823529412	0.38064516129	-2.7884057971
269	0.1345	-10.68	3.59659442724	3.27741935484	-4.21304347826
270	0.135	-3.59818181818	6.4133126935	20.6580645161	-2.7884057971
271	0.1355	-3.59818181818	6.4133126935	0.38064516129	-5.63768115942
272	0.136	-3.59818181818	19.0885448916	3.27741935484	-5.63768115942
273	0.1365	-16.3454545455	2.18823529412	1.82903225806	-1.36376811594
274	0.137	-7.84727272727	0.779876160991	1.82903225806	-4.21304347826
275	0.1375	-2.18181818182	-0.628482972136	0.38064516129	-5.63768115942
276	0.138	-2.18181818182	0.779876160991	1.82903225806	-4.21304347826
277	0.1385	-2.18181818182	-6.26191950464	-3.96451612903	-4.21304347826
278	0.139	-3.59818181818	-9.0786377709	1.82903225806	-5.63768115942
279	0.1395	16.2309090909	-0.628482972136	3.27741935484	-5.63768115942
280	0.14	-7.84727272727	0.779876160991	-3.96451612903	-5.63768115942
281	0.1405	-5.01454545455	2.18823529412	6.17419354839	-4.21304347826
282	0.141	-5.01454545455	5.00495356037	-1.06774193548	-5.63768115942
283	0.1415	-2.18181818182	17.6801857585	1.82903225806	-5.63768115942
284	0.142	-5.01454545455	20.4969040248	-1.06774193548	-1.36376811594
285	0.1425	-10.68	6.4133126935	3.27741935484	0.0608695652174
286	0.143	-3.59818181818	10.6383900929	4.72580645161	14.3072463768
287	0.1435	0.650909090909	9.23003095975	19.2096774194	-8.48695652174
288	0.144	-0.765454545455	27.5386996904	-1.06774193548	-2.7884057971
289	0.1445	-2.18181818182	5.00495356037	0.38064516129	-4.21304347826
290	0.145	0.650909090909	6.4133126935	1.82903225806	-4.21304347826
291	0.1455	-9.26363636364	5.00495356037	0.38064516129	-5.63768115942
292	0.146	-0.765454545455	9.23003095975	0.38064516129	-2.7884057971
293	0.1465	-2.18181818182	5.00495356037	20.6580645161	-7.06231884058
294	0.147	-3.59818181818	-2.03684210526	1.82903225806	-5.63768115942
295	0.1475	-16.3454545455	5.00495356037	1.82903225806	-4.21304347826
296	0.148	-5.01454545455	3.59659442724	3.27741935484	-5.63768115942
297	0.1485	-5.01454545455	3.59659442724	1.82903225806	-4.21304347826
298	0.149	-3.59818181818	2.18823529412	-3.96451612903	-7.06231884058
299	0.1495	-0.765454545455	2.18823529412	0.38064516129	-4.21304347826
300	0.15	-0.765454545455	-0.628482972136	1.82903225806	-7.06231884058
301	0.1505	2.06727272727	9.23003095975	-1.06774193548	-5.63768115942
302	0.151	-0.765454545455	12.046749226	0.38064516129	-14.1855072464
303	0.1515	-0.765454545455	9.23003095975	-8.30967741935	-9.9115942029
304	0.152	-2.18181818182	2.18823529412	-5.41290322581	-5.63768115942
305	0.1525	0.650909090909	17.6801857585	0.38064516129	-4.21304347826
306	0.153	0.650909090909	-3.44520123839	1.82903225806	-5.63768115942
307	0.1535	10.5654545455	-4.85356037152	0.38064516129	-5.63768115942
308	0.154	-2.18181818182	-3.44520123839	-8.30967741935	-5.63768115942
309	0.1545	0.650909090909	-0.628482972136	3.27741935484	-4.21304347826
310	0.155	-0.765454545455	-10.486996904	3.27741935484	-5.63768115942
311	0.1555	2.06727272727	-9.0786377709	0.38064516129	-4.21304347826
312	0.156	-2.18181818182	-0.628482972136	0.38064516129	-2.7884057971
313	0.1565	-5.01454545455	0.779876160991	-1.06774193548	11.4579710145
314	0.157	4.9	2.18823529412	-2.51612903226	4.3347826087
315	0.1575	2.06727272727	6.4133126935	1.82903225806	-4.21304347826
316	0.158	2.06727272727	9.23003095975	0.38064516129	-5.63768115942
317	0.1585	-3.59818181818	-3.44520123839	-1.06774193548	-2.7884057971
318	0.159	-5.01454545455	-0.628482972136	0.38064516129	-2.7884057971
319	0.1595	-6.43090909091	-4.85356037152	-8.30967741935	-2.7884057971
320	0.16	-5.01454545455	-3.44520123839	-9.75806451613	-4.21304347826
321	0.1605	-3.59818181818	5.00495356037	0.38064516129	-4.21304347826
322	0.161	-5.01454545455	6.4133126935	1.82903225806	-1.36376811594
323	0.1615	-13.5127272727	0.779876160991	4.72580645161	-4.21304347826
324	0.162	-14.9290909091	2.18823529412	1.82903225806	0.0608695652174
325	0.1625	-3.59818181818	6.4133126935	3.27741935484	-12.7608695652
326	0.163	-2.18181818182	5.00495356037	0.38064516129	-2.7884057971
327	0.1635	-2.18181818182	7.82167182663	0.38064516129	-2.7884057971
328	0.164	2.06727272727	9.23003095975	0.38064516129	-7.06231884058
329	0.1645	9.14909090909	7.82167182663	0.38064516129	-5.63768115942
330	0.165	-2.18181818182	7.82167182663	-3.96451612903	1.48550724638
331	0.1655	-3.59818181818	2.18823529412	-3.96451612903	-1.36376811594
332	0.166	-3.59818181818	3.59659442724	-3.96451612903	-4.21304347826
333	0.1665	-3.59818181818	2.18823529412	1.82903225806	-5.63768115942
334	0.167	-7.84727272727	0.779876160991	1.82903225806	-7.06231884058
335	0.1675	-2.18181818182	-0.628482972136	0.38064516129	-12.7608695652
336	0.168	-0.765454545455	-0.628482972136	-9.75806451613	-2.7884057971
337	0.1685	-3.59818181818	2.18823529412	1.82903225806	-4.21304347826
338	0.169	-3.59818181818	0.779876160991	1.82903225806	-4.21304347826
339	0.1695	-5.01454545455	-4.85356037152	1.82903225806	-4.21304347826
340	0.17	-10.68	-4.85356037152	-1.06774193548	-2.7884057971
341	0.1705	-3.59818181818	-2.03684210526	0.38064516129	14.3072463768
342	0.171	-3.59818181818	2.18823529412	16.3129032258	-5.63768115942
343	0.1715	0.650909090909	17.6801857585	1.82903225806	-7.06231884058
344	0.172	-2.18181818182	0.779876160991	1.82903225806	-4.21304347826
345	0.1725	-12.0963636364	0.779876160991	-1.06774193548	-2.7884057971
346	0.173	-2.18181818182	-4.85356037152	4.72580645161	11.4579710145
347	0.1735	-5.01454545455	-0.628482972136	-3.96451612903	-4.21304347826
348	0.174	-0.765454545455	3.59659442724	0.38064516129	-2.7884057971
349	0.1745	-5.01454545455	-0.628482972136	1.82903225806	-5.63768115942
350	0.175	-14.9290909091	-0.628482972136	1.82903225806	-1.36376811594
351	0.1755	-5.01454545455	-0.628482972136	0.38064516129	1.48550724638
352	0.176	-3.59818181818	-0.628482972136	1.82903225806	1.48550724638
353	0.1765	-5.01454545455	0.779876160991	-2.51612903226	-1.36376811594
354	0.177	-3.59818181818	3.59659442724	0.38064516129	-1.36376811594
355	0.1775	-3.59818181818	0.779876160991	1.82903225806	-1.36376811594
356	0.178	-2.18181818182	0.779876160991	3.27741935484	-1.36376811594
357	0.1785	-3.59818181818	0.779876160991	3.27741935484	-1.36376811594
358	0.179	-3.59818181818	0.779876160991	6.17419354839	-1.36376811594
359	0.1795	-3.59818181818	-4.85356037152	-1.06774193548	-1.36376811594
360	0.18	-5.01454545455	5.00495356037	1.82903225806	-1.36376811594
361	0.1805	2.06727272727	0.779876160991	3.27741935484	-1.36376811594
362	0.181	-5.01454545455	-3.44520123839	1.82903225806	-7.06231884058
363	0.1815	-3.59818181818	-2.03684210526	3.27741935484	-7.06231884058
364	0.182	-3.59818181818	0.779876160991	-3.96451612903	-1.36376811594
365	0.1825	-6.43090909091	6.4133126935	0.38064516129	-1.36376811594
366	0.183	-10.68	0.779876160991	0.38064516129	0.0608695652174
367	0.1835	-0.765454545455	0.779876160991	3.27741935484	-1.36376811594
368	0.184	-2.18181818182	2.18823529412	-1.06774193548	14.3072463768
369	0.1845	-2.18181818182	-0.628482972136	-8.30967741935	-4.21304347826
370	0.185	-2.18181818182	0.779876160991	1.82903225806	-2.7884057971
371	0.1855	-0.765454545455	-0.628482972136	1.82903225806	-2.7884057971
372	0.186	-12.0963636364	0.779876160991	1.82903225806	-1.36376811594
373	0.1865	-3.59818181818	2.18823529412	-1.06774193548	-12.7608695652
374	0.187	-3.59818181818	-2.03684210526	-11.2064516129	-7.06231884058
375	0.1875	-0.765454545455	-9.0786377709	-1.06774193548	-4.21304347826
376	0.188	-0.765454545455	-4.85356037152	3.27741935484	-4.21304347826
377	0.1885	2.06727272727	0.779876160991	-1.06774193548	-5.63768115942
378	0.189	2.06727272727	-0.628482972136	3.27741935484	-9.9115942029
379	0.1895	-2.18181818182	-0.628482972136	3.27741935484	-2.7884057971
380	0.19	-2.18181818182	-2.03684210526	0.38064516129	-5.63768115942
381	0.1905	-2.18181818182	-4.85356037152	4.72580645161	-5.63768115942
382	0.191	-0.765454545455	10.6383900929	4.72580645161	-5.63768115942
383	0.1915	-7.84727272727	-3.44520123839	0.38064516129	-7.06231884058
384	0.192	-9.26363636364	-4.85356037152	3.27741935484	5.75942028986
385	0.1925	-5.01454545455	-7.67027863777	3.27741935484	11.4579710145
386	0.193	-3.59818181818	-6.26191950464	1.82903225806	-4.21304347826
387	0.1935	-2.18181818182	-0.628482972136	3.27741935484	-5.63768115942
388	0.194	-10.68	-4.85356037152	3.27741935484	-5.63768115942
389	0.1945	-10.68	-3.44520123839	4.72580645161	-4.21304347826
390	0.195	-2.18181818182	-0.628482972136	-8.30967741935	-7.06231884058
391	0.1955	-2.18181818182	0.779876160991	-3.96451612903	-9.9115942029
392	0.196	-0.765454545455	9.23003095975	1.82903225806	-5.63768115942
393	0.1965	-0.765454545455	-4.85356037152	0.38064516129	-4.21304347826
394	0.197	-2.18181818182	0.779876160991	3.27741935484	-2.7884057971
395	0.1975	-0.765454545455	-0.628482972136	0.38064516129	-4.21304347826
396	0.198	-2.18181818182	-0.628482972136	-6.86129032258	-5.63768115942
397	0.1985	-0.765454545455	-4.85356037152	-1.06774193548	-4.21304347826
398	0.199	-3.59818181818	-6.26191950464	1.82903225806	-5.63768115942
399	0.1995	-9.26363636364	-2.03684210526	0.38064516129	-4.21304347826
400	0.2	4.9	-2.03684210526	1.82903225806	-5.63768115942
401	0.2005	-0.765454545455	0.779876160991	11.9677419355	-8.48695652174
402	0.201	-0.765454545455	-2.03684210526	16.3129032258	-7.06231884058
403	0.2015	-0.765454545455	-10.486996904	-1.06774193548	-8.48695652174
404	0.202	0.650909090909	-9.0786377709	0.38064516129	-5.63768115942
405	0.2025	-2.18181818182	-0.628482972136	1.82903225806	-4.21304347826
406	0.203	9.14909090909	-0.628482972136	3.27741935484	-1.36376811594
407	0.2035	3.48363636364	-2.03684210526	3.27741935484	-12.7608695652
408	0.204	2.06727272727	-7.67027863777	-3.96451612903	-8.48695652174
409	0.2045	0.650909090909	10.6383900929	1.82903225806	-7.06231884058
410	0.205	-2.18181818182	-0.628482972136	0.38064516129	-8.48695652174
411	0.2055	13.3981818182	-0.628482972136	3.27741935484	-18.4594202899
412	0.206	-5.01454545455	-3.44520123839	3.27741935484	-5.63768115942
413	0.2065	-6.43090909091	0.779876160991	6.17419354839	-4.21304347826
414	0.207	-7.84727272727	-4.85356037152	1.82903225806	-4.21304347826
415	0.2075	-6.43090909091	17.6801857585	0.38064516129	-5.63768115942
416	0.208	-14.9290909091	0.779876160991	1.82903225806	-4.21304347826
417	0.2085	-5.01454545455	-2.03684210526	-1.06774193548	-8.48695652174
418	0.209	-3.59818181818	0.779876160991	-8.30967741935	1.48550724638
419	0.2095	-0.765454545455	-2.03684210526	0.38064516129	-8.48695652174
420	0.21	0.650909090909	13.4551083591	1.82903225806	-5.63768115942
421	0.2105	2.06727272727	21.9052631579	-1.06774193548	-4.21304347826
422	0.211	-9.26363636364	2.18823529412	1.82903225806	-2.7884057971
423	0.2115	-0.765454545455	3.59659442724	-6.86129032258	-4.21304347826
424	0.212	-0.765454545455	5.00495356037	-8.30967741935	-5.63768115942
425	0.2125	0.650909090909	20.4969040248	4.72580645161	-1.36376811594
426	0.213	-3.59818181818	3.59659442724	1.82903225806	-5.63768115942
427	0.2135	-13.5127272727	3.59659442724	3.27741935484	-1.36376811594
428	0.214	-0.765454545455	5.00495356037	3.27741935484	-5.63768115942
429	0.2145	0.650909090909	6.4133126935	-2.51612903226	-9.9115942029
430	0.215	0.650909090909	6.4133126935	-6.86129032258	-5.63768115942
431	0.2155	2.06727272727	-2.03684210526	1.82903225806	-2.7884057971
432	0.216	3.48363636364	5.00495356037	0.38064516129	-4.21304347826
433	0.2165	-0.765454545455	6.4133126935	0.38064516129	-4.21304347826
434	0.217	-6.43090909091	7.82167182663	0.38064516129	-14.1855072464
435	0.2175	-0.765454545455	10.6383900929	-9.75806451613	-4.21304347826
436	0.218	0.650909090909	16.2718266254	0.38064516129	-2.7884057971
437	0.2185	0.650909090909	21.9052631579	-1.06774193548	-1.36376811594
438	0.219	-7.84727272727	6.4133126935	0.38064516129	0.0608695652174
439	0.2195	16.2309090909	13.4551083591	3.27741935484	-12.7608695652
440	0.22	0.650909090909	16.2718266254	14.864516129	-2.7884057971
441	0.2205	-2.18181818182	16.2718266254	-1.06774193548	-4.21304347826
442	0.221	-3.59818181818	20.4969040248	1.82903225806	-1.36376811594
443	0.2215	-3.59818181818	6.4133126935	1.82903225806	-2.7884057971
444	0.222	11.9818181818	13.4551083591	1.82903225806	-12.7608695652
445	0.2225	-5.01454545455	10.6383900929	1.82903225806	-12.7608695652
446	0.223	-2.18181818182	9.23003095975	4.72580645161	-11.3362318841
447	0.2235	-2.18181818182	2.18823529412	3.27741935484	-4.21304347826
448	0.224	0.650909090909	-0.628482972136	1.82903225806	-7.06231884058
449	0.2245	-0.765454545455	5.00495356037	0.38064516129	-4.21304347826
450	0.225	14.8145454545	3.59659442724	1.82903225806	-7.06231884058
451	0.2255	-0.765454545455	2.18823529412	-1.06774193548	14.3072463768
452	0.226	-5.01454545455	5.00495356037	-8.30967741935	-4.21304347826
453	0.2265	-2.18181818182	0.779876160991	-2.51612903226	-5.63768115942
454	0.227	2.06727272727	-2.03684210526	1.82903225806	-4.21304347826
455	0.2275	-6.43090909091	-2.03684210526	-1.06774193548	-4.21304347826
456	0.228	16.2309090909	-2.03684210526	0.38064516129	-7.06231884058
457	0.2285	7.73272727273	-2.03684210526	-5.41290322581	-14.1855072464
458	0.229	4.9	-6.26191950464	-6.86129032258	-2.7884057971
459	0.2295	3.48363636364	-10.486996904	0.38064516129	-4.21304347826
460	0.23	0.650909090909	-0.628482972136	1.82903225806	-2.7884057971
461	0.2305	-3.59818181818	2.18823529412	-1.06774193548	-4.21304347826
462	0.231	-5.01454545455	3.59659442724	-1.06774193548	-12.7608695652
463	0.2315	-5.01454545455	-0.628482972136	0.38064516129	-15.6101449275
464	0.232	-5.01454545455	-0.628482972136	-6.86129032258	-4.21304347826
465	0.2325	-5.01454545455	14.8634674923	-1.06774193548	-7.06231884058
466	0.233	0.650909090909	-2.03684210526	1.82903225806	-8.48695652174
467	0.2335	-7.84727272727	-2.03684210526	0.38064516129	-14.1855072464
468	0.234	-3.59818181818	0.779876160991	1.82903225806	7.18405797101
469	0.2345	-0.765454545455	5.00495356037	19.2096774194	-8.48695652174
470	0.235	-6.43090909091	23.313622291	1.82903225806	-7.06231884058
471	0.2355	-6.43090909091	3.59659442724	1.82903225806	-7.06231884058
472	0.236	-17.7618181818	0.779876160991	3.27741935484	-4.21304347826
473	0.2365	-5.01454545455	0.779876160991	-6.86129032258	-8.48695652174
474	0.237	-3.59818181818	2.18823529412	-6.86129032258	-11.3362318841
475	0.2375	-3.59818181818	9.23003095975	1.82903225806	-5.63768115942
476	0.238	-0.765454545455	0.779876160991	3.27741935484	-7.06231884058
477	0.2385	-7.84727272727	2.18823529412	1.82903225806	-4.21304347826
478	0.239	7.73272727273	3.59659442724	0.38064516129	-12.7608695652
479	0.2395	-2.18181818182	5.00495356037	14.864516129	-4.21304347826
480	0.24	0.650909090909	5.00495356037	19.2096774194	-5.63768115942
481	0.2405	-0.765454545455	-0.628482972136	-1.06774193548	-5.63768115942
482	0.241	-0.765454545455	2.18823529412	0.38064516129	-5.63768115942
483	0.2415	0.650909090909	5.00495356037	1.82903225806	-7.06231884058
484	0.242	-2.18181818182	5.00495356037	1.82903225806	-12.7608695652
485	0.2425	-0.765454545455	7.82167182663	-8.30967741935	-11.3362318841
486	0.243	-0.765454545455	-2.03684210526	3.27741935484	-5.63768115942
487	0.2435	3.48363636364	2.18823529412	0.38064516129	-5.63768115942
488	0.244	0.650909090909	10.6383900929	0.38064516129	-2.7884057971
489	0.2445	-5.01454545455	9.23003095975	1.82903225806	-1.36376811594
490	0.245	-2.18181818182	7.82167182663	6.17419354839	-5.63768115942
491	0.2455	-2.18181818182	7.82167182663	-3.96451612903	-8.48695652174
492	0.246	-3.59818181818	3.59659442724	0.38064516129	-5.63768115942
493	0.2465	0.650909090909	10.6383900929	1.82903225806	-8.48695652174
494	0.247	17.6472727273	7.82167182663	1.82903225806	-14.1855072464
495	0.2475	-5.01454545455	3.59659442724	3.27741935484	-12.7608695652
496	0.248	-2.18181818182	6.4133126935	6.17419354839	-4.21304347826
497	0.2485	0.650909090909	2.18823529412	3.27741935484	-2.7884057971
498	0.249	-3.59818181818	3.59659442724	-1.06774193548	-1.36376811594
499	0.2495	-13.5127272727	2.18823529412	3.27741935484	0.0608695652174
500	0.25	-2.18181818182	5.00495356037	-1.06774193548	-8.48695652174
501	0.2505	-0.765454545455	3.59659442724	-9.75806451613	-4.21304347826
502	0.251	-2.18181818182	3.59659442724	0.38064516129	-5.63768115942
503	0.2515	-0.765454545455	6.4133126935	-1.06774193548	-2.7884057971
504	0.252	2.06727272727	3.59659442724	-1.06774193548	-2.7884057971
505	0.2525	14.8145454545	3.59659442724	1.82903225806	-2.7884057971
506	0.253	-2.18181818182	3.59659442724	-11.2064516129	-11.3362318841
507	0.2535	-5.01454545455	3.59659442724	-6.86129032258	-2.7884057971
508	0.254	-2.18181818182	-4.85356037152	1.82903225806	-7.06231884058
509	0.2545	0.650909090909	2.18823529412	-1.06774193548	-7.06231884058
510	0.255	10.5654545455	2.18823529412	0.38064516129	-4.21304347826
511	0.2555	-5.01454545455	0.779876160991	0.38064516129	-8.48695652174
512	0.256	-2.18181818182	0.779876160991	9.07096774194	-2.7884057971
513	0.2565	-2.18181818182	-3.44520123839	0.38064516129	-5.63768115942
514	0.257	-2.18181818182	13.4551083591	1.82903225806	-5.63768115942
515	0.2575	-6.43090909091	6.4133126935	0.38064516129	-2.7884057971
516	0.258	-7.84727272727	3.59659442724	0.38064516129	-1.36376811594
517	0.2585	-2.18181818182	0.779876160991	3.27741935484	11.4579710145
518	0.259	-3.59818181818	5.00495356037	3.27741935484	-5.63768115942
519	0.2595	-2.18181818182	20.4969040248	1.82903225806	-8.48695652174
520	0.26	-2.18181818182	17.6801857585	-1.06774193548	-5.63768115942
521	0.2605	-7.84727272727	2.18823529412	1.82903225806	-5.63768115942
522	0.261	-2.18181818182	5.00495356037	-5.41290322581	-4.21304347826
523	0.2615	-0.765454545455	2.18823529412	-6.86129032258	-7.06231884058
524	0.262	-0.765454545455	6.4133126935	-8.30967741935	-5.63768115942
525	0.2625	-2.18181818182	5.00495356037	0.38064516129	-5.63768115942
526	0.263	-6.43090909091	2.18823529412	1.82903225806	-2.7884057971
527	0.2635	-10.68	-0.628482972136	-1.06774193548	8.60869565217
528	0.264	-3.59818181818	-2.03684210526	0.38064516129	-11.3362318841
529	0.2645	-5.01454545455	0.779876160991	-6.86129032258	-2.7884057971
530	0.265	-0.765454545455	20.4969040248	1.82903225806	-5.63768115942
531	0.2655	-10.68	3.59659442724	0.38064516129	0.0608695652174
532	0.266	-5.01454545455	5.00495356037	1.82903225806	-4.21304347826
533	0.2665	-2.18181818182	5.00495356037	-2.51612903226	-9.9115942029
534	0.267	-2.18181818182	6.4133126935	14.864516129	-1.36376811594
535	0.2675	-2.18181818182	0.779876160991	-1.06774193548	-4.21304347826
536	0.268	-0.765454545455	-2.03684210526	-1.06774193548	-4.21304347826
537	0.2685	16.2309090909	6.4133126935	1.82903225806	-2.7884057971
538	0.269	-5.01454545455	5.00495356037	4.72580645161	-7.06231884058
539	0.2695	-0.765454545455	0.779876160991	4.72580645161	-5.63768115942
540	0.27	-2.18181818182	-9.0786377709	-1.06774193548	-4.21304347826
541	0.2705	-5.01454545455	-3.44520123839	0.38064516129	-4.21304347826
542	0.271	-10.68	2.18823529412	-1.06774193548	-5.63768115942
543	0.2715	-9.26363636364	-0.628482972136	1.82903225806	-4.21304347826
544	0.272	-2.18181818182	-3.44520123839	0.38064516129	-4.21304347826
545	0.2725	-2.18181818182	-2.03684210526	19.2096774194	-7.06231884058
546	0.273	2.06727272727	-9.0786377709	0.38064516129	-4.21304347826
547	0.2735	-5.01454545455	0.779876160991	0.38064516129	-5.63768115942
548	0.274	-5.01454545455	2.18823529412	1.82903225806	-1.36376811594
549	0.2745	7.73272727273	-2.03684210526	0.38064516129	14.3072463768
550	0.275	0.650909090909	-2.03684210526	20.6580645161	-7.06231884058
551	0.2755	-0.765454545455	-10.486996904	-1.06774193548	-5.63768115942
552	0.276	-6.43090909091	-2.03684210526	-2.51612903226	-4.21304347826
553	0.2765	-6.43090909091	-0.628482972136	-1.06774193548	-4.21304347826
554	0.277	-6.43090909091	2.18823529412	-1.06774193548	-12.7608695652
555	0.2775	-7.84727272727	-0.628482972136	-5.41290322581	-11.3362318841
556	0.278	-7.84727272727	-2.03684210526	-8.30967741935	-4.21304347826
557	0.2785	-3.59818181818	-13.3037151703	1.82903225806	-5.63768115942
558	0.279	-5.01454545455	-4.85356037152	0.38064516129	-7.06231884058
559	0.2795	-16.3454545455	-4.85356037152	-3.96451612903	-4.21304347826
560	0.28	-3.59818181818	-4.85356037152	0.38064516129	-8.48695652174
561	0.2805	-2.18181818182	-4.85356037152	11.9677419355	-4.21304347826
562	0.281	-2.18181818182	-3.44520123839	-1.06774193548	-4.21304347826
563	0.2815	-0.765454545455	-4.85356037152	0.38064516129	-5.63768115942
564	0.282	7.73272727273	-3.44520123839	0.38064516129	-5.63768115942
565	0.2825	-3.59818181818	-2.03684210526	-8.30967741935	-7.06231884058
566	0.283	-3.59818181818	-4.85356037152	0.38064516129	-7.06231884058
567	0.2835	-5.01454545455	-7.67027863777	-2.51612903226	-7.06231884058
568	0.284	-0.765454545455	-7.67027863777	0.38064516129	-8.48695652174
569	0.2845	13.3981818182	-10.486996904	0.38064516129	-7.06231884058
570	0.285	-5.01454545455	-7.67027863777	4.72580645161	-11.3362318841
571	0.2855	-3.59818181818	-7.67027863777	-1.06774193548	-8.48695652174
572	0.286	-3.59818181818	-2.03684210526	-1.06774193548	-4.21304347826
573	0.2865	-0.765454545455	0.779876160991	3.27741935484	-5.63768115942
574	0.287	-14.9290909091	3.59659442724	0.38064516129	-2.7884057971
575	0.2875	-2.18181818182	5.00495356037	3.27741935484	8.60869565217
576	0.288	-5.01454545455	3.59659442724	4.72580645161	-5.63768115942
577	0.2885	-3.59818181818	6.4133126935	-1.06774193548	-7.06231884058
578	0.289	-5.01454545455	20.4969040248	-1.06774193548	-5.63768115942
579	0.2895	-16.3454545455	6.4133126935	0.38064516129	-4.21304347826
580	0.29	-14.9290909091	9.23003095975	1.82903225806	-5.63768115942
581	0.2905	-5.01454545455	6.4133126935	-9.75806451613	-8.48695652174
582	0.291	-3.59818181818	6.4133126935	0.38064516129	-7.06231884058
583	0.2915	-5.01454545455	5.00495356037	1.82903225806	-5.63768115942
584	0.292	-5.01454545455	-2.03684210526	0.38064516129	-5.63768115942
585	0.2925	0.650909090909	2.18823529412	1.82903225806	-5.63768115942
586	0.293	-2.18181818182	0.779876160991	0.38064516129	-14.1855072464
587	0.2935	-3.59818181818	5.00495356037	3.27741935484	-8.48695652174
588	0.294	-3.59818181818	-6.26191950464	0.38064516129	-7.06231884058
589	0.2945	-5.01454545455	6.4133126935	3.27741935484	-4.21304347826
590	0.295	-12.0963636364	7.82167182663	0.38064516129	-2.7884057971
591	0.2955	-3.59818181818	6.4133126935	0.38064516129	-4.21304347826
592	0.296	-5.01454545455	2.18823529412	6.17419354839	-7.06231884058
593	0.2965	-2.18181818182	-2.03684210526	-1.06774193548	-4.21304347826
594	0.297	-3.59818181818	10.6383900929	0.38064516129	-7.06231884058
595	0.2975	-6.43090909091	14.8634674923	0.38064516129	-2.7884057971
596	0.298	-10.68	-2.03684210526	-1.06774193548	-1.36376811594
597	0.2985	-3.59818181818	-4.85356037152	1.82903225806	5.75942028986
598	0.299	-2.18181818182	-6.26191950464	3.27741935484	-4.21304347826
599	0.2995	-3.59818181818	-14.7120743034	3.27741935484	-2.7884057971
600	0.3	-7.84727272727	-7.67027863777	0.38064516129	-2.7884057971
601	0.3005	-19.1781818182	-10.486996904	4.72580645161	-2.7884057971
602	0.301	-7.84727272727	-9.0786377709	3.27741935484	-4.21304347826
603	0.3015	-2.18181818182	-7.67027863777	-5.41290322581	-5.63768115942
604	0.302	-3.59818181818	-3.44520123839	1.82903225806	-4.21304347826
605	0.3025	-0.765454545455	-10.486996904	0.38064516129	-7.06231884058
606	0.303	14.8145454545	-6.26191950464	0.38064516129	-5.63768115942
607	0.3035	-6.43090909091	-9.0786377709	4.72580645161	-1.36376811594
608	0.304	-3.59818181818	-6.26191950464	0.38064516129	-14.1855072464
609	0.3045	-5.01454545455	-7.67027863777	-8.30967741935	-7.06231884058
610	0.305	0.650909090909	14.8634674923	1.82903225806	-5.63768115942
611	0.3055	0.650909090909	-4.85356037152	1.82903225806	-7.06231884058
612	0.306	-2.18181818182	0.779876160991	0.38064516129	-5.63768115942
613	0.3065	-5.01454545455	2.18823529412	1.82903225806	11.4579710145
614	0.307	-3.59818181818	5.00495356037	-6.86129032258	-5.63768115942
615	0.3075	-5.01454545455	6.4133126935	-1.06774193548	-4.21304347826
616	0.308	2.06727272727	-3.44520123839	0.38064516129	-7.06231884058
617	0.3085	7.73272727273	-3.44520123839	1.82903225806	-5.63768115942
618	0.309	-7.84727272727	-0.628482972136	3.27741935484	-1.36376811594
619	0.3095	-0.765454545455	2.18823529412	16.3129032258	-9.9115942029
620	0.31	-3.59818181818	2.18823529412	0.38064516129	-5.63768115942
621	0.3105	-2.18181818182	3.59659442724	1.82903225806	-4.21304347826
622	0.311	-5.01454545455	2.18823529412	0.38064516129	-5.63768115942
623	0.3115	-12.0963636364	0.779876160991	0.38064516129	-2.7884057971
624	0.312	-2.18181818182	2.18823529412	-9.75806451613	-8.48695652174
625	0.3125	-2.18181818182	-2.03684210526	-6.86129032258	-7.06231884058
626	0.313	-0.765454545455	6.4133126935	4.72580645161	-5.63768115942
627	0.3135	-0.765454545455	-2.03684210526	-1.06774193548	-4.21304347826
628	0.314	0.650909090909	2.18823529412	-1.06774193548	-4.21304347826
629	0.3145	-7.84727272727	0.779876160991	-1.06774193548	7.18405797101
630	0.315	-0.765454545455	2.18823529412	1.82903225806	-12.7608695652
631	0.3155	-2.18181818182	5.00495356037	-2.51612903226	-8.48695652174
632	0.316	-2.18181818182	10.6383900929	1.82903225806	-9.9115942029
633	0.3165	-10.68	-3.44520123839	0.38064516129	-7.06231884058
634	0.317	-7.84727272727	-9.0786377709	4.72580645161	-8.48695652174
635	0.3175	-3.59818181818	-4.85356037152	3.27741935484	5.75942028986
636	0.318	-2.18181818182	-3.44520123839	19.2096774194	-5.63768115942
637	0.3185	-2.18181818182	14.8634674923	-1.06774193548	-8.48695652174
638	0.319	-5.01454545455	-6.26191950464	0.38064516129	-5.63768115942
639	0.3195	10.5654545455	-4.85356037152	0.38064516129	-4.21304347826
640	0.32	-7.84727272727	-2.03684210526	1.82903225806	-4.21304347826
641	0.3205	-3.59818181818	-2.03684210526	1.82903225806	-8.48695652174
642	0.321	-0.765454545455	0.779876160991	17.7612903226	-8.48695652174
643	0.3215	-0.765454545455	20.4969040248	1.82903225806	-7.06231884058
644	0.322	-12.0963636364	6.4133126935	0.38064516129	-5.63768115942
645	0.3225	-10.68	7.82167182663	3.27741935484	-2.7884057971
646	0.323	-2.18181818182	6.4133126935	3.27741935484	4.3347826087
647	0.3235	-3.59818181818	13.4551083591	0.38064516129	-7.06231884058
648	0.324	-5.01454545455	20.4969040248	-1.06774193548	-7.06231884058
649	0.3245	-5.01454545455	-0.628482972136	0.38064516129	-4.21304347826
650	0.325	-5.01454545455	2.18823529412	0.38064516129	-4.21304347826
651	0.3255	-5.01454545455	2.18823529412	0.38064516129	4.3347826087
652	0.326	-0.765454545455	3.59659442724	4.72580645161	-8.48695652174
653	0.3265	-3.59818181818	0.779876160991	-1.06774193548	-5.63768115942
654	0.327	-5.01454545455	-7.67027863777	1.82903225806	-5.63768115942
655	0.3275	-16.3454545455	3.59659442724	-1.06774193548	-4.21304347826
656	0.328	-6.43090909091	5.00495356037	3.27741935484	-1.36376811594
657	0.3285	3.48363636364	3.59659442724	14.864516129	-7.06231884058
658	0.329	3.48363636364	3.59659442724	-1.06774193548	-2.7884057971
659	0.3295	2.06727272727	9.23003095975	3.27741935484	-2.7884057971
660	0.33	-6.43090909091	-2.03684210526	3.27741935484	-2.7884057971
661	0.3305	-5.01454545455	-3.44520123839	1.82903225806	-2.7884057971
662	0.331	-3.59818181818	-4.85356037152	3.27741935484	15.731884058
663	0.3315	-6.43090909091	-6.26191950464	20.6580645161	-4.21304347826
664	0.332	-6.43090909091	6.4133126935	-1.06774193548	-2.7884057971
665	0.3325	-10.68	-6.26191950464	4.72580645161	-2.7884057971
666	0.333	-22.0109090909	-7.67027863777	0.38064516129	-2.7884057971
667	0.3335	-7.84727272727	-6.26191950464	-1.06774193548	-2.7884057971
668	0.334	-7.84727272727	-6.26191950464	11.9677419355	-2.7884057971
669	0.3345	-5.01454545455	-9.0786377709	14.864516129	-1.36376811594
670	0.335	-5.01454545455	-16.1204334365	3.27741935484	-2.7884057971
671	0.3355	-2.18181818182	-7.67027863777	-1.06774193548	0.0608695652174
672	0.336	16.2309090909	-6.26191950464	0.38064516129	-1.36376811594
673	0.3365	-3.59818181818	-4.85356037152	-3.96451612903	4.3347826087
674	0.337	-3.59818181818	-3.44520123839	3.27741935484	0.0608695652174
675	0.3375	-5.01454545455	-9.0786377709	1.82903225806	1.48550724638
676	0.338	-3.59818181818	-6.26191950464	1.82903225806	2.91014492754
677	0.3385	-5.01454545455	-6.26191950464	4.72580645161	1.48550724638
678	0.339	-12.0963636364	-6.26191950464	3.27741935484	4.3347826087
679	0.3395	-2.18181818182	-9.0786377709	-3.96451612903	2.91014492754
680	0.34	-2.18181818182	-10.486996904	0.38064516129	4.3347826087
681	0.3405	-3.59818181818	-9.0786377709	3.27741935484	1.48550724638
682	0.341	-5.01454545455	-7.67027863777	0.38064516129	1.48550724638
683	0.3415	-10.68	-3.44520123839	0.38064516129	14.3072463768
684	0.342	-2.18181818182	-6.26191950464	-11.2064516129	4.3347826087
685	0.3425	-0.765454545455	-7.67027863777	-2.51612903226	5.75942028986
686	0.343	-2.18181818182	-9.0786377709	0.38064516129	5.75942028986
687	0.3435	2.06727272727	-3.44520123839	-1.06774193548	8.60869565217
688	0.344	-5.01454545455	-0.628482972136	1.82903225806	11.4579710145
689	0.3445	-10.68	-0.628482972136	4.72580645161	17.1565217391
690	0.345	-0.765454545455	5.00495356037	-6.86129032258	15.731884058
691	0.3455	2.06727272727	0.779876160991	-1.06774193548	18.5811594203
692	0.346	3.48363636364	6.4133126935	-1.06774193548	18.5811594203
693	0.3465	2.06727272727	2.18823529412	-1.06774193548	21.4304347826
694	0.347	-5.01454545455	3.59659442724	1.82903225806	21.4304347826
695	0.3475	0.650909090909	7.82167182663	3.27741935484	17.1565217391
696	0.348	-0.765454545455	13.4551083591	-8.30967741935	20.0057971014
697	0.3485	0.650909090909	14.8634674923	-9.75806451613	20.0057971014
698	0.349	2.06727272727	16.2718266254	1.82903225806	21.4304347826
699	0.3495	-6.43090909091	16.2718266254	-1.06774193548	24.2797101449
700	0.35	4.9	20.4969040248	1.82903225806	37.1014492754
701	0.3505	4.9	24.7219814241	3.27741935484	20.0057971014
702	0.351	3.48363636364	26.1303405573	-3.96451612903	22.8550724638
703	0.3515	4.9	17.6801857585	1.82903225806	24.2797101449
704	0.352	3.48363636364	10.6383900929	-1.06774193548	24.2797101449
705	0.3525	24.7290909091	26.1303405573	0.38064516129	11.4579710145
706	0.353	7.73272727273	27.5386996904	4.72580645161	20.0057971014
707	0.3535	4.9	30.3554179567	13.4161290323	20.0057971014
708	0.354	3.48363636364	16.2718266254	-3.96451612903	18.5811594203
709	0.3545	2.06727272727	27.5386996904	0.38064516129	18.5811594203
710	0.355	-6.43090909091	26.1303405573	1.82903225806	8.60869565217
711	0.3555	-2.18181818182	24.7219814241	1.82903225806	1.48550724638
712	0.356	3.48363636364	23.313622291	-1.06774193548	-1.36376811594
713	0.3565	4.9	26.1303405573	-5.41290322581	-4.21304347826
714	0.357	6.31636363636	40.2139318885	1.82903225806	-7.06231884058
715	0.3575	3.48363636364	24.7219814241	0.38064516129	-7.06231884058
716	0.358	-9.26363636364	23.313622291	1.82903225806	-9.9115942029
717	0.3585	2.06727272727	21.9052631579	3.27741935484	1.48550724638
718	0.359	3.48363636364	21.9052631579	-5.41290322581	-14.1855072464
719	0.3595	2.06727272727	23.313622291	-3.96451612903	-14.1855072464
720	0.36	-0.765454545455	21.9052631579	0.38064516129	-15.6101449275
721	0.3605	-12.0963636364	16.2718266254	0.38064516129	-15.6101449275
722	0.361	-5.01454545455	14.8634674923	0.38064516129	-18.4594202899
723	0.3615	0.650909090909	16.2718266254	3.27741935484	-24.1579710145
724	0.362	0.650909090909	10.6383900929	1.82903225806	-15.6101449275
725	0.3625	6.31636363636	7.82167182663	1.82903225806	-18.4594202899
726	0.363	9.14909090909	6.4133126935	1.82903225806	-15.6101449275
727	0.3635	19.0636363636	5.00495356037	0.38064516129	-22.7333333333
728	0.364	4.9	3.59659442724	0.38064516129	-24.1579710145
729	0.3645	3.48363636364	2.18823529412	1.82903225806	-11.3362318841
730	0.365	2.06727272727	2.18823529412	-1.06774193548	-9.9115942029
731	0.3655	0.650909090909	5.00495356037	0.38064516129	-9.9115942029
732	0.366	2.06727272727	6.4133126935	3.27741935484	-12.7608695652
733	0.3665	-6.43090909091	2.18823529412	-1.06774193548	-18.4594202899
734	0.367	-7.84727272727	3.59659442724	-11.2064516129	-18.4594202899
735	0.3675	-7.84727272727	-9.0786377709	0.38064516129	-9.9115942029
736	0.368	-6.43090909091	-6.26191950464	0.38064516129	-7.06231884058
737	0.3685	-2.18181818182	0.779876160991	-1.06774193548	-1.36376811594
738	0.369	0.650909090909	5.00495356037	-1.06774193548	-5.63768115942
739	0.3695	-5.01454545455	2.18823529412	-3.96451612903	1.48550724638
740	0.37	-3.59818181818	2.18823529412	-11.2064516129	-1.36376811594
741	0.3705	-5.01454545455	7.82167182663	-6.86129032258	1.48550724638
742	0.371	-5.01454545455	20.4969040248	0.38064516129	1.48550724638
743	0.3715	-17.7618181818	6.4133126935	0.38064516129	5.75942028986
744	0.372	-7.84727272727	5.00495356037	-2.51612903226	1.48550724638
745	0.3725	-6.43090909091	5.00495356037	-8.30967741935	2.91014492754
746	0.373	-5.01454545455	5.00495356037	3.27741935484	1.48550724638
747	0.3735	-6.43090909091	-2.03684210526	1.82903225806	0.0608695652174
748	0.374	-5.01454545455	-2.03684210526	-1.06774193548	-2.7884057971
749	0.3745	-13.5127272727	-3.44520123839	-1.06774193548	0.0608695652174
750	0.375	-5.01454545455	-7.67027863777	1.82903225806	8.60869565217
751	0.3755	-7.84727272727	-7.67027863777	-6.86129032258	-5.63768115942
752	0.376	-6.43090909091	-9.0786377709	-1.06774193548	-7.06231884058
753	0.3765	-9.26363636364	-10.486996904	-1.06774193548	-8.48695652174
754	0.377	-16.3454545455	-7.67027863777	-1.06774193548	-7.06231884058
755	0.3775	-0.765454545455	-11.8953560372	0.38064516129	-9.9115942029
756	0.378	-6.43090909091	-9.0786377709	-3.96451612903	-14.1855072464
757	0.3785	-3.59818181818	-10.486996904	-1.06774193548	-2.7884057971
758	0.379	-3.59818181818	-13.3037151703	-1.06774193548	-2.7884057971
759	0.3795	0.650909090909	-14.7120743034	0.38064516129	-4.21304347826
760	0.38	13.3981818182	-13.3037151703	0.38064516129	-4.21304347826
761	0.3805	-3.59818181818	-13.3037151703	-9.75806451613	1.48550724638
762	0.381	-5.01454545455	-10.486996904	-5.41290322581	-1.36376811594
763	0.3815	-5.01454545455	-9.0786377709	-6.86129032258	-2.7884057971
764	0.382	-2.18181818182	3.59659442724	1.82903225806	-4.21304347826
765	0.3825	16.2309090909	-13.3037151703	-1.06774193548	-12.7608695652
766	0.383	-7.84727272727	-13.3037151703	1.82903225806	-14.1855072464
767	0.3835	-5.01454545455	-16.1204334365	-11.2064516129	-2.7884057971
768	0.384	-3.59818181818	-27.3873065015	0.38064516129	-4.21304347826
769	0.3845	-3.59818181818	-13.3037151703	-1.06774193548	-4.21304347826
770	0.385	-9.26363636364	-14.7120743034	-1.06774193548	-4.21304347826
771	0.3855	10.5654545455	-13.3037151703	3.27741935484	-8.48695652174
772	0.386	-5.01454545455	-10.486996904	-1.06774193548	-12.7608695652
773	0.3865	-5.01454545455	-10.486996904	-11.2064516129	-7.06231884058
774	0.387	-3.59818181818	-21.753869969	0.38064516129	-9.9115942029
775	0.3875	-5.01454545455	-7.67027863777	1.82903225806	-9.9115942029
776	0.388	-2.18181818182	-9.0786377709	1.82903225806	-11.3362318841
777	0.3885	-13.5127272727	-9.0786377709	0.38064516129	-9.9115942029
778	0.389	-0.765454545455	-10.486996904	-8.30967741935	-11.3362318841
779	0.3895	-2.18181818182	-7.67027863777	-6.86129032258	-9.9115942029
780	0.39	-3.59818181818	3.59659442724	3.27741935484	-9.9115942029
781	0.3905	0.650909090909	-13.3037151703	1.82903225806	-9.9115942029
782	0.391	-6.43090909091	-11.8953560372	0.38064516129	-8.48695652174
783	0.3915	-5.01454545455	-10.486996904	-8.30967741935	-12.7608695652
784	0.392	-2.18181818182	-10.486996904	4.72580645161	-7.06231884058
785	0.3925	-3.59818181818	-16.1204334365	-1.06774193548	-11.3362318841
786	0.393	-3.59818181818	-10.486996904	0.38064516129	-12.7608695652
787	0.3935	-0.765454545455	-10.486996904	0.38064516129	-12.7608695652
788	0.394	-3.59818181818	-10.486996904	1.82903225806	-17.0347826087
789	0.3945	-3.59818181818	-10.486996904	-1.06774193548	-18.4594202899
790	0.395	-2.18181818182	-11.8953560372	-5.41290322581	-11.3362318841
791	0.3955	-2.18181818182	0.779876160991	1.82903225806	-9.9115942029
792	0.396	-0.765454545455	-14.7120743034	0.38064516129	-8.48695652174
793	0.3965	-3.59818181818	-11.8953560372	0.38064516129	-22.7333333333
794	0.397	-6.43090909091	-16.1204334365	-9.75806451613	-14.1855072464
795	0.3975	-3.59818181818	-11.8953560372	-5.41290322581	-8.48695652174
796	0.398	0.650909090909	-13.3037151703	0.38064516129	-9.9115942029
797	0.3985	0.650909090909	-9.0786377709	1.82903225806	-8.48695652174
798	0.399	-0.765454545455	-10.486996904	0.38064516129	-8.48695652174
799	0.3995	-12.0963636364	-9.0786377709	1.82903225806	-7.06231884058
800	0.4	-3.59818181818	-7.67027863777	-6.86129032258	-9.9115942029
801	0.4005	-2.18181818182	-4.85356037152	-6.86129032258	-11.3362318841
802	0.401	-0.765454545455	16.2718266254	0.38064516129	-9.9115942029
803	0.4015	20.48	-3.44520123839	0.38064516129	-9.9115942029
804	0.402	-3.59818181818	-3.44520123839	-1.06774193548	-18.4594202899
805	0.4025	-2.18181818182	-3.44520123839	-6.86129032258	-8.48695652174
806	0.403	-5.01454545455	0.779876160991	-2.51612903226	-12.7608695652
807	0.4035	-3.59818181818	9.23003095975	-1.06774193548	-8.48695652174
808	0.404	0.650909090909	-6.26191950464	1.82903225806	-7.06231884058
809	0.4045	-7.84727272727	-3.44520123839	1.82903225806	-14.1855072464
810	0.405	-2.18181818182	-4.85356037152	-5.41290322581	-2.7884057971
811	0.4055	-2.18181818182	-4.85356037152	11.9677419355	-8.48695652174
812	0.406	-0.765454545455	10.6383900929	0.38064516129	-8.48695652174
813	0.4065	-5.01454545455	-0.628482972136	3.27741935484	-8.48695652174
814	0.407	-12.0963636364	-0.628482972136	1.82903225806	-7.06231884058
815	0.4075	-2.18181818182	-6.26191950464	4.72580645161	7.18405797101
816	0.408	-2.18181818182	-3.44520123839	20.6580645161	-11.3362318841
817	0.4085	-2.18181818182	-0.628482972136	1.82903225806	-9.9115942029
818	0.409	-2.18181818182	-6.26191950464	0.38064516129	-9.9115942029
819	0.4095	-14.9290909091	-2.03684210526	3.27741935484	-5.63768115942
820	0.41	-6.43090909091	-3.44520123839	3.27741935484	-4.21304347826
821	0.4105	-3.59818181818	-4.85356037152	14.864516129	-8.48695652174
822	0.411	-6.43090909091	-3.44520123839	1.82903225806	-8.48695652174
823	0.4115	-5.01454545455	-4.85356037152	3.27741935484	-4.21304347826
824	0.412	-10.68	-4.85356037152	0.38064516129	-8.48695652174
825	0.4125	4.9	-3.44520123839	3.27741935484	-8.48695652174
826	0.413	-3.59818181818	-2.03684210526	-1.06774193548	-12.7608695652
827	0.4135	-5.01454545455	-4.85356037152	13.4161290323	-9.9115942029
828	0.414	-5.01454545455	-7.67027863777	0.38064516129	-8.48695652174
829	0.4145	-0.765454545455	-10.486996904	1.82903225806	-5.63768115942
830	0.415	-3.59818181818	-3.44520123839	-1.06774193548	-9.9115942029
831	0.4155	-10.68	-9.0786377709	3.27741935484	4.3347826087
832	0.416	-0.765454545455	-4.85356037152	-1.06774193548	7.18405797101
833	0.4165	-2.18181818182	-0.628482972136	0.38064516129	-7.06231884058
834	0.417	-3.59818181818	16.2718266254	1.82903225806	-9.9115942029
835	0.4175	-14.9290909091	-2.03684210526	1.82903225806	-4.21304347826
836	0.418	-12.0963636364	-3.44520123839	-1.06774193548	0.0608695652174
837	0.4185	-5.01454545455	-0.628482972136	0.38064516129	-12.7608695652
838	0.419	-0.765454545455	2.18823529412	11.9677419355	-9.9115942029
839	0.4195	2.06727272727	-4.85356037152	0.38064516129	-5.63768115942
840	0.42	11.9818181818	-7.67027863777	1.82903225806	-8.48695652174
841	0.4205	9.14909090909	-0.628482972136	-1.06774193548	-11.3362318841
842	0.421	-0.765454545455	0.779876160991	3.27741935484	-9.9115942029
843	0.4215	-5.01454545455	-2.03684210526	1.82903225806	-2.7884057971
844	0.422	-5.01454545455	-2.03684210526	-3.96451612903	-7.06231884058
845	0.4225	-5.01454545455	-4.85356037152	-1.06774193548	-8.48695652174
846	0.423	-7.84727272727	-3.44520123839	1.82903225806	-5.63768115942
847	0.4235	-14.9290909091	-4.85356037152	-1.06774193548	-7.06231884058
848	0.424	-7.84727272727	-4.85356037152	7.62258064516	5.75942028986
849	0.4245	-6.43090909091	-0.628482972136	-6.86129032258	-7.06231884058
850	0.425	-6.43090909091	-6.26191950464	0.38064516129	-7.06231884058
851	0.4255	-7.84727272727	-10.486996904	3.27741935484	-4.21304347826
852	0.426	0.650909090909	-9.0786377709	1.82903225806	-7.06231884058
853	0.4265	-7.84727272727	-10.486996904	0.38064516129	-8.48695652174
854	0.427	-5.01454545455	-9.0786377709	1.82903225806	7.18405797101
855	0.4275	-6.43090909091	-6.26191950464	17.7612903226	-7.06231884058
856	0.428	-5.01454545455	-17.5287925697	1.82903225806	-7.06231884058
857	0.4285	-0.765454545455	-6.26191950464	-1.06774193548	-7.06231884058
858	0.429	17.6472727273	-3.44520123839	0.38064516129	-11.3362318841
859	0.4295	-5.01454545455	-6.26191950464	3.27741935484	-7.06231884058
860	0.43	-3.59818181818	-6.26191950464	0.38064516129	-11.3362318841
861	0.4305	-5.01454545455	-7.67027863777	-2.51612903226	-7.06231884058
862	0.431	-0.765454545455	5.00495356037	3.27741935484	-9.9115942029
863	0.4315	-13.5127272727	-7.67027863777	0.38064516129	-5.63768115942
864	0.432	-12.0963636364	-9.0786377709	1.82903225806	-2.7884057971
865	0.4325	-5.01454545455	-9.0786377709	-8.30967741935	-11.3362318841
866	0.433	-3.59818181818	-10.486996904	0.38064516129	-8.48695652174
867	0.4335	-2.18181818182	-0.628482972136	1.82903225806	-7.06231884058
868	0.434	-2.18181818182	-11.8953560372	3.27741935484	-4.21304347826
869	0.4345	-7.84727272727	-3.44520123839	-1.06774193548	-5.63768115942
870	0.435	-0.765454545455	-3.44520123839	4.72580645161	5.75942028986
871	0.4355	-3.59818181818	-9.0786377709	3.27741935484	-12.7608695652
872	0.436	-2.18181818182	-10.486996904	4.72580645161	-7.06231884058
873	0.4365	-2.18181818182	-0.628482972136	0.38064516129	-7.06231884058
874	0.437	-0.765454545455	-7.67027863777	3.27741935484	-8.48695652174
875	0.4375	14.8145454545	-9.0786377709	3.27741935484	-9.9115942029
876	0.438	-2.18181818182	-9.0786377709	-1.06774193548	-11.3362318841
877	0.4385	-2.18181818182	-6.26191950464	-8.30967741935	-7.06231884058
878	0.439	-2.18181818182	-3.44520123839	1.82903225806	-5.63768115942
879	0.4395	-2.18181818182	-3.44520123839	0.38064516129	-7.06231884058
880	0.44	-10.68	-10.486996904	1.82903225806	-7.06231884058
881	0.4405	-12.0963636364	-10.486996904	3.27741935484	8.60869565217
882	0.441	-3.59818181818	-10.486996904	4.72580645161	5.75942028986
883	0.4415	-5.01454545455	-10.486996904	19.2096774194	-7.06231884058
884	0.442	-2.18181818182	9.23003095975	0.38064516129	-8.48695652174
885	0.4425	-3.59818181818	-6.26191950464	3.27741935484	-5.63768115942
886	0.443	-9.26363636364	-9.0786377709	4.72580645161	-8.48695652174
887	0.4435	-3.59818181818	-4.85356037152	0.38064516129	-14.1855072464
888	0.444	-3.59818181818	-4.85356037152	3.27741935484	-17.0347826087
889	0.4445	-2.18181818182	-4.85356037152	0.38064516129	-8.48695652174
890	0.445	0.650909090909	-10.486996904	1.82903225806	-8.48695652174
891	0.4455	9.14909090909	-14.7120743034	0.38064516129	-8.48695652174
892	0.446	23.3127272727	-9.0786377709	3.27741935484	-17.0347826087
893	0.4465	3.48363636364	-7.67027863777	4.72580645161	-19.884057971
894	0.447	2.06727272727	-6.26191950464	-1.06774193548	-7.06231884058
895	0.4475	2.06727272727	-14.7120743034	0.38064516129	-7.06231884058
896	0.448	3.48363636364	-3.44520123839	1.82903225806	-7.06231884058
897	0.4485	10.5654545455	-0.628482972136	3.27741935484	-4.21304347826
898	0.449	-7.84727272727	-2.03684210526	3.27741935484	-8.48695652174
899	0.4495	-6.43090909091	-2.03684210526	-6.86129032258	-4.21304347826
900	0.45	-7.84727272727	-3.44520123839	11.9677419355	-4.21304347826
901	0.4505	-7.84727272727	-4.85356037152	1.82903225806	-4.21304347826
902	0.451	-10.68	-4.85356037152	0.38064516129	-8.48695652174
903	0.4515	10.5654545455	-3.44520123839	1.82903225806	-8.48695652174
904	0.452	-3.59818181818	-2.03684210526	4.72580645161	-17.0347826087
905	0.4525	-2.18181818182	-3.44520123839	1.82903225806	-7.06231884058
906	0.453	-5.01454545455	-4.85356037152	1.82903225806	-7.06231884058
907	0.4535	-3.59818181818	-13.3037151703	0.38064516129	-8.48695652174
908	0.454	-0.765454545455	-11.8953560372	-1.06774193548	-8.48695652174
909	0.4545	-6.43090909091	-4.85356037152	7.62258064516	-11.3362318841
910	0.455	-5.01454545455	-6.26191950464	3.27741935484	-1.36376811594
911	0.4555	-3.59818181818	-10.486996904	1.82903225806	-8.48695652174
912	0.456	-3.59818181818	0.779876160991	-1.06774193548	-11.3362318841
913	0.4565	-3.59818181818	-7.67027863777	1.82903225806	-7.06231884058
914	0.457	-13.5127272727	-7.67027863777	4.72580645161	-5.63768115942
915	0.4575	-5.01454545455	-7.67027863777	6.17419354839	7.18405797101
916	0.458	-0.765454545455	-6.26191950464	20.6580645161	-9.9115942029
917	0.4585	-0.765454545455	-18.9371517028	-1.06774193548	-8.48695652174
918	0.459	-0.765454545455	-10.486996904	0.38064516129	-7.06231884058
919	0.4595	-12.0963636364	-4.85356037152	3.27741935484	-2.7884057971
920	0.46	-0.765454545455	-4.85356037152	-1.06774193548	-4.21304347826
921	0.4605	-3.59818181818	-7.67027863777	6.17419354839	-7.06231884058
922	0.461	-3.59818181818	-6.26191950464	16.3129032258	-7.06231884058
923	0.4615	-3.59818181818	-16.1204334365	0.38064516129	-5.63768115942
924	0.462	-2.18181818182	-16.1204334365	0.38064516129	-7.06231884058
925	0.4625	17.6472727273	-10.486996904	3.27741935484	-17.0347826087
926	0.463	-5.01454545455	-7.67027863777	4.72580645161	-4.21304347826
927	0.4635	-3.59818181818	-7.67027863777	13.4161290323	-9.9115942029
928	0.464	-3.59818181818	-16.1204334365	-1.06774193548	-5.63768115942
929	0.4645	-3.59818181818	-11.8953560372	1.82903225806	-7.06231884058
930	0.465	-12.0963636364	-10.486996904	3.27741935484	-9.9115942029
931	0.4655	-10.68	-9.0786377709	1.82903225806	8.60869565217
932	0.466	-3.59818181818	-9.0786377709	7.62258064516	-5.63768115942
933	0.4665	-5.01454545455	-6.26191950464	0.38064516129	-5.63768115942
934	0.467	-2.18181818182	6.4133126935	1.82903225806	-5.63768115942
935	0.4675	-5.01454545455	3.59659442724	1.82903225806	-5.63768115942
936	0.468	-3.59818181818	-9.0786377709	0.38064516129	0.0608695652174
937	0.4685	-3.59818181818	-11.8953560372	1.82903225806	-7.06231884058
938	0.469	-0.765454545455	-10.486996904	14.864516129	-5.63768115942
939	0.4695	-0.765454545455	-14.7120743034	1.82903225806	-4.21304347826
940	0.47	-2.18181818182	-20.3455108359	-1.06774193548	-7.06231884058
941	0.4705	2.06727272727	-10.486996904	1.82903225806	-8.48695652174
942	0.471	-3.59818181818	-7.67027863777	4.72580645161	-17.0347826087
943	0.4715	-3.59818181818	-13.3037151703	14.864516129	-7.06231884058
944	0.472	-3.59818181818	-13.3037151703	7.62258064516	-7.06231884058
945	0.4725	-3.59818181818	-14.7120743034	0.38064516129	-7.06231884058
946	0.473	-3.59818181818	-3.44520123839	3.27741935484	-7.06231884058
947	0.4735	-6.43090909091	-10.486996904	0.38064516129	-5.63768115942
948	0.474	-2.18181818182	-10.486996904	-1.06774193548	7.18405797101
949	0.4745	-2.18181818182	-4.85356037152	-6.86129032258	-8.48695652174
950	0.475	-2.18181818182	-7.67027863777	-3.96451612903	-9.9115942029
951	0.4755	-5.01454545455	-11.8953560372	0.38064516129	-11.3362318841
952	0.476	-16.3454545455	-16.1204334365	0.38064516129	-8.48695652174
953	0.4765	-13.5127272727	-13.3037151703	0.38064516129	4.3347826087
954	0.477	-3.59818181818	-13.3037151703	-3.96451612903	-8.48695652174
955	0.4775	-2.18181818182	-11.8953560372	-1.06774193548	-8.48695652174
956	0.478	-2.18181818182	-0.628482972136	0.38064516129	-8.48695652174
957	0.4785	-3.59818181818	0.779876160991	0.38064516129	-7.06231884058
958	0.479	-7.84727272727	-9.0786377709	3.27741935484	-7.06231884058
959	0.4795	0.650909090909	-7.67027863777	3.27741935484	-1.36376811594
960	0.48	-3.59818181818	-6.26191950464	-1.06774193548	-9.9115942029
961	0.4805	-5.01454545455	-7.67027863777	0.38064516129	-7.06231884058
962	0.481	-5.01454545455	-20.3455108359	3.27741935484	-5.63768115942
963	0.4815	7.73272727273	-13.3037151703	-1.06774193548	-9.9115942029
964	0.482	-2.18181818182	-11.8953560372	0.38064516129	-15.6101449275
965	0.4825	-0.765454545455	-10.486996904	-8.30967741935	-12.7608695652
966	0.483	-2.18181818182	-20.3455108359	1.82903225806	-5.63768115942
967	0.4835	0.650909090909	-17.5287925697	0.38064516129	-4.21304347826
968	0.484	0.650909090909	-10.486996904	-1.06774193548	-7.06231884058
969	0.4845	14.8145454545	-10.486996904	1.82903225806	-7.06231884058
970	0.485	-5.01454545455	-16.1204334365	-9.75806451613	-9.9115942029
971	0.4855	-5.01454545455	-16.1204334365	-2.51612903226	-4.21304347826
972	0.486	-3.59818181818	-24.5705882353	-1.06774193548	-5.63768115942
973	0.4865	4.9	-4.85356037152	1.82903225806	-7.06231884058
974	0.487	4.9	-3.44520123839	0.38064516129	-5.63768115942
975	0.4875	2.06727272727	-3.44520123839	-1.06774193548	-12.7608695652
976	0.488	-2.18181818182	-0.628482972136	0.38064516129	-14.1855072464
977	0.4885	-3.59818181818	-2.03684210526	-1.06774193548	-7.06231884058
978	0.489	-2.18181818182	-10.486996904	0.38064516129	-9.9115942029
979	0.4895	2.06727272727	-7.67027863777	1.82903225806	-9.9115942029
980	0.49	13.3981818182	-6.26191950464	3.27741935484	-8.48695652174
981	0.4905	-2.18181818182	-3.44520123839	-8.30967741935	-7.06231884058
982	0.491	-3.59818181818	-4.85356037152	4.72580645161	-9.9115942029
983	0.4915	-2.18181818182	3.59659442724	4.72580645161	-9.9115942029
984	0.492	-2.18181818182	0.779876160991	0.38064516129	-11.3362318841
985	0.4925	-12.0963636364	-2.03684210526	1.82903225806	-7.06231884058
986	0.493	-12.0963636364	-4.85356037152	0.38064516129	-5.63768115942
987	0.4935	-0.765454545455	-4.85356037152	-5.41290322581	-7.06231884058
988	0.494	-0.765454545455	-3.44520123839	0.38064516129	-9.9115942029
989	0.4945	-5.01454545455	-6.26191950464	1.82903225806	-8.48695652174
990	0.495	-10.68	-2.03684210526	3.27741935484	-7.06231884058
991	0.4955	4.9	0.779876160991	0.38064516129	-9.9115942029
992	0.496	-0.765454545455	0.779876160991	-1.06774193548	-15.6101449275
993	0.4965	0.650909090909	-6.26191950464	-6.86129032258	-9.9115942029
994	0.497	0.650909090909	-13.3037151703	1.82903225806	-9.9115942029
995	0.4975	2.06727272727	-6.26191950464	0.38064516129	-11.3362318841
996	0.498	17.6472727273	-3.44520123839	0.38064516129	-18.4594202899
997	0.4985	-3.59818181818	-7.67027863777	3.27741935484	-7.06231884058
998	0.499	-3.59818181818	-7.67027863777	3.27741935484	4.3347826087
999	0.4995	3.48363636364	-11.8953560372	-1.06774193548	-8.48695652174
1000	0.5	7.73272727273	5.00495356037	0.38064516129	-7.06231884058
1001	0.5005	7.73272727273	-9.0786377709	3.27741935484	-5.63768115942
1002	0.501	-2.18181818182	-2.03684210526	0.38064516129	1.48550724638
1003	0.5015	0.650909090909	-6.26191950464	0.38064516129	-9.9115942029
1004	0.502	2.06727272727	-0.628482972136	7.62258064516	-8.48695652174
1005	0.5025	-2.18181818182	-3.44520123839	-1.06774193548	-8.48695652174
1006	0.503	-6.43090909091	-9.0786377709	0.38064516129	-8.48695652174
1007	0.5035	-17.7618181818	-2.03684210526	1.82903225806	-5.63768115942
1008	0.504	-13.5127272727	-4.85356037152	1.82903225806	-5.63768115942
1009	0.5045	-7.84727272727	-0.628482972136	0.38064516129	-12.7608695652
1010	0.505	-5.01454545455	-0.628482972136	-3.96451612903	-5.63768115942
1011	0.5055	-6.43090909091	-2.03684210526	-1.06774193548	-12.7608695652
1012	0.506	-5.01454545455	0.779876160991	0.38064516129	-8.48695652174
1013	0.5065	14.8145454545	-3.44520123839	0.38064516129	-9.9115942029
1014	0.507	-5.01454545455	-3.44520123839	3.27741935484	-15.6101449275
1015	0.5075	-3.59818181818	-3.44520123839	3.27741935484	-7.06231884058
1016	0.508	-0.765454545455	-6.26191950464	1.82903225806	-5.63768115942
1017	0.5085	-3.59818181818	7.82167182663	0.38064516129	-8.48695652174
1018	0.509	-7.84727272727	-0.628482972136	1.82903225806	-8.48695652174
1019	0.5095	-0.765454545455	-0.628482972136	4.72580645161	-12.7608695652
1020	0.51	-0.765454545455	-3.44520123839	1.82903225806	-14.1855072464
1021	0.5105	0.650909090909	-4.85356037152	-1.06774193548	-7.06231884058
1022	0.511	0.650909090909	5.00495356037	0.38064516129	-9.9115942029
1023	0.5115	0.650909090909	2.18823529412	3.27741935484	-8.48695652174
1024	0.512	-2.18181818182	-4.85356037152	1.82903225806	-9.9115942029
1025	0.5125	-0.765454545455	-6.26191950464	1.82903225806	-7.06231884058
1026	0.513	-0.765454545455	-6.26191950464	-6.86129032258	-4.21304347826
1027	0.5135	-0.765454545455	-2.03684210526	-5.41290322581	-7.06231884058
1028	0.514	-5.01454545455	-4.85356037152	0.38064516129	-8.48695652174
1029	0.5145	-12.0963636364	-2.03684210526	-1.06774193548	-8.48695652174
1030	0.515	-9.26363636364	-0.628482972136	-1.06774193548	2.91014492754
1031	0.5155	0.650909090909	0.779876160991	-1.06774193548	-8.48695652174
1032	0.516	2.06727272727	0.779876160991	6.17419354839	-8.48695652174
1033	0.5165	-0.765454545455	-0.628482972136	3.27741935484	-8.48695652174
1034	0.517	-3.59818181818	-11.8953560372	0.38064516129	-8.48695652174
1035	0.5175	9.14909090909	-7.67027863777	0.38064516129	-11.3362318841
1036	0.518	-3.59818181818	-7.67027863777	-1.06774193548	-21.3086956522
1037	0.5185	-3.59818181818	-6.26191950464	4.72580645161	-19.884057971
1038	0.519	-0.765454545455	-18.9371517028	0.38064516129	-11.3362318841
1039	0.5195	3.48363636364	-11.8953560372	0.38064516129	-12.7608695652
1040	0.52	19.0636363636	-10.486996904	-1.06774193548	-22.7333333333
1041	0.5205	-2.18181818182	-9.0786377709	3.27741935484	-14.1855072464
1042	0.521	-3.59818181818	-10.486996904	4.72580645161	-11.3362318841
1043	0.5215	-5.01454545455	-10.486996904	-1.06774193548	-12.7608695652
1044	0.522	-2.18181818182	-14.7120743034	1.82903225806	-11.3362318841
1045	0.5225	-2.18181818182	-9.0786377709	0.38064516129	-11.3362318841
1046	0.523	-5.01454545455	-7.67027863777	1.82903225806	-8.48695652174
1047	0.5235	-2.18181818182	-6.26191950464	-6.86129032258	-11.3362318841
1048	0.524	-2.18181818182	-7.67027863777	-8.30967741935	-15.6101449275
1049	0.5245	-0.765454545455	-0.628482972136	-1.06774193548	-11.3362318841
1050	0.525	-2.18181818182	-10.486996904	0.38064516129	-11.3362318841
1051	0.5255	-7.84727272727	-14.7120743034	1.82903225806	-11.3362318841
1052	0.526	9.14909090909	-10.486996904	6.17419354839	-12.7608695652
1053	0.5265	-0.765454545455	-6.26191950464	-6.86129032258	-21.3086956522
1054	0.527	-2.18181818182	-6.26191950464	-3.96451612903	-11.3362318841
1055	0.5275	-2.18181818182	-14.7120743034	0.38064516129	-11.3362318841
1056	0.528	-0.765454545455	-4.85356037152	3.27741935484	-11.3362318841
1057	0.5285	16.2309090909	-6.26191950464	-1.06774193548	-11.3362318841
1058	0.529	-5.01454545455	-4.85356037152	-1.06774193548	-18.4594202899
1059	0.5295	-2.18181818182	-0.628482972136	-3.96451612903	-9.9115942029
1060	0.53	0.650909090909	-2.03684210526	7.62258064516	-11.3362318841
1061	0.5305	-0.765454545455	0.779876160991	-1.06774193548	-8.48695652174
1062	0.531	2.06727272727	-4.85356037152	-1.06774193548	-11.3362318841
1063	0.5315	-6.43090909091	-4.85356037152	0.38064516129	-9.9115942029
1064	0.532	0.650909090909	-0.628482972136	-1.06774193548	5.75942028986
1065	0.5325	-0.765454545455	-2.03684210526	16.3129032258	-8.48695652174
1066	0.533	0.650909090909	16.2718266254	0.38064516129	-12.7608695652
1067	0.5335	-3.59818181818	5.00495356037	0.38064516129	-9.9115942029
1068	0.534	16.2309090909	2.18823529412	-1.06774193548	-12.7608695652
1069	0.5345	-2.18181818182	5.00495356037	-1.06774193548	2.91014492754
1070	0.535	-0.765454545455	3.59659442724	-1.06774193548	-8.48695652174
1071	0.5355	-2.18181818182	2.18823529412	7.62258064516	-9.9115942029
1072	0.536	-2.18181818182	-3.44520123839	0.38064516129	-9.9115942029
1073	0.5365	0.650909090909	-2.03684210526	1.82903225806	-12.7608695652
1074	0.537	21.8963636364	-0.628482972136	3.27741935484	-12.7608695652
1075	0.5375	-0.765454545455	0.779876160991	-6.86129032258	-8.48695652174
1076	0.538	-3.59818181818	-2.03684210526	-3.96451612903	-8.48695652174
1077	0.5385	-2.18181818182	-6.26191950464	-5.41290322581	-7.06231884058
1078	0.539	0.650909090909	-4.85356037152	3.27741935484	-11.3362318841
1079	0.5395	-0.765454545455	-6.26191950464	1.82903225806	-7.06231884058
1080	0.54	-5.01454545455	-6.26191950464	-3.96451612903	-1.36376811594
1081	0.5405	-5.01454545455	-6.26191950464	9.07096774194	-11.3362318841
1082	0.541	-2.18181818182	-7.67027863777	4.72580645161	-7.06231884058
1083	0.5415	3.48363636364	-7.67027863777	0.38064516129	-11.3362318841
1084	0.542	3.48363636364	-4.85356037152	1.82903225806	-7.06231884058
1085	0.5425	-5.01454545455	-3.44520123839	1.82903225806	-8.48695652174
1086	0.543	3.48363636364	-4.85356037152	4.72580645161	-8.48695652174
1087	0.5435	4.9	-4.85356037152	0.38064516129	-9.9115942029
1088	0.544	4.9	13.4551083591	0.38064516129	-9.9115942029
1089	0.5445	10.5654545455	-6.26191950464	0.38064516129	-9.9115942029
1090	0.545	-2.18181818182	-6.26191950464	1.82903225806	-5.63768115942
1091	0.5455	0.650909090909	-4.85356037152	-8.30967741935	-12.7608695652
1092	0.546	-0.765454545455	-6.26191950464	3.27741935484	-7.06231884058
1093	0.5465	-3.59818181818	-13.3037151703	0.38064516129	-9.9115942029
1094	0.547	-3.59818181818	-10.486996904	1.82903225806	-8.48695652174
1095	0.5475	-0.765454545455	-6.26191950464	-1.06774193548	-9.9115942029
1096	0.548	-13.5127272727	-6.26191950464	1.82903225806	4.3347826087
1097	0.5485	-5.01454545455	-9.0786377709	14.864516129	-12.7608695652
1098	0.549	-7.84727272727	-14.7120743034	0.38064516129	-8.48695652174
1099	0.5495	-3.59818181818	0.779876160991	1.82903225806	-7.06231884058
1100	0.55	-7.84727272727	-7.67027863777	-1.06774193548	-5.63768115942
1101	0.5505	-9.26363636364	-7.67027863777	3.27741935484	-2.7884057971
1102	0.551	-0.765454545455	-10.486996904	-11.2064516129	-11.3362318841
1103	0.5515	-2.18181818182	-10.486996904	-8.30967741935	-14.1855072464
1104	0.552	-2.18181818182	2.18823529412	0.38064516129	-8.48695652174
1105	0.5525	-6.43090909091	-13.3037151703	0.38064516129	-7.06231884058
1106	0.553	0.650909090909	-11.8953560372	0.38064516129	-7.06231884058
1107	0.5535	-2.18181818182	-10.486996904	-1.06774193548	-15.6101449275
1108	0.554	-2.18181818182	-11.8953560372	-8.30967741935	-19.884057971
1109	0.5545	-2.18181818182	-10.486996904	-6.86129032258	-9.9115942029
1110	0.555	-0.765454545455	10.6383900929	-1.06774193548	-9.9115942029
1111	0.5555	2.06727272727	-6.26191950464	0.38064516129	-11.3362318841
1112	0.556	-5.01454545455	-6.26191950464	1.82903225806	-17.0347826087
1113	0.5565	-0.765454545455	-2.03684210526	-3.96451612903	-11.3362318841
1114	0.557	-0.765454545455	-2.03684210526	-2.51612903226	-5.63768115942
1115	0.5575	-3.59818181818	-0.628482972136	-5.41290322581	-7.06231884058
1116	0.558	-2.18181818182	-3.44520123839	1.82903225806	-7.06231884058
1117	0.5585	-16.3454545455	-7.67027863777	-1.06774193548	-9.9115942029
1118	0.559	-10.68	-7.67027863777	-1.06774193548	2.91014492754
1119	0.5595	-2.18181818182	-6.26191950464	-3.96451612903	-9.9115942029
1120	0.56	-0.765454545455	-4.85356037152	-1.06774193548	-11.3362318841
1121	0.5605	0.650909090909	10.6383900929	1.82903225806	-9.9115942029
1122	0.561	-14.9290909091	-2.03684210526	1.82903225806	-9.9115942029
1123	0.5615	-3.59818181818	-4.85356037152	1.82903225806	-8.48695652174
1124	0.562	-0.765454545455	-2.03684210526	-2.51612903226	-7.06231884058
1125	0.5625	-0.765454545455	0.779876160991	0.38064516129	-11.3362318841
1126	0.563	-0.765454545455	-2.03684210526	0.38064516129	-9.9115942029
1127	0.5635	0.650909090909	-9.0786377709	0.38064516129	-8.48695652174
1128	0.564	9.14909090909	-6.26191950464	1.82903225806	-8.48695652174
1129	0.5645	0.650909090909	-6.26191950464	0.38064516129	-12.7608695652
1130	0.565	-2.18181818182	-10.486996904	7.62258064516	-7.06231884058
1131	0.5655	-0.765454545455	-10.486996904	16.3129032258	-9.9115942029
1132	0.566	-0.765454545455	-21.753869969	1.82903225806	-9.9115942029
1133	0.5665	-2.18181818182	-33.0207430341	0.38064516129	-7.06231884058
1134	0.567	11.9818181818	-35.8374613003	0.38064516129	-8.48695652174
1135	0.5675	-0.765454545455	-38.6541795666	6.17419354839	-9.9115942029
1136	0.568	-0.765454545455	-41.4708978328	9.07096774194	-7.06231884058
1137	0.5685	-2.18181818182	-44.2876160991	-1.06774193548	-7.06231884058
1138	0.569	-5.01454545455	-47.1043343653	-1.06774193548	-7.06231884058
1139	0.5695	4.9	-49.9210526316	0.38064516129	-7.06231884058
1140	0.57	-2.18181818182	-52.7377708978	-5.41290322581	-9.9115942029
1141	0.5705	-0.765454545455	-49.9210526316	6.17419354839	-4.21304347826
1142	0.571	-2.18181818182	-59.7795665635	1.82903225806	-8.48695652174
1143	0.5715	0.650909090909	-54.146130031	0.38064516129	-5.63768115942
1144	0.572	4.9	-55.5544891641	0.38064516129	-5.63768115942
1145	0.5725	-6.43090909091	-56.9628482972	-1.06774193548	2.91014492754
1146	0.573	-5.01454545455	-58.3712074303	3.27741935484	-5.63768115942
1147	0.5735	-2.18181818182	-62.5962848297	-1.06774193548	-5.63768115942
1148	0.574	-0.765454545455	-48.5126934985	3.27741935484	-5.63768115942
1149	0.5745	-0.765454545455	-58.3712074303	-1.06774193548	-4.21304347826
1150	0.575	16.2309090909	-58.3712074303	0.38064516129	-7.06231884058
1151	0.5755	-0.765454545455	-54.146130031	-1.06774193548	-14.1855072464
1152	0.576	0.650909090909	-52.7377708978	-8.30967741935	-2.7884057971
1153	0.5765	-0.765454545455	-52.7377708978	-6.86129032258	-2.7884057971
1154	0.577	-0.765454545455	-51.3294117647	3.27741935484	-5.63768115942
1155	0.5775	17.6472727273	-49.9210526316	-1.06774193548	-11.3362318841
1156	0.578	-2.18181818182	-49.9210526316	-2.51612903226	-14.1855072464
1157	0.5785	-2.18181818182	-54.146130031	1.82903225806	-12.7608695652
1158	0.579	-2.18181818182	-58.3712074303	0.38064516129	-4.21304347826
1159	0.5795	-2.18181818182	-64.0046439628	0.38064516129	-4.21304347826
1160	0.58	-3.59818181818	-55.5544891641	3.27741935484	-2.7884057971
1161	0.5805	0.650909090909	-52.7377708978	3.27741935484	-7.06231884058
1162	0.581	-0.765454545455	-54.146130031	0.38064516129	-11.3362318841
1163	0.5815	-3.59818181818	-55.5544891641	1.82903225806	-4.21304347826
1164	0.582	0.650909090909	-61.1879256966	4.72580645161	-4.21304347826
1165	0.5825	6.31636363636	-49.9210526316	0.38064516129	-4.21304347826
1166	0.583	10.5654545455	-49.9210526316	1.82903225806	-5.63768115942
1167	0.5835	-2.18181818182	-51.3294117647	-5.41290322581	-2.7884057971
1168	0.584	0.650909090909	-55.5544891641	-3.96451612903	-1.36376811594
1169	0.5845	-2.18181818182	-65.413003096	0.38064516129	-5.63768115942
1170	0.585	2.06727272727	-48.5126934985	1.82903225806	-4.21304347826
1171	0.5855	16.2309090909	-45.6959752322	-1.06774193548	-7.06231884058
1172	0.586	-6.43090909091	-44.2876160991	1.82903225806	-14.1855072464
1173	0.5865	-0.765454545455	-49.9210526316	-9.75806451613	-4.21304347826
1174	0.587	-0.765454545455	-49.9210526316	0.38064516129	-2.7884057971
1175	0.5875	-0.765454545455	-48.5126934985	0.38064516129	-4.21304347826
1176	0.588	3.48363636364	-44.2876160991	0.38064516129	-4.21304347826
1177	0.5885	-6.43090909091	-42.8792569659	4.72580645161	-4.21304347826
1178	0.589	0.650909090909	-40.0625386997	3.27741935484	1.48550724638
1179	0.5895	-0.765454545455	-40.0625386997	-1.06774193548	-4.21304347826
1180	0.59	7.73272727273	-37.2458204334	0.38064516129	-4.21304347826
1181	0.5905	-9.26363636364	-34.4291021672	4.72580645161	-8.48695652174
1182	0.591	27.5618181818	-35.8374613003	0.38064516129	-4.21304347826
1183	0.5915	4.9	-34.4291021672	-8.30967741935	-11.3362318841
1184	0.592	3.48363636364	-37.2458204334	-8.30967741935	-2.7884057971
1185	0.5925	-0.765454545455	-44.2876160991	1.82903225806	-2.7884057971
1186	0.593	-2.18181818182	-35.8374613003	3.27741935484	-2.7884057971
1187	0.5935	-7.84727272727	-42.8792569659	1.82903225806	-4.21304347826
1188	0.594	-5.01454545455	-41.4708978328	1.82903225806	-8.48695652174
1189	0.5945	-5.01454545455	-35.8374613003	6.17419354839	-2.7884057971
1190	0.595	-5.01454545455	-38.6541795666	0.38064516129	-4.21304347826
1191	0.5955	-6.43090909091	-45.6959752322	-1.06774193548	-4.21304347826
1192	0.596	-10.68	-40.0625386997	1.82903225806	-2.7884057971
1193	0.5965	-3.59818181818	-40.0625386997	-1.06774193548	-8.48695652174
1194	0.597	-2.18181818182	-42.8792569659	-3.96451612903	-2.7884057971
1195	0.5975	-2.18181818182	-44.2876160991	0.38064516129	-1.36376811594
1196	0.598	-2.18181818182	-45.6959752322	1.82903225806	-1.36376811594
1197	0.5985	0.650909090909	-41.4708978328	0.38064516129	-1.36376811594
1198	0.599	14.8145454545	-40.0625386997	1.82903225806	-4.21304347826
1199	0.5995	-0.765454545455	-37.2458204334	-1.06774193548	-12.7608695652
1200	0.6	0.650909090909	-35.8374613003	-3.96451612903	-1.36376811594
1201	0.6005	0.650909090909	-44.2876160991	-1.06774193548	-4.21304347826
1202	0.601	2.06727272727	-42.8792569659	0.38064516129	-4.21304347826
1203	0.6015	19.0636363636	-38.6541795666	3.27741935484	-5.63768115942
1204	0.602	-0.765454545455	-40.0625386997	0.38064516129	-14.1855072464
1205	0.6025	-0.765454545455	-41.4708978328	-1.06774193548	-9.9115942029
1206	0.603	0.650909090909	-37.2458204334	1.82903225806	-5.63768115942
1207	0.6035	2.06727272727	-48.5126934985	1.82903225806	-2.7884057971
1208	0.604	3.48363636364	-40.0625386997	-1.06774193548	-5.63768115942
1209	0.6045	16.2309090909	-45.6959752322	0.38064516129	-7.06231884058
1210	0.605	-0.765454545455	-47.1043343653	14.864516129	-4.21304347826
1211	0.6055	-2.18181818182	-45.6959752322	17.7612903226	-2.7884057971
1212	0.606	-0.765454545455	-47.1043343653	1.82903225806	-4.21304347826
1213	0.6065	-2.18181818182	-48.5126934985	1.82903225806	-7.06231884058
1214	0.607	9.14909090909	-44.2876160991	-1.06774193548	-4.21304347826
1215	0.6075	-2.18181818182	-45.6959752322	1.82903225806	-8.48695652174
1216	0.608	-3.59818181818	-44.2876160991	6.17419354839	-2.7884057971
1217	0.6085	-0.765454545455	-34.4291021672	1.82903225806	-2.7884057971
1218	0.609	0.650909090909	-33.0207430341	1.82903225806	-4.21304347826
1219	0.6095	-10.68	-34.4291021672	1.82903225806	0.0608695652174
1220	0.61	0.650909090909	-31.6123839009	1.82903225806	0.0608695652174
1221	0.6105	0.650909090909	-33.0207430341	13.4161290323	-5.63768115942
1222	0.611	-0.765454545455	-30.2040247678	0.38064516129	-5.63768115942
1223	0.6115	0.650909090909	-23.1622291022	0.38064516129	-1.36376811594
1224	0.612	-13.5127272727	-38.6541795666	0.38064516129	-1.36376811594
1225	0.6125	-10.68	-37.2458204334	0.38064516129	4.3347826087
1226	0.613	-2.18181818182	-37.2458204334	3.27741935484	14.3072463768
1227	0.6135	-3.59818181818	-38.6541795666	20.6580645161	-2.7884057971
1228	0.614	-2.18181818182	-44.2876160991	-1.06774193548	-1.36376811594
1229	0.6145	-3.59818181818	-33.0207430341	4.72580645161	-2.7884057971
1230	0.615	-5.01454545455	-30.2040247678	0.38064516129	0.0608695652174
1231	0.6155	0.650909090909	-33.0207430341	3.27741935484	1.48550724638
1232	0.616	-2.18181818182	-31.6123839009	7.62258064516	-9.9115942029
1233	0.6165	-0.765454545455	-24.5705882353	1.82903225806	-2.7884057971
1234	0.617	-6.43090909091	-38.6541795666	0.38064516129	-1.36376811594
1235	0.6175	-13.5127272727	-42.8792569659	3.27741935484	-4.21304347826
1236	0.618	0.650909090909	-33.0207430341	0.38064516129	1.48550724638
1237	0.6185	0.650909090909	-28.7956656347	3.27741935484	-1.36376811594
1238	0.619	0.650909090909	-25.9789473684	11.9677419355	-2.7884057971
1239	0.6195	-0.765454545455	-23.1622291022	1.82903225806	-2.7884057971
1240	0.62	-0.765454545455	-37.2458204334	0.38064516129	-2.7884057971
1241	0.6205	-6.43090909091	-33.0207430341	0.38064516129	-1.36376811594
1242	0.621	-0.765454545455	-33.0207430341	1.82903225806	11.4579710145
1243	0.6215	3.48363636364	-33.0207430341	4.72580645161	-4.21304347826
1244	0.622	4.9	-42.8792569659	-1.06774193548	-5.63768115942
1245	0.6225	2.06727272727	-34.4291021672	1.82903225806	-1.36376811594
1246	0.623	-7.84727272727	-31.6123839009	0.38064516129	-1.36376811594
1247	0.6235	-0.765454545455	-35.8374613003	4.72580645161	8.60869565217
1248	0.624	7.73272727273	-34.4291021672	16.3129032258	-8.48695652174
1249	0.6245	0.650909090909	-33.0207430341	0.38064516129	-4.21304347826
1250	0.625	-6.43090909091	-28.7956656347	1.82903225806	-2.7884057971
1251	0.6255	-7.84727272727	-35.8374613003	1.82903225806	-1.36376811594
1252	0.626	-5.01454545455	-34.4291021672	0.38064516129	-1.36376811594
1253	0.6265	-7.84727272727	-35.8374613003	0.38064516129	-8.48695652174
1254	0.627	-6.43090909091	-33.0207430341	14.864516129	-4.21304347826
1255	0.6275	-5.01454545455	-37.2458204334	22.1064516129	-2.7884057971
1256	0.628	-2.18181818182	-42.8792569659	1.82903225806	-2.7884057971
1257	0.6285	0.650909090909	-41.4708978328	0.38064516129	-1.36376811594
1258	0.629	19.0636363636	-33.0207430341	0.38064516129	-1.36376811594
1259	0.6295	-3.59818181818	-33.0207430341	16.3129032258	-1.36376811594
1260	0.63	-3.59818181818	-33.0207430341	17.7612903226	-1.36376811594
1261	0.6305	-0.765454545455	-45.6959752322	0.38064516129	-2.7884057971
1262	0.631	3.48363636364	-44.2876160991	1.82903225806	-1.36376811594
1263	0.6315	14.8145454545	-34.4291021672	1.82903225806	-2.7884057971
1264	0.632	-5.01454545455	-31.6123839009	3.27741935484	2.91014492754
1265	0.6325	-2.18181818182	-28.7956656347	-3.96451612903	-2.7884057971
1266	0.633	-5.01454545455	-30.2040247678	-5.41290322581	-5.63768115942
1267	0.6335	-3.59818181818	-11.8953560372	0.38064516129	-2.7884057971
1268	0.634	-0.765454545455	-28.7956656347	0.38064516129	-5.63768115942
1269	0.6345	-3.59818181818	-27.3873065015	1.82903225806	-11.3362318841
1270	0.635	-3.59818181818	-27.3873065015	-11.2064516129	-9.9115942029
1271	0.6355	-2.18181818182	-28.7956656347	-1.06774193548	-4.21304347826
1272	0.636	0.650909090909	-35.8374613003	4.72580645161	-5.63768115942
1273	0.6365	2.06727272727	-27.3873065015	0.38064516129	-8.48695652174
1274	0.637	14.8145454545	-28.7956656347	3.27741935484	-7.06231884058
1275	0.6375	-2.18181818182	-27.3873065015	4.72580645161	-11.3362318841
1276	0.638	-2.18181818182	-28.7956656347	1.82903225806	-5.63768115942
1277	0.6385	0.650909090909	-28.7956656347	3.27741935484	-7.06231884058
1278	0.639	2.06727272727	-35.8374613003	3.27741935484	-7.06231884058
1279	0.6395	0.650909090909	-35.8374613003	1.82903225806	-5.63768115942
1280	0.64	-2.18181818182	-27.3873065015	1.82903225806	-11.3362318841
1281	0.6405	-2.18181818182	-31.6123839009	-2.51612903226	-12.7608695652
1282	0.641	-3.59818181818	-37.2458204334	-3.96451612903	-7.06231884058
1283	0.6415	-3.59818181818	-25.9789473684	0.38064516129	-7.06231884058
1284	0.642	-10.68	-27.3873065015	3.27741935484	-5.63768115942
1285	0.6425	-6.43090909091	-27.3873065015	1.82903225806	-9.9115942029
1286	0.643	-5.01454545455	-25.9789473684	9.07096774194	-8.48695652174
1287	0.6435	-6.43090909091	-28.7956656347	-1.06774193548	-7.06231884058
1288	0.644	-5.01454545455	-18.9371517028	3.27741935484	-7.06231884058
1289	0.6445	-6.43090909091	-28.7956656347	3.27741935484	-7.06231884058
1290	0.645	-9.26363636364	-28.7956656347	3.27741935484	-4.21304347826
1291	0.6455	-5.01454545455	-30.2040247678	3.27741935484	12.8826086957
1292	0.646	-5.01454545455	-25.9789473684	17.7612903226	0.0608695652174
1293	0.6465	-0.765454545455	-30.2040247678	4.72580645161	-4.21304347826
1294	0.647	-0.765454545455	-27.3873065015	3.27741935484	-2.7884057971
1295	0.6475	-9.26363636364	-23.1622291022	1.82903225806	-1.36376811594
1296	0.648	-7.84727272727	-21.753869969	3.27741935484	-1.36376811594
1297	0.6485	0.650909090909	-18.9371517028	16.3129032258	-4.21304347826
1298	0.649	-0.765454545455	-20.3455108359	1.82903225806	-4.21304347826
1299	0.6495	-2.18181818182	-20.3455108359	0.38064516129	-4.21304347826
1300	0.65	-2.18181818182	-20.3455108359	-1.06774193548	-1.36376811594
1301	0.6505	-9.26363636364	-18.9371517028	-1.06774193548	11.4579710145
1302	0.651	-2.18181818182	-18.9371517028	-1.06774193548	12.8826086957
1303	0.6515	-2.18181818182	-16.1204334365	-8.30967741935	-5.63768115942
1304	0.652	-3.59818181818	-18.9371517028	-6.86129032258	-1.36376811594
1305	0.6525	-3.59818181818	-4.85356037152	0.38064516129	-2.7884057971
1306	0.653	-12.0963636364	-23.1622291022	3.27741935484	-1.36376811594
1307	0.6535	-2.18181818182	-27.3873065015	1.82903225806	-15.6101449275
1308	0.654	-0.765454545455	-27.3873065015	-11.2064516129	-7.06231884058
1309	0.6545	-0.765454545455	-25.9789473684	-1.06774193548	-4.21304347826
1310	0.655	-2.18181818182	-23.1622291022	0.38064516129	-4.21304347826
1311	0.6555	-13.5127272727	-30.2040247678	0.38064516129	-4.21304347826
1312	0.656	3.48363636364	-27.3873065015	-1.06774193548	-9.9115942029
1313	0.6565	-3.59818181818	-28.7956656347	1.82903225806	-11.3362318841
1314	0.657	-2.18181818182	-31.6123839009	-1.06774193548	-7.06231884058
1315	0.6575	2.06727272727	-28.7956656347	0.38064516129	-7.06231884058
1316	0.658	0.650909090909	-20.3455108359	-1.06774193548	-7.06231884058
1317	0.6585	17.6472727273	-23.1622291022	0.38064516129	-8.48695652174
1318	0.659	-3.59818181818	-24.5705882353	6.17419354839	-9.9115942029
1319	0.6595	-3.59818181818	-23.1622291022	4.72580645161	-7.06231884058
1320	0.66	-2.18181818182	-34.4291021672	0.38064516129	-2.7884057971
1321	0.6605	0.650909090909	-27.3873065015	1.82903225806	-2.7884057971
1322	0.661	4.9	-18.9371517028	-2.51612903226	0.0608695652174
1323	0.6615	-5.01454545455	-18.9371517028	3.27741935484	-5.63768115942
1324	0.662	-0.765454545455	-20.3455108359	1.82903225806	-2.7884057971
1325	0.6625	-3.59818181818	-25.9789473684	0.38064516129	0.0608695652174
1326	0.663	-3.59818181818	-13.3037151703	1.82903225806	-4.21304347826
1327	0.6635	-9.26363636364	-28.7956656347	1.82903225806	-1.36376811594
1328	0.664	7.73272727273	-33.0207430341	0.38064516129	-7.06231884058
1329	0.6645	-3.59818181818	-30.2040247678	0.38064516129	-9.9115942029
1330	0.665	-2.18181818182	-33.0207430341	-6.86129032258	-1.36376811594
1331	0.6655	0.650909090909	-33.0207430341	1.82903225806	-1.36376811594
1332	0.666	-5.01454545455	-24.5705882353	3.27741935484	-2.7884057971
1333	0.6665	13.3981818182	-25.9789473684	-1.06774193548	-12.7608695652
1334	0.667	-2.18181818182	-24.5705882353	4.72580645161	-12.7608695652
1335	0.6675	-0.765454545455	-25.9789473684	4.72580645161	-11.3362318841
1336	0.668	-2.18181818182	-38.6541795666	-1.06774193548	-4.21304347826
1337	0.6685	0.650909090909	-35.8374613003	1.82903225806	-5.63768115942
1338	0.669	3.48363636364	-38.6541795666	1.82903225806	-5.63768115942
1339	0.6695	-0.765454545455	-30.2040247678	-1.06774193548	-14.1855072464
1340	0.67	-2.18181818182	-33.0207430341	-9.75806451613	-9.9115942029
1341	0.6705	-2.18181818182	-40.0625386997	3.27741935484	-2.7884057971
1342	0.671	0.650909090909	-34.4291021672	1.82903225806	-4.21304347826
1343	0.6715	-0.765454545455	-31.6123839009	1.82903225806	-4.21304347826
1344	0.672	16.2309090909	-25.9789473684	1.82903225806	-15.6101449275
1345	0.6725	-2.18181818182	-23.1622291022	20.6580645161	-4.21304347826
1346	0.673	-2.18181818182	-18.9371517028	17.7612903226	-7.06231884058
1347	0.6735	0.650909090909	-28.7956656347	0.38064516129	-9.9115942029
1348	0.674	3.48363636364	-16.1204334365	3.27741935484	-9.9115942029
1349	0.6745	17.6472727273	-17.5287925697	1.82903225806	-7.06231884058
1350	0.675	-2.18181818182	-20.3455108359	3.27741935484	-12.7608695652
1351	0.6755	-3.59818181818	-24.5705882353	0.38064516129	-8.48695652174
1352	0.676	-2.18181818182	-33.0207430341	-1.06774193548	-4.21304347826
1353	0.6765	0.650909090909	-20.3455108359	0.38064516129	-5.63768115942
1354	0.677	-5.01454545455	-21.753869969	3.27741935484	-4.21304347826
1355	0.6775	3.48363636364	-20.3455108359	1.82903225806	-2.7884057971
1356	0.678	7.73272727273	-17.5287925697	-6.86129032258	-2.7884057971
1357	0.6785	2.06727272727	-14.7120743034	1.82903225806	-5.63768115942
1358	0.679	0.650909090909	-20.3455108359	0.38064516129	-4.21304347826
1359	0.6795	2.06727272727	-11.8953560372	0.38064516129	-4.21304347826
1360	0.68	-6.43090909091	-16.1204334365	0.38064516129	-4.21304347826
1361	0.6805	-5.01454545455	-11.8953560372	11.9677419355	-2.7884057971
1362	0.681	-6.43090909091	-10.486996904	7.62258064516	-1.36376811594
1363	0.6815	-6.43090909091	-24.5705882353	-1.06774193548	0.0608695652174
1364	0.682	-2.18181818182	-16.1204334365	0.38064516129	-1.36376811594
1365	0.6825	7.73272727273	-18.9371517028	1.82903225806	-7.06231884058
1366	0.683	-5.01454545455	-21.753869969	3.27741935484	1.48550724638
1367	0.6835	-3.59818181818	-20.3455108359	9.07096774194	-2.7884057971
1368	0.684	-0.765454545455	-30.2040247678	0.38064516129	-2.7884057971
1369	0.6845	0.650909090909	-27.3873065015	3.27741935484	-2.7884057971
1370	0.685	14.8145454545	-20.3455108359	0.38064516129	-8.48695652174
1371	0.6855	-5.01454545455	-21.753869969	0.38064516129	-14.1855072464
1372	0.686	-0.765454545455	-14.7120743034	-9.75806451613	-2.7884057971
1373	0.6865	-0.765454545455	-28.7956656347	0.38064516129	-2.7884057971
1374	0.687	0.650909090909	-24.5705882353	1.82903225806	-2.7884057971
1375	0.6875	4.9	-21.753869969	1.82903225806	-5.63768115942
1376	0.688	-2.18181818182	-20.3455108359	3.27741935484	-5.63768115942
1377	0.6885	-3.59818181818	-17.5287925697	3.27741935484	-2.7884057971
1378	0.689	-3.59818181818	-20.3455108359	-1.06774193548	-4.21304347826
1379	0.6895	-0.765454545455	-25.9789473684	-1.06774193548	-2.7884057971
1380	0.69	-2.18181818182	-20.3455108359	1.82903225806	-4.21304347826
1381	0.6905	-2.18181818182	-18.9371517028	-1.06774193548	-4.21304347826
1382	0.691	-0.765454545455	-20.3455108359	0.38064516129	8.60869565217
1383	0.6915	-3.59818181818	-17.5287925697	-3.96451612903	-4.21304347826
1384	0.692	-2.18181818182	-16.1204334365	-5.41290322581	-5.63768115942
1385	0.6925	-5.01454545455	-11.8953560372	0.38064516129	-5.63768115942
1386	0.693	-12.0963636364	-13.3037151703	0.38064516129	-1.36376811594
1387	0.6935	0.650909090909	-16.1204334365	4.72580645161	7.18405797101
1388	0.694	-3.59818181818	-13.3037151703	16.3129032258	-7.06231884058
1389	0.6945	-2.18181818182	-13.3037151703	-3.96451612903	-4.21304347826
1390	0.695	-5.01454545455	-13.3037151703	1.82903225806	-5.63768115942
1391	0.6955	-9.26363636364	-14.7120743034	1.82903225806	-1.36376811594
1392	0.696	10.5654545455	-16.1204334365	0.38064516129	-5.63768115942
1393	0.6965	-5.01454545455	-13.3037151703	-2.51612903226	15.731884058
1394	0.697	-3.59818181818	-11.8953560372	-6.86129032258	-4.21304347826
1395	0.6975	0.650909090909	-13.3037151703	-5.41290322581	-4.21304347826
1396	0.698	-3.59818181818	-17.5287925697	3.27741935484	-1.36376811594
1397	0.6985	-14.9290909091	-10.486996904	1.82903225806	-1.36376811594
1398	0.699	-2.18181818182	-10.486996904	1.82903225806	4.3347826087
1399	0.6995	-2.18181818182	-6.26191950464	3.27741935484	-2.7884057971
1400	0.7	-2.18181818182	-6.26191950464	1.82903225806	-4.21304347826
1401	0.7005	-3.59818181818	-10.486996904	0.38064516129	-2.7884057971
1402	0.701	3.48363636364	-11.8953560372	0.38064516129	-2.7884057971
1403	0.7015	-3.59818181818	-13.3037151703	-2.51612903226	4.3347826087
1404	0.702	2.06727272727	-11.8953560372	4.72580645161	-1.36376811594
1405	0.7025	0.650909090909	-13.3037151703	3.27741935484	-2.7884057971
1406	0.703	-2.18181818182	-17.5287925697	-5.41290322581	-1.36376811594
1407	0.7035	-9.26363636364	-13.3037151703	-1.06774193548	-1.36376811594
1408	0.704	4.9	-13.3037151703	-1.06774193548	-4.21304347826
1409	0.7045	-2.18181818182	-14.7120743034	1.82903225806	-7.06231884058
1410	0.705	-2.18181818182	-10.486996904	4.72580645161	-4.21304347826
1411	0.7055	-2.18181818182	-16.1204334365	-1.06774193548	-5.63768115942
1412	0.706	-3.59818181818	-0.628482972136	-1.06774193548	-5.63768115942
1413	0.7065	-7.84727272727	-11.8953560372	0.38064516129	-4.21304347826
1414	0.707	-14.9290909091	-11.8953560372	-1.06774193548	11.4579710145
1415	0.7075	-2.18181818182	-13.3037151703	-2.51612903226	17.1565217391
1416	0.708	-2.18181818182	-10.486996904	0.38064516129	-2.7884057971
1417	0.7085	0.650909090909	-9.0786377709	-1.06774193548	-4.21304347826
1418	0.709	-0.765454545455	-9.0786377709	3.27741935484	-4.21304347826
1419	0.7095	-6.43090909091	-9.0786377709	1.82903225806	-2.7884057971
1420	0.71	0.650909090909	-7.67027863777	-9.75806451613	-8.48695652174
1421	0.7105	-2.18181818182	-10.486996904	3.27741935484	-2.7884057971
1422	0.711	-2.18181818182	-21.753869969	1.82903225806	-4.21304347826
1423	0.7115	-0.765454545455	-11.8953560372	0.38064516129	-4.21304347826
1424	0.712	4.9	-9.0786377709	-2.51612903226	-2.7884057971
1425	0.7125	-0.765454545455	-16.1204334365	3.27741935484	-7.06231884058
1426	0.713	4.9	-13.3037151703	13.4161290323	-1.36376811594
1427	0.7135	4.9	-16.1204334365	-1.06774193548	-1.36376811594
1428	0.714	3.48363636364	-13.3037151703	1.82903225806	-1.36376811594
1429	0.7145	3.48363636364	-10.486996904	0.38064516129	-2.7884057971
1430	0.715	0.650909090909	-10.486996904	1.82903225806	-12.7608695652
1431	0.7155	-3.59818181818	-10.486996904	0.38064516129	-8.48695652174
1432	0.716	-5.01454545455	-10.486996904	-11.2064516129	-1.36376811594
1433	0.7165	-5.01454545455	2.18823529412	1.82903225806	-4.21304347826
1434	0.717	-5.01454545455	-13.3037151703	3.27741935484	-2.7884057971
1435	0.7175	11.9818181818	-11.8953560372	0.38064516129	-2.7884057971
1436	0.718	-3.59818181818	-11.8953560372	-9.75806451613	-5.63768115942
1437	0.7185	-2.18181818182	-13.3037151703	-5.41290322581	-4.21304347826
1438	0.719	-0.765454545455	-21.753869969	1.82903225806	-1.36376811594
1439	0.7195	0.650909090909	-10.486996904	0.38064516129	-4.21304347826
1440	0.72	10.5654545455	-11.8953560372	3.27741935484	-4.21304347826
1441	0.7205	-5.01454545455	-16.1204334365	4.72580645161	0.0608695652174
1442	0.721	-0.765454545455	-13.3037151703	1.82903225806	7.18405797101
1443	0.7215	-2.18181818182	-17.5287925697	3.27741935484	-4.21304347826
1444	0.722	-5.01454545455	-0.628482972136	1.82903225806	-5.63768115942
1445	0.7225	-2.18181818182	5.00495356037	1.82903225806	-5.63768115942
1446	0.723	-12.0963636364	-10.486996904	0.38064516129	8.60869565217
1447	0.7235	-3.59818181818	-11.8953560372	-2.51612903226	7.18405797101
1448	0.724	-2.18181818182	-6.26191950464	0.38064516129	-5.63768115942
1449	0.7245	-2.18181818182	-10.486996904	0.38064516129	-5.63768115942
1450	0.725	-9.26363636364	-16.1204334365	1.82903225806	-4.21304347826
1451	0.7255	-2.18181818182	-13.3037151703	-1.06774193548	-2.7884057971
1452	0.726	-2.18181818182	-10.486996904	0.38064516129	4.3347826087
1453	0.7265	-0.765454545455	-7.67027863777	0.38064516129	-5.63768115942
1454	0.727	-0.765454545455	-7.67027863777	3.27741935484	-5.63768115942
1455	0.7275	-2.18181818182	-13.3037151703	0.38064516129	-5.63768115942
1456	0.728	-6.43090909091	-6.26191950464	0.38064516129	-4.21304347826
1457	0.7285	-7.84727272727	-11.8953560372	3.27741935484	0.0608695652174
1458	0.729	-3.59818181818	-7.67027863777	4.72580645161	-5.63768115942
1459	0.7295	-3.59818181818	-3.44520123839	-1.06774193548	-4.21304347826
1460	0.73	-0.765454545455	9.23003095975	0.38064516129	-4.21304347826
1461	0.7305	-2.18181818182	0.779876160991	-1.06774193548	-7.06231884058
1462	0.731	-2.18181818182	-7.67027863777	0.38064516129	-1.36376811594
1463	0.7315	0.650909090909	-6.26191950464	0.38064516129	-1.36376811594
1464	0.732	-0.765454545455	-6.26191950464	-1.06774193548	-2.7884057971
1465	0.7325	-0.765454545455	-0.628482972136	1.82903225806	-5.63768115942
1466	0.733	-2.18181818182	-13.3037151703	0.38064516129	-5.63768115942
1467	0.7335	-0.765454545455	-21.753869969	0.38064516129	-2.7884057971
1468	0.734	-3.59818181818	-16.1204334365	-1.06774193548	-8.48695652174
1469	0.7345	-3.59818181818	-13.3037151703	-3.96451612903	-14.1855072464
1470	0.735	-0.765454545455	-20.3455108359	0.38064516129	-1.36376811594
1471	0.7355	0.650909090909	-18.9371517028	1.82903225806	-1.36376811594
1472	0.736	0.650909090909	-18.9371517028	3.27741935484	-2.7884057971
1473	0.7365	14.8145454545	-11.8953560372	0.38064516129	-9.9115942029
1474	0.737	-2.18181818182	-10.486996904	16.3129032258	-4.21304347826
1475	0.7375	-2.18181818182	-10.486996904	1.82903225806	-4.21304347826
1476	0.738	-2.18181818182	0.779876160991	0.38064516129	-4.21304347826
1477	0.7385	-0.765454545455	-13.3037151703	0.38064516129	-2.7884057971
1478	0.739	-9.26363636364	-14.7120743034	1.82903225806	8.60869565217
1479	0.7395	-0.765454545455	-17.5287925697	-3.96451612903	-2.7884057971
1480	0.74	-2.18181818182	-17.5287925697	-5.41290322581	-2.7884057971
1481	0.7405	-3.59818181818	-21.753869969	-3.96451612903	-2.7884057971
1482	0.741	-10.68	-18.9371517028	1.82903225806	-2.7884057971
1483	0.7415	-5.01454545455	-20.3455108359	1.82903225806	-2.7884057971
1484	0.742	-5.01454545455	-18.9371517028	4.72580645161	1.48550724638
1485	0.7425	-2.18181818182	-20.3455108359	4.72580645161	-9.9115942029
1486	0.743	-3.59818181818	-13.3037151703	1.82903225806	-4.21304347826
1487	0.7435	-0.765454545455	-21.753869969	0.38064516129	-4.21304347826
1488	0.744	-6.43090909091	-20.3455108359	3.27741935484	-2.7884057971
1489	0.7445	-3.59818181818	-13.3037151703	0.38064516129	-1.36376811594
1490	0.745	-0.765454545455	-7.67027863777	4.72580645161	-11.3362318841
1491	0.7455	-2.18181818182	-6.26191950464	-2.51612903226	-4.21304347826
1492	0.746	-5.01454545455	-10.486996904	3.27741935484	-5.63768115942
1493	0.7465	-5.01454545455	-3.44520123839	-1.06774193548	-4.21304347826
1494	0.747	10.5654545455	-3.44520123839	0.38064516129	-5.63768115942
1495	0.7475	-2.18181818182	-2.03684210526	-1.06774193548	-15.6101449275
1496	0.748	-3.59818181818	-3.44520123839	0.38064516129	-7.06231884058
1497	0.7485	2.06727272727	-10.486996904	-5.41290322581	-7.06231884058
1498	0.749	-12.0963636364	-4.85356037152	0.38064516129	-8.48695652174
1499	0.7495	13.3981818182	-4.85356037152	1.82903225806	-5.63768115942
1500	0.75	-5.01454545455	-7.67027863777	4.72580645161	-2.7884057971
1501	0.7505	0.650909090909	-11.8953560372	14.864516129	-2.7884057971
1502	0.751	-2.18181818182	-23.1622291022	0.38064516129	-2.7884057971
1503	0.7515	3.48363636364	-23.1622291022	1.82903225806	-2.7884057971
1504	0.752	16.2309090909	-11.8953560372	3.27741935484	-2.7884057971
1505	0.7525	-3.59818181818	-10.486996904	-1.06774193548	-14.1855072464
1506	0.753	-3.59818181818	-11.8953560372	-9.75806451613	-9.9115942029
1507	0.7535	-3.59818181818	-14.7120743034	-5.41290322581	-4.21304347826
1508	0.754	-3.59818181818	-21.753869969	1.82903225806	-2.7884057971
1509	0.7545	2.06727272727	-16.1204334365	1.82903225806	-8.48695652174
1510	0.755	19.0636363636	-13.3037151703	1.82903225806	-4.21304347826
1511	0.7555	-3.59818181818	-11.8953560372	-9.75806451613	-11.3362318841
1512	0.756	-3.59818181818	-11.8953560372	-5.41290322581	-2.7884057971
1513	0.7565	-0.765454545455	3.59659442724	0.38064516129	-4.21304347826
1514	0.757	-0.765454545455	-11.8953560372	4.72580645161	-4.21304347826
1515	0.7575	20.48	-9.0786377709	3.27741935484	-7.06231884058
1516	0.758	0.650909090909	-4.85356037152	-2.51612903226	-12.7608695652
1517	0.7585	-0.765454545455	-2.03684210526	-9.75806451613	-7.06231884058
1518	0.759	0.650909090909	-13.3037151703	0.38064516129	-2.7884057971
1519	0.7595	0.650909090909	-13.3037151703	0.38064516129	-4.21304347826
1520	0.76	17.6472727273	-7.67027863777	1.82903225806	-7.06231884058
1521	0.7605	-2.18181818182	-9.0786377709	3.27741935484	-15.6101449275
1522	0.761	-2.18181818182	-9.0786377709	3.27741935484	-12.7608695652
1523	0.7615	-2.18181818182	-16.1204334365	1.82903225806	-7.06231884058
1524	0.762	-0.765454545455	-13.3037151703	1.82903225806	-5.63768115942
1525	0.7625	-3.59818181818	-7.67027863777	0.38064516129	-7.06231884058
1526	0.763	3.48363636364	-4.85356037152	1.82903225806	-8.48695652174
1527	0.7635	4.9	-2.03684210526	1.82903225806	-12.7608695652
1528	0.764	3.48363636364	-4.85356037152	-5.41290322581	-5.63768115942
1529	0.7645	6.31636363636	0.779876160991	0.38064516129	-2.7884057971
1530	0.765	-6.43090909091	0.779876160991	0.38064516129	-2.7884057971
1531	0.7655	3.48363636364	5.00495356037	0.38064516129	0.0608695652174
1532	0.766	-2.18181818182	0.779876160991	-1.06774193548	-2.7884057971
1533	0.7665	-5.01454545455	-0.628482972136	-2.51612903226	-4.21304347826
1534	0.767	-5.01454545455	6.4133126935	1.82903225806	-5.63768115942
1535	0.7675	-16.3454545455	-7.67027863777	0.38064516129	-4.21304347826
1536	0.768	-7.84727272727	-4.85356037152	0.38064516129	-5.63768115942
1537	0.7685	-6.43090909091	-7.67027863777	4.72580645161	2.91014492754
1538	0.769	-3.59818181818	-6.26191950464	13.4161290323	-2.7884057971
1539	0.7695	-3.59818181818	-18.9371517028	3.27741935484	-5.63768115942
1540	0.77	-5.01454545455	-2.03684210526	1.82903225806	-4.21304347826
1541	0.7705	-10.68	-7.67027863777	-1.06774193548	-4.21304347826
1542	0.771	-5.01454545455	-7.67027863777	1.82903225806	-7.06231884058
1543	0.7715	-2.18181818182	-6.26191950464	1.82903225806	-7.06231884058
1544	0.772	-2.18181818182	-6.26191950464	3.27741935484	-5.63768115942
1545	0.7725	-2.18181818182	-6.26191950464	3.27741935484	-8.48695652174
1546	0.773	-3.59818181818	-4.85356037152	3.27741935484	-8.48695652174
1547	0.7735	-12.0963636364	-3.44520123839	3.27741935484	-5.63768115942
1548	0.774	-3.59818181818	-3.44520123839	-1.06774193548	7.18405797101
1549	0.7745	0.650909090909	-4.85356037152	1.82903225806	-5.63768115942
1550	0.775	-2.18181818182	3.59659442724	-1.06774193548	-5.63768115942
1551	0.7755	0.650909090909	7.82167182663	0.38064516129	-7.06231884058
1552	0.776	-6.43090909091	-6.26191950464	1.82903225806	-7.06231884058
1553	0.7765	-3.59818181818	-6.26191950464	0.38064516129	-2.7884057971
1554	0.777	-3.59818181818	-4.85356037152	1.82903225806	-2.7884057971
1555	0.7775	-2.18181818182	-9.0786377709	1.82903225806	-4.21304347826
1556	0.778	2.06727272727	-2.03684210526	1.82903225806	-7.06231884058
1557	0.7785	-3.59818181818	-3.44520123839	-1.06774193548	-1.36376811594
1558	0.779	-2.18181818182	-4.85356037152	1.82903225806	0.0608695652174
1559	0.7795	-0.765454545455	-3.44520123839	0.38064516129	-8.48695652174
1560	0.78	0.650909090909	-16.1204334365	0.38064516129	-4.21304347826
1561	0.7805	-2.18181818182	-6.26191950464	1.82903225806	-1.36376811594
1562	0.781	-13.5127272727	-7.67027863777	0.38064516129	-4.21304347826
1563	0.7815	-0.765454545455	-9.0786377709	3.27741935484	4.3347826087
1564	0.782	-2.18181818182	-6.26191950464	14.864516129	-8.48695652174
1565	0.7825	-0.765454545455	-0.628482972136	-1.06774193548	-1.36376811594
1566	0.783	-3.59818181818	-9.0786377709	0.38064516129	-1.36376811594
1567	0.7835	-10.68	-3.44520123839	3.27741935484	-2.7884057971
1568	0.784	3.48363636364	-6.26191950464	1.82903225806	-5.63768115942
1569	0.7845	-0.765454545455	-0.628482972136	1.82903225806	-8.48695652174
1570	0.785	-0.765454545455	-4.85356037152	-5.41290322581	-4.21304347826
1571	0.7855	0.650909090909	-10.486996904	1.82903225806	-2.7884057971
1572	0.786	0.650909090909	-11.8953560372	0.38064516129	-5.63768115942
1573	0.7865	11.9818181818	-6.26191950464	1.82903225806	-7.06231884058
1574	0.787	-2.18181818182	-9.0786377709	0.38064516129	-11.3362318841
1575	0.7875	-3.59818181818	-10.486996904	-3.96451612903	-7.06231884058
1576	0.788	-3.59818181818	-6.26191950464	3.27741935484	-5.63768115942
1577	0.7885	0.650909090909	-7.67027863777	3.27741935484	-5.63768115942
1578	0.789	-5.01454545455	-7.67027863777	1.82903225806	-5.63768115942
1579	0.7895	-0.765454545455	-3.44520123839	3.27741935484	-8.48695652174
1580	0.79	-3.59818181818	-3.44520123839	0.38064516129	-15.6101449275
1581	0.7905	-3.59818181818	-3.44520123839	0.38064516129	-7.06231884058
1582	0.791	-5.01454545455	-6.26191950464	1.82903225806	-4.21304347826
1583	0.7915	-6.43090909091	-7.67027863777	-1.06774193548	-7.06231884058
1584	0.792	9.14909090909	2.18823529412	1.82903225806	-8.48695652174
1585	0.7925	0.650909090909	6.4133126935	0.38064516129	-8.48695652174
1586	0.793	0.650909090909	7.82167182663	13.4161290323	-8.48695652174
1587	0.7935	-0.765454545455	0.779876160991	0.38064516129	-5.63768115942
1588	0.794	2.06727272727	-2.03684210526	3.27741935484	-5.63768115942
1589	0.7945	0.650909090909	0.779876160991	0.38064516129	-5.63768115942
1590	0.795	-0.765454545455	0.779876160991	-8.30967741935	-8.48695652174
1591	0.7955	0.650909090909	-0.628482972136	-9.75806451613	-9.9115942029
1592	0.796	-2.18181818182	16.2718266254	1.82903225806	-2.7884057971
1593	0.7965	-3.59818181818	-4.85356037152	0.38064516129	-7.06231884058
1594	0.797	-13.5127272727	-3.44520123839	-1.06774193548	-1.36376811594
1595	0.7975	-0.765454545455	-6.26191950464	-9.75806451613	-5.63768115942
1596	0.798	-0.765454545455	0.779876160991	-8.30967741935	-4.21304347826
1597	0.7985	0.650909090909	-4.85356037152	1.82903225806	-8.48695652174
1598	0.799	-0.765454545455	-4.85356037152	-1.06774193548	-7.06231884058
1599	0.7995	7.73272727273	6.4133126935	1.82903225806	-5.63768115942
1600	0.8	0.650909090909	7.82167182663	1.82903225806	-7.06231884058
1601	0.8005	2.06727272727	9.23003095975	4.72580645161	-11.3362318841
1602	0.801	-2.18181818182	0.779876160991	-2.51612903226	-1.36376811594
1603	0.8015	-0.765454545455	6.4133126935	1.82903225806	-4.21304347826
1604	0.802	-10.68	6.4133126935	0.38064516129	-4.21304347826
1605	0.8025	0.650909090909	5.00495356037	3.27741935484	-4.21304347826
1606	0.803	0.650909090909	6.4133126935	-1.06774193548	-11.3362318841
1607	0.8035	2.06727272727	6.4133126935	-3.96451612903	-4.21304347826
1608	0.804	-3.59818181818	3.59659442724	1.82903225806	-2.7884057971
1609	0.8045	-6.43090909091	7.82167182663	1.82903225806	-2.7884057971
1610	0.805	2.06727272727	7.82167182663	3.27741935484	-5.63768115942
1611	0.8055	3.48363636364	6.4133126935	4.72580645161	-2.7884057971
1612	0.806	6.31636363636	7.82167182663	3.27741935484	-2.7884057971
1613	0.8065	14.8145454545	10.6383900929	1.82903225806	-2.7884057971
1614	0.807	10.5654545455	6.4133126935	1.82903225806	-4.21304347826
1615	0.8075	14.8145454545	7.82167182663	1.82903225806	-2.7884057971
1616	0.808	3.48363636364	6.4133126935	-1.06774193548	0.0608695652174
1617	0.8085	0.650909090909	0.779876160991	-1.06774193548	-1.36376811594
1618	0.809	-2.18181818182	-11.8953560372	0.38064516129	-2.7884057971
1619	0.8095	-6.43090909091	-14.7120743034	1.82903225806	-1.36376811594
1620	0.81	13.3981818182	-2.03684210526	4.72580645161	-11.3362318841
1621	0.8105	-3.59818181818	-0.628482972136	3.27741935484	-12.7608695652
1622	0.811	-3.59818181818	3.59659442724	-6.86129032258	-1.36376811594
1623	0.8115	-2.18181818182	-3.44520123839	3.27741935484	-4.21304347826
1624	0.812	-3.59818181818	-4.85356037152	0.38064516129	-2.7884057971
1625	0.8125	10.5654545455	2.18823529412	3.27741935484	-4.21304347826
1626	0.813	-2.18181818182	2.18823529412	0.38064516129	-4.21304347826
1627	0.8135	0.650909090909	-0.628482972136	-2.51612903226	-8.48695652174
1628	0.814	2.06727272727	0.779876160991	-1.06774193548	-1.36376811594
1629	0.8145	0.650909090909	-2.03684210526	-1.06774193548	-1.36376811594
1630	0.815	7.73272727273	2.18823529412	3.27741935484	-4.21304347826
1631	0.8155	-7.84727272727	5.00495356037	0.38064516129	0.0608695652174
1632	0.816	0.650909090909	2.18823529412	0.38064516129	14.3072463768
1633	0.8165	0.650909090909	-0.628482972136	0.38064516129	-1.36376811594
1634	0.817	2.06727272727	7.82167182663	1.82903225806	-1.36376811594
1635	0.8175	0.650909090909	9.23003095975	1.82903225806	-1.36376811594
1636	0.818	0.650909090909	-2.03684210526	4.72580645161	-4.21304347826
1637	0.8185	-0.765454545455	-2.03684210526	0.38064516129	4.3347826087
1638	0.819	0.650909090909	0.779876160991	0.38064516129	-2.7884057971
1639	0.8195	-2.18181818182	-4.85356037152	1.82903225806	-2.7884057971
1640	0.82	2.06727272727	-2.03684210526	1.82903225806	-4.21304347826
1641	0.8205	11.9818181818	-2.03684210526	1.82903225806	-4.21304347826
1642	0.821	-5.01454545455	-4.85356037152	3.27741935484	-5.63768115942
1643	0.8215	-2.18181818182	-7.67027863777	0.38064516129	-2.7884057971
1644	0.822	-0.765454545455	-16.1204334365	-1.06774193548	-4.21304347826
1645	0.8225	2.06727272727	-10.486996904	0.38064516129	-2.7884057971
1646	0.823	10.5654545455	-7.67027863777	1.82903225806	-4.21304347826
1647	0.8235	-3.59818181818	-7.67027863777	-2.51612903226	-2.7884057971
1648	0.824	0.650909090909	-9.0786377709	16.3129032258	-1.36376811594
1649	0.8245	-0.765454545455	-7.67027863777	13.4161290323	-4.21304347826
1650	0.825	0.650909090909	-11.8953560372	-1.06774193548	-4.21304347826
1651	0.8255	6.31636363636	-4.85356037152	-1.06774193548	-7.06231884058
1652	0.826	16.2309090909	-4.85356037152	0.38064516129	-5.63768115942
1653	0.8265	0.650909090909	-2.03684210526	16.3129032258	-2.7884057971
1654	0.827	0.650909090909	-2.03684210526	9.07096774194	-5.63768115942
1655	0.8275	-2.18181818182	-6.26191950464	3.27741935484	-7.06231884058
1656	0.828	4.9	5.00495356037	0.38064516129	-7.06231884058
1657	0.8285	16.2309090909	2.18823529412	4.72580645161	-5.63768115942
1658	0.829	-2.18181818182	3.59659442724	4.72580645161	-5.63768115942
1659	0.8295	0.650909090909	0.779876160991	-1.06774193548	-5.63768115942
1660	0.83	-3.59818181818	-7.67027863777	0.38064516129	-4.21304347826
1661	0.8305	-2.18181818182	7.82167182663	3.27741935484	-5.63768115942
1662	0.831	-10.68	10.6383900929	0.38064516129	-4.21304347826
1663	0.8315	-0.765454545455	6.4133126935	1.82903225806	8.60869565217
1664	0.832	-3.59818181818	6.4133126935	4.72580645161	-4.21304347826
1665	0.8325	-0.765454545455	7.82167182663	1.82903225806	-5.63768115942
1666	0.833	-0.765454545455	23.313622291	0.38064516129	-5.63768115942
1667	0.8335	-10.68	0.779876160991	1.82903225806	-4.21304347826
1668	0.834	-9.26363636364	0.779876160991	1.82903225806	-4.21304347826
1669	0.8345	-2.18181818182	-3.44520123839	4.72580645161	-4.21304347826
1670	0.835	-3.59818181818	-2.03684210526	-1.06774193548	-7.06231884058
1671	0.8355	2.06727272727	-0.628482972136	1.82903225806	-4.21304347826
1672	0.836	0.650909090909	-0.628482972136	-1.06774193548	-8.48695652174
1673	0.8365	-6.43090909091	-3.44520123839	3.27741935484	-17.0347826087
1674	0.837	-3.59818181818	-2.03684210526	0.38064516129	-8.48695652174
1675	0.8375	0.650909090909	-0.628482972136	-6.86129032258	-7.06231884058
1676	0.838	-3.59818181818	2.18823529412	1.82903225806	-8.48695652174
1677	0.8385	-2.18181818182	-4.85356037152	3.27741935484	-9.9115942029
1678	0.839	-13.5127272727	-3.44520123839	0.38064516129	-9.9115942029
1679	0.8395	4.9	0.779876160991	1.82903225806	-1.36376811594
1680	0.84	-0.765454545455	0.779876160991	13.4161290323	-12.7608695652
1681	0.8405	-2.18181818182	-2.03684210526	1.82903225806	-8.48695652174
1682	0.841	-5.01454545455	-6.26191950464	1.82903225806	-8.48695652174
1683	0.8415	13.3981818182	-4.85356037152	3.27741935484	-18.4594202899
1684	0.842	-5.01454545455	-4.85356037152	0.38064516129	-14.1855072464
1685	0.8425	-0.765454545455	-6.26191950464	4.72580645161	-7.06231884058
1686	0.843	-0.765454545455	-9.0786377709	1.82903225806	-8.48695652174
1687	0.8435	-0.765454545455	0.779876160991	4.72580645161	-9.9115942029
1688	0.844	-0.765454545455	2.18823529412	-1.06774193548	-8.48695652174
1689	0.8445	-9.26363636364	-9.0786377709	0.38064516129	2.91014492754
1690	0.845	-2.18181818182	-10.486996904	-1.06774193548	-14.1855072464
1691	0.8455	-0.765454545455	-7.67027863777	-5.41290322581	-7.06231884058
1692	0.846	-5.01454545455	-3.44520123839	-8.30967741935	-8.48695652174
1693	0.8465	-3.59818181818	-9.0786377709	-1.06774193548	-11.3362318841
1694	0.847	13.3981818182	-9.0786377709	1.82903225806	-7.06231884058
1695	0.8475	-3.59818181818	-9.0786377709	-2.51612903226	-17.0347826087
1696	0.848	-2.18181818182	-6.26191950464	-8.30967741935	-7.06231884058
1697	0.8485	-2.18181818182	-10.486996904	0.38064516129	-4.21304347826
1698	0.849	-0.765454545455	-9.0786377709	1.82903225806	-4.21304347826
1699	0.8495	-6.43090909091	-2.03684210526	1.82903225806	-7.06231884058
1700	0.85	-10.68	-3.44520123839	3.27741935484	-2.7884057971
1701	0.8505	-0.765454545455	-4.85356037152	16.3129032258	-5.63768115942
1702	0.851	-0.765454545455	-7.67027863777	1.82903225806	-8.48695652174
1703	0.8515	0.650909090909	6.4133126935	-1.06774193548	-7.06231884058
1704	0.852	-2.18181818182	-3.44520123839	3.27741935484	-4.21304347826
1705	0.8525	-7.84727272727	-4.85356037152	-1.06774193548	-4.21304347826
1706	0.853	-3.59818181818	-3.44520123839	-1.06774193548	8.60869565217
1707	0.8535	-2.18181818182	-4.85356037152	-1.06774193548	-5.63768115942
1708	0.854	-3.59818181818	14.8634674923	0.38064516129	-1.36376811594
1709	0.8545	-5.01454545455	0.779876160991	3.27741935484	-1.36376811594
1710	0.855	-9.26363636364	0.779876160991	-1.06774193548	12.8826086957
1711	0.8555	-0.765454545455	2.18823529412	-12.6548387097	-2.7884057971
1712	0.856	-0.765454545455	-2.03684210526	-3.96451612903	-5.63768115942
1713	0.8565	-2.18181818182	-7.67027863777	-2.51612903226	-4.21304347826
1714	0.857	0.650909090909	-3.44520123839	3.27741935484	-4.21304347826
1715	0.8575	19.0636363636	3.59659442724	-1.06774193548	-8.48695652174
1716	0.858	-2.18181818182	0.779876160991	3.27741935484	-8.48695652174
1717	0.8585	-2.18181818182	-6.26191950464	3.27741935484	2.91014492754
1718	0.859	-2.18181818182	-11.8953560372	0.38064516129	-4.21304347826
1719	0.8595	-0.765454545455	-7.67027863777	-1.06774193548	-7.06231884058
1720	0.86	0.650909090909	-6.26191950464	1.82903225806	-7.06231884058
1721	0.8605	-6.43090909091	-3.44520123839	0.38064516129	-5.63768115942
1722	0.861	7.73272727273	-0.628482972136	6.17419354839	-4.21304347826
1723	0.8615	11.9818181818	-2.03684210526	1.82903225806	-1.36376811594
1724	0.862	10.5654545455	-0.628482972136	3.27741935484	-2.7884057971
1725	0.8625	9.14909090909	-2.03684210526	0.38064516129	-1.36376811594
1726	0.863	-0.765454545455	-3.44520123839	1.82903225806	-7.06231884058
1727	0.8635	0.650909090909	-2.03684210526	-3.96451612903	-2.7884057971
1728	0.864	-3.59818181818	-4.85356037152	-2.51612903226	-2.7884057971
1729	0.8645	-3.59818181818	0.779876160991	-3.96451612903	-4.21304347826
1730	0.865	-5.01454545455	17.6801857585	1.82903225806	-5.63768115942
1731	0.8655	-14.9290909091	0.779876160991	3.27741935484	0.0608695652174
1732	0.866	-16.3454545455	-0.628482972136	1.82903225806	-1.36376811594
1733	0.8665	-5.01454545455	3.59659442724	-5.41290322581	-5.63768115942
1734	0.867	-5.01454545455	6.4133126935	-2.51612903226	-4.21304347826
