	Time	Channel 1	Channel 2	Channel 3	Channel 4
0	0.0	-2.22647058824	-2.25725806452	-6.825	-5.825
1	0.0005	0.661764705882	-2.25725806452	-3.94166666667	-2.995
2	0.001	16.5470588235	-0.841935483871	-1.05833333333	-5.825
3	0.0015	3.55	1.98870967742	0.383333333333	-5.825
4	0.002	-8.00294117647	0.573387096774	-1.05833333333	-4.41
5	0.0025	-2.22647058824	0.573387096774	0.383333333333	-0.165
6	0.003	-0.782352941176	-0.841935483871	-3.94166666667	-7.24
7	0.0035	-0.782352941176	-10.7491935484	1.825	-8.655
8	0.004	0.661764705882	-6.50322580645	0.383333333333	-1.58
9	0.0045	-13.7794117647	-3.67258064516	-1.05833333333	-0.165
10	0.005	-9.44705882353	-0.841935483871	-2.5	4.08
11	0.0055	-3.67058823529	0.573387096774	3.26666666667	-0.165
12	0.006	0.661764705882	-7.9185483871	1.825	-2.995
13	0.0065	0.661764705882	-7.9185483871	0.383333333333	-1.58
14	0.007	17.9911764706	1.98870967742	1.825	-14.315
15	0.0075	-0.782352941176	-0.841935483871	0.383333333333	-7.24
16	0.008	-0.782352941176	-2.25725806452	-5.38333333333	-4.41
17	0.0085	0.661764705882	1.98870967742	-1.05833333333	-7.24
18	0.009	3.55	20.3879032258	-1.05833333333	-5.825
19	0.0095	-10.8911764706	-3.67258064516	-1.05833333333	-4.41
20	0.01	4.99411764706	0.573387096774	-2.5	-7.24
21	0.0105	0.661764705882	-0.841935483871	0.383333333333	-12.9
22	0.011	0.661764705882	-3.67258064516	-9.70833333333	-1.58
23	0.0115	-2.22647058824	-13.5798387097	-1.05833333333	-5.825
24	0.012	-0.782352941176	-7.9185483871	-1.05833333333	-5.825
25	0.0125	7.88235294118	-0.841935483871	-1.05833333333	-4.41
26	0.013	-5.11470588235	-3.67258064516	0.383333333333	-10.07
27	0.0135	0.661764705882	-2.25725806452	7.59166666667	-7.24
28	0.014	-2.22647058824	-5.08790322581	0.383333333333	-7.24
29	0.0145	-0.782352941176	16.1419354839	0.383333333333	-4.41
30	0.015	-15.2235294118	-5.08790322581	3.26666666667	-2.995
31	0.0155	-6.55882352941	-3.67258064516	-2.5	6.91
32	0.016	-0.782352941176	-2.25725806452	-1.05833333333	6.91
33	0.0165	-0.782352941176	0.573387096774	-2.5	-2.995
34	0.017	0.661764705882	4.81935483871	0.383333333333	-2.995
35	0.0175	-3.67058823529	-7.9185483871	0.383333333333	-2.995
36	0.018	-5.11470588235	-10.7491935484	-1.05833333333	-4.41
37	0.0185	-0.782352941176	-5.08790322581	-1.05833333333	-17.145
38	0.019	-2.22647058824	-5.08790322581	-8.26666666667	-12.9
39	0.0195	-0.782352941176	-19.2411290323	0.383333333333	-7.24
40	0.02	0.661764705882	-10.7491935484	1.825	-7.24
41	0.0205	3.55	-5.08790322581	0.383333333333	-7.24
42	0.021	3.55	-5.08790322581	3.26666666667	-7.24
43	0.0215	-2.22647058824	-6.50322580645	-5.38333333333	-7.24
44	0.022	0.661764705882	-9.33387096774	-9.70833333333	-5.825
45	0.0225	-0.782352941176	10.4806451613	-1.05833333333	-7.24
46	0.023	-2.22647058824	6.23467741935	-1.05833333333	-5.825
47	0.0235	-8.00294117647	-3.67258064516	0.383333333333	-7.24
48	0.024	-3.67058823529	-2.25725806452	0.383333333333	-12.9
49	0.0245	-0.782352941176	-5.08790322581	4.70833333333	-12.9
50	0.025	-2.22647058824	-5.08790322581	-2.5	-1.58
51	0.0255	0.661764705882	-7.9185483871	-2.5	-1.58
52	0.026	0.661764705882	1.98870967742	-1.05833333333	-1.58
53	0.0265	3.55	0.573387096774	0.383333333333	-2.995
54	0.027	0.661764705882	0.573387096774	0.383333333333	-12.9
55	0.0275	2.10588235294	0.573387096774	-11.15	-4.41
56	0.028	0.661764705882	6.23467741935	-1.05833333333	-5.825
57	0.0285	3.55	16.1419354839	-1.05833333333	-2.995
58	0.029	-9.44705882353	-3.67258064516	1.825	-1.58
59	0.0295	7.88235294118	0.573387096774	3.26666666667	-7.24
60	0.03	-0.782352941176	4.81935483871	-6.825	-12.9
61	0.0305	0.661764705882	0.573387096774	-2.5	-5.825
62	0.031	-0.782352941176	3.40403225806	-1.05833333333	-2.995
63	0.0315	2.10588235294	6.23467741935	1.825	-4.41
64	0.032	2.10588235294	1.98870967742	1.825	-4.41
65	0.0325	-0.782352941176	0.573387096774	4.70833333333	-14.315
66	0.033	0.661764705882	3.40403225806	-8.26666666667	-7.24
67	0.0335	-0.782352941176	1.98870967742	0.383333333333	-7.24
68	0.034	0.661764705882	20.3879032258	0.383333333333	-10.07
69	0.0345	-16.6676470588	-0.841935483871	1.825	-4.41
70	0.035	-10.8911764706	-0.841935483871	-1.05833333333	8.325
71	0.0355	-0.782352941176	-0.841935483871	-12.5916666667	-2.995
72	0.036	-0.782352941176	-3.67258064516	-5.38333333333	-4.41
73	0.0365	0.661764705882	13.3112903226	-1.05833333333	-1.58
74	0.037	0.661764705882	-6.50322580645	0.383333333333	-4.41
75	0.0375	9.32647058824	-2.25725806452	-3.94166666667	-8.655
76	0.038	-2.22647058824	-2.25725806452	-2.5	5.495
77	0.0385	-0.782352941176	-2.25725806452	7.59166666667	-4.41
78	0.039	0.661764705882	-3.67258064516	0.383333333333	-4.41
79	0.0395	0.661764705882	-2.25725806452	1.825	-1.58
80	0.04	-3.67058823529	0.573387096774	3.26666666667	-1.58
81	0.0405	2.10588235294	0.573387096774	0.383333333333	-11.485
82	0.041	0.661764705882	0.573387096774	-9.70833333333	-7.24
83	0.0415	-2.22647058824	-0.841935483871	-1.05833333333	-1.58
84	0.042	-0.782352941176	0.573387096774	0.383333333333	-1.58
85	0.0425	0.661764705882	0.573387096774	-1.05833333333	-1.58
86	0.043	-2.22647058824	3.40403225806	1.825	-0.165
87	0.0435	0.661764705882	-0.841935483871	-1.05833333333	-1.58
88	0.044	0.661764705882	1.98870967742	-6.825	-1.58
89	0.0445	-2.22647058824	4.81935483871	0.383333333333	-0.165
90	0.045	-0.782352941176	1.98870967742	1.825	-0.165
91	0.0455	2.10588235294	16.1419354839	0.383333333333	-0.165
92	0.046	-12.3352941176	3.40403225806	-2.5	15.4
93	0.0465	-2.22647058824	0.573387096774	-2.5	1.25
94	0.047	0.661764705882	3.40403225806	-1.05833333333	-4.41
95	0.0475	0.661764705882	-2.25725806452	-1.05833333333	-4.41
96	0.048	-2.22647058824	0.573387096774	-1.05833333333	-7.24
97	0.0485	-12.3352941176	0.573387096774	-2.5	-1.58
98	0.049	0.661764705882	0.573387096774	-6.825	-8.655
99	0.0495	-2.22647058824	-2.25725806452	-1.05833333333	-4.41
100	0.05	0.661764705882	-2.25725806452	17.6833333333	-5.825
101	0.0505	-5.11470588235	-9.33387096774	0.383333333333	-5.825
102	0.051	-13.7794117647	-0.841935483871	0.383333333333	-5.825
103	0.0515	4.99411764706	-2.25725806452	-1.05833333333	-8.655
104	0.052	-2.22647058824	-2.25725806452	1.825	12.57
105	0.0525	-0.782352941176	-3.67258064516	16.2416666667	-4.41
106	0.053	-2.22647058824	-13.5798387097	-2.5	-7.24
107	0.0535	-2.22647058824	-6.50322580645	1.825	-5.825
108	0.054	0.661764705882	-5.08790322581	-1.05833333333	-4.41
109	0.0545	0.661764705882	-2.25725806452	3.26666666667	-10.07
110	0.055	0.661764705882	-2.25725806452	19.125	-2.995
111	0.0555	0.661764705882	-5.08790322581	0.383333333333	-4.41
112	0.056	0.661764705882	-13.5798387097	1.825	-1.58
113	0.0565	3.55	-5.08790322581	-1.05833333333	-2.995
114	0.057	-3.67058823529	-2.25725806452	3.26666666667	1.25
115	0.0575	-0.782352941176	-0.841935483871	-1.05833333333	-11.485
116	0.058	2.10588235294	-2.25725806452	-5.38333333333	-2.995
117	0.0585	2.10588235294	17.5572580645	0.383333333333	-1.58
118	0.059	2.10588235294	-0.841935483871	1.825	-1.58
119	0.0595	17.9911764706	-0.841935483871	0.383333333333	-11.485
120	0.06	-2.22647058824	0.573387096774	3.26666666667	-7.24
121	0.0605	-0.782352941176	-2.25725806452	4.70833333333	-2.995
122	0.061	-0.782352941176	-2.25725806452	0.383333333333	-2.995
123	0.0615	0.661764705882	16.1419354839	0.383333333333	-1.58
124	0.062	13.6588235294	1.98870967742	1.825	-1.58
125	0.0625	-0.782352941176	0.573387096774	0.383333333333	-12.9
126	0.063	2.10588235294	0.573387096774	-9.70833333333	-1.58
127	0.0635	-0.782352941176	0.573387096774	1.825	-1.58
128	0.064	0.661764705882	-9.33387096774	1.825	-1.58
129	0.0645	3.55	-6.50322580645	1.825	-1.58
130	0.065	17.9911764706	0.573387096774	0.383333333333	-15.73
131	0.0655	-2.22647058824	-0.841935483871	4.70833333333	-4.41
132	0.066	0.661764705882	0.573387096774	-1.05833333333	-4.41
133	0.0665	-0.782352941176	-9.33387096774	-2.5	-2.995
134	0.067	2.10588235294	-0.841935483871	1.825	-4.41
135	0.0675	0.661764705882	-0.841935483871	3.26666666667	-1.58
136	0.068	-0.782352941176	-5.08790322581	1.825	-7.24
137	0.0685	0.661764705882	-3.67258064516	-6.825	-1.58
138	0.069	-0.782352941176	-2.25725806452	-1.05833333333	-5.825
139	0.0695	0.661764705882	14.7266129032	-1.05833333333	-1.58
140	0.07	-12.3352941176	-2.25725806452	1.825	-1.58
141	0.0705	-8.00294117647	-5.08790322581	0.383333333333	5.495
142	0.071	0.661764705882	-2.25725806452	0.383333333333	-1.58
143	0.0715	-2.22647058824	-0.841935483871	-6.825	-1.58
144	0.072	-2.22647058824	-2.25725806452	1.825	-1.58
145	0.0725	-5.11470588235	-0.841935483871	-1.05833333333	-2.995
146	0.073	16.5470588235	0.573387096774	3.26666666667	-10.07
147	0.0735	0.661764705882	-0.841935483871	3.26666666667	13.985
148	0.074	0.661764705882	1.98870967742	6.15	-4.41
149	0.0745	-0.782352941176	-13.5798387097	0.383333333333	-4.41
150	0.075	-0.782352941176	-0.841935483871	0.383333333333	-0.165
151	0.0755	-12.3352941176	3.40403225806	0.383333333333	-2.995
152	0.076	3.55	0.573387096774	0.383333333333	-1.58
153	0.0765	-2.22647058824	1.98870967742	11.9166666667	-1.58
154	0.077	0.661764705882	1.98870967742	14.8	-5.825
155	0.0775	0.661764705882	-6.50322580645	-1.05833333333	-2.995
156	0.078	3.55	1.98870967742	3.26666666667	-1.58
157	0.0785	-9.44705882353	7.65	0.383333333333	4.08
158	0.079	-2.22647058824	6.23467741935	0.383333333333	4.08
159	0.0795	0.661764705882	9.06532258065	4.70833333333	-0.165
160	0.08	-0.782352941176	6.23467741935	-5.38333333333	-0.165
161	0.0805	0.661764705882	-2.25725806452	3.26666666667	-1.58
162	0.081	20.8794117647	7.65	-1.05833333333	-2.995
163	0.0815	-0.782352941176	13.3112903226	1.825	-5.825
164	0.082	-2.22647058824	13.3112903226	-5.38333333333	6.91
165	0.0825	2.10588235294	1.98870967742	1.825	4.08
166	0.083	-0.782352941176	21.8032258065	1.825	2.665
167	0.0835	-2.22647058824	10.4806451613	1.825	2.665
168	0.084	19.4352941176	17.5572580645	0.383333333333	-0.165
169	0.0845	-0.782352941176	13.3112903226	-6.825	1.25
170	0.085	-0.782352941176	14.7266129032	6.15	2.665
171	0.0855	-0.782352941176	13.3112903226	1.825	-0.165
172	0.086	-2.22647058824	31.710483871	0.383333333333	2.665
173	0.0865	-10.8911764706	16.1419354839	3.26666666667	11.155
174	0.087	0.661764705882	17.5572580645	-1.05833333333	-0.165
175	0.0875	2.10588235294	18.9725806452	-8.26666666667	6.91
176	0.088	0.661764705882	21.8032258065	4.70833333333	6.91
177	0.0885	2.10588235294	28.8798387097	-1.05833333333	11.155
178	0.089	0.661764705882	21.8032258065	0.383333333333	12.57
179	0.0895	-8.00294117647	20.3879032258	-1.05833333333	16.815
180	0.09	0.661764705882	21.8032258065	-9.70833333333	19.645
181	0.0905	2.10588235294	23.2185483871	-11.15	15.4
182	0.091	0.661764705882	28.8798387097	0.383333333333	19.645
183	0.0915	3.55	40.2024193548	-1.05833333333	18.23
184	0.092	13.6588235294	26.0491935484	-2.5	18.23
185	0.0925	-5.11470588235	28.8798387097	-1.05833333333	18.23
186	0.093	0.661764705882	30.2951612903	-2.5	30.965
187	0.0935	3.55	28.8798387097	1.825	19.645
188	0.094	3.55	44.4483870968	-1.05833333333	19.645
189	0.0945	0.661764705882	31.710483871	0.383333333333	18.23
190	0.095	20.8794117647	34.5411290323	-1.05833333333	16.815
191	0.0955	-0.782352941176	33.1258064516	-1.05833333333	6.91
192	0.096	3.55	31.710483871	-6.825	21.06
193	0.0965	0.661764705882	20.3879032258	0.383333333333	21.06
194	0.097	2.10588235294	30.2951612903	0.383333333333	21.06
195	0.0975	12.2147058824	31.710483871	1.825	12.57
196	0.098	0.661764705882	31.710483871	1.825	18.23
197	0.0985	2.10588235294	28.8798387097	0.383333333333	6.91
198	0.099	0.661764705882	30.2951612903	-5.38333333333	8.325
199	0.0995	3.55	41.6177419355	-1.05833333333	5.495
200	0.1	0.661764705882	27.464516129	0.383333333333	-1.58
201	0.1005	22.3235294118	24.6338709677	0.383333333333	-5.825
202	0.101	-0.782352941176	23.2185483871	-1.05833333333	-12.9
203	0.1015	0.661764705882	18.9725806452	-6.825	-8.655
204	0.102	-0.782352941176	6.23467741935	0.383333333333	-8.655
205	0.1025	-3.67058823529	21.8032258065	1.825	-12.9
206	0.103	-3.67058823529	13.3112903226	-1.05833333333	-11.485
207	0.1035	-8.00294117647	9.06532258065	-1.05833333333	-0.165
208	0.104	-2.22647058824	10.4806451613	-1.05833333333	-22.805
209	0.1045	0.661764705882	9.06532258065	-3.94166666667	-18.56
210	0.105	-0.782352941176	23.2185483871	0.383333333333	-19.975
211	0.1055	3.55	3.40403225806	0.383333333333	-18.56
212	0.106	-5.11470588235	4.81935483871	0.383333333333	-12.9
213	0.1065	2.10588235294	6.23467741935	-11.15	-24.22
214	0.107	0.661764705882	3.40403225806	-6.825	-22.805
215	0.1075	-0.782352941176	13.3112903226	0.383333333333	-14.315
216	0.108	-2.22647058824	1.98870967742	-1.05833333333	-15.73
217	0.1085	10.7705882353	4.81935483871	-1.05833333333	-17.145
218	0.109	-0.782352941176	3.40403225806	1.825	6.91
219	0.1095	0.661764705882	4.81935483871	3.26666666667	-8.655
220	0.11	-2.22647058824	7.65	-1.05833333333	-8.655
221	0.1105	-3.67058823529	-0.841935483871	-1.05833333333	-4.41
222	0.111	-6.55882352941	0.573387096774	0.383333333333	-4.41
223	0.1115	-6.55882352941	0.573387096774	1.825	12.57
224	0.112	-2.22647058824	0.573387096774	3.26666666667	15.4
225	0.1125	-0.782352941176	-3.67258064516	17.6833333333	-1.58
226	0.113	-0.782352941176	-10.7491935484	-1.05833333333	2.665
227	0.1135	-3.67058823529	0.573387096774	1.825	1.25
228	0.114	-5.11470588235	0.573387096774	0.383333333333	5.495
229	0.1145	-0.782352941176	-0.841935483871	-6.825	-1.58
230	0.115	-2.22647058824	-2.25725806452	-3.94166666667	-1.58
231	0.1155	-0.782352941176	-6.50322580645	-1.05833333333	5.495
232	0.116	0.661764705882	-13.5798387097	-1.05833333333	8.325
233	0.1165	-16.6676470588	-3.67258064516	-3.94166666667	8.325
234	0.117	-8.00294117647	-7.9185483871	0.383333333333	5.495
235	0.1175	-2.22647058824	-6.50322580645	3.26666666667	-1.58
236	0.118	-3.67058823529	-5.08790322581	-1.05833333333	4.08
237	0.1185	-2.22647058824	-7.9185483871	0.383333333333	1.25
238	0.119	-6.55882352941	-9.33387096774	-1.05833333333	-1.58
239	0.1195	10.7705882353	-9.33387096774	0.383333333333	-8.655
240	0.12	-0.782352941176	-10.7491935484	0.383333333333	-1.58
241	0.1205	-2.22647058824	-9.33387096774	13.3583333333	-5.825
242	0.121	-3.67058823529	-0.841935483871	0.383333333333	-2.995
243	0.1215	-0.782352941176	-19.2411290323	0.383333333333	-1.58
244	0.122	-5.11470588235	-13.5798387097	0.383333333333	-1.58
245	0.1225	13.6588235294	-13.5798387097	-2.5	-2.995
246	0.123	-2.22647058824	-10.7491935484	19.125	-0.165
247	0.1235	-2.22647058824	-12.164516129	0.383333333333	2.665
248	0.124	-3.67058823529	4.81935483871	0.383333333333	2.665
249	0.1245	-13.7794117647	-7.9185483871	-1.05833333333	2.665
250	0.125	-2.22647058824	-9.33387096774	0.383333333333	1.25
251	0.1255	-2.22647058824	-9.33387096774	-1.05833333333	-8.655
252	0.126	-3.67058823529	-6.50322580645	-3.94166666667	-4.41
253	0.1265	-0.782352941176	-7.9185483871	-1.05833333333	-2.995
254	0.127	-0.782352941176	-10.7491935484	3.26666666667	-4.41
255	0.1275	9.32647058824	-5.08790322581	0.383333333333	-7.24
256	0.128	-0.782352941176	-6.50322580645	-3.94166666667	-11.485
257	0.1285	2.10588235294	-5.08790322581	0.383333333333	-1.58
258	0.129	0.661764705882	-9.33387096774	14.8	-1.58
259	0.1295	0.661764705882	-12.164516129	-1.05833333333	-2.995
260	0.13	0.661764705882	-7.9185483871	-1.05833333333	-1.58
261	0.1305	-9.44705882353	-6.50322580645	1.825	15.4
262	0.131	-2.22647058824	-5.08790322581	0.383333333333	12.57
263	0.1315	-0.782352941176	-9.33387096774	11.9166666667	-2.995
264	0.132	0.661764705882	7.65	0.383333333333	-4.41
265	0.1325	-0.782352941176	-10.7491935484	-1.05833333333	-4.41
266	0.133	0.661764705882	-5.08790322581	0.383333333333	-5.825
267	0.1335	-2.22647058824	-5.08790322581	0.383333333333	-11.485
268	0.134	-3.67058823529	-3.67258064516	13.3583333333	-7.24
269	0.1345	-0.782352941176	-6.50322580645	19.125	-5.825
270	0.135	0.661764705882	-12.164516129	-1.05833333333	-5.825
271	0.1355	3.55	-5.08790322581	0.383333333333	-7.24
272	0.136	-3.67058823529	-5.08790322581	0.383333333333	-17.145
273	0.1365	-2.22647058824	-6.50322580645	0.383333333333	-1.58
274	0.137	0.661764705882	-5.08790322581	-6.825	-5.825
275	0.1375	0.661764705882	1.98870967742	-1.05833333333	-5.825
276	0.138	0.661764705882	-3.67258064516	1.825	-4.41
277	0.1385	-10.8911764706	-3.67258064516	-1.05833333333	-4.41
278	0.139	-8.00294117647	-3.67258064516	1.825	-4.41
279	0.1395	0.661764705882	-2.25725806452	14.8	-11.485
280	0.14	-2.22647058824	-0.841935483871	0.383333333333	-5.825
281	0.1405	-0.782352941176	-5.08790322581	1.825	-4.41
282	0.141	2.10588235294	-2.25725806452	1.825	-5.825
283	0.1415	19.4352941176	-2.25725806452	3.26666666667	-5.825
284	0.142	-3.67058823529	-5.08790322581	3.26666666667	4.08
285	0.1425	2.10588235294	-2.25725806452	-6.825	-4.41
286	0.143	-2.22647058824	-2.25725806452	-6.825	-2.995
287	0.1435	0.661764705882	16.1419354839	-1.05833333333	-7.24
288	0.144	19.4352941176	-5.08790322581	0.383333333333	-17.145
289	0.1445	-2.22647058824	-3.67258064516	-2.5	-12.9
290	0.145	0.661764705882	-2.25725806452	7.59166666667	-5.825
291	0.1455	-0.782352941176	-3.67258064516	0.383333333333	-5.825
292	0.146	2.10588235294	3.40403225806	0.383333333333	-5.825
293	0.1465	0.661764705882	1.98870967742	1.825	-7.24
294	0.147	-5.11470588235	0.573387096774	1.825	-4.41
295	0.1475	0.661764705882	-0.841935483871	-8.26666666667	-8.655
296	0.148	0.661764705882	-2.25725806452	-11.15	-7.24
297	0.1485	-0.782352941176	0.573387096774	0.383333333333	-7.24
298	0.149	-2.22647058824	9.06532258065	1.825	-7.24
299	0.1495	-8.00294117647	-2.25725806452	-1.05833333333	-7.24
300	0.15	-6.55882352941	-2.25725806452	1.825	2.665
301	0.1505	-0.782352941176	-5.08790322581	3.26666666667	4.08
302	0.151	-0.782352941176	-6.50322580645	17.6833333333	-5.825
303	0.1515	0.661764705882	13.3112903226	3.26666666667	-4.41
304	0.152	-0.782352941176	-10.7491935484	3.26666666667	-8.655
305	0.1525	10.7705882353	-5.08790322581	1.825	-4.41
306	0.153	-2.22647058824	-5.08790322581	1.825	-12.9
307	0.1535	-2.22647058824	-2.25725806452	-6.825	-12.9
308	0.154	0.661764705882	-14.9951612903	1.825	-4.41
309	0.1545	3.55	-9.33387096774	1.825	-4.41
310	0.155	0.661764705882	-3.67258064516	1.825	-4.41
311	0.1555	-5.11470588235	-2.25725806452	3.26666666667	4.08
312	0.156	-2.22647058824	-5.08790322581	-1.05833333333	-10.07
313	0.1565	0.661764705882	-2.25725806452	-8.26666666667	-4.41
314	0.157	-0.782352941176	-10.7491935484	1.825	-4.41
315	0.1575	2.10588235294	-2.25725806452	3.26666666667	-4.41
316	0.158	22.3235294118	-3.67258064516	1.825	-2.995
317	0.1585	0.661764705882	-2.25725806452	0.383333333333	-12.9
318	0.159	-0.782352941176	-0.841935483871	-9.70833333333	-2.995
319	0.1595	-2.22647058824	-2.25725806452	0.383333333333	-4.41
320	0.16	0.661764705882	6.23467741935	1.825	-5.825
321	0.1605	17.9911764706	-5.08790322581	1.825	-8.655
322	0.161	-2.22647058824	-3.67258064516	0.383333333333	-14.315
323	0.1615	0.661764705882	-3.67258064516	3.26666666667	2.665
324	0.162	3.55	-2.25725806452	13.3583333333	-12.9
325	0.1625	2.10588235294	-6.50322580645	-1.05833333333	-10.07
326	0.163	-0.782352941176	-10.7491935484	0.383333333333	-11.485
327	0.1635	13.6588235294	-3.67258064516	1.825	-12.9
328	0.164	0.661764705882	-2.25725806452	3.26666666667	-14.315
329	0.1645	-0.782352941176	-5.08790322581	17.6833333333	-5.825
330	0.165	-0.782352941176	0.573387096774	0.383333333333	-0.165
331	0.1655	-2.22647058824	-9.33387096774	1.825	-0.165
332	0.166	-13.7794117647	-3.67258064516	0.383333333333	1.25
333	0.1665	-3.67058823529	-3.67258064516	0.383333333333	-0.165
334	0.167	-0.782352941176	-6.50322580645	1.825	-1.58
335	0.1675	-3.67058823529	-9.33387096774	-1.05833333333	-0.165
336	0.168	0.661764705882	-9.33387096774	0.383333333333	-2.995
337	0.1685	-5.11470588235	-10.7491935484	3.26666666667	-2.995
338	0.169	12.2147058824	-9.33387096774	1.825	-5.825
339	0.1695	0.661764705882	-6.50322580645	3.26666666667	-12.9
340	0.17	0.661764705882	-6.50322580645	4.70833333333	-11.485
341	0.1705	-3.67058823529	-19.2411290323	-1.05833333333	-5.825
342	0.171	3.55	-16.410483871	1.825	-1.58
343	0.1715	22.3235294118	-6.50322580645	1.825	-2.995
344	0.172	-0.782352941176	-5.08790322581	1.825	-12.9
345	0.1725	-0.782352941176	-5.08790322581	0.383333333333	-7.24
346	0.173	-0.782352941176	-2.25725806452	-2.5	-2.995
347	0.1735	-0.782352941176	10.4806451613	3.26666666667	-2.995
348	0.174	4.99411764706	-6.50322580645	1.825	-2.995
349	0.1745	13.6588235294	-2.25725806452	0.383333333333	-2.995
350	0.175	0.661764705882	1.98870967742	1.825	11.155
351	0.1755	-0.782352941176	1.98870967742	9.03333333333	-1.58
352	0.176	-0.782352941176	-2.25725806452	0.383333333333	-4.41
353	0.1765	2.10588235294	-0.841935483871	1.825	-5.825
354	0.177	6.43823529412	1.98870967742	1.825	-7.24
355	0.1775	-5.11470588235	4.81935483871	1.825	-7.24
356	0.178	-2.22647058824	6.23467741935	1.825	-4.41
357	0.1785	-0.782352941176	0.573387096774	0.383333333333	-2.995
358	0.179	-0.782352941176	14.7266129032	0.383333333333	-2.995
359	0.1795	-2.22647058824	4.81935483871	1.825	-5.825
360	0.18	12.2147058824	0.573387096774	7.59166666667	-7.24
361	0.1805	0.661764705882	0.573387096774	1.825	-14.315
362	0.181	-0.782352941176	-0.841935483871	-2.5	-7.24
363	0.1815	-2.22647058824	-10.7491935484	4.70833333333	-7.24
364	0.182	0.661764705882	-9.33387096774	4.70833333333	-5.825
365	0.1825	12.2147058824	0.573387096774	-1.05833333333	-5.825
366	0.183	-6.55882352941	0.573387096774	0.383333333333	5.495
367	0.1835	-2.22647058824	-2.25725806452	-1.05833333333	15.4
368	0.184	-0.782352941176	-0.841935483871	1.825	-2.995
369	0.1845	-0.782352941176	-0.841935483871	0.383333333333	-4.41
370	0.185	-9.44705882353	0.573387096774	-1.05833333333	-4.41
371	0.1855	10.7705882353	-0.841935483871	-1.05833333333	-4.41
372	0.186	-2.22647058824	-0.841935483871	0.383333333333	-11.485
373	0.1865	0.661764705882	-5.08790322581	1.825	-1.58
374	0.187	-2.22647058824	-14.9951612903	-2.5	-2.995
375	0.1875	0.661764705882	-7.9185483871	-1.05833333333	-5.825
376	0.188	-0.782352941176	-3.67258064516	-1.05833333333	-4.41
377	0.1885	0.661764705882	-0.841935483871	-2.5	-15.73
378	0.189	0.661764705882	-5.08790322581	-11.15	-2.995
379	0.1895	0.661764705882	-3.67258064516	-1.05833333333	-2.995
380	0.19	-0.782352941176	-2.25725806452	-5.38333333333	-4.41
381	0.1905	0.661764705882	-3.67258064516	0.383333333333	-4.41
382	0.191	-3.67058823529	-5.08790322581	1.825	-2.995
383	0.1915	-0.782352941176	-2.25725806452	3.26666666667	11.155
384	0.192	-0.782352941176	-0.841935483871	19.125	-4.41
385	0.1925	0.661764705882	-0.841935483871	0.383333333333	-2.995
386	0.193	-0.782352941176	3.40403225806	1.825	-4.41
387	0.1935	-10.8911764706	-0.841935483871	3.26666666667	-1.58
388	0.194	-5.11470588235	-0.841935483871	0.383333333333	-1.58
389	0.1945	0.661764705882	1.98870967742	-3.94166666667	-8.655
390	0.195	-0.782352941176	3.40403225806	-1.05833333333	-4.41
391	0.1955	-0.782352941176	1.98870967742	4.70833333333	-5.825
392	0.196	-3.67058823529	-5.08790322581	3.26666666667	-5.825
393	0.1965	7.88235294118	0.573387096774	-1.05833333333	-8.655
394	0.197	-0.782352941176	-0.841935483871	1.825	-14.315
395	0.1975	0.661764705882	-0.841935483871	16.2416666667	-2.995
396	0.198	2.10588235294	-12.164516129	3.26666666667	-2.995
397	0.1985	0.661764705882	-10.7491935484	-1.05833333333	-4.41
398	0.199	3.55	-0.841935483871	0.383333333333	-4.41
399	0.1995	10.7705882353	-3.67258064516	0.383333333333	-2.995
400	0.2	-2.22647058824	-3.67258064516	-1.05833333333	6.91
401	0.2005	-0.782352941176	-3.67258064516	16.2416666667	-5.825
402	0.201	0.661764705882	11.8959677419	0.383333333333	-4.41
403	0.2015	-0.782352941176	-2.25725806452	3.26666666667	-4.41
404	0.202	19.4352941176	-6.50322580645	-1.05833333333	-14.315
405	0.2025	-2.22647058824	-2.25725806452	0.383333333333	-10.07
406	0.203	-2.22647058824	-6.50322580645	-6.825	4.08
407	0.2035	-0.782352941176	-5.08790322581	13.3583333333	-4.41
408	0.204	0.661764705882	10.4806451613	1.825	-7.24
409	0.2045	-5.11470588235	-5.08790322581	3.26666666667	-4.41
410	0.205	-6.55882352941	-2.25725806452	3.26666666667	2.665
411	0.2055	0.661764705882	-0.841935483871	-6.825	-7.24
412	0.206	0.661764705882	0.573387096774	-1.05833333333	-8.655
413	0.2065	-0.782352941176	-2.25725806452	0.383333333333	-1.58
414	0.207	-0.782352941176	-13.5798387097	0.383333333333	-2.995
415	0.2075	2.10588235294	1.98870967742	0.383333333333	-5.825
416	0.208	-12.3352941176	-0.841935483871	1.825	8.325
417	0.2085	0.661764705882	-0.841935483871	4.70833333333	-7.24
418	0.209	0.661764705882	0.573387096774	-5.38333333333	-2.995
419	0.2095	0.661764705882	6.23467741935	4.70833333333	-2.995
420	0.21	-9.44705882353	3.40403225806	1.825	-2.995
421	0.2105	12.2147058824	0.573387096774	0.383333333333	-4.41
422	0.211	-0.782352941176	0.573387096774	-1.05833333333	-15.73
423	0.2115	-0.782352941176	0.573387096774	-6.825	-4.41
424	0.212	0.661764705882	-10.7491935484	1.825	-7.24
425	0.2125	3.55	0.573387096774	0.383333333333	-5.825
426	0.213	-9.44705882353	0.573387096774	1.825	-4.41
427	0.2135	0.661764705882	0.573387096774	1.825	-8.655
428	0.214	-2.22647058824	-0.841935483871	-5.38333333333	-14.315
429	0.2145	0.661764705882	-3.67258064516	-6.825	-4.41
430	0.215	-0.782352941176	17.5572580645	3.26666666667	-2.995
431	0.2155	3.55	0.573387096774	3.26666666667	-2.995
432	0.216	17.9911764706	0.573387096774	3.26666666667	-8.655
433	0.2165	2.10588235294	-0.841935483871	3.26666666667	1.25
434	0.217	2.10588235294	0.573387096774	7.59166666667	-2.995
435	0.2175	-0.782352941176	-6.50322580645	0.383333333333	-2.995
436	0.218	0.661764705882	6.23467741935	-1.05833333333	-4.41
437	0.2185	-2.22647058824	-2.25725806452	0.383333333333	-2.995
438	0.219	-8.00294117647	-2.25725806452	-1.05833333333	15.4
439	0.2195	0.661764705882	-2.25725806452	-1.05833333333	13.985
440	0.22	-0.782352941176	0.573387096774	1.825	-7.24
441	0.2205	-0.782352941176	0.573387096774	0.383333333333	-2.995
442	0.221	-0.782352941176	-2.25725806452	1.825	-0.165
443	0.2215	-5.11470588235	-2.25725806452	-1.05833333333	-1.58
444	0.222	0.661764705882	0.573387096774	0.383333333333	-7.24
445	0.2225	0.661764705882	-2.25725806452	11.9166666667	-4.41
446	0.223	-0.782352941176	-2.25725806452	0.383333333333	-4.41
447	0.2235	0.661764705882	-6.50322580645	1.825	-2.995
448	0.224	2.10588235294	-7.9185483871	1.825	-4.41
449	0.2245	0.661764705882	-2.25725806452	1.825	-10.07
450	0.225	0.661764705882	0.573387096774	17.6833333333	-1.58
451	0.2255	2.10588235294	0.573387096774	11.9166666667	-2.995
452	0.226	0.661764705882	-5.08790322581	4.70833333333	-1.58
453	0.2265	0.661764705882	16.1419354839	1.825	-2.995
454	0.227	-8.00294117647	0.573387096774	3.26666666667	2.665
455	0.2275	-0.782352941176	-0.841935483871	-8.26666666667	-5.825
456	0.228	0.661764705882	0.573387096774	-6.825	-4.41
457	0.2285	0.661764705882	-7.9185483871	0.383333333333	-4.41
458	0.229	2.10588235294	-0.841935483871	0.383333333333	-4.41
459	0.2295	-6.55882352941	-0.841935483871	1.825	-1.58
460	0.23	-9.44705882353	-0.841935483871	-1.05833333333	13.985
461	0.2305	0.661764705882	1.98870967742	-6.825	-2.995
462	0.231	0.661764705882	1.98870967742	0.383333333333	-5.825
463	0.2315	0.661764705882	-7.9185483871	4.70833333333	-4.41
464	0.232	3.55	4.81935483871	3.26666666667	-5.825
465	0.2325	15.1029411765	0.573387096774	1.825	-2.995
466	0.233	0.661764705882	0.573387096774	7.59166666667	-5.825
467	0.2335	0.661764705882	-0.841935483871	3.26666666667	-4.41
468	0.234	2.10588235294	0.573387096774	0.383333333333	-7.24
469	0.2345	0.661764705882	-2.25725806452	-1.05833333333	-5.825
470	0.235	-0.782352941176	0.573387096774	4.70833333333	-2.995
471	0.2355	-2.22647058824	0.573387096774	-1.05833333333	-4.41
472	0.236	-3.67058823529	-0.841935483871	-6.825	-2.995
473	0.2365	-0.782352941176	0.573387096774	-8.26666666667	-4.41
474	0.237	2.10588235294	10.4806451613	-1.05833333333	-5.825
475	0.2375	-3.67058823529	1.98870967742	1.825	-2.995
476	0.238	-6.55882352941	-0.841935483871	0.383333333333	4.08
477	0.2385	-0.782352941176	-0.841935483871	0.383333333333	-7.24
478	0.239	-0.782352941176	-0.841935483871	-6.825	-2.995
479	0.2395	0.661764705882	-5.08790322581	1.825	-5.825
480	0.24	0.661764705882	0.573387096774	3.26666666667	-2.995
481	0.2405	19.4352941176	0.573387096774	0.383333333333	-5.825
482	0.241	-2.22647058824	0.573387096774	-5.38333333333	-11.485
483	0.2415	2.10588235294	-0.841935483871	-6.825	-1.58
484	0.242	-0.782352941176	-7.9185483871	1.825	-2.995
485	0.2425	-3.67058823529	1.98870967742	0.383333333333	-2.995
486	0.243	15.1029411765	0.573387096774	1.825	-7.24
487	0.2435	0.661764705882	3.40403225806	0.383333333333	-12.9
488	0.244	0.661764705882	3.40403225806	1.825	-10.07
489	0.2445	-0.782352941176	-5.08790322581	1.825	-2.995
490	0.245	0.661764705882	-9.33387096774	0.383333333333	-1.58
491	0.2455	7.88235294118	1.98870967742	0.383333333333	-4.41
492	0.246	-8.00294117647	3.40403225806	3.26666666667	1.25
493	0.2465	0.661764705882	3.40403225806	4.70833333333	-7.24
494	0.247	-0.782352941176	1.98870967742	-2.5	-2.995
495	0.2475	-0.782352941176	4.81935483871	-1.05833333333	-1.58
496	0.248	2.10588235294	3.40403225806	1.825	-4.41
497	0.2485	12.2147058824	0.573387096774	0.383333333333	-1.58
498	0.249	0.661764705882	3.40403225806	-3.94166666667	-1.58
499	0.2495	-0.782352941176	1.98870967742	-5.38333333333	-2.995
500	0.25	-2.22647058824	1.98870967742	-6.825	-1.58
501	0.2505	-0.782352941176	17.5572580645	1.825	-1.58
502	0.251	-10.8911764706	1.98870967742	3.26666666667	2.665
503	0.2515	-2.22647058824	0.573387096774	3.26666666667	-12.9
504	0.252	0.661764705882	1.98870967742	1.825	-10.07
505	0.2525	-0.782352941176	1.98870967742	-9.70833333333	-1.58
506	0.253	-0.782352941176	0.573387096774	3.26666666667	-4.41
507	0.2535	-0.782352941176	0.573387096774	3.26666666667	-1.58
508	0.254	-12.3352941176	1.98870967742	3.26666666667	-2.995
509	0.2545	0.661764705882	3.40403225806	6.15	6.91
510	0.255	0.661764705882	3.40403225806	16.2416666667	-8.655
511	0.2555	-0.782352941176	20.3879032258	3.26666666667	-5.825
512	0.256	-0.782352941176	3.40403225806	-1.05833333333	-5.825
513	0.2565	-6.55882352941	3.40403225806	1.825	-4.41
514	0.257	-2.22647058824	4.81935483871	1.825	-10.07
515	0.2575	-2.22647058824	6.23467741935	-1.05833333333	-12.9
516	0.258	-2.22647058824	0.573387096774	-8.26666666667	-5.825
517	0.2585	-2.22647058824	-7.9185483871	1.825	-5.825
518	0.259	2.10588235294	6.23467741935	0.383333333333	-7.24
519	0.2595	20.8794117647	6.23467741935	0.383333333333	-5.825
520	0.26	-3.67058823529	7.65	4.70833333333	-14.315
521	0.2605	2.10588235294	4.81935483871	-5.38333333333	-4.41
522	0.261	0.661764705882	-5.08790322581	1.825	-5.825
523	0.2615	0.661764705882	-0.841935483871	1.825	-4.41
524	0.262	20.8794117647	6.23467741935	-1.05833333333	-4.41
525	0.2625	-0.782352941176	4.81935483871	6.15	-12.9
526	0.263	0.661764705882	6.23467741935	-2.5	-10.07
527	0.2635	0.661764705882	9.06532258065	-2.5	-8.655
528	0.264	0.661764705882	24.6338709677	0.383333333333	-7.24
529	0.2645	-0.782352941176	20.3879032258	1.825	-7.24
530	0.265	-3.67058823529	6.23467741935	-1.05833333333	4.08
531	0.2655	0.661764705882	6.23467741935	3.26666666667	5.495
532	0.266	0.661764705882	4.81935483871	-8.26666666667	-5.825
533	0.2665	0.661764705882	24.6338709677	3.26666666667	-5.825
534	0.267	0.661764705882	18.9725806452	3.26666666667	-4.41
535	0.2675	-13.7794117647	0.573387096774	0.383333333333	-2.995
536	0.268	0.661764705882	0.573387096774	-6.825	-10.07
537	0.2685	-0.782352941176	1.98870967742	-3.94166666667	-11.485
538	0.269	0.661764705882	1.98870967742	3.26666666667	-2.995
539	0.2695	-0.782352941176	0.573387096774	3.26666666667	-4.41
540	0.27	-6.55882352941	0.573387096774	0.383333333333	-4.41
541	0.2705	9.32647058824	0.573387096774	-1.05833333333	-5.825
542	0.271	3.55	3.40403225806	-3.94166666667	-11.485
543	0.2715	-0.782352941176	3.40403225806	-5.38333333333	-2.995
544	0.272	0.661764705882	-7.9185483871	1.825	-4.41
545	0.2725	3.55	4.81935483871	-1.05833333333	-1.58
546	0.273	17.9911764706	4.81935483871	1.825	-8.655
547	0.2735	-2.22647058824	7.65	0.383333333333	-14.315
548	0.274	0.661764705882	6.23467741935	-2.5	-2.995
549	0.2745	-0.782352941176	-5.08790322581	1.825	-4.41
550	0.275	0.661764705882	13.3112903226	-1.05833333333	-2.995
551	0.2755	0.661764705882	6.23467741935	0.383333333333	-5.825
552	0.276	-5.11470588235	7.65	1.825	-1.58
553	0.2765	0.661764705882	6.23467741935	-1.05833333333	-7.24
554	0.277	0.661764705882	7.65	-9.70833333333	-7.24
555	0.2775	0.661764705882	9.06532258065	-5.38333333333	-8.655
556	0.278	-2.22647058824	3.40403225806	1.825	-8.655
557	0.2785	-10.8911764706	3.40403225806	1.825	-8.655
558	0.279	0.661764705882	7.65	1.825	-14.315
559	0.2795	0.661764705882	13.3112903226	16.2416666667	-8.655
560	0.28	-0.782352941176	9.06532258065	20.5666666667	-8.655
561	0.2805	0.661764705882	-3.67258064516	-1.05833333333	-5.825
562	0.281	-13.7794117647	6.23467741935	-2.5	-1.58
563	0.2815	-5.11470588235	3.40403225806	-1.05833333333	-1.58
564	0.282	0.661764705882	3.40403225806	1.825	-10.07
565	0.2825	-2.22647058824	4.81935483871	-3.94166666667	-1.58
566	0.283	-2.22647058824	6.23467741935	1.825	-4.41
567	0.2835	0.661764705882	0.573387096774	1.825	-7.24
568	0.284	19.4352941176	4.81935483871	3.26666666667	-18.56
569	0.2845	-3.67058823529	4.81935483871	1.825	-15.73
570	0.285	2.10588235294	0.573387096774	7.59166666667	-7.24
571	0.2855	0.661764705882	0.573387096774	0.383333333333	-5.825
572	0.286	-2.22647058824	13.3112903226	0.383333333333	-10.07
573	0.2865	0.661764705882	3.40403225806	3.26666666667	-8.655
574	0.287	20.8794117647	4.81935483871	0.383333333333	-11.485
575	0.2875	2.10588235294	6.23467741935	-1.05833333333	-0.165
576	0.288	2.10588235294	4.81935483871	16.2416666667	-10.07
577	0.2885	0.661764705882	6.23467741935	3.26666666667	-7.24
578	0.289	-3.67058823529	4.81935483871	3.26666666667	-8.655
579	0.2895	-10.8911764706	6.23467741935	-1.05833333333	-2.995
580	0.29	2.10588235294	3.40403225806	1.825	-5.825
581	0.2905	0.661764705882	6.23467741935	-2.5	-11.485
582	0.291	0.661764705882	3.40403225806	-6.825	-1.58
583	0.2915	0.661764705882	-6.50322580645	0.383333333333	-0.165
584	0.292	4.99411764706	6.23467741935	0.383333333333	-2.995
585	0.2925	7.88235294118	7.65	0.383333333333	-1.58
586	0.293	-5.11470588235	9.06532258065	-1.05833333333	6.91
587	0.2935	-0.782352941176	9.06532258065	-8.26666666667	-4.41
588	0.294	0.661764705882	13.3112903226	-8.26666666667	-2.995
589	0.2945	3.55	4.81935483871	-2.5	-4.41
590	0.295	3.55	6.23467741935	3.26666666667	-1.58
591	0.2955	-5.11470588235	9.06532258065	0.383333333333	12.57
592	0.296	2.10588235294	10.4806451613	0.383333333333	-11.485
593	0.2965	2.10588235294	9.06532258065	-5.38333333333	-4.41
594	0.297	0.661764705882	-2.25725806452	1.825	-4.41
595	0.2975	4.99411764706	13.3112903226	0.383333333333	-4.41
596	0.298	7.88235294118	9.06532258065	1.825	-2.995
597	0.2985	-9.44705882353	9.06532258065	0.383333333333	12.57
598	0.299	-2.22647058824	10.4806451613	-11.15	-5.825
599	0.2995	-0.782352941176	13.3112903226	1.825	-4.41
600	0.3	-0.782352941176	18.9725806452	0.383333333333	-4.41
601	0.3005	-3.67058823529	-0.841935483871	1.825	-7.24
602	0.301	16.5470588235	6.23467741935	6.15	-18.56
603	0.3015	0.661764705882	6.23467741935	3.26666666667	8.325
604	0.302	-2.22647058824	6.23467741935	13.3583333333	-5.825
605	0.3025	0.661764705882	-0.841935483871	0.383333333333	-4.41
606	0.303	2.10588235294	0.573387096774	0.383333333333	-4.41
607	0.3035	-2.22647058824	3.40403225806	1.825	-2.995
608	0.304	-9.44705882353	1.98870967742	-1.05833333333	15.4
609	0.3045	-2.22647058824	1.98870967742	-1.05833333333	6.91
610	0.305	0.661764705882	7.65	1.825	-2.995
611	0.3055	0.661764705882	7.65	1.825	-4.41
612	0.306	-10.8911764706	4.81935483871	-1.05833333333	-2.995
613	0.3065	4.99411764706	6.23467741935	-1.05833333333	-0.165
614	0.307	0.661764705882	7.65	1.825	-8.655
615	0.3075	-0.782352941176	10.4806451613	-8.26666666667	-1.58
616	0.308	-0.782352941176	1.98870967742	0.383333333333	-1.58
617	0.3085	0.661764705882	-2.25725806452	1.825	-1.58
618	0.309	19.4352941176	9.06532258065	1.825	-5.825
619	0.3095	-0.782352941176	9.06532258065	-1.05833333333	-14.315
620	0.31	0.661764705882	9.06532258065	-11.15	-7.24
621	0.3105	0.661764705882	13.3112903226	-3.94166666667	-4.41
622	0.311	3.55	23.2185483871	0.383333333333	-4.41
623	0.3115	3.55	4.81935483871	1.825	-1.58
624	0.312	-2.22647058824	10.4806451613	0.383333333333	-5.825
625	0.3125	3.55	7.65	1.825	8.325
626	0.313	0.661764705882	7.65	1.825	-4.41
627	0.3135	2.10588235294	6.23467741935	0.383333333333	-1.58
628	0.314	3.55	0.573387096774	1.825	-2.995
629	0.3145	7.88235294118	4.81935483871	1.825	-4.41
630	0.315	-0.782352941176	4.81935483871	1.825	-4.41
631	0.3155	-0.782352941176	3.40403225806	-2.5	11.155
632	0.316	-0.782352941176	1.98870967742	1.825	-2.995
633	0.3165	0.661764705882	14.7266129032	0.383333333333	-2.995
634	0.317	0.661764705882	1.98870967742	0.383333333333	-4.41
635	0.3175	-8.00294117647	0.573387096774	-1.05833333333	-1.58
636	0.318	2.10588235294	1.98870967742	1.825	13.985
637	0.3185	0.661764705882	0.573387096774	1.825	-4.41
638	0.319	0.661764705882	-10.7491935484	1.825	-1.58
639	0.3195	-5.11470588235	1.98870967742	1.825	-2.995
640	0.32	-10.8911764706	1.98870967742	4.70833333333	-0.165
641	0.3205	-9.44705882353	6.23467741935	-2.5	15.4
642	0.321	0.661764705882	1.98870967742	-1.05833333333	13.985
643	0.3215	0.661764705882	6.23467741935	0.383333333333	-2.995
644	0.322	2.10588235294	21.8032258065	0.383333333333	-0.165
645	0.3225	3.55	4.81935483871	4.70833333333	-4.41
646	0.323	16.5470588235	6.23467741935	0.383333333333	-2.995
647	0.3235	-0.782352941176	6.23467741935	-2.5	-0.165
648	0.324	2.10588235294	7.65	-3.94166666667	-1.58
649	0.3245	-0.782352941176	6.23467741935	14.8	-0.165
650	0.325	-0.782352941176	-3.67258064516	1.825	-1.58
651	0.3255	-10.8911764706	7.65	-1.05833333333	-1.58
652	0.326	-10.8911764706	6.23467741935	-1.05833333333	4.08
653	0.3265	0.661764705882	9.06532258065	16.2416666667	-0.165
654	0.327	0.661764705882	10.4806451613	-1.05833333333	-1.58
655	0.3275	-0.782352941176	7.65	0.383333333333	-0.165
656	0.328	-3.67058823529	3.40403225806	1.825	1.25
657	0.3285	19.4352941176	6.23467741935	3.26666666667	-2.995
658	0.329	0.661764705882	7.65	3.26666666667	-10.07
659	0.3295	0.661764705882	7.65	-6.825	-0.165
660	0.33	2.10588235294	13.3112903226	0.383333333333	-0.165
661	0.3305	3.55	17.5572580645	1.825	-0.165
662	0.331	-10.8911764706	1.98870967742	1.825	-1.58
663	0.3315	2.10588235294	6.23467741935	0.383333333333	-0.165
664	0.332	0.661764705882	6.23467741935	1.825	-7.24
665	0.3325	-3.67058823529	7.65	3.26666666667	-0.165
666	0.333	0.661764705882	3.40403225806	0.383333333333	-2.995
667	0.3335	2.10588235294	-5.08790322581	1.825	-2.995
668	0.334	-2.22647058824	-3.67258064516	-1.05833333333	1.25
669	0.3345	-0.782352941176	3.40403225806	-1.05833333333	-8.655
670	0.335	0.661764705882	0.573387096774	4.70833333333	-8.655
671	0.3355	0.661764705882	3.40403225806	22.0083333333	-1.58
672	0.336	0.661764705882	-5.08790322581	3.26666666667	-0.165
673	0.3365	3.55	-2.25725806452	3.26666666667	-1.58
674	0.337	19.4352941176	4.81935483871	4.70833333333	-10.07
675	0.3375	0.661764705882	3.40403225806	4.70833333333	1.25
676	0.338	0.661764705882	1.98870967742	20.5666666667	-2.995
677	0.3385	-0.782352941176	-6.50322580645	1.825	-1.58
678	0.339	0.661764705882	-5.08790322581	-1.05833333333	-1.58
679	0.3395	10.7705882353	6.23467741935	3.26666666667	-5.825
680	0.34	-6.55882352941	6.23467741935	0.383333333333	-2.995
681	0.3405	-2.22647058824	3.40403225806	-6.825	-0.165
682	0.341	-0.782352941176	6.23467741935	-1.05833333333	-1.58
683	0.3415	4.99411764706	21.8032258065	0.383333333333	-1.58
684	0.342	3.55	3.40403225806	0.383333333333	-0.165
685	0.3425	15.1029411765	6.23467741935	1.825	-7.24
686	0.343	-2.22647058824	4.81935483871	4.70833333333	-1.58
687	0.3435	0.661764705882	7.65	6.15	-2.995
688	0.344	-2.22647058824	-0.841935483871	-5.38333333333	2.665
689	0.3445	-3.67058823529	13.3112903226	0.383333333333	1.25
690	0.345	-2.22647058824	7.65	-1.05833333333	2.665
691	0.3455	-0.782352941176	3.40403225806	0.383333333333	-4.41
692	0.346	-0.782352941176	1.98870967742	-1.05833333333	1.25
693	0.3465	-0.782352941176	4.81935483871	-6.825	-0.165
694	0.347	0.661764705882	17.5572580645	-1.05833333333	-0.165
695	0.3475	-0.782352941176	3.40403225806	0.383333333333	-0.165
696	0.348	22.3235294118	1.98870967742	1.825	-0.165
697	0.3485	0.661764705882	1.98870967742	-2.5	16.815
698	0.349	0.661764705882	6.23467741935	-8.26666666667	1.25
699	0.3495	-0.782352941176	3.40403225806	-6.825	-0.165
700	0.35	-5.11470588235	0.573387096774	0.383333333333	-0.165
701	0.3505	-15.2235294118	-2.25725806452	1.825	-0.165
702	0.351	-3.67058823529	0.573387096774	-1.05833333333	-0.165
703	0.3515	-2.22647058824	-0.841935483871	-5.38333333333	-7.24
704	0.352	-2.22647058824	0.573387096774	0.383333333333	-2.995
705	0.3525	-0.782352941176	-9.33387096774	1.825	-2.995
706	0.353	-3.67058823529	-10.7491935484	-1.05833333333	-1.58
707	0.3535	-8.00294117647	-3.67258064516	3.26666666667	13.985
708	0.354	-2.22647058824	-5.08790322581	3.26666666667	8.325
709	0.3545	-0.782352941176	-2.25725806452	10.475	-5.825
710	0.355	0.661764705882	-2.25725806452	-1.05833333333	-1.58
711	0.3555	-0.782352941176	-10.7491935484	0.383333333333	-2.995
712	0.356	-6.55882352941	-3.67258064516	-1.05833333333	-0.165
713	0.3565	-10.8911764706	-6.50322580645	0.383333333333	1.25
714	0.357	-2.22647058824	-2.25725806452	4.70833333333	13.985
715	0.3575	-0.782352941176	-6.50322580645	19.125	-0.165
716	0.358	0.661764705882	-13.5798387097	-1.05833333333	2.665
717	0.3585	-2.22647058824	-5.08790322581	-1.05833333333	2.665
718	0.359	-8.00294117647	-2.25725806452	0.383333333333	11.155
719	0.3595	2.10588235294	-0.841935483871	4.70833333333	2.665
720	0.36	-0.782352941176	-0.841935483871	7.59166666667	2.665
721	0.3605	-2.22647058824	0.573387096774	11.9166666667	2.665
722	0.361	-0.782352941176	-10.7491935484	1.825	2.665
723	0.3615	-0.782352941176	-2.25725806452	0.383333333333	1.25
724	0.362	20.8794117647	-0.841935483871	-1.05833333333	-1.58
725	0.3625	-0.782352941176	-0.841935483871	-11.15	-2.995
726	0.363	0.661764705882	-5.08790322581	-1.05833333333	-0.165
727	0.3635	-0.782352941176	-13.5798387097	0.383333333333	-1.58
728	0.364	2.10588235294	-5.08790322581	1.825	-4.41
729	0.3645	0.661764705882	-2.25725806452	0.383333333333	2.665
730	0.365	-8.00294117647	-2.25725806452	0.383333333333	13.985
731	0.3655	-2.22647058824	-0.841935483871	-9.70833333333	1.25
732	0.366	-0.782352941176	-2.25725806452	3.26666666667	-2.995
733	0.3665	-3.67058823529	1.98870967742	1.825	-1.58
734	0.367	-10.8911764706	-2.25725806452	0.383333333333	-4.41
735	0.3675	-6.55882352941	-2.25725806452	-2.5	4.08
736	0.368	-2.22647058824	-2.25725806452	0.383333333333	-4.41
737	0.3685	-3.67058823529	-0.841935483871	-2.5	-2.995
738	0.369	-5.11470588235	0.573387096774	0.383333333333	-1.58
739	0.3695	-3.67058823529	-5.08790322581	1.825	1.25
740	0.37	9.32647058824	-6.50322580645	0.383333333333	2.665
741	0.3705	-3.67058823529	-6.50322580645	1.825	-7.24
742	0.371	-0.782352941176	-7.9185483871	4.70833333333	-0.165
743	0.3715	-0.782352941176	-17.8258064516	0.383333333333	5.495
744	0.372	2.10588235294	-5.08790322581	1.825	-1.58
745	0.3725	2.10588235294	-2.25725806452	1.825	-0.165
746	0.373	-5.11470588235	-5.08790322581	0.383333333333	-0.165
747	0.3735	0.661764705882	-6.50322580645	-2.5	15.4
748	0.374	-0.782352941176	-5.08790322581	-5.38333333333	2.665
749	0.3745	0.661764705882	9.06532258065	0.383333333333	2.665
750	0.375	0.661764705882	-5.08790322581	0.383333333333	2.665
751	0.3755	17.9911764706	-3.67258064516	0.383333333333	-10.07
752	0.376	0.661764705882	-3.67258064516	4.70833333333	-2.995
753	0.3765	0.661764705882	0.573387096774	3.26666666667	-0.165
754	0.377	0.661764705882	-0.841935483871	-2.5	1.25
755	0.3775	-0.782352941176	-2.25725806452	0.383333333333	-0.165
756	0.378	12.2147058824	-2.25725806452	4.70833333333	-0.165
757	0.3785	-0.782352941176	0.573387096774	0.383333333333	-4.41
758	0.379	-0.782352941176	1.98870967742	-1.05833333333	-7.24
759	0.3795	-0.782352941176	3.40403225806	-5.38333333333	-1.58
760	0.38	0.661764705882	18.9725806452	4.70833333333	2.665
761	0.3805	0.661764705882	1.98870967742	3.26666666667	1.25
762	0.381	17.9911764706	3.40403225806	-1.05833333333	-2.995
763	0.3815	2.10588235294	1.98870967742	1.825	2.665
764	0.382	0.661764705882	1.98870967742	-3.94166666667	-1.58
765	0.3825	-0.782352941176	-5.08790322581	0.383333333333	-1.58
766	0.383	2.10588235294	-9.33387096774	0.383333333333	-2.995
767	0.3835	-5.11470588235	-2.25725806452	3.26666666667	-1.58
768	0.384	-10.8911764706	-2.25725806452	1.825	-0.165
769	0.3845	-3.67058823529	-5.08790322581	3.26666666667	-5.825
770	0.385	-0.782352941176	0.573387096774	0.383333333333	-5.825
771	0.3855	-0.782352941176	14.7266129032	0.383333333333	-7.24
772	0.386	0.661764705882	-5.08790322581	0.383333333333	-5.825
773	0.3865	-5.11470588235	-3.67258064516	0.383333333333	-4.41
774	0.387	-0.782352941176	-5.08790322581	-6.825	-7.24
775	0.3875	0.661764705882	-5.08790322581	-2.5	-2.995
776	0.388	-2.22647058824	-6.50322580645	0.383333333333	2.665
777	0.3885	0.661764705882	-12.164516129	0.383333333333	4.08
778	0.389	-3.67058823529	-10.7491935484	1.825	2.665
779	0.3895	2.10588235294	-5.08790322581	3.26666666667	1.25
780	0.39	-0.782352941176	-2.25725806452	11.9166666667	-0.165
781	0.3905	-0.782352941176	-3.67258064516	16.2416666667	-0.165
782	0.391	2.10588235294	-10.7491935484	3.26666666667	-0.165
783	0.3915	3.55	-9.33387096774	1.825	4.08
784	0.392	-0.782352941176	-2.25725806452	0.383333333333	-7.24
785	0.3925	-2.22647058824	-2.25725806452	17.6833333333	1.25
786	0.393	-0.782352941176	-5.08790322581	20.5666666667	1.25
787	0.3935	0.661764705882	-7.9185483871	0.383333333333	2.665
788	0.394	0.661764705882	-2.25725806452	-1.05833333333	-0.165
789	0.3945	15.1029411765	-3.67258064516	1.825	-0.165
790	0.395	-0.782352941176	-2.25725806452	0.383333333333	5.495
791	0.3955	0.661764705882	-2.25725806452	6.15	4.08
792	0.396	-2.22647058824	-2.25725806452	3.26666666667	2.665
793	0.3965	0.661764705882	0.573387096774	0.383333333333	5.495
794	0.397	-3.67058823529	-5.08790322581	3.26666666667	-0.165
795	0.3975	-8.00294117647	-2.25725806452	0.383333333333	16.815
796	0.398	0.661764705882	-3.67258064516	-1.05833333333	15.4
797	0.3985	-2.22647058824	-3.67258064516	1.825	-1.58
798	0.399	-3.67058823529	14.7266129032	1.825	-2.995
799	0.3995	-2.22647058824	-3.67258064516	0.383333333333	-1.58
800	0.4	-8.00294117647	-2.25725806452	1.825	-2.995
801	0.4005	-2.22647058824	-5.08790322581	1.825	13.985
802	0.401	-0.782352941176	-5.08790322581	16.2416666667	-4.41
803	0.4015	-0.782352941176	9.06532258065	0.383333333333	-4.41
804	0.402	-3.67058823529	-6.50322580645	1.825	-4.41
805	0.4025	-13.7794117647	-7.9185483871	3.26666666667	-2.995
806	0.403	0.661764705882	-5.08790322581	6.15	9.74
807	0.4035	-0.782352941176	-6.50322580645	16.2416666667	-7.24
808	0.404	-0.782352941176	-6.50322580645	0.383333333333	-4.41
809	0.4045	-3.67058823529	-10.7491935484	1.825	-4.41
810	0.405	-12.3352941176	-7.9185483871	0.383333333333	-1.58
811	0.4055	0.661764705882	-6.50322580645	-1.05833333333	-5.825
812	0.406	-0.782352941176	-5.08790322581	4.70833333333	-11.485
813	0.4065	-3.67058823529	-6.50322580645	1.825	-4.41
814	0.407	0.661764705882	-2.25725806452	1.825	-2.995
815	0.4075	0.661764705882	-6.50322580645	4.70833333333	-4.41
816	0.408	9.32647058824	-0.841935483871	3.26666666667	-4.41
817	0.4085	-8.00294117647	-0.841935483871	0.383333333333	-2.995
818	0.409	-2.22647058824	-0.841935483871	-3.94166666667	-1.58
819	0.4095	-0.782352941176	-2.25725806452	3.26666666667	-2.995
820	0.41	0.661764705882	1.98870967742	1.825	-4.41
821	0.4105	-3.67058823529	-2.25725806452	0.383333333333	-1.58
822	0.411	-6.55882352941	-0.841935483871	-2.5	-1.58
823	0.4115	-2.22647058824	-0.841935483871	-6.825	-8.655
824	0.412	-2.22647058824	-2.25725806452	-1.05833333333	-12.9
825	0.4125	-3.67058823529	-2.25725806452	0.383333333333	-2.995
826	0.413	-0.782352941176	-12.164516129	0.383333333333	-4.41
827	0.4135	0.661764705882	-12.164516129	0.383333333333	-1.58
828	0.414	-0.782352941176	-5.08790322581	-1.05833333333	-14.315
829	0.4145	-0.782352941176	-3.67258064516	17.6833333333	-1.58
830	0.415	0.661764705882	-3.67258064516	19.125	-5.825
831	0.4155	-0.782352941176	-12.164516129	0.383333333333	-4.41
832	0.416	3.55	-6.50322580645	1.825	-1.58
833	0.4165	13.6588235294	-2.25725806452	-1.05833333333	-11.485
834	0.417	0.661764705882	-5.08790322581	9.03333333333	-5.825
835	0.4175	-3.67058823529	-5.08790322581	7.59166666667	-7.24
836	0.418	-0.782352941176	-13.5798387097	-1.05833333333	-7.24
837	0.4185	0.661764705882	0.573387096774	0.383333333333	-2.995
838	0.419	-6.55882352941	-6.50322580645	1.825	-7.24
839	0.4195	-9.44705882353	-7.9185483871	0.383333333333	-5.825
840	0.42	0.661764705882	-7.9185483871	17.6833333333	-8.655
841	0.4205	-0.782352941176	-5.08790322581	3.26666666667	-8.655
842	0.421	-0.782352941176	9.06532258065	1.825	-7.24
843	0.4215	-10.8911764706	-6.50322580645	3.26666666667	-1.58
844	0.422	-0.782352941176	-6.50322580645	0.383333333333	-10.07
845	0.4225	2.10588235294	-3.67258064516	-8.26666666667	-5.825
846	0.423	0.661764705882	-6.50322580645	1.825	-2.995
847	0.4235	0.661764705882	-6.50322580645	0.383333333333	-2.995
848	0.424	0.661764705882	-3.67258064516	0.383333333333	-2.995
849	0.4245	15.1029411765	-5.08790322581	1.825	-7.24
850	0.425	-2.22647058824	-5.08790322581	-1.05833333333	-11.485
851	0.4255	2.10588235294	-5.08790322581	-1.05833333333	-2.995
852	0.426	0.661764705882	-13.5798387097	1.825	-4.41
853	0.4265	2.10588235294	-9.33387096774	-2.5	-4.41
854	0.427	-0.782352941176	3.40403225806	0.383333333333	-4.41
855	0.4275	-6.55882352941	-2.25725806452	-1.05833333333	-2.995
856	0.428	-0.782352941176	-5.08790322581	3.26666666667	12.57
857	0.4285	-0.782352941176	-0.841935483871	-1.05833333333	-4.41
858	0.429	-2.22647058824	17.5572580645	1.825	-4.41
859	0.4295	-3.67058823529	9.06532258065	-1.05833333333	-4.41
860	0.43	-13.7794117647	-5.08790322581	0.383333333333	-7.24
861	0.4305	-0.782352941176	-3.67258064516	-11.15	-7.24
862	0.431	0.661764705882	-5.08790322581	-8.26666666667	-10.07
863	0.4315	-0.782352941176	-5.08790322581	-1.05833333333	-8.655
864	0.432	-2.22647058824	-2.25725806452	1.825	-4.41
865	0.4325	-10.8911764706	-5.08790322581	-1.05833333333	-2.995
866	0.433	3.55	-3.67258064516	1.825	-4.41
867	0.4335	-2.22647058824	-6.50322580645	-1.05833333333	-8.655
868	0.434	-2.22647058824	-9.33387096774	-5.38333333333	-2.995
869	0.4345	-0.782352941176	-12.164516129	1.825	-1.58
870	0.435	-2.22647058824	-9.33387096774	4.70833333333	-4.41
871	0.4355	19.4352941176	-7.9185483871	1.825	-5.825
872	0.436	-2.22647058824	-9.33387096774	0.383333333333	-12.9
873	0.4365	-0.782352941176	-7.9185483871	-6.825	-5.825
874	0.437	0.661764705882	-14.9951612903	1.825	-5.825
875	0.4375	0.661764705882	-3.67258064516	3.26666666667	-5.825
876	0.438	0.661764705882	0.573387096774	0.383333333333	-5.825
877	0.4385	-6.55882352941	-5.08790322581	3.26666666667	-4.41
878	0.439	-2.22647058824	-6.50322580645	0.383333333333	13.985
879	0.4395	-0.782352941176	-3.67258064516	19.125	-2.995
880	0.44	-0.782352941176	-13.5798387097	0.383333333333	-4.41
881	0.4405	-0.782352941176	-3.67258064516	0.383333333333	1.25
882	0.441	-10.8911764706	-5.08790322581	0.383333333333	1.25
883	0.4415	-2.22647058824	-3.67258064516	0.383333333333	-0.165
884	0.442	0.661764705882	-2.25725806452	7.59166666667	-5.825
885	0.4425	-2.22647058824	-2.25725806452	-2.5	-2.995
886	0.443	-0.782352941176	0.573387096774	1.825	-2.995
887	0.4435	-5.11470588235	-2.25725806452	0.383333333333	-2.995
888	0.444	7.88235294118	-5.08790322581	4.70833333333	-7.24
889	0.4445	0.661764705882	-2.25725806452	0.383333333333	-8.655
890	0.445	0.661764705882	-0.841935483871	-5.38333333333	-1.58
891	0.4455	0.661764705882	1.98870967742	3.26666666667	-4.41
892	0.446	2.10588235294	-6.50322580645	1.825	-2.995
893	0.4465	-0.782352941176	0.573387096774	0.383333333333	-5.825
894	0.447	0.661764705882	-2.25725806452	3.26666666667	-8.655
895	0.4475	0.661764705882	-0.841935483871	16.2416666667	-4.41
896	0.448	0.661764705882	-3.67258064516	9.03333333333	-4.41
897	0.4485	3.55	-5.08790322581	0.383333333333	-5.825
898	0.449	3.55	3.40403225806	3.26666666667	-1.58
899	0.4495	-2.22647058824	-3.67258064516	1.825	-1.58
900	0.45	-0.782352941176	-5.08790322581	-9.70833333333	-4.41
901	0.4505	-0.782352941176	-5.08790322581	-8.26666666667	-5.825
902	0.451	-2.22647058824	-0.841935483871	-1.05833333333	-1.58
903	0.4515	2.10588235294	-2.25725806452	0.383333333333	-4.41
904	0.452	-0.782352941176	-6.50322580645	0.383333333333	-0.165
905	0.4525	-9.44705882353	-5.08790322581	3.26666666667	-0.165
906	0.453	-0.782352941176	-3.67258064516	3.26666666667	11.155
907	0.4535	-2.22647058824	-5.08790322581	0.383333333333	-5.825
908	0.454	-0.782352941176	-13.5798387097	0.383333333333	-4.41
909	0.4545	-2.22647058824	-6.50322580645	0.383333333333	-5.825
910	0.455	-10.8911764706	0.573387096774	-1.05833333333	-1.58
911	0.4555	-3.67058823529	-2.25725806452	3.26666666667	-10.07
912	0.456	-0.782352941176	0.573387096774	0.383333333333	-11.485
913	0.4565	-0.782352941176	-3.67258064516	-8.26666666667	-2.995
914	0.457	-0.782352941176	6.23467741935	-1.05833333333	-5.825
915	0.4575	-0.782352941176	-5.08790322581	-1.05833333333	-2.995
916	0.458	20.8794117647	-5.08790322581	-1.05833333333	-7.24
917	0.4585	-0.782352941176	-3.67258064516	-3.94166666667	-8.655
918	0.459	-2.22647058824	-3.67258064516	-11.15	-4.41
919	0.4595	-0.782352941176	-0.841935483871	-3.94166666667	-2.995
920	0.46	-5.11470588235	6.23467741935	0.383333333333	-5.825
921	0.4605	-10.8911764706	-2.25725806452	-1.05833333333	-4.41
922	0.461	-6.55882352941	-3.67258064516	-2.5	6.91
923	0.4615	0.661764705882	-3.67258064516	-2.5	15.4
924	0.462	-0.782352941176	-3.67258064516	19.125	-5.825
925	0.4625	-0.782352941176	13.3112903226	-2.5	-1.58
926	0.463	-2.22647058824	-2.25725806452	1.825	-1.58
927	0.4635	-9.44705882353	-7.9185483871	-1.05833333333	-1.58
928	0.464	2.10588235294	-3.67258064516	-6.825	-8.655
929	0.4645	0.661764705882	-5.08790322581	-3.94166666667	-7.24
930	0.465	0.661764705882	-3.67258064516	7.59166666667	-1.58
931	0.4655	0.661764705882	-14.9951612903	0.383333333333	-2.995
932	0.466	-6.55882352941	-12.164516129	-1.05833333333	-2.995
933	0.4665	15.1029411765	-7.9185483871	4.70833333333	-12.9
934	0.467	0.661764705882	-5.08790322581	14.8	-4.41
935	0.4675	-0.782352941176	-10.7491935484	-1.05833333333	-4.41
936	0.468	-2.22647058824	9.06532258065	0.383333333333	-2.995
937	0.4685	-2.22647058824	-9.33387096774	0.383333333333	-2.995
938	0.469	-13.7794117647	-7.9185483871	1.825	-8.655
939	0.4695	-2.22647058824	-6.50322580645	3.26666666667	-4.41
940	0.47	-3.67058823529	-6.50322580645	4.70833333333	-11.485
941	0.4705	-0.782352941176	-3.67258064516	-5.38333333333	-4.41
942	0.471	-3.67058823529	-0.841935483871	0.383333333333	-2.995
943	0.4715	-5.11470588235	-6.50322580645	1.825	-2.995
944	0.472	10.7705882353	-7.9185483871	0.383333333333	-8.655
945	0.4725	0.661764705882	-6.50322580645	-1.05833333333	-12.9
946	0.473	0.661764705882	-3.67258064516	-6.825	-4.41
947	0.4735	0.661764705882	-5.08790322581	-8.26666666667	-4.41
948	0.474	-3.67058823529	-6.50322580645	1.825	-2.995
949	0.4745	-6.55882352941	-5.08790322581	1.825	-0.165
950	0.475	-9.44705882353	-5.08790322581	3.26666666667	-0.165
951	0.4755	-0.782352941176	0.573387096774	0.383333333333	-1.58
952	0.476	-2.22647058824	-5.08790322581	19.125	-1.58
953	0.4765	0.661764705882	-9.33387096774	3.26666666667	-1.58
954	0.477	0.661764705882	-10.7491935484	1.825	-1.58
955	0.4775	17.9911764706	-2.25725806452	1.825	-7.24
956	0.478	-2.22647058824	0.573387096774	4.70833333333	-10.07
957	0.4785	0.661764705882	-2.25725806452	0.383333333333	-0.165
958	0.479	0.661764705882	-2.25725806452	1.825	-1.58
959	0.4795	0.661764705882	-7.9185483871	1.825	-0.165
960	0.48	19.4352941176	-2.25725806452	1.825	-12.9
961	0.4805	-0.782352941176	1.98870967742	3.26666666667	-10.07
962	0.481	0.661764705882	0.573387096774	4.70833333333	-14.315
963	0.4815	0.661764705882	-6.50322580645	1.825	-4.41
964	0.482	-0.782352941176	-6.50322580645	1.825	-1.58
965	0.4825	0.661764705882	-0.841935483871	0.383333333333	-7.24
966	0.483	20.8794117647	0.573387096774	1.825	-15.73
967	0.4835	-2.22647058824	-0.841935483871	16.2416666667	-5.825
968	0.484	-2.22647058824	-0.841935483871	16.2416666667	-7.24
969	0.4845	-3.67058823529	-10.7491935484	0.383333333333	-4.41
970	0.485	0.661764705882	-10.7491935484	1.825	-5.825
971	0.4855	15.1029411765	-0.841935483871	-1.05833333333	-5.825
972	0.486	0.661764705882	-0.841935483871	-1.05833333333	-12.9
973	0.4865	-3.67058823529	-5.08790322581	16.2416666667	-4.41
974	0.487	-2.22647058824	-6.50322580645	1.825	-5.825
975	0.4875	0.661764705882	-10.7491935484	1.825	-5.825
976	0.488	3.55	-3.67258064516	-1.05833333333	-7.24
977	0.4885	17.9911764706	-3.67258064516	0.383333333333	-4.41
978	0.489	0.661764705882	-2.25725806452	-8.26666666667	-12.9
979	0.4895	-2.22647058824	-5.08790322581	-6.825	-7.24
980	0.49	0.661764705882	16.1419354839	-1.05833333333	-4.41
981	0.4905	-2.22647058824	-3.67258064516	-1.05833333333	-1.58
982	0.491	-10.8911764706	-0.841935483871	1.825	-1.58
983	0.4915	0.661764705882	-0.841935483871	-11.15	-7.24
984	0.492	-0.782352941176	-2.25725806452	-9.70833333333	-5.825
985	0.4925	-0.782352941176	0.573387096774	-1.05833333333	-2.995
986	0.493	0.661764705882	10.4806451613	0.383333333333	-1.58
987	0.4935	-10.8911764706	-5.08790322581	0.383333333333	-1.58
988	0.494	0.661764705882	-2.25725806452	-1.05833333333	1.25
989	0.4945	0.661764705882	-2.25725806452	0.383333333333	-1.58
990	0.495	-2.22647058824	0.573387096774	-3.94166666667	-0.165
991	0.4955	0.661764705882	0.573387096774	0.383333333333	-0.165
992	0.496	-0.782352941176	-7.9185483871	3.26666666667	-0.165
993	0.4965	13.6588235294	0.573387096774	1.825	-5.825
994	0.497	-0.782352941176	-2.25725806452	0.383333333333	-8.655
995	0.4975	-0.782352941176	-0.841935483871	3.26666666667	-8.655
996	0.498	0.661764705882	-9.33387096774	1.825	-0.165
997	0.4985	0.661764705882	-12.164516129	3.26666666667	-2.995
998	0.499	4.99411764706	-2.25725806452	-1.05833333333	-1.58
999	0.4995	17.9911764706	-5.08790322581	0.383333333333	-2.995
1000	0.5	-2.22647058824	-0.841935483871	-9.70833333333	-4.41
1001	0.5005	-2.22647058824	-6.50322580645	0.383333333333	-2.995
1002	0.501	2.10588235294	-2.25725806452	0.383333333333	-1.58
1003	0.5015	2.10588235294	-5.08790322581	3.26666666667	-2.995
1004	0.502	4.99411764706	-3.67258064516	0.383333333333	-0.165
1005	0.5025	-0.782352941176	-5.08790322581	3.26666666667	13.985
1006	0.503	0.661764705882	-3.67258064516	19.125	-1.58
1007	0.5035	0.661764705882	-3.67258064516	0.383333333333	-1.58
1008	0.504	0.661764705882	-0.841935483871	-1.05833333333	-1.58
1009	0.5045	-13.7794117647	-5.08790322581	0.383333333333	-0.165
1010	0.505	-6.55882352941	-6.50322580645	-1.05833333333	6.91
1011	0.5055	0.661764705882	-5.08790322581	0.383333333333	2.665
1012	0.506	0.661764705882	-3.67258064516	-2.5	1.25
1013	0.5065	-0.782352941176	-6.50322580645	0.383333333333	1.25
1014	0.507	-0.782352941176	-12.164516129	-1.05833333333	-1.58
1015	0.5075	2.10588235294	-5.08790322581	-1.05833333333	-4.41
1016	0.508	-0.782352941176	-6.50322580645	-1.05833333333	-4.41
1017	0.5085	-0.782352941176	-2.25725806452	-1.05833333333	-7.24
1018	0.509	-0.782352941176	-2.25725806452	3.26666666667	1.25
1019	0.5095	-2.22647058824	-0.841935483871	1.825	-0.165
1020	0.51	-8.00294117647	-6.50322580645	-1.05833333333	-0.165
1021	0.5105	4.99411764706	-3.67258064516	-1.05833333333	-0.165
1022	0.511	-0.782352941176	-2.25725806452	6.15	-2.995
1023	0.5115	-0.782352941176	-3.67258064516	7.59166666667	-2.995
1024	0.512	-2.22647058824	-2.25725806452	1.825	-2.995
1025	0.5125	0.661764705882	-0.841935483871	1.825	-4.41
1026	0.513	2.10588235294	-2.25725806452	-1.05833333333	-1.58
1027	0.5135	-0.782352941176	-6.50322580645	0.383333333333	-4.41
1028	0.514	-0.782352941176	-5.08790322581	7.59166666667	-7.24
1029	0.5145	0.661764705882	0.573387096774	0.383333333333	-5.825
1030	0.515	-0.782352941176	-3.67258064516	3.26666666667	-4.41
1031	0.5155	-12.3352941176	-7.9185483871	1.825	-2.995
1032	0.516	-0.782352941176	-6.50322580645	0.383333333333	-1.58
1033	0.5165	-0.782352941176	-3.67258064516	4.70833333333	-4.41
1034	0.517	-2.22647058824	-6.50322580645	9.03333333333	-4.41
1035	0.5175	-2.22647058824	-7.9185483871	1.825	-4.41
1036	0.518	-5.11470588235	-7.9185483871	-1.05833333333	-2.995
1037	0.5185	10.7705882353	-7.9185483871	3.26666666667	-4.41
1038	0.519	-0.782352941176	-7.9185483871	3.26666666667	-10.07
1039	0.5195	-2.22647058824	-5.08790322581	-2.5	-2.995
1040	0.52	-2.22647058824	-9.33387096774	-6.825	-2.995
1041	0.5205	0.661764705882	3.40403225806	-1.05833333333	-4.41
1042	0.521	-0.782352941176	-7.9185483871	0.383333333333	-1.58
1043	0.5215	-6.55882352941	-6.50322580645	0.383333333333	-4.41
1044	0.522	0.661764705882	-7.9185483871	1.825	8.325
1045	0.5225	0.661764705882	-10.7491935484	-1.05833333333	-2.995
1046	0.523	2.10588235294	-9.33387096774	-1.05833333333	-5.825
1047	0.5235	-0.782352941176	-6.50322580645	1.825	-1.58
1048	0.524	3.55	-6.50322580645	3.26666666667	1.25
1049	0.5245	-0.782352941176	-6.50322580645	3.26666666667	-1.58
1050	0.525	-0.782352941176	-6.50322580645	-3.94166666667	-1.58
1051	0.5255	-2.22647058824	6.23467741935	1.825	-0.165
1052	0.526	-2.22647058824	-6.50322580645	0.383333333333	-0.165
1053	0.5265	-10.8911764706	-5.08790322581	0.383333333333	2.665
1054	0.527	0.661764705882	-5.08790322581	-9.70833333333	-1.58
1055	0.5275	-0.782352941176	-2.25725806452	-11.15	-0.165
1056	0.528	2.10588235294	0.573387096774	0.383333333333	-2.995
1057	0.5285	0.661764705882	0.573387096774	0.383333333333	-1.58
1058	0.529	-12.3352941176	-2.25725806452	0.383333333333	1.25
1059	0.5295	-8.00294117647	-2.25725806452	0.383333333333	2.665
1060	0.53	-0.782352941176	-2.25725806452	13.3583333333	-1.58
1061	0.5305	-0.782352941176	-6.50322580645	0.383333333333	-0.165
1062	0.531	-0.782352941176	4.81935483871	0.383333333333	-2.995
1063	0.5315	-0.782352941176	-3.67258064516	-1.05833333333	-1.58
1064	0.532	-6.55882352941	-5.08790322581	-1.05833333333	-2.995
1065	0.5325	-0.782352941176	-2.25725806452	0.383333333333	-2.995
1066	0.533	0.661764705882	-5.08790322581	-8.26666666667	-1.58
1067	0.5335	-0.782352941176	-0.841935483871	-2.5	-2.995
1068	0.534	-3.67058823529	-9.33387096774	0.383333333333	-1.58
1069	0.5345	-8.00294117647	-5.08790322581	1.825	-1.58
1070	0.535	-0.782352941176	-5.08790322581	4.70833333333	12.57
1071	0.5355	-0.782352941176	-7.9185483871	1.825	-11.485
1072	0.536	-0.782352941176	-6.50322580645	0.383333333333	-0.165
1073	0.5365	-2.22647058824	-13.5798387097	1.825	-1.58
1074	0.537	4.99411764706	-7.9185483871	3.26666666667	-10.07
1075	0.5375	-6.55882352941	-6.50322580645	0.383333333333	-10.07
1076	0.538	-0.782352941176	-7.9185483871	0.383333333333	-0.165
1077	0.5385	-0.782352941176	-6.50322580645	4.70833333333	-2.995
1078	0.539	-0.782352941176	0.573387096774	1.825	-2.995
1079	0.5395	-3.67058823529	-2.25725806452	-2.5	-4.41
1080	0.54	2.10588235294	-5.08790322581	0.383333333333	-4.41
1081	0.5405	0.661764705882	-6.50322580645	0.383333333333	-1.58
1082	0.541	0.661764705882	-5.08790322581	7.59166666667	-8.655
1083	0.5415	-0.782352941176	-14.9951612903	-1.05833333333	-1.58
1084	0.542	-3.67058823529	-7.9185483871	0.383333333333	1.25
1085	0.5425	-13.7794117647	-3.67258064516	1.825	-0.165
1086	0.543	-3.67058823529	-5.08790322581	0.383333333333	-8.655
1087	0.5435	-0.782352941176	-0.841935483871	11.9166666667	-1.58
1088	0.544	0.661764705882	-2.25725806452	3.26666666667	-1.58
1089	0.5445	0.661764705882	0.573387096774	1.825	-4.41
1090	0.545	0.661764705882	0.573387096774	1.825	-4.41
1091	0.5455	15.1029411765	-0.841935483871	0.383333333333	-14.315
1092	0.546	0.661764705882	-2.25725806452	17.6833333333	-2.995
1093	0.5465	0.661764705882	-2.25725806452	16.2416666667	-1.58
1094	0.547	-0.782352941176	-2.25725806452	1.825	-1.58
1095	0.5475	0.661764705882	-10.7491935484	0.383333333333	-2.995
1096	0.548	17.9911764706	-0.841935483871	1.825	-12.9
1097	0.5485	0.661764705882	-0.841935483871	0.383333333333	-4.41
1098	0.549	-0.782352941176	-2.25725806452	1.825	-4.41
1099	0.5495	-0.782352941176	-2.25725806452	16.2416666667	-5.825
1100	0.55	0.661764705882	-10.7491935484	0.383333333333	-4.41
1101	0.5505	-8.00294117647	-3.67258064516	1.825	-4.41
1102	0.551	-8.00294117647	-3.67258064516	0.383333333333	-0.165
1103	0.5515	-2.22647058824	-5.08790322581	3.26666666667	12.57
1104	0.552	0.661764705882	-6.50322580645	16.2416666667	-5.825
1105	0.5525	-3.67058823529	-14.9951612903	-1.05833333333	-2.995
1106	0.553	0.661764705882	-14.9951612903	1.825	-1.58
1107	0.5535	13.6588235294	-7.9185483871	1.825	-8.655
1108	0.554	-2.22647058824	-5.08790322581	3.26666666667	-8.655
1109	0.5545	-0.782352941176	-3.67258064516	17.6833333333	-1.58
1110	0.555	-0.782352941176	-7.9185483871	1.825	-0.165
1111	0.5555	0.661764705882	-10.7491935484	0.383333333333	-0.165
1112	0.556	-5.11470588235	-2.25725806452	1.825	-0.165
1113	0.5565	-9.44705882353	-2.25725806452	0.383333333333	15.4
1114	0.557	-2.22647058824	-2.25725806452	-1.05833333333	13.985
1115	0.5575	-0.782352941176	-6.50322580645	-1.05833333333	-1.58
1116	0.558	2.10588235294	-2.25725806452	0.383333333333	-0.165
1117	0.5585	-0.782352941176	-3.67258064516	1.825	2.665
1118	0.559	17.9911764706	-2.25725806452	0.383333333333	-1.58
1119	0.5595	-0.782352941176	-5.08790322581	0.383333333333	16.815
1120	0.56	0.661764705882	0.573387096774	-6.825	-1.58
1121	0.5605	-0.782352941176	1.98870967742	-6.825	-2.995
1122	0.561	-0.782352941176	0.573387096774	1.825	-1.58
1123	0.5615	-12.3352941176	0.573387096774	1.825	-0.165
1124	0.562	-0.782352941176	0.573387096774	3.26666666667	18.23
1125	0.5625	-0.782352941176	1.98870967742	4.70833333333	-2.995
1126	0.563	0.661764705882	-2.25725806452	22.0083333333	-4.41
1127	0.5635	0.661764705882	-9.33387096774	1.825	-1.58
1128	0.564	3.55	0.573387096774	1.825	-2.995
1129	0.5645	19.4352941176	0.573387096774	1.825	-4.41
1130	0.565	0.661764705882	-0.841935483871	-8.26666666667	-10.07
1131	0.5655	0.661764705882	-3.67258064516	-3.94166666667	-1.58
1132	0.566	-0.782352941176	-12.164516129	1.825	-2.995
1133	0.5665	4.99411764706	-2.25725806452	1.825	-2.995
1134	0.567	-12.3352941176	-5.08790322581	0.383333333333	-0.165
1135	0.5675	-9.44705882353	-3.67258064516	3.26666666667	-0.165
1136	0.568	-0.782352941176	-2.25725806452	16.2416666667	-1.58
1137	0.5685	0.661764705882	-5.08790322581	-1.05833333333	-1.58
1138	0.569	-2.22647058824	6.23467741935	3.26666666667	-4.41
1139	0.5695	-2.22647058824	7.65	0.383333333333	-2.995
1140	0.57	-8.00294117647	-3.67258064516	1.825	-2.995
1141	0.5705	-0.782352941176	-3.67258064516	1.825	13.985
1142	0.571	-2.22647058824	-3.67258064516	14.8	-4.41
1143	0.5715	0.661764705882	10.4806451613	0.383333333333	-1.58
1144	0.572	-5.11470588235	-5.08790322581	3.26666666667	-0.165
1145	0.5725	-12.3352941176	-2.25725806452	0.383333333333	-0.165
1146	0.573	-0.782352941176	-3.67258064516	4.70833333333	16.815
1147	0.5735	-2.22647058824	-0.841935483871	19.125	-1.58
1148	0.574	0.661764705882	1.98870967742	-1.05833333333	1.25
1149	0.5745	-3.67058823529	-6.50322580645	0.383333333333	-1.58
1150	0.575	-12.3352941176	-0.841935483871	0.383333333333	1.25
1151	0.5755	-6.55882352941	0.573387096774	0.383333333333	4.08
1152	0.576	0.661764705882	1.98870967742	4.70833333333	-1.58
1153	0.5765	-2.22647058824	0.573387096774	0.383333333333	-0.165
1154	0.577	0.661764705882	3.40403225806	-1.05833333333	1.25
1155	0.5775	2.10588235294	4.81935483871	0.383333333333	-1.58
1156	0.578	19.4352941176	4.81935483871	4.70833333333	-0.165
1157	0.5785	-0.782352941176	1.98870967742	1.825	-7.24
1158	0.579	-0.782352941176	1.98870967742	0.383333333333	4.08
1159	0.5795	2.10588235294	0.573387096774	-1.05833333333	1.25
1160	0.58	3.55	-7.9185483871	0.383333333333	1.25
1161	0.5805	2.10588235294	-5.08790322581	0.383333333333	1.25
1162	0.581	0.661764705882	0.573387096774	0.383333333333	-7.24
1163	0.5815	0.661764705882	0.573387096774	-2.5	-5.825
1164	0.582	0.661764705882	1.98870967742	-2.5	-1.58
1165	0.5825	0.661764705882	0.573387096774	3.26666666667	-1.58
1166	0.583	-10.8911764706	-0.841935483871	1.825	1.25
1167	0.5835	2.10588235294	-0.841935483871	3.26666666667	4.08
1168	0.584	-0.782352941176	0.573387096774	3.26666666667	-5.825
1169	0.5845	0.661764705882	-3.67258064516	0.383333333333	-4.41
1170	0.585	2.10588235294	10.4806451613	3.26666666667	-2.995
1171	0.5855	-0.782352941176	-5.08790322581	3.26666666667	-1.58
1172	0.586	-9.44705882353	-5.08790322581	1.825	-2.995
1173	0.5865	-2.22647058824	-5.08790322581	-8.26666666667	-2.995
1174	0.587	-2.22647058824	-2.25725806452	-11.15	-7.24
1175	0.5875	0.661764705882	1.98870967742	3.26666666667	-1.58
1176	0.588	-5.11470588235	-3.67258064516	1.825	-0.165
1177	0.5885	-15.2235294118	-2.25725806452	1.825	-4.41
1178	0.589	-10.8911764706	-2.25725806452	0.383333333333	13.985
1179	0.5895	-2.22647058824	0.573387096774	0.383333333333	15.4
1180	0.59	-2.22647058824	1.98870967742	-1.05833333333	-2.995
1181	0.5905	0.661764705882	18.9725806452	-1.05833333333	-2.995
1182	0.591	-3.67058823529	0.573387096774	-1.05833333333	-1.58
1183	0.5915	-9.44705882353	1.98870967742	-2.5	8.325
1184	0.592	-2.22647058824	0.573387096774	-1.05833333333	6.91
1185	0.5925	-0.782352941176	3.40403225806	-2.5	-2.995
1186	0.593	-0.782352941176	1.98870967742	-1.05833333333	-0.165
1187	0.5935	-5.11470588235	-0.841935483871	0.383333333333	-0.165
1188	0.594	-12.3352941176	3.40403225806	0.383333333333	-0.165
1189	0.5945	-0.782352941176	0.573387096774	-1.05833333333	1.25
1190	0.595	2.10588235294	0.573387096774	3.26666666667	-5.825
1191	0.5955	0.661764705882	1.98870967742	-2.5	-1.58
1192	0.596	-2.22647058824	0.573387096774	3.26666666667	4.08
1193	0.5965	-0.782352941176	3.40403225806	3.26666666667	4.08
1194	0.597	-2.22647058824	3.40403225806	1.825	1.25
1195	0.5975	-2.22647058824	1.98870967742	0.383333333333	13.985
1196	0.598	0.661764705882	7.65	11.9166666667	-2.995
1197	0.5985	-0.782352941176	3.40403225806	-1.05833333333	-1.58
1198	0.599	0.661764705882	7.65	0.383333333333	1.25
1199	0.5995	-12.3352941176	3.40403225806	1.825	-1.58
1200	0.6	-9.44705882353	3.40403225806	-1.05833333333	-0.165
1201	0.6005	-2.22647058824	0.573387096774	4.70833333333	-1.58
1202	0.601	0.661764705882	-2.25725806452	14.8	-1.58
1203	0.6015	-0.782352941176	-10.7491935484	-2.5	-2.995
1204	0.602	2.10588235294	-2.25725806452	0.383333333333	-1.58
1205	0.6025	17.9911764706	1.98870967742	-1.05833333333	-2.995
1206	0.603	-2.22647058824	0.573387096774	-1.05833333333	-15.73
1207	0.6035	-0.782352941176	-0.841935483871	-2.5	-4.41
1208	0.604	-0.782352941176	-2.25725806452	-1.05833333333	-4.41
1209	0.6045	0.661764705882	-0.841935483871	-1.05833333333	-4.41
1210	0.605	0.661764705882	0.573387096774	0.383333333333	-4.41
1211	0.6055	-0.782352941176	-2.25725806452	-2.5	-12.9
1212	0.606	0.661764705882	-2.25725806452	-11.15	-1.58
1213	0.6065	0.661764705882	0.573387096774	-1.05833333333	-1.58
1214	0.607	3.55	13.3112903226	1.825	-1.58
1215	0.6075	4.99411764706	-3.67258064516	-1.05833333333	-2.995
1216	0.608	-3.67058823529	0.573387096774	0.383333333333	-2.995
1217	0.6085	-0.782352941176	0.573387096774	-9.70833333333	-4.41
1218	0.609	-2.22647058824	1.98870967742	-8.26666666667	-7.24
1219	0.6095	0.661764705882	16.1419354839	-1.05833333333	-1.58
1220	0.61	-0.782352941176	0.573387096774	0.383333333333	-0.165
1221	0.6105	-10.8911764706	1.98870967742	1.825	-0.165
1222	0.611	-2.22647058824	1.98870967742	1.825	2.665
1223	0.6115	0.661764705882	1.98870967742	3.26666666667	-1.58
1224	0.612	0.661764705882	1.98870967742	3.26666666667	4.08
1225	0.6125	0.661764705882	-5.08790322581	0.383333333333	-0.165
1226	0.613	-0.782352941176	10.4806451613	-1.05833333333	2.665
1227	0.6135	-5.11470588235	3.40403225806	-1.05833333333	1.25
1228	0.614	-0.782352941176	3.40403225806	0.383333333333	1.25
1229	0.6145	0.661764705882	4.81935483871	-8.26666666667	-0.165
1230	0.615	-0.782352941176	0.573387096774	1.825	-0.165
1231	0.6155	0.661764705882	3.40403225806	3.26666666667	1.25
1232	0.616	-5.11470588235	0.573387096774	0.383333333333	-1.58
1233	0.6165	-9.44705882353	0.573387096774	3.26666666667	-2.995
1234	0.617	-2.22647058824	-0.841935483871	-1.05833333333	-1.58
1235	0.6175	0.661764705882	-0.841935483871	16.2416666667	-2.995
1236	0.618	0.661764705882	-6.50322580645	1.825	-1.58
1237	0.6185	-3.67058823529	-10.7491935484	0.383333333333	-2.995
1238	0.619	12.2147058824	-5.08790322581	-1.05833333333	-8.655
1239	0.6195	-5.11470588235	-2.25725806452	3.26666666667	-10.07
1240	0.62	0.661764705882	-5.08790322581	-6.825	1.25
1241	0.6205	0.661764705882	-10.7491935484	0.383333333333	-0.165
1242	0.621	2.10588235294	-13.5798387097	0.383333333333	-1.58
1243	0.6215	3.55	-2.25725806452	1.825	-1.58
1244	0.622	-2.22647058824	-3.67258064516	4.70833333333	-4.41
1245	0.6225	-0.782352941176	-5.08790322581	4.70833333333	-2.995
1246	0.623	0.661764705882	-7.9185483871	-2.5	-1.58
1247	0.6235	-0.782352941176	-5.08790322581	-2.5	-1.58
1248	0.624	-0.782352941176	-3.67258064516	0.383333333333	-2.995
1249	0.6245	0.661764705882	-5.08790322581	3.26666666667	-0.165
1250	0.625	-0.782352941176	-3.67258064516	3.26666666667	16.815
1251	0.6255	-2.22647058824	0.573387096774	4.70833333333	-2.995
1252	0.626	0.661764705882	-0.841935483871	1.825	-1.58
1253	0.6265	0.661764705882	18.9725806452	0.383333333333	-0.165
1254	0.627	-12.3352941176	0.573387096774	0.383333333333	5.495
1255	0.6275	-8.00294117647	0.573387096774	0.383333333333	12.57
1256	0.628	-2.22647058824	0.573387096774	-1.05833333333	4.08
1257	0.6285	0.661764705882	1.98870967742	-2.5	-7.24
1258	0.629	0.661764705882	-2.25725806452	-1.05833333333	-0.165
1259	0.6295	0.661764705882	-10.7491935484	0.383333333333	-1.58
1260	0.63	3.55	-2.25725806452	-1.05833333333	-2.995
1261	0.6305	-8.00294117647	-0.841935483871	-1.05833333333	12.57
1262	0.631	-0.782352941176	-0.841935483871	1.825	2.665
1263	0.6315	2.10588235294	-0.841935483871	4.70833333333	-1.58
1264	0.632	-0.782352941176	-6.50322580645	-2.5	-0.165
1265	0.6325	-2.22647058824	4.81935483871	3.26666666667	-1.58
1266	0.633	-3.67058823529	0.573387096774	0.383333333333	-0.165
1267	0.6335	-8.00294117647	-0.841935483871	-1.05833333333	15.4
1268	0.634	-2.22647058824	-3.67258064516	-6.825	-1.58
1269	0.6345	-2.22647058824	-5.08790322581	1.825	-2.995
1270	0.635	-3.67058823529	-2.25725806452	-1.05833333333	-1.58
1271	0.6355	-3.67058823529	-2.25725806452	1.825	1.25
1272	0.636	-9.44705882353	-0.841935483871	-1.05833333333	13.985
1273	0.6365	-0.782352941176	-3.67258064516	0.383333333333	-0.165
1274	0.637	-0.782352941176	-2.25725806452	-6.825	1.25
1275	0.6375	-2.22647058824	0.573387096774	4.70833333333	-0.165
1276	0.638	-2.22647058824	3.40403225806	0.383333333333	-1.58
1277	0.6385	-8.00294117647	-2.25725806452	1.825	-2.995
1278	0.639	7.88235294118	-2.25725806452	0.383333333333	-7.24
1279	0.6395	-0.782352941176	-3.67258064516	-1.05833333333	-10.07
1280	0.64	-0.782352941176	-2.25725806452	-6.825	-4.41
1281	0.6405	-2.22647058824	9.06532258065	-2.5	-2.995
1282	0.641	3.55	0.573387096774	1.825	-1.58
1283	0.6415	19.4352941176	-0.841935483871	3.26666666667	-4.41
1284	0.642	0.661764705882	-2.25725806452	-1.05833333333	-1.58
1285	0.6425	-2.22647058824	1.98870967742	-9.70833333333	1.25
1286	0.643	-0.782352941176	1.98870967742	6.15	-1.58
1287	0.6435	0.661764705882	0.573387096774	0.383333333333	2.665
1288	0.644	-2.22647058824	4.81935483871	-1.05833333333	2.665
1289	0.6445	-9.44705882353	1.98870967742	1.825	16.815
1290	0.645	-2.22647058824	3.40403225806	1.825	2.665
1291	0.6455	0.661764705882	4.81935483871	0.383333333333	5.495
1292	0.646	-0.782352941176	16.1419354839	0.383333333333	2.665
1293	0.6465	-3.67058823529	1.98870967742	0.383333333333	2.665
1294	0.647	-8.00294117647	0.573387096774	0.383333333333	4.08
1295	0.6475	0.661764705882	4.81935483871	4.70833333333	-1.58
1296	0.648	-0.782352941176	1.98870967742	14.8	-1.58
1297	0.6485	-2.22647058824	3.40403225806	-1.05833333333	-1.58
1298	0.649	-5.11470588235	-2.25725806452	-2.5	-0.165
1299	0.6495	-16.6676470588	0.573387096774	-1.05833333333	-0.165
1300	0.65	-5.11470588235	0.573387096774	-1.05833333333	-1.58
1301	0.6505	-2.22647058824	-0.841935483871	1.825	-4.41
1302	0.651	-2.22647058824	-0.841935483871	4.70833333333	-0.165
1303	0.6515	0.661764705882	-9.33387096774	-1.05833333333	-1.58
1304	0.652	0.661764705882	0.573387096774	1.825	-2.995
1305	0.6525	3.55	-2.25725806452	3.26666666667	-2.995
1306	0.653	-8.00294117647	-0.841935483871	1.825	-4.41
1307	0.6535	0.661764705882	-0.841935483871	-3.94166666667	2.665
1308	0.654	0.661764705882	1.98870967742	-5.38333333333	2.665
1309	0.6545	0.661764705882	14.7266129032	1.825	4.08
1310	0.655	-9.44705882353	0.573387096774	3.26666666667	2.665
1311	0.6555	-8.00294117647	-0.841935483871	0.383333333333	5.495
1312	0.656	0.661764705882	-2.25725806452	-8.26666666667	-0.165
1313	0.6565	0.661764705882	-0.841935483871	-6.825	-2.995
1314	0.657	-0.782352941176	9.06532258065	0.383333333333	4.08
1315	0.6575	0.661764705882	-5.08790322581	1.825	1.25
1316	0.658	7.88235294118	0.573387096774	0.383333333333	-4.41
1317	0.6585	-2.22647058824	3.40403225806	-1.05833333333	-7.24
1318	0.659	-0.782352941176	3.40403225806	-11.15	-8.655
1319	0.6595	0.661764705882	1.98870967742	-8.26666666667	2.665
1320	0.66	0.661764705882	23.2185483871	0.383333333333	1.25
1321	0.6605	0.661764705882	4.81935483871	-1.05833333333	2.665
1322	0.661	17.9911764706	4.81935483871	0.383333333333	-0.165
1323	0.6615	0.661764705882	3.40403225806	-2.5	19.645
1324	0.662	-0.782352941176	6.23467741935	-6.825	-0.165
1325	0.6625	0.661764705882	4.81935483871	-9.70833333333	-1.58
1326	0.663	-2.22647058824	6.23467741935	0.383333333333	-0.165
1327	0.6635	-10.8911764706	4.81935483871	4.70833333333	-0.165
1328	0.664	-9.44705882353	7.65	-1.05833333333	18.23
1329	0.6645	0.661764705882	4.81935483871	-2.5	18.23
1330	0.665	-0.782352941176	6.23467741935	1.825	-1.58
1331	0.6655	0.661764705882	6.23467741935	0.383333333333	-0.165
1332	0.666	-0.782352941176	4.81935483871	-1.05833333333	1.25
1333	0.6665	20.8794117647	3.40403225806	0.383333333333	-11.485
1334	0.667	0.661764705882	0.573387096774	-1.05833333333	-0.165
1335	0.6675	-2.22647058824	1.98870967742	-2.5	-1.58
1336	0.668	0.661764705882	1.98870967742	9.03333333333	-1.58
1337	0.6685	-0.782352941176	-0.841935483871	3.26666666667	-1.58
1338	0.669	-6.55882352941	0.573387096774	0.383333333333	-4.41
1339	0.6695	12.2147058824	-0.841935483871	-1.05833333333	-2.995
1340	0.67	-0.782352941176	0.573387096774	-3.94166666667	-2.995
1341	0.6705	-2.22647058824	-3.67258064516	3.26666666667	-2.995
1342	0.671	0.661764705882	-5.08790322581	1.825	-2.995
1343	0.6715	2.10588235294	-9.33387096774	1.825	-2.995
1344	0.672	17.9911764706	-0.841935483871	1.825	-11.485
1345	0.6725	-0.782352941176	1.98870967742	3.26666666667	-10.07
1346	0.673	0.661764705882	0.573387096774	14.8	-2.995
1347	0.6735	0.661764705882	0.573387096774	11.9166666667	-1.58
1348	0.674	2.10588235294	0.573387096774	0.383333333333	-2.995
1349	0.6745	2.10588235294	0.573387096774	1.825	-0.165
1350	0.675	-5.11470588235	1.98870967742	1.825	-0.165
1351	0.6755	-0.782352941176	0.573387096774	0.383333333333	16.815
1352	0.676	0.661764705882	3.40403225806	0.383333333333	-1.58
1353	0.6765	0.661764705882	0.573387096774	1.825	-1.58
1354	0.677	-2.22647058824	-6.50322580645	-1.05833333333	-2.995
1355	0.6775	-13.7794117647	1.98870967742	-1.05833333333	-1.58
1356	0.678	-8.00294117647	3.40403225806	0.383333333333	-2.995
1357	0.6785	-0.782352941176	1.98870967742	1.825	2.665
1358	0.679	2.10588235294	0.573387096774	-3.94166666667	-5.825
1359	0.6795	-0.782352941176	1.98870967742	-6.825	-2.995
1360	0.68	-0.782352941176	1.98870967742	0.383333333333	-2.995
1361	0.6805	-10.8911764706	1.98870967742	0.383333333333	-4.41
1362	0.681	-9.44705882353	1.98870967742	0.383333333333	-0.165
1363	0.6815	-0.782352941176	1.98870967742	3.26666666667	-7.24
1364	0.682	-2.22647058824	0.573387096774	-1.05833333333	-1.58
1365	0.6825	-3.67058823529	-2.25725806452	-6.825	-1.58
1366	0.683	-3.67058823529	17.5572580645	0.383333333333	-1.58
1367	0.6835	-13.7794117647	-0.841935483871	4.70833333333	-0.165
1368	0.684	-8.00294117647	-2.25725806452	0.383333333333	1.25
1369	0.6845	0.661764705882	0.573387096774	13.3583333333	-5.825
1370	0.685	-2.22647058824	0.573387096774	0.383333333333	-1.58
1371	0.6855	-0.782352941176	-2.25725806452	3.26666666667	-0.165
1372	0.686	-3.67058823529	-2.25725806452	1.825	-2.995
1373	0.6865	10.7705882353	-0.841935483871	3.26666666667	-8.655
1374	0.687	-2.22647058824	-0.841935483871	3.26666666667	-12.9
1375	0.6875	0.661764705882	-3.67258064516	-6.825	-1.58
1376	0.688	-2.22647058824	-13.5798387097	1.825	-4.41
1377	0.6885	0.661764705882	-6.50322580645	-2.5	-0.165
1378	0.689	15.1029411765	0.573387096774	-1.05833333333	-1.58
1379	0.6895	-5.11470588235	-0.841935483871	0.383333333333	-0.165
1380	0.69	-0.782352941176	-2.25725806452	0.383333333333	15.4
1381	0.6905	-0.782352941176	-2.25725806452	-1.05833333333	-2.995
1382	0.691	-0.782352941176	20.3879032258	-2.5	-1.58
1383	0.6915	-2.22647058824	-0.841935483871	0.383333333333	-0.165
1384	0.692	-12.3352941176	-0.841935483871	0.383333333333	-1.58
1385	0.6925	0.661764705882	1.98870967742	1.825	1.25
1386	0.693	-2.22647058824	-0.841935483871	1.825	-10.07
1387	0.6935	-3.67058823529	1.98870967742	-1.05833333333	-5.825
1388	0.694	0.661764705882	1.98870967742	-1.05833333333	-5.825
1389	0.6945	-0.782352941176	3.40403225806	0.383333333333	-2.995
1390	0.695	16.5470588235	3.40403225806	3.26666666667	-14.315
1391	0.6955	0.661764705882	1.98870967742	-1.05833333333	-11.485
1392	0.696	-0.782352941176	6.23467741935	-11.15	-4.41
1393	0.6965	0.661764705882	7.65	7.59166666667	-5.825
1394	0.697	3.55	0.573387096774	0.383333333333	-4.41
1395	0.6975	7.88235294118	1.98870967742	1.825	-1.58
1396	0.698	-6.55882352941	1.98870967742	3.26666666667	-1.58
1397	0.6985	-2.22647058824	0.573387096774	1.825	18.23
1398	0.699	-0.782352941176	1.98870967742	0.383333333333	-1.58
1399	0.6995	0.661764705882	17.5572580645	1.825	-4.41
1400	0.7	-3.67058823529	1.98870967742	3.26666666667	-2.995
1401	0.7005	-9.44705882353	1.98870967742	0.383333333333	-0.165
1402	0.701	-0.782352941176	1.98870967742	-1.05833333333	1.25
1403	0.7015	0.661764705882	1.98870967742	1.825	-10.07
1404	0.702	-2.22647058824	-5.08790322581	-1.05833333333	-5.825
1405	0.7025	0.661764705882	7.65	-1.05833333333	-5.825
1406	0.703	-5.11470588235	3.40403225806	1.825	-4.41
1407	0.7035	16.5470588235	1.98870967742	0.383333333333	-7.24
1408	0.704	0.661764705882	3.40403225806	0.383333333333	15.4
1409	0.7045	0.661764705882	6.23467741935	-3.94166666667	-1.58
1410	0.705	0.661764705882	9.06532258065	-2.5	1.25
1411	0.7055	-2.22647058824	4.81935483871	3.26666666667	-0.165
1412	0.706	-13.7794117647	10.4806451613	0.383333333333	2.665
1413	0.7065	0.661764705882	9.06532258065	3.26666666667	18.23
1414	0.707	0.661764705882	14.7266129032	4.70833333333	-0.165
1415	0.7075	0.661764705882	13.3112903226	9.03333333333	4.08
1416	0.708	-2.22647058824	10.4806451613	1.825	6.91
1417	0.7085	-10.8911764706	17.5572580645	0.383333333333	4.08
1418	0.709	3.55	18.9725806452	-1.05833333333	2.665
1419	0.7095	0.661764705882	18.9725806452	-1.05833333333	1.25
1420	0.71	2.10588235294	21.8032258065	-8.26666666667	5.495
1421	0.7105	-0.782352941176	13.3112903226	0.383333333333	4.08
1422	0.711	0.661764705882	9.06532258065	0.383333333333	5.495
1423	0.7115	20.8794117647	21.8032258065	-1.05833333333	4.08
1424	0.712	0.661764705882	21.8032258065	-3.94166666667	1.25
1425	0.7125	0.661764705882	23.2185483871	13.3583333333	11.155
1426	0.713	0.661764705882	23.2185483871	-3.94166666667	9.74
1427	0.7135	0.661764705882	24.6338709677	-1.05833333333	13.985
1428	0.714	4.99411764706	24.6338709677	1.825	13.985
1429	0.7145	3.55	23.2185483871	0.383333333333	8.325
1430	0.715	-0.782352941176	27.464516129	9.03333333333	16.815
1431	0.7155	0.661764705882	27.464516129	6.15	16.815
1432	0.716	0.661764705882	21.8032258065	-1.05833333333	18.23
1433	0.7165	2.10588235294	21.8032258065	-1.05833333333	13.985
1434	0.717	13.6588235294	28.8798387097	1.825	16.815
1435	0.7175	-0.782352941176	28.8798387097	-3.94166666667	11.155
1436	0.718	2.10588235294	30.2951612903	-6.825	16.815
1437	0.7185	2.10588235294	31.710483871	7.59166666667	16.815
1438	0.719	0.661764705882	33.1258064516	0.383333333333	19.645
1439	0.7195	-0.782352941176	23.2185483871	0.383333333333	19.645
1440	0.72	16.5470588235	28.8798387097	1.825	12.57
1441	0.7205	0.661764705882	30.2951612903	1.825	11.155
1442	0.721	0.661764705882	27.464516129	-9.70833333333	18.23
1443	0.7215	-0.782352941176	21.8032258065	-1.05833333333	21.06
1444	0.722	2.10588235294	23.2185483871	1.825	18.23
1445	0.7225	19.4352941176	30.2951612903	-1.05833333333	9.74
1446	0.723	3.55	30.2951612903	-2.5	5.495
1447	0.7235	2.10588235294	30.2951612903	-9.70833333333	5.495
1448	0.724	2.10588235294	31.710483871	-11.15	11.155
1449	0.7245	3.55	44.4483870968	-1.05833333333	6.91
1450	0.725	4.99411764706	28.8798387097	-1.05833333333	2.665
1451	0.7255	-0.782352941176	27.464516129	-1.05833333333	-7.24
1452	0.726	0.661764705882	23.2185483871	-11.15	-1.58
1453	0.7265	-0.782352941176	20.3879032258	0.383333333333	-4.41
1454	0.727	-0.782352941176	20.3879032258	-2.5	-4.41
1455	0.7275	3.55	18.9725806452	0.383333333333	-7.24
1456	0.728	15.1029411765	18.9725806452	0.383333333333	-11.485
1457	0.7285	-3.67058823529	16.1419354839	-1.05833333333	-15.73
1458	0.729	0.661764705882	14.7266129032	-1.05833333333	-14.315
1459	0.7295	0.661764705882	10.4806451613	14.8	-15.73
1460	0.73	0.661764705882	17.5572580645	1.825	-15.73
1461	0.7305	-2.22647058824	4.81935483871	1.825	-14.315
1462	0.731	-10.8911764706	4.81935483871	-1.05833333333	-1.58
1463	0.7315	0.661764705882	1.98870967742	-1.05833333333	-2.995
1464	0.732	0.661764705882	6.23467741935	-6.825	-15.73
1465	0.7325	-2.22647058824	1.98870967742	-8.26666666667	-14.315
1466	0.733	-0.782352941176	0.573387096774	0.383333333333	-11.485
1467	0.7335	-8.00294117647	-2.25725806452	0.383333333333	-11.485
1468	0.734	2.10588235294	-3.67258064516	4.70833333333	-10.07
1469	0.7345	0.661764705882	-2.25725806452	-8.26666666667	-11.485
1470	0.735	-0.782352941176	-2.25725806452	-2.5	-11.485
1471	0.7355	0.661764705882	-9.33387096774	0.383333333333	-8.655
1472	0.736	0.661764705882	-7.9185483871	1.825	-10.07
1473	0.7365	-5.11470588235	-9.33387096774	0.383333333333	-8.655
1474	0.737	-0.782352941176	-9.33387096774	0.383333333333	12.57
1475	0.7375	-3.67058823529	-7.9185483871	13.3583333333	-4.41
1476	0.738	-0.782352941176	1.98870967742	0.383333333333	-0.165
1477	0.7385	-2.22647058824	-7.9185483871	-2.5	5.495
1478	0.739	-2.22647058824	-7.9185483871	0.383333333333	4.08
1479	0.7395	-2.22647058824	-7.9185483871	1.825	21.06
1480	0.74	-3.67058823529	-7.9185483871	0.383333333333	6.91
1481	0.7405	-2.22647058824	-10.7491935484	16.2416666667	5.495
1482	0.741	-6.55882352941	-19.2411290323	-2.5	6.91
1483	0.7415	-13.7794117647	-10.7491935484	-1.05833333333	8.325
1484	0.742	-3.67058823529	-10.7491935484	0.383333333333	4.08
1485	0.7425	0.661764705882	-9.33387096774	-5.38333333333	-4.41
1486	0.743	-3.67058823529	-10.7491935484	-3.94166666667	2.665
1487	0.7435	-2.22647058824	-14.9951612903	-1.05833333333	2.665
1488	0.744	-0.782352941176	-24.9024193548	-1.05833333333	-1.58
1489	0.7445	-13.7794117647	-14.9951612903	-2.5	1.25
1490	0.745	-2.22647058824	-13.5798387097	0.383333333333	13.985
1491	0.7455	-3.67058823529	-12.164516129	4.70833333333	-1.58
1492	0.746	-2.22647058824	-13.5798387097	16.2416666667	-4.41
1493	0.7465	0.661764705882	-22.0717741935	-1.05833333333	-2.995
1494	0.747	0.661764705882	-10.7491935484	-1.05833333333	-2.995
1495	0.7475	-5.11470588235	-12.164516129	0.383333333333	-1.58
1496	0.748	-2.22647058824	-12.164516129	1.825	5.495
1497	0.7485	-0.782352941176	-13.5798387097	-5.38333333333	-1.58
1498	0.749	-3.67058823529	-10.7491935484	-9.70833333333	-1.58
1499	0.7495	-3.67058823529	-14.9951612903	-2.5	-1.58
1500	0.75	-13.7794117647	-13.5798387097	-1.05833333333	-0.165
1501	0.7505	-3.67058823529	-14.9951612903	1.825	-4.41
1502	0.751	-3.67058823529	-12.164516129	-3.94166666667	-0.165
1503	0.7515	-2.22647058824	-9.33387096774	-3.94166666667	-0.165
1504	0.752	-3.67058823529	1.98870967742	0.383333333333	-1.58
1505	0.7525	-16.6676470588	-12.164516129	-1.05833333333	2.665
1506	0.753	-5.11470588235	-10.7491935484	-1.05833333333	-1.58
1507	0.7535	-5.11470588235	-12.164516129	-6.825	-1.58
1508	0.754	-0.782352941176	-10.7491935484	-1.05833333333	-0.165
1509	0.7545	0.661764705882	4.81935483871	1.825	-2.995
1510	0.755	4.99411764706	-14.9951612903	1.825	-1.58
1511	0.7555	16.5470588235	-12.164516129	-1.05833333333	-5.825
1512	0.756	0.661764705882	-9.33387096774	-2.5	-4.41
1513	0.7565	0.661764705882	-6.50322580645	-8.26666666667	-4.41
1514	0.757	-2.22647058824	-17.8258064516	0.383333333333	-4.41
1515	0.7575	0.661764705882	-5.08790322581	-1.05833333333	-2.995
1516	0.758	0.661764705882	-9.33387096774	-1.05833333333	-8.655
1517	0.7585	-2.22647058824	-6.50322580645	-1.05833333333	-12.9
1518	0.759	-0.782352941176	-5.08790322581	-5.38333333333	-8.655
1519	0.7595	-0.782352941176	-6.50322580645	-2.5	-8.655
1520	0.76	-2.22647058824	-7.9185483871	-1.05833333333	-8.655
1521	0.7605	0.661764705882	-5.08790322581	0.383333333333	-7.24
1522	0.761	19.4352941176	-7.9185483871	0.383333333333	-8.655
1523	0.7615	-5.11470588235	-6.50322580645	4.70833333333	-8.655
1524	0.762	0.661764705882	-5.08790322581	-1.05833333333	-8.655
1525	0.7625	0.661764705882	-5.08790322581	-3.94166666667	-7.24
1526	0.763	-0.782352941176	-0.841935483871	0.383333333333	-8.655
1527	0.7635	2.10588235294	1.98870967742	1.825	-10.07
1528	0.764	-2.22647058824	-3.67258064516	0.383333333333	-15.73
1529	0.7645	-0.782352941176	-5.08790322581	-8.26666666667	-2.995
1530	0.765	0.661764705882	-13.5798387097	0.383333333333	-11.485
1531	0.7655	0.661764705882	-0.841935483871	0.383333333333	-12.9
1532	0.766	0.661764705882	-2.25725806452	-1.05833333333	-12.9
1533	0.7665	-5.11470588235	-6.50322580645	1.825	-8.655
1534	0.767	-2.22647058824	-5.08790322581	-3.94166666667	-8.655
1535	0.7675	-2.22647058824	-5.08790322581	-3.94166666667	-10.07
1536	0.768	0.661764705882	-5.08790322581	0.383333333333	-10.07
1537	0.7685	-5.11470588235	-6.50322580645	1.825	-8.655
1538	0.769	19.4352941176	-9.33387096774	0.383333333333	-11.485
1539	0.7695	0.661764705882	-9.33387096774	1.825	-22.805
1540	0.77	-2.22647058824	-7.9185483871	-1.05833333333	-17.145
1541	0.7705	-0.782352941176	-5.08790322581	3.26666666667	-11.485
1542	0.771	0.661764705882	7.65	3.26666666667	-8.655
1543	0.7715	3.55	-9.33387096774	3.26666666667	-8.655
1544	0.772	-8.00294117647	-6.50322580645	0.383333333333	-5.825
1545	0.7725	0.661764705882	-9.33387096774	-6.825	-11.485
1546	0.773	0.661764705882	-7.9185483871	-9.70833333333	-11.485
1547	0.7735	0.661764705882	9.06532258065	3.26666666667	-10.07
1548	0.774	-3.67058823529	-5.08790322581	0.383333333333	-7.24
1549	0.7745	-10.8911764706	-6.50322580645	1.825	-5.825
1550	0.775	-0.782352941176	-2.25725806452	1.825	6.91
1551	0.7755	-2.22647058824	-5.08790322581	0.383333333333	-8.655
1552	0.776	-0.782352941176	-5.08790322581	20.5666666667	-10.07
1553	0.7765	0.661764705882	-13.5798387097	0.383333333333	-8.655
1554	0.777	2.10588235294	-2.25725806452	1.825	-8.655
1555	0.7775	0.661764705882	-2.25725806452	-2.5	-18.56
1556	0.778	-2.22647058824	-2.25725806452	-9.70833333333	-10.07
1557	0.7785	0.661764705882	-5.08790322581	-5.38333333333	-4.41
1558	0.779	2.10588235294	18.9725806452	1.825	-7.24
1559	0.7795	4.99411764706	-0.841935483871	3.26666666667	-10.07
1560	0.78	22.3235294118	-0.841935483871	1.825	-10.07
1561	0.7805	0.661764705882	-2.25725806452	0.383333333333	8.325
1562	0.781	0.661764705882	-0.841935483871	-11.15	-5.825
1563	0.7815	-0.782352941176	3.40403225806	3.26666666667	-7.24
1564	0.782	3.55	-9.33387096774	4.70833333333	-7.24
1565	0.7825	19.4352941176	-2.25725806452	3.26666666667	-8.655
1566	0.783	0.661764705882	-5.08790322581	1.825	-17.145
1567	0.7835	-2.22647058824	-5.08790322581	-6.825	-10.07
1568	0.784	-2.22647058824	-5.08790322581	1.825	-7.24
1569	0.7845	-0.782352941176	-6.50322580645	-1.05833333333	-8.655
1570	0.785	2.10588235294	-5.08790322581	1.825	-7.24
1571	0.7855	19.4352941176	-6.50322580645	-1.05833333333	-8.655
1572	0.786	2.10588235294	-6.50322580645	-1.05833333333	-8.655
1573	0.7865	-0.782352941176	-5.08790322581	-5.38333333333	-5.825
1574	0.787	-0.782352941176	-3.67258064516	3.26666666667	-8.655
1575	0.7875	-3.67058823529	-2.25725806452	0.383333333333	-5.825
1576	0.788	-3.67058823529	-6.50322580645	-1.05833333333	-8.655
1577	0.7885	-6.55882352941	-2.25725806452	0.383333333333	4.08
1578	0.789	0.661764705882	-2.25725806452	0.383333333333	11.155
1579	0.7895	-2.22647058824	-5.08790322581	1.825	-8.655
1580	0.79	0.661764705882	7.65	1.825	-7.24
1581	0.7905	0.661764705882	-3.67258064516	0.383333333333	-4.41
1582	0.791	-5.11470588235	-5.08790322581	-1.05833333333	-4.41
1583	0.7915	-0.782352941176	-3.67258064516	-1.05833333333	-7.24
1584	0.792	-0.782352941176	0.573387096774	-6.825	-7.24
1585	0.7925	-0.782352941176	0.573387096774	-8.26666666667	-8.655
1586	0.793	-3.67058823529	-2.25725806452	-1.05833333333	-7.24
1587	0.7935	-12.3352941176	-2.25725806452	0.383333333333	-7.24
1588	0.794	-8.00294117647	-3.67258064516	-1.05833333333	-4.41
1589	0.7945	0.661764705882	0.573387096774	4.70833333333	-8.655
1590	0.795	-2.22647058824	-6.50322580645	16.2416666667	-2.995
1591	0.7955	0.661764705882	-14.9951612903	0.383333333333	-1.58
1592	0.796	3.55	-10.7491935484	3.26666666667	-1.58
1593	0.7965	17.9911764706	-2.25725806452	0.383333333333	-2.995
1594	0.797	-2.22647058824	-3.67258064516	3.26666666667	-12.9
1595	0.7975	0.661764705882	-2.25725806452	1.825	-2.995
1596	0.798	0.661764705882	-6.50322580645	0.383333333333	-2.995
1597	0.7985	0.661764705882	-12.164516129	0.383333333333	-4.41
1598	0.799	2.10588235294	-3.67258064516	0.383333333333	-5.825
1599	0.7995	-3.67058823529	-6.50322580645	6.15	-4.41
1600	0.8	-3.67058823529	-3.67258064516	7.59166666667	-4.41
1601	0.8005	-2.22647058824	-6.50322580645	-6.825	-7.24
1602	0.801	0.661764705882	-9.33387096774	1.825	-7.24
1603	0.8015	0.661764705882	-13.5798387097	0.383333333333	-7.24
1604	0.802	16.5470588235	-6.50322580645	1.825	-10.07
1605	0.8025	-2.22647058824	-3.67258064516	0.383333333333	-19.975
1606	0.803	-3.67058823529	-3.67258064516	-11.15	-12.9
1607	0.8035	-0.782352941176	-3.67258064516	-6.825	-7.24
1608	0.804	-0.782352941176	16.1419354839	0.383333333333	-7.24
1609	0.8045	3.55	-3.67258064516	0.383333333333	-8.655
1610	0.805	-2.22647058824	-0.841935483871	-2.5	-11.485
1611	0.8055	-3.67058823529	0.573387096774	-11.15	-5.825
1612	0.806	-0.782352941176	-5.08790322581	1.825	-7.24
1613	0.8065	2.10588235294	6.23467741935	0.383333333333	-7.24
1614	0.807	0.661764705882	-7.9185483871	0.383333333333	-7.24
1615	0.8075	-8.00294117647	-0.841935483871	0.383333333333	-4.41
1616	0.808	-0.782352941176	-0.841935483871	1.825	4.08
1617	0.8085	-0.782352941176	0.573387096774	6.15	-10.07
1618	0.809	-2.22647058824	-0.841935483871	14.8	-4.41
1619	0.8095	-3.67058823529	-3.67258064516	-1.05833333333	-4.41
1620	0.81	-10.8911764706	-0.841935483871	3.26666666667	-2.995
1621	0.8105	-2.22647058824	-0.841935483871	3.26666666667	-4.41
1622	0.811	-2.22647058824	3.40403225806	1.825	6.91
1623	0.8115	-0.782352941176	-0.841935483871	-3.94166666667	-2.995
1624	0.812	-2.22647058824	-2.25725806452	0.383333333333	-2.995
1625	0.8125	0.661764705882	-9.33387096774	1.825	-2.995
1626	0.813	15.1029411765	1.98870967742	0.383333333333	-8.655
1627	0.8135	-2.22647058824	-0.841935483871	-1.05833333333	-11.485
1628	0.814	-0.782352941176	0.573387096774	3.26666666667	-11.485
1629	0.8145	2.10588235294	3.40403225806	17.6833333333	-2.995
1630	0.815	2.10588235294	-9.33387096774	1.825	-1.58
1631	0.8155	3.55	-5.08790322581	0.383333333333	-4.41
1632	0.816	17.9911764706	1.98870967742	1.825	-15.73
1633	0.8165	0.661764705882	0.573387096774	0.383333333333	-15.73
1634	0.817	0.661764705882	-2.25725806452	-1.05833333333	-1.58
1635	0.8175	-0.782352941176	-3.67258064516	-1.05833333333	-2.995
1636	0.818	-0.782352941176	-10.7491935484	1.825	-5.825
1637	0.8185	20.8794117647	-0.841935483871	1.825	-15.73
1638	0.819	-2.22647058824	-2.25725806452	1.825	-18.56
1639	0.8195	-3.67058823529	-3.67258064516	1.825	-11.485
1640	0.82	-0.782352941176	-5.08790322581	1.825	-5.825
1641	0.8205	2.10588235294	-14.9951612903	0.383333333333	-7.24
1642	0.821	3.55	-10.7491935484	1.825	-8.655
1643	0.8215	17.9911764706	-5.08790322581	6.15	-17.145
1644	0.822	-0.782352941176	-3.67258064516	4.70833333333	-10.07
1645	0.8225	-0.782352941176	-5.08790322581	6.15	-7.24
1646	0.823	-2.22647058824	-9.33387096774	0.383333333333	-7.24
1647	0.8235	-2.22647058824	3.40403225806	4.70833333333	-7.24
1648	0.824	7.88235294118	-2.25725806452	-1.05833333333	-5.825
1649	0.8245	-3.67058823529	0.573387096774	4.70833333333	-11.485
1650	0.825	-0.782352941176	-0.841935483871	7.59166666667	-5.825
1651	0.8255	-2.22647058824	0.573387096774	-3.94166666667	-5.825
1652	0.826	-0.782352941176	6.23467741935	1.825	-5.825
1653	0.8265	-6.55882352941	0.573387096774	0.383333333333	-7.24
1654	0.827	10.7705882353	0.573387096774	0.383333333333	-7.24
1655	0.8275	0.661764705882	1.98870967742	-3.94166666667	-8.655
1656	0.828	0.661764705882	0.573387096774	-5.38333333333	-8.655
1657	0.8285	-3.67058823529	-6.50322580645	0.383333333333	-7.24
1658	0.829	3.55	-5.08790322581	1.825	-4.41
1659	0.8295	13.6588235294	4.81935483871	-1.05833333333	-7.24
1660	0.83	0.661764705882	3.40403225806	1.825	-11.485
1661	0.8305	-0.782352941176	1.98870967742	-3.94166666667	-14.315
1662	0.831	3.55	1.98870967742	-6.825	-2.995
1663	0.8315	2.10588235294	-2.25725806452	0.383333333333	-5.825
1664	0.832	-0.782352941176	1.98870967742	1.825	-5.825
1665	0.8325	0.661764705882	-0.841935483871	-1.05833333333	-11.485
1666	0.833	-0.782352941176	-0.841935483871	13.3583333333	-7.24
1667	0.8335	-0.782352941176	0.573387096774	16.2416666667	-8.655
1668	0.834	0.661764705882	-5.08790322581	1.825	-7.24
1669	0.8345	-0.782352941176	-10.7491935484	0.383333333333	-7.24
1670	0.835	16.5470588235	-0.841935483871	1.825	-17.145
1671	0.8355	-0.782352941176	-3.67258064516	4.70833333333	-7.24
1672	0.836	-0.782352941176	-2.25725806452	20.5666666667	-7.24
1673	0.8365	-0.782352941176	-10.7491935484	1.825	-5.825
1674	0.837	0.661764705882	-10.7491935484	3.26666666667	-8.655
1675	0.8375	-8.00294117647	-3.67258064516	1.825	-7.24
1676	0.838	2.10588235294	-5.08790322581	3.26666666667	-4.41
1677	0.8385	-0.782352941176	-0.841935483871	16.2416666667	-8.655
1678	0.839	2.10588235294	-3.67258064516	0.383333333333	-7.24
1679	0.8395	2.10588235294	0.573387096774	1.825	-2.995
1680	0.84	2.10588235294	0.573387096774	0.383333333333	-2.995
1681	0.8405	-2.22647058824	-2.25725806452	-1.05833333333	-10.07
1682	0.841	0.661764705882	-2.25725806452	-2.5	-5.825
1683	0.8415	3.55	-6.50322580645	1.825	-7.24
1684	0.842	0.661764705882	0.573387096774	0.383333333333	-5.825
1685	0.8425	0.661764705882	-0.841935483871	0.383333333333	-8.655
1686	0.843	12.2147058824	0.573387096774	3.26666666667	-4.41
1687	0.8435	-2.22647058824	1.98870967742	-8.26666666667	-5.825
1688	0.844	-0.782352941176	0.573387096774	-1.05833333333	-4.41
1689	0.8445	-0.782352941176	0.573387096774	-1.05833333333	-2.995
1690	0.845	-0.782352941176	-6.50322580645	4.70833333333	-2.995
1691	0.8455	13.6588235294	0.573387096774	1.825	-10.07
1692	0.846	0.661764705882	1.98870967742	4.70833333333	-14.315
1693	0.8465	0.661764705882	0.573387096774	4.70833333333	-1.58
1694	0.847	0.661764705882	-7.9185483871	1.825	-5.825
1695	0.8475	0.661764705882	-3.67258064516	0.383333333333	-7.24
1696	0.848	2.10588235294	1.98870967742	1.825	-10.07
1697	0.8485	12.2147058824	-0.841935483871	-1.05833333333	-8.655
1698	0.849	0.661764705882	-0.841935483871	11.9166666667	-7.24
1699	0.8495	-0.782352941176	1.98870967742	13.3583333333	-10.07
1700	0.85	0.661764705882	-2.25725806452	-2.5	-10.07
1701	0.8505	3.55	-0.841935483871	-1.05833333333	-10.07
1702	0.851	7.88235294118	-0.841935483871	1.825	-10.07
1703	0.8515	-8.00294117647	0.573387096774	3.26666666667	-5.825
1704	0.852	0.661764705882	-2.25725806452	-1.05833333333	-7.24
1705	0.8525	0.661764705882	-0.841935483871	17.6833333333	-4.41
1706	0.853	2.10588235294	-12.164516129	4.70833333333	-5.825
1707	0.8535	-3.67058823529	-3.67258064516	0.383333333333	-4.41
1708	0.854	-9.44705882353	-2.25725806452	0.383333333333	-1.58
1709	0.8545	0.661764705882	-2.25725806452	3.26666666667	5.495
1710	0.855	0.661764705882	-2.25725806452	4.70833333333	-12.9
1711	0.8555	-2.22647058824	-10.7491935484	1.825	-11.485
1712	0.856	-2.22647058824	-3.67258064516	3.26666666667	-10.07
1713	0.8565	-10.8911764706	-2.25725806452	0.383333333333	-12.9
1714	0.857	-0.782352941176	-2.25725806452	4.70833333333	-14.315
1715	0.8575	-2.22647058824	-0.841935483871	1.825	-14.315
1716	0.858	0.661764705882	-0.841935483871	-1.05833333333	-7.24
1717	0.8585	0.661764705882	0.573387096774	1.825	-7.24
1718	0.859	0.661764705882	-0.841935483871	3.26666666667	-10.07
1719	0.8595	0.661764705882	-2.25725806452	0.383333333333	-7.24
1720	0.86	-0.782352941176	0.573387096774	3.26666666667	-0.165
1721	0.8605	-0.782352941176	1.98870967742	-1.05833333333	-8.655
1722	0.861	-0.782352941176	-0.841935483871	16.2416666667	-10.07
1723	0.8615	0.661764705882	-7.9185483871	3.26666666667	-11.485
1724	0.862	-2.22647058824	-6.50322580645	3.26666666667	-10.07
1725	0.8625	16.5470588235	1.98870967742	1.825	-10.07
1726	0.863	-2.22647058824	1.98870967742	-8.26666666667	-14.315
1727	0.8635	-2.22647058824	-2.25725806452	0.383333333333	-5.825
1728	0.864	-0.782352941176	0.573387096774	0.383333333333	-2.995
1729	0.8645	3.55	0.573387096774	0.383333333333	-7.24
1730	0.865	17.9911764706	1.98870967742	0.383333333333	-7.24
1731	0.8655	-0.782352941176	-0.841935483871	6.15	-10.07
1732	0.866	-2.22647058824	-5.08790322581	0.383333333333	-7.24
1733	0.8665	-0.782352941176	-14.9951612903	0.383333333333	-5.825
1734	0.867	-3.67058823529	-9.33387096774	-1.05833333333	-8.655
1735	0.8675	-13.7794117647	-0.841935483871	-1.05833333333	-7.24
1736	0.868	-2.22647058824	-5.08790322581	3.26666666667	-14.315
1737	0.8685	-2.22647058824	-6.50322580645	7.59166666667	-5.825
1738	0.869	-0.782352941176	-5.08790322581	-2.5	-7.24
1739	0.8695	-0.782352941176	-6.50322580645	1.825	-8.655
1740	0.87	0.661764705882	-6.50322580645	0.383333333333	-5.825
1741	0.8705	12.2147058824	-5.08790322581	3.26666666667	-14.315
1742	0.871	-2.22647058824	-2.25725806452	1.825	-18.56
1743	0.8715	0.661764705882	-5.08790322581	-5.38333333333	-10.07
1744	0.872	0.661764705882	-13.5798387097	0.383333333333	-10.07
1745	0.8725	3.55	-6.50322580645	3.26666666667	-12.9
1746	0.873	20.8794117647	-5.08790322581	3.26666666667	-14.315
1747	0.8735	0.661764705882	-5.08790322581	1.825	-19.975
1748	0.874	-2.22647058824	-0.841935483871	-8.26666666667	-8.655
1749	0.8745	-3.67058823529	0.573387096774	0.383333333333	-5.825
1750	0.875	3.55	7.65	-1.05833333333	-5.825
1751	0.8755	4.99411764706	-2.25725806452	1.825	-5.825
1752	0.876	-6.55882352941	-2.25725806452	0.383333333333	-2.995
1753	0.8765	-0.782352941176	-0.841935483871	3.26666666667	8.325
1754	0.877	0.661764705882	1.98870967742	16.2416666667	-5.825
1755	0.8775	-0.782352941176	10.4806451613	0.383333333333	-4.41
1756	0.878	-0.782352941176	-5.08790322581	1.825	-4.41
1757	0.8785	-2.22647058824	1.98870967742	3.26666666667	-7.24
1758	0.879	-2.22647058824	0.573387096774	6.15	-11.485
1759	0.8795	0.661764705882	1.98870967742	1.825	-10.07
1760	0.88	0.661764705882	3.40403225806	-2.5	-5.825
1761	0.8805	2.10588235294	-7.9185483871	1.825	-4.41
1762	0.881	4.99411764706	-0.841935483871	0.383333333333	-7.24
1763	0.8815	16.5470588235	-0.841935483871	4.70833333333	-5.825
1764	0.882	-3.67058823529	0.573387096774	1.825	-11.485
1765	0.8825	-0.782352941176	0.573387096774	-3.94166666667	-12.9
1766	0.883	0.661764705882	-0.841935483871	0.383333333333	-7.24
1767	0.8835	0.661764705882	-9.33387096774	0.383333333333	-7.24
1768	0.884	-13.7794117647	0.573387096774	-1.05833333333	-2.995
1769	0.8845	-8.00294117647	1.98870967742	-1.05833333333	-1.58
1770	0.885	0.661764705882	0.573387096774	3.26666666667	-7.24
1771	0.8855	-0.782352941176	3.40403225806	-5.38333333333	-5.825
1772	0.886	0.661764705882	0.573387096774	0.383333333333	-8.655
1773	0.8865	-0.782352941176	-7.9185483871	1.825	-5.825
1774	0.887	-10.8911764706	1.98870967742	3.26666666667	-2.995
1775	0.8875	2.10588235294	1.98870967742	4.70833333333	5.495
1776	0.888	-0.782352941176	1.98870967742	16.2416666667	-7.24
1777	0.8885	-0.782352941176	3.40403225806	-2.5	-4.41
1778	0.889	0.661764705882	-3.67258064516	0.383333333333	-4.41
1779	0.8895	-3.67058823529	0.573387096774	-1.05833333333	-4.41
1780	0.89	12.2147058824	1.98870967742	-1.05833333333	-12.9
1781	0.8905	-0.782352941176	3.40403225806	1.825	-14.315
1782	0.891	-0.782352941176	1.98870967742	-6.825	-4.41
1783	0.8915	0.661764705882	-6.50322580645	-1.05833333333	-7.24
1784	0.892	-2.22647058824	-6.50322580645	0.383333333333	-4.41
1785	0.8925	19.4352941176	1.98870967742	1.825	-7.24
1786	0.893	-3.67058823529	3.40403225806	4.70833333333	-7.24
1787	0.8935	0.661764705882	3.40403225806	0.383333333333	-0.165
1788	0.894	3.55	-0.841935483871	-1.05833333333	-5.825
1789	0.8945	0.661764705882	0.573387096774	1.825	-4.41
1790	0.895	2.10588235294	6.23467741935	1.825	-5.825
1791	0.8955	-0.782352941176	6.23467741935	-1.05833333333	-15.73
1792	0.896	0.661764705882	6.23467741935	-1.05833333333	-12.9
1793	0.8965	-0.782352941176	6.23467741935	-6.825	-7.24
1794	0.897	0.661764705882	27.464516129	1.825	-8.655
1795	0.8975	4.99411764706	9.06532258065	0.383333333333	-7.24
1796	0.898	15.1029411765	6.23467741935	-1.05833333333	-7.24
1797	0.8985	2.10588235294	4.81935483871	-2.5	1.25
1798	0.899	-0.782352941176	4.81935483871	17.6833333333	-8.655
1799	0.8995	-0.782352941176	6.23467741935	1.825	-7.24
1800	0.9	-2.22647058824	3.40403225806	0.383333333333	-8.655
1801	0.9005	-15.2235294118	0.573387096774	1.825	-8.655
1802	0.901	-9.44705882353	-0.841935483871	-2.5	5.495
1803	0.9015	-3.67058823529	0.573387096774	-5.38333333333	-12.9
1804	0.902	0.661764705882	6.23467741935	-5.38333333333	-11.485
1805	0.9025	0.661764705882	20.3879032258	0.383333333333	-12.9
1806	0.903	4.99411764706	1.98870967742	1.825	-8.655
1807	0.9035	-10.8911764706	1.98870967742	0.383333333333	-19.975
1808	0.904	-0.782352941176	1.98870967742	0.383333333333	-11.485
1809	0.9045	-0.782352941176	3.40403225806	-8.26666666667	-8.655
1810	0.905	0.661764705882	6.23467741935	1.825	-8.655
1811	0.9055	-0.782352941176	1.98870967742	1.825	-11.485
1812	0.906	-2.22647058824	4.81935483871	0.383333333333	-7.24
1813	0.9065	-0.782352941176	1.98870967742	0.383333333333	-1.58
1814	0.907	0.661764705882	4.81935483871	0.383333333333	-12.9
1815	0.9075	0.661764705882	4.81935483871	14.8	-12.9
1816	0.908	-2.22647058824	-2.25725806452	3.26666666667	-11.485
1817	0.9085	-10.8911764706	3.40403225806	1.825	-7.24
1818	0.909	-8.00294117647	6.23467741935	4.70833333333	9.74
1819	0.9095	0.661764705882	6.23467741935	-6.825	-8.655
1820	0.91	2.10588235294	13.3112903226	-2.5	-2.995
1821	0.9105	3.55	0.573387096774	1.825	-1.58
1822	0.911	3.55	7.65	-1.05833333333	-1.58
1823	0.9115	-3.67058823529	6.23467741935	1.825	-8.655
1824	0.912	-0.782352941176	6.23467741935	-3.94166666667	5.495
1825	0.9125	-0.782352941176	6.23467741935	-2.5	-1.58
1826	0.913	-0.782352941176	7.65	-3.94166666667	-4.41
1827	0.9135	0.661764705882	4.81935483871	1.825	-2.995
1828	0.914	-0.782352941176	6.23467741935	0.383333333333	-4.41
1829	0.9145	2.10588235294	4.81935483871	-11.15	-7.24
1830	0.915	2.10588235294	3.40403225806	-8.26666666667	-8.655
1831	0.9155	0.661764705882	10.4806451613	0.383333333333	-10.07
1832	0.916	-3.67058823529	0.573387096774	-1.05833333333	-7.24
1833	0.9165	-10.8911764706	0.573387096774	3.26666666667	-7.24
1834	0.917	7.88235294118	1.98870967742	0.383333333333	-15.73
1835	0.9175	0.661764705882	1.98870967742	1.825	-15.73
1836	0.918	0.661764705882	0.573387096774	0.383333333333	-8.655
1837	0.9185	-0.782352941176	-7.9185483871	0.383333333333	-5.825
1838	0.919	0.661764705882	-6.50322580645	1.825	-5.825
1839	0.9195	16.5470588235	1.98870967742	3.26666666667	-12.9
1840	0.92	-3.67058823529	3.40403225806	3.26666666667	-7.24
1841	0.9205	2.10588235294	3.40403225806	14.8	-4.41
1842	0.921	0.661764705882	0.573387096774	1.825	-8.655
1843	0.9215	0.661764705882	3.40403225806	3.26666666667	-7.24
1844	0.922	-5.11470588235	1.98870967742	3.26666666667	-8.655
1845	0.9225	-8.00294117647	4.81935483871	-1.05833333333	4.08
1846	0.923	2.10588235294	4.81935483871	0.383333333333	5.495
1847	0.9235	0.661764705882	1.98870967742	-1.05833333333	-7.24
1848	0.924	-0.782352941176	6.23467741935	1.825	-11.485
1849	0.9245	-0.782352941176	0.573387096774	3.26666666667	-8.655
1850	0.925	-9.44705882353	4.81935483871	0.383333333333	6.91
1851	0.9255	0.661764705882	1.98870967742	-1.05833333333	5.495
1852	0.926	2.10588235294	4.81935483871	-3.94166666667	-7.24
1853	0.9265	2.10588235294	7.65	3.26666666667	-4.41
1854	0.927	-0.782352941176	14.7266129032	0.383333333333	-10.07
1855	0.9275	-3.67058823529	1.98870967742	0.383333333333	-7.24
1856	0.928	-6.55882352941	3.40403225806	0.383333333333	-7.24
1857	0.9285	2.10588235294	7.65	-8.26666666667	-8.655
1858	0.929	-0.782352941176	9.06532258065	-9.70833333333	-7.24
1859	0.9295	-2.22647058824	6.23467741935	0.383333333333	-7.24
1860	0.93	-12.3352941176	4.81935483871	-1.05833333333	-2.995
1861	0.9305	-6.55882352941	6.23467741935	-2.5	6.91
1862	0.931	0.661764705882	6.23467741935	-1.05833333333	4.08
1863	0.9315	-0.782352941176	10.4806451613	-1.05833333333	-7.24
1864	0.932	2.10588235294	23.2185483871	1.825	-7.24
1865	0.9325	0.661764705882	14.7266129032	-1.05833333333	-8.655
1866	0.933	-3.67058823529	4.81935483871	1.825	-4.41
1867	0.9335	0.661764705882	3.40403225806	-6.825	-11.485
1868	0.934	-0.782352941176	4.81935483871	-1.05833333333	-7.24
1869	0.9345	0.661764705882	18.9725806452	0.383333333333	-7.24
1870	0.935	3.55	-0.841935483871	1.825	-7.24
1871	0.9355	13.6588235294	-0.841935483871	3.26666666667	-8.655
1872	0.936	-0.782352941176	-2.25725806452	1.825	-2.995
1873	0.9365	0.661764705882	0.573387096774	-3.94166666667	-5.825
1874	0.937	-0.782352941176	1.98870967742	11.9166666667	-5.825
1875	0.9375	2.10588235294	-5.08790322581	-1.05833333333	-5.825
1876	0.938	7.88235294118	-0.841935483871	1.825	-2.995
1877	0.9385	-8.00294117647	-2.25725806452	-1.05833333333	4.08
1878	0.939	-0.782352941176	1.98870967742	-1.05833333333	-4.41
1879	0.9395	-0.782352941176	0.573387096774	1.825	-5.825
1880	0.94	0.661764705882	-2.25725806452	3.26666666667	-2.995
1881	0.9405	2.10588235294	10.4806451613	0.383333333333	-0.165
1882	0.941	-5.11470588235	6.23467741935	-1.05833333333	-5.825
1883	0.9415	0.661764705882	4.81935483871	-5.38333333333	2.665
1884	0.942	2.10588235294	1.98870967742	1.825	-2.995
1885	0.9425	0.661764705882	1.98870967742	3.26666666667	-4.41
1886	0.943	3.55	4.81935483871	1.825	-2.995
1887	0.9435	10.7705882353	4.81935483871	0.383333333333	-4.41
1888	0.944	0.661764705882	7.65	-6.825	-2.995
1889	0.9445	0.661764705882	6.23467741935	-1.05833333333	-2.995
1890	0.945	0.661764705882	1.98870967742	-2.5	-4.41
1891	0.9455	-0.782352941176	10.4806451613	-1.05833333333	-5.825
1892	0.946	0.661764705882	7.65	1.825	-2.995
1893	0.9465	3.55	9.06532258065	1.825	-10.07
1894	0.947	0.661764705882	13.3112903226	0.383333333333	-11.485
1895	0.9475	0.661764705882	6.23467741935	-6.825	-4.41
1896	0.948	-0.782352941176	0.573387096774	0.383333333333	-4.41
1897	0.9485	7.88235294118	4.81935483871	0.383333333333	-5.825
1898	0.949	-6.55882352941	6.23467741935	1.825	8.325
1899	0.9495	-2.22647058824	7.65	4.70833333333	-7.24
1900	0.95	0.661764705882	10.4806451613	-1.05833333333	-2.995
1901	0.9505	-3.67058823529	16.1419354839	-2.5	-2.995
1902	0.951	2.10588235294	0.573387096774	1.825	-2.995
1903	0.9515	2.10588235294	4.81935483871	0.383333333333	-1.58
1904	0.952	-2.22647058824	1.98870967742	1.825	-5.825
1905	0.9525	-0.782352941176	3.40403225806	-6.825	-4.41
1906	0.953	-0.782352941176	4.81935483871	-1.05833333333	-4.41
1907	0.9535	0.661764705882	20.3879032258	0.383333333333	-4.41
1908	0.954	16.5470588235	3.40403225806	3.26666666667	-5.825
1909	0.9545	-5.11470588235	0.573387096774	1.825	-5.825
1910	0.955	-0.782352941176	1.98870967742	1.825	-0.165
1911	0.9555	-2.22647058824	6.23467741935	4.70833333333	-2.995
1912	0.956	0.661764705882	9.06532258065	3.26666666667	-1.58
1913	0.9565	2.10588235294	-2.25725806452	0.383333333333	-1.58
1914	0.957	-6.55882352941	4.81935483871	1.825	-2.995
1915	0.9575	0.661764705882	3.40403225806	4.70833333333	13.985
1916	0.958	-3.67058823529	1.98870967742	0.383333333333	-2.995
1917	0.9585	-0.782352941176	-0.841935483871	0.383333333333	-2.995
1918	0.959	-2.22647058824	1.98870967742	0.383333333333	-2.995
1919	0.9595	-13.7794117647	6.23467741935	0.383333333333	2.665
1920	0.96	-6.55882352941	3.40403225806	-2.5	2.665
1921	0.9605	2.10588235294	6.23467741935	13.3583333333	-2.995
1922	0.961	0.661764705882	9.06532258065	-2.5	-1.58
1923	0.9615	0.661764705882	9.06532258065	0.383333333333	1.25
1924	0.962	-6.55882352941	-0.841935483871	-1.05833333333	-0.165
1925	0.9625	12.2147058824	4.81935483871	3.26666666667	-8.655
1926	0.963	0.661764705882	4.81935483871	17.6833333333	-0.165
1927	0.9635	2.10588235294	1.98870967742	-1.05833333333	-2.995
1928	0.964	2.10588235294	23.2185483871	1.825	-1.58
1929	0.9645	-3.67058823529	3.40403225806	1.825	-0.165
1930	0.965	-10.8911764706	0.573387096774	1.825	-1.58
1931	0.9655	0.661764705882	4.81935483871	7.59166666667	4.08
1932	0.966	0.661764705882	4.81935483871	3.26666666667	-1.58
1933	0.9665	0.661764705882	4.81935483871	6.15	-1.58
1934	0.967	-2.22647058824	-3.67258064516	0.383333333333	-0.165
1935	0.9675	-6.55882352941	0.573387096774	0.383333333333	-0.165
1936	0.968	0.661764705882	1.98870967742	-1.05833333333	-8.655
1937	0.9685	2.10588235294	0.573387096774	-2.5	-7.24
1938	0.969	-0.782352941176	-0.841935483871	0.383333333333	1.25
1939	0.9695	-2.22647058824	-0.841935483871	-2.5	-4.41
1940	0.97	-5.11470588235	-2.25725806452	-2.5	-1.58
1941	0.9705	15.1029411765	0.573387096774	0.383333333333	-5.825
1942	0.971	-2.22647058824	0.573387096774	-6.825	-0.165
1943	0.9715	-2.22647058824	-3.67258064516	-1.05833333333	-0.165
1944	0.972	0.661764705882	-5.08790322581	0.383333333333	-1.58
1945	0.9725	-0.782352941176	-10.7491935484	-1.05833333333	-1.58
1946	0.973	19.4352941176	-2.25725806452	1.825	-2.995
1947	0.9735	0.661764705882	-2.25725806452	4.70833333333	-4.41
1948	0.974	-0.782352941176	-0.841935483871	3.26666666667	-2.995
1949	0.9745	-0.782352941176	-12.164516129	1.825	1.25
1950	0.975	0.661764705882	1.98870967742	0.383333333333	-0.165
1951	0.9755	2.10588235294	-0.841935483871	3.26666666667	-1.58
1952	0.976	-6.55882352941	1.98870967742	0.383333333333	-5.825
1953	0.9765	0.661764705882	0.573387096774	0.383333333333	-1.58
1954	0.977	-0.782352941176	3.40403225806	-6.825	1.25
1955	0.9775	-0.782352941176	4.81935483871	1.825	-1.58
1956	0.978	2.10588235294	3.40403225806	1.825	-1.58
1957	0.9785	20.8794117647	3.40403225806	6.15	-11.485
1958	0.979	-0.782352941176	4.81935483871	4.70833333333	-7.24
1959	0.9795	-0.782352941176	3.40403225806	10.475	-0.165
1960	0.98	-0.782352941176	-0.841935483871	0.383333333333	-0.165
1961	0.9805	3.55	20.3879032258	0.383333333333	2.665
1962	0.981	0.661764705882	3.40403225806	0.383333333333	1.25
1963	0.9815	-8.00294117647	6.23467741935	0.383333333333	2.665
1964	0.982	0.661764705882	0.573387096774	-9.70833333333	2.665
1965	0.9825	0.661764705882	0.573387096774	-11.15	-1.58
1966	0.983	0.661764705882	17.5572580645	-1.05833333333	-1.58
1967	0.9835	-3.67058823529	-3.67258064516	0.383333333333	-1.58
1968	0.984	-9.44705882353	-2.25725806452	1.825	15.4
1969	0.9845	-0.782352941176	-5.08790322581	-11.15	-0.165
1970	0.985	-0.782352941176	-3.67258064516	-11.15	-1.58
1971	0.9855	-0.782352941176	-0.841935483871	-1.05833333333	-0.165
1972	0.986	-3.67058823529	-3.67258064516	1.825	1.25
1973	0.9865	-12.3352941176	-6.50322580645	0.383333333333	-1.58
1974	0.987	4.99411764706	-2.25725806452	3.26666666667	-7.24
1975	0.9875	-0.782352941176	-3.67258064516	13.3583333333	-1.58
1976	0.988	-2.22647058824	-5.08790322581	17.6833333333	-1.58
1977	0.9885	-2.22647058824	-13.5798387097	0.383333333333	-1.58
1978	0.989	4.99411764706	-10.7491935484	-2.5	-1.58
1979	0.9895	15.1029411765	-5.08790322581	-1.05833333333	-5.825
1980	0.99	-5.11470588235	-3.67258064516	0.383333333333	4.08
1981	0.9905	-0.782352941176	-5.08790322581	-3.94166666667	-2.995
1982	0.991	0.661764705882	-5.08790322581	1.825	-1.58
1983	0.9915	2.10588235294	14.7266129032	-1.05833333333	-0.165
1984	0.992	3.55	-5.08790322581	-1.05833333333	-0.165
1985	0.9925	-2.22647058824	-2.25725806452	-1.05833333333	-0.165
1986	0.993	0.661764705882	-2.25725806452	-1.05833333333	16.815
1987	0.9935	-2.22647058824	0.573387096774	-11.15	1.25
1988	0.994	0.661764705882	16.1419354839	-2.5	1.25
1989	0.9945	-5.11470588235	18.9725806452	-1.05833333333	1.25
1990	0.995	-12.3352941176	-0.841935483871	0.383333333333	-0.165
1991	0.9955	0.661764705882	0.573387096774	-9.70833333333	-2.995
1992	0.996	2.10588235294	1.98870967742	-6.825	-0.165
1993	0.9965	-0.782352941176	0.573387096774	14.8	-0.165
1994	0.997	-0.782352941176	-7.9185483871	-1.05833333333	4.08
1995	0.9975	-10.8911764706	1.98870967742	0.383333333333	4.08
1996	0.998	-9.44705882353	1.98870967742	0.383333333333	4.08
1997	0.9985	0.661764705882	1.98870967742	14.8	-4.41
1998	0.999	-3.67058823529	3.40403225806	0.383333333333	-1.58
1999	0.9995	0.661764705882	14.7266129032	0.383333333333	-2.995
2000	1.0	0.661764705882	-6.50322580645	3.26666666667	-4.41
2001	1.0005	-5.11470588235	-2.25725806452	1.825	-2.995
2002	1.001	-0.782352941176	-2.25725806452	0.383333333333	-1.58
2003	1.0015	-2.22647058824	-3.67258064516	-8.26666666667	-2.995
2004	1.002	-0.782352941176	0.573387096774	-6.825	-5.825
2005	1.0025	-5.11470588235	14.7266129032	0.383333333333	-5.825
2006	1.003	-13.7794117647	-0.841935483871	-1.05833333333	-0.165
2007	1.0035	-5.11470588235	-5.08790322581	1.825	-0.165
2008	1.004	-0.782352941176	-5.08790322581	9.03333333333	-8.655
2009	1.0045	-0.782352941176	-0.841935483871	-3.94166666667	-2.995
2010	1.005	0.661764705882	-7.9185483871	1.825	-2.995
2011	1.0055	-3.67058823529	-2.25725806452	0.383333333333	-5.825
2012	1.006	15.1029411765	-2.25725806452	0.383333333333	-2.995
2013	1.0065	-0.782352941176	-3.67258064516	3.26666666667	-11.485
2014	1.007	-3.67058823529	-5.08790322581	1.825	1.25
2015	1.0075	0.661764705882	-3.67258064516	0.383333333333	-2.995
2016	1.008	-5.11470588235	-6.50322580645	0.383333333333	-1.58
2017	1.0085	-5.11470588235	-3.67258064516	3.26666666667	5.495
2018	1.009	0.661764705882	-2.25725806452	0.383333333333	-5.825
2019	1.0095	0.661764705882	-2.25725806452	16.2416666667	1.25
2020	1.01	0.661764705882	0.573387096774	19.125	-0.165
2021	1.0105	2.10588235294	-10.7491935484	0.383333333333	2.665
2022	1.011	3.55	0.573387096774	1.825	2.665
2023	1.0115	17.9911764706	-0.841935483871	0.383333333333	-1.58
2024	1.012	0.661764705882	1.98870967742	11.9166666667	-2.995
2025	1.0125	0.661764705882	1.98870967742	6.15	-1.58
2026	1.013	0.661764705882	-3.67258064516	1.825	-1.58
2027	1.0135	0.661764705882	14.7266129032	0.383333333333	-1.58
2028	1.014	-6.55882352941	3.40403225806	0.383333333333	2.665
2029	1.0145	-10.8911764706	-0.841935483871	-1.05833333333	4.08
2030	1.015	0.661764705882	3.40403225806	17.6833333333	-2.995
2031	1.0155	-0.782352941176	6.23467741935	0.383333333333	-0.165
2032	1.016	0.661764705882	10.4806451613	-1.05833333333	-1.58
2033	1.0165	12.2147058824	0.573387096774	4.70833333333	-0.165
2034	1.017	-5.11470588235	0.573387096774	1.825	-7.24
2035	1.0175	-3.67058823529	-0.841935483871	-9.70833333333	-1.58
2036	1.018	-2.22647058824	-2.25725806452	-2.5	-0.165
2037	1.0185	0.661764705882	-2.25725806452	4.70833333333	-0.165
2038	1.019	-13.7794117647	-3.67258064516	0.383333333333	1.25
2039	1.0195	-8.00294117647	-2.25725806452	3.26666666667	1.25
2040	1.02	0.661764705882	-5.08790322581	4.70833333333	-1.58
2041	1.0205	-0.782352941176	-9.33387096774	14.8	-2.995
2042	1.021	0.661764705882	-16.410483871	1.825	-1.58
2043	1.0215	-5.11470588235	-12.164516129	-1.05833333333	1.25
2044	1.022	22.3235294118	-6.50322580645	1.825	-1.58
2045	1.0225	-2.22647058824	-5.08790322581	3.26666666667	-1.58
2046	1.023	-0.782352941176	-6.50322580645	4.70833333333	1.25
2047	1.0235	-0.782352941176	-19.2411290323	0.383333333333	-0.165
2048	1.024	0.661764705882	-7.9185483871	0.383333333333	-0.165
