	Time	Channel 1	Channel 2	Channel 3	Channel 4
0	0.0	-2.05322580645	-1.82469879518	4.32336956522	0.127272727273
1	0.0005	6.41451612903	-1.82469879518	7.13402173913	0.127272727273
2	0.001	3.59193548387	-1.82469879518	5.72869565217	-8.38181818182
3	0.0015	2.18064516129	-8.88795180723	-8.32456521739	-6.96363636364
4	0.002	13.4709677419	-1.82469879518	1.5127173913	1.54545454545
5	0.0025	12.0596774194	-3.23734939759	4.32336956522	0.127272727273
6	0.003	9.23709677419	-3.23734939759	-1.29793478261	-4.12727272727
7	0.0035	10.6483870968	-1.82469879518	4.32336956522	0.127272727273
8	0.004	23.35	-1.82469879518	5.72869565217	-2.70909090909
9	0.0045	7.82580645161	-4.65	4.32336956522	1.54545454545
10	0.005	10.6483870968	-6.06265060241	1.5127173913	1.54545454545
11	0.0055	5.00322580645	-3.23734939759	4.32336956522	-9.8
12	0.006	9.23709677419	-3.23734939759	1.5127173913	18.5636363636
13	0.0065	9.23709677419	-3.23734939759	0.107391304348	-5.54545454545
14	0.007	10.6483870968	-1.82469879518	7.13402173913	0.127272727273
15	0.0075	14.8822580645	2.41325301205	4.32336956522	-1.29090909091
16	0.008	12.0596774194	-0.412048192771	1.5127173913	-1.29090909091
17	0.0085	14.8822580645	5.23855421687	4.32336956522	0.127272727273
18	0.009	14.8822580645	-3.23734939759	4.32336956522	-1.29090909091
19	0.0095	0.76935483871	1.00060240964	2.91804347826	0.127272727273
20	0.01	23.35	-0.412048192771	4.32336956522	-1.29090909091
21	0.0105	12.0596774194	1.00060240964	11.35	-11.2181818182
22	0.011	9.23709677419	-3.23734939759	7.13402173913	0.127272727273
23	0.0115	3.59193548387	-1.82469879518	12.755326087	-1.29090909091
24	0.012	9.23709677419	-6.06265060241	-2.70326086957	1.54545454545
25	0.0125	7.82580645161	-4.65	19.7819565217	0.127272727273
26	0.013	5.00322580645	-10.3006024096	2.91804347826	0.127272727273
27	0.0135	0.76935483871	2.41325301205	4.32336956522	1.54545454545
28	0.014	3.59193548387	-3.23734939759	4.32336956522	1.54545454545
29	0.0145	13.4709677419	-1.82469879518	2.91804347826	1.54545454545
30	0.015	21.9387096774	-1.82469879518	2.91804347826	0.127272727273
31	0.0155	3.59193548387	1.00060240964	5.72869565217	-4.12727272727
32	0.016	2.18064516129	2.41325301205	-6.91923913043	0.127272727273
33	0.0165	3.59193548387	1.00060240964	2.91804347826	-6.96363636364
34	0.017	5.00322580645	2.41325301205	-5.51391304348	0.127272727273
35	0.0175	5.00322580645	-7.47530120482	-4.10858695652	-1.29090909091
36	0.018	5.00322580645	6.65120481928	-5.51391304348	0.127272727273
37	0.0185	2.18064516129	-0.412048192771	-2.70326086957	0.127272727273
38	0.019	0.76935483871	2.41325301205	-1.29793478261	-1.29090909091
39	0.0195	-0.641935483871	1.00060240964	1.5127173913	14.3090909091
40	0.02	0.76935483871	-0.412048192771	0.107391304348	-1.29090909091
41	0.0205	3.59193548387	-4.65	-8.32456521739	-2.70909090909
42	0.021	0.76935483871	-0.412048192771	18.3766304348	0.127272727273
43	0.0215	2.18064516129	-1.82469879518	-8.32456521739	-2.70909090909
44	0.022	3.59193548387	10.8891566265	-1.29793478261	0.127272727273
45	0.0225	3.59193548387	15.1271084337	-1.29793478261	-2.70909090909
46	0.023	2.18064516129	-10.3006024096	-1.29793478261	0.127272727273
47	0.0235	-7.69838709677	-0.412048192771	-4.10858695652	0.127272727273
48	0.024	-4.87580645161	-1.82469879518	0.107391304348	-11.2181818182
49	0.0245	3.59193548387	-3.23734939759	-1.29793478261	7.21818181818
50	0.025	3.59193548387	-4.65	-9.72989130435	-4.12727272727
51	0.0255	2.18064516129	-1.82469879518	-12.5405434783	-4.12727272727
52	0.026	-0.641935483871	-0.412048192771	14.1606521739	0.127272727273
53	0.0265	3.59193548387	-1.82469879518	-1.29793478261	2.96363636364
54	0.027	7.82580645161	1.00060240964	-2.70326086957	-1.29090909091
55	0.0275	7.82580645161	-1.82469879518	-1.29793478261	0.127272727273
56	0.028	5.00322580645	-0.412048192771	-2.70326086957	0.127272727273
57	0.0285	10.6483870968	-3.23734939759	-4.10858695652	0.127272727273
58	0.029	-2.05322580645	1.00060240964	-6.91923913043	5.8
59	0.0295	9.23709677419	-0.412048192771	1.5127173913	-6.96363636364
60	0.03	10.6483870968	-0.412048192771	-2.70326086957	10.0545454545
61	0.0305	10.6483870968	-1.82469879518	7.13402173913	-1.29090909091
62	0.031	9.23709677419	-1.82469879518	-9.72989130435	-2.70909090909
63	0.0315	10.6483870968	-3.23734939759	-1.29793478261	-2.70909090909
64	0.032	7.82580645161	-3.23734939759	-1.29793478261	1.54545454545
65	0.0325	9.23709677419	2.41325301205	-2.70326086957	-1.29090909091
66	0.033	7.82580645161	1.00060240964	-1.29793478261	0.127272727273
67	0.0335	10.6483870968	1.00060240964	0.107391304348	1.54545454545
68	0.034	9.23709677419	-3.23734939759	-2.70326086957	15.7272727273
69	0.0345	7.82580645161	-1.82469879518	-1.29793478261	-8.38181818182
70	0.035	9.23709677419	1.00060240964	-6.91923913043	5.8
71	0.0355	5.00322580645	-4.65	2.91804347826	-2.70909090909
72	0.036	5.00322580645	1.00060240964	2.91804347826	-2.70909090909
73	0.0365	5.00322580645	1.00060240964	4.32336956522	0.127272727273
74	0.037	5.00322580645	-8.88795180723	4.32336956522	0.127272727273
75	0.0375	-6.28709677419	-1.82469879518	4.32336956522	-1.29090909091
76	0.038	10.6483870968	-1.82469879518	5.72869565217	-1.29090909091
77	0.0385	-4.87580645161	-0.412048192771	8.53934782609	-12.6363636364
78	0.039	5.00322580645	-3.23734939759	8.53934782609	14.3090909091
79	0.0395	3.59193548387	1.00060240964	7.13402173913	0.127272727273
80	0.04	5.00322580645	-4.65	2.91804347826	0.127272727273
81	0.0405	0.76935483871	1.00060240964	4.32336956522	0.127272727273
82	0.041	3.59193548387	-4.65	7.13402173913	1.54545454545
83	0.0415	3.59193548387	6.65120481928	7.13402173913	0.127272727273
84	0.042	7.82580645161	-6.06265060241	2.91804347826	0.127272727273
85	0.0425	-9.10967741935	1.00060240964	4.32336956522	-2.70909090909
86	0.043	16.2935483871	-1.82469879518	4.32336956522	0.127272727273
87	0.0435	0.76935483871	-1.82469879518	2.91804347826	7.21818181818
88	0.044	0.76935483871	-1.82469879518	-2.70326086957	-2.70909090909
89	0.0445	0.76935483871	-1.82469879518	7.13402173913	-1.29090909091
90	0.045	3.59193548387	-1.82469879518	-1.29793478261	-1.29090909091
91	0.0455	0.76935483871	-4.65	-5.51391304348	-1.29090909091
92	0.046	2.18064516129	-4.65	4.32336956522	-1.29090909091
93	0.0465	-2.05322580645	-4.65	5.72869565217	-1.29090909091
94	0.047	-13.3435483871	-6.06265060241	5.72869565217	-1.29090909091
95	0.0475	17.7048387097	-4.65	7.13402173913	0.127272727273
96	0.048	-10.5209677419	-3.23734939759	8.53934782609	-2.70909090909
97	0.0485	-9.10967741935	-4.65	8.53934782609	1.54545454545
98	0.049	0.76935483871	-3.23734939759	26.8085869565	-1.29090909091
99	0.0495	3.59193548387	-6.06265060241	26.8085869565	0.127272727273
100	0.05	3.59193548387	-3.23734939759	2.91804347826	-2.70909090909
101	0.0505	2.18064516129	3.82590361446	8.53934782609	-2.70909090909
102	0.051	9.23709677419	-10.3006024096	11.35	-1.29090909091
103	0.0515	10.6483870968	2.41325301205	8.53934782609	-2.70909090909
104	0.052	-2.05322580645	1.00060240964	7.13402173913	-1.29090909091
105	0.0525	23.35	-0.412048192771	7.13402173913	0.127272727273
106	0.053	10.6483870968	-0.412048192771	5.72869565217	0.127272727273
107	0.0535	9.23709677419	-0.412048192771	5.72869565217	-5.54545454545
108	0.054	7.82580645161	-0.412048192771	-4.10858695652	-2.70909090909
109	0.0545	7.82580645161	1.00060240964	11.35	-6.96363636364
110	0.055	9.23709677419	-0.412048192771	22.5926086957	0.127272727273
111	0.0555	3.59193548387	-7.47530120482	7.13402173913	0.127272727273
112	0.056	10.6483870968	6.65120481928	1.5127173913	0.127272727273
113	0.0565	12.0596774194	-1.82469879518	4.32336956522	0.127272727273
114	0.057	5.00322580645	1.00060240964	4.32336956522	1.54545454545
115	0.0575	9.23709677419	-1.82469879518	2.91804347826	-4.12727272727
116	0.058	-3.46451612903	1.00060240964	4.32336956522	-12.6363636364
117	0.0585	5.00322580645	-3.23734939759	-1.29793478261	0.127272727273
118	0.059	3.59193548387	-0.412048192771	5.72869565217	-1.29090909091
119	0.0595	2.18064516129	-3.23734939759	-5.51391304348	-1.29090909091
120	0.06	3.59193548387	1.00060240964	1.5127173913	-2.70909090909
121	0.0605	3.59193548387	-4.65	1.5127173913	-1.29090909091
122	0.061	3.59193548387	-4.65	2.91804347826	-1.29090909091
123	0.0615	-11.9322580645	-0.412048192771	2.91804347826	-1.29090909091
124	0.062	-10.5209677419	-0.412048192771	0.107391304348	-4.12727272727
125	0.0625	17.7048387097	1.00060240964	1.5127173913	-5.54545454545
126	0.063	5.00322580645	2.41325301205	0.107391304348	15.7272727273
127	0.0635	3.59193548387	2.41325301205	-4.10858695652	-8.38181818182
128	0.064	10.6483870968	1.00060240964	7.13402173913	1.54545454545
129	0.0645	9.23709677419	-0.412048192771	8.53934782609	-1.29090909091
130	0.065	7.82580645161	1.00060240964	7.13402173913	0.127272727273
131	0.0655	9.23709677419	-10.3006024096	7.13402173913	0.127272727273
132	0.066	3.59193548387	-10.3006024096	4.32336956522	0.127272727273
133	0.0665	5.00322580645	1.00060240964	5.72869565217	0.127272727273
134	0.067	14.8822580645	-6.06265060241	5.72869565217	0.127272727273
135	0.0675	-3.46451612903	-4.65	4.32336956522	1.54545454545
136	0.068	-4.87580645161	-6.06265060241	4.32336956522	-6.96363636364
137	0.0685	-4.87580645161	-4.65	12.755326087	-1.29090909091
138	0.069	-3.46451612903	-0.412048192771	21.1872826087	-4.12727272727
139	0.0695	-0.641935483871	3.82590361446	-2.70326086957	-1.29090909091
140	0.07	-0.641935483871	-6.06265060241	8.53934782609	-4.12727272727
141	0.0705	-2.05322580645	-0.412048192771	4.32336956522	-2.70909090909
142	0.071	-13.3435483871	-0.412048192771	5.72869565217	-2.70909090909
143	0.0715	19.1161290323	-0.412048192771	4.32336956522	0.127272727273
144	0.072	12.0596774194	-0.412048192771	4.32336956522	-5.54545454545
145	0.0725	-0.641935483871	1.00060240964	2.91804347826	7.21818181818
146	0.073	0.76935483871	-0.412048192771	19.7819565217	0.127272727273
147	0.0735	3.59193548387	2.41325301205	-1.29793478261	0.127272727273
148	0.074	7.82580645161	1.00060240964	4.32336956522	0.127272727273
149	0.0745	3.59193548387	-8.88795180723	4.32336956522	0.127272727273
150	0.075	5.00322580645	20.7777108434	5.72869565217	-2.70909090909
151	0.0755	0.76935483871	-7.47530120482	4.32336956522	0.127272727273
152	0.076	5.00322580645	-4.65	2.91804347826	-4.12727272727
153	0.0765	9.23709677419	-6.06265060241	4.32336956522	-8.38181818182
154	0.077	-0.641935483871	-1.82469879518	2.91804347826	10.0545454545
155	0.0775	3.59193548387	-0.412048192771	4.32336956522	-9.8
156	0.078	5.00322580645	1.00060240964	4.32336956522	-6.96363636364
157	0.0785	5.00322580645	1.00060240964	4.32336956522	0.127272727273
158	0.079	7.82580645161	2.41325301205	7.13402173913	0.127272727273
159	0.0795	7.82580645161	-13.1259036145	8.53934782609	0.127272727273
160	0.08	3.59193548387	-10.3006024096	8.53934782609	-1.29090909091
161	0.0805	0.76935483871	1.00060240964	11.35	-2.70909090909
162	0.081	20.5274193548	1.00060240964	8.53934782609	2.96363636364
163	0.0815	3.59193548387	-0.412048192771	7.13402173913	1.54545454545
164	0.082	5.00322580645	-1.82469879518	9.94467391304	-2.70909090909
165	0.0825	3.59193548387	1.00060240964	0.107391304348	-4.12727272727
166	0.083	5.00322580645	1.00060240964	23.9979347826	-5.54545454545
167	0.0835	7.82580645161	3.82590361446	11.35	-2.70909090909
168	0.084	10.6483870968	3.82590361446	8.53934782609	-4.12727272727
169	0.0845	5.00322580645	-0.412048192771	5.72869565217	-2.70909090909
170	0.085	5.00322580645	2.41325301205	4.32336956522	0.127272727273
171	0.0855	5.00322580645	-0.412048192771	4.32336956522	0.127272727273
172	0.086	19.1161290323	-0.412048192771	2.91804347826	0.127272727273
173	0.0865	0.76935483871	1.00060240964	2.91804347826	5.8
174	0.087	5.00322580645	2.41325301205	7.13402173913	-6.96363636364
175	0.0875	5.00322580645	-0.412048192771	5.72869565217	-9.8
176	0.088	2.18064516129	1.00060240964	4.32336956522	0.127272727273
177	0.0885	0.76935483871	1.00060240964	18.3766304348	-4.12727272727
178	0.089	5.00322580645	13.7144578313	11.35	-2.70909090909
179	0.0895	5.00322580645	-6.06265060241	8.53934782609	0.127272727273
180	0.09	2.18064516129	-6.06265060241	8.53934782609	-1.29090909091
181	0.0905	7.82580645161	1.00060240964	7.13402173913	0.127272727273
182	0.091	-2.05322580645	2.41325301205	11.35	-14.0545454545
183	0.0915	3.59193548387	2.41325301205	12.755326087	-1.29090909091
184	0.092	7.82580645161	1.00060240964	18.3766304348	0.127272727273
185	0.0925	5.00322580645	2.41325301205	8.53934782609	-2.70909090909
186	0.093	9.23709677419	-3.23734939759	12.755326087	-1.29090909091
187	0.0935	0.76935483871	-1.82469879518	12.755326087	-1.29090909091
188	0.094	5.00322580645	10.8891566265	11.35	0.127272727273
189	0.0945	7.82580645161	17.9524096386	14.1606521739	-1.29090909091
190	0.095	9.23709677419	-10.3006024096	14.1606521739	0.127272727273
191	0.0955	14.8822580645	-0.412048192771	12.755326087	2.96363636364
192	0.096	0.76935483871	-3.23734939759	11.35	-2.70909090909
193	0.0965	5.00322580645	1.00060240964	7.13402173913	-8.38181818182
194	0.097	9.23709677419	-0.412048192771	18.3766304348	-2.70909090909
195	0.0975	9.23709677419	1.00060240964	21.1872826087	-6.96363636364
196	0.098	7.82580645161	-1.82469879518	0.107391304348	-1.29090909091
197	0.0985	7.82580645161	-4.65	26.8085869565	-4.12727272727
198	0.099	10.6483870968	-8.88795180723	4.32336956522	-1.29090909091
199	0.0995	7.82580645161	-8.88795180723	7.13402173913	-2.70909090909
200	0.1	12.0596774194	-0.412048192771	5.72869565217	-2.70909090909
201	0.1005	7.82580645161	-0.412048192771	5.72869565217	-11.2181818182
202	0.101	-2.05322580645	-1.82469879518	7.13402173913	-2.70909090909
203	0.1015	9.23709677419	-1.82469879518	8.53934782609	-2.70909090909
204	0.102	7.82580645161	1.00060240964	12.755326087	15.7272727273
205	0.1025	10.6483870968	-0.412048192771	1.5127173913	-1.29090909091
206	0.103	9.23709677419	1.00060240964	5.72869565217	-1.29090909091
207	0.1035	9.23709677419	-8.88795180723	7.13402173913	-2.70909090909
208	0.104	7.82580645161	20.7777108434	7.13402173913	-4.12727272727
209	0.1045	3.59193548387	2.41325301205	4.32336956522	-1.29090909091
210	0.105	-6.28709677419	1.00060240964	4.32336956522	-5.54545454545
211	0.1055	24.7612903226	-0.412048192771	4.32336956522	0.127272727273
212	0.106	-3.46451612903	-0.412048192771	5.72869565217	5.8
213	0.1065	3.59193548387	-1.82469879518	0.107391304348	-9.8
214	0.107	3.59193548387	-3.23734939759	18.3766304348	-1.29090909091
215	0.1075	3.59193548387	-3.23734939759	5.72869565217	0.127272727273
216	0.108	0.76935483871	1.00060240964	5.72869565217	0.127272727273
217	0.1085	3.59193548387	3.82590361446	7.13402173913	-1.29090909091
218	0.109	5.00322580645	17.9524096386	7.13402173913	-2.70909090909
219	0.1095	7.82580645161	-0.412048192771	4.32336956522	-2.70909090909
220	0.11	27.5838709677	2.41325301205	8.53934782609	1.54545454545
221	0.1105	-3.46451612903	2.41325301205	7.13402173913	-4.12727272727
222	0.111	0.76935483871	1.00060240964	8.53934782609	12.8909090909
223	0.1115	6.41451612903	1.00060240964	25.4032608696	-1.29090909091
224	0.112	3.59193548387	1.00060240964	8.53934782609	-1.29090909091
225	0.1125	3.59193548387	3.82590361446	12.755326087	-1.29090909091
226	0.113	0.76935483871	-10.3006024096	14.1606521739	-1.29090909091
227	0.1135	5.00322580645	9.4765060241	12.755326087	-2.70909090909
228	0.114	-6.28709677419	-0.412048192771	15.5659782609	-5.54545454545
229	0.1145	26.1725806452	1.00060240964	16.9713043478	1.54545454545
230	0.115	-4.87580645161	2.41325301205	18.3766304348	-1.29090909091
231	0.1155	-2.05322580645	1.00060240964	19.7819565217	2.96363636364
232	0.116	9.23709677419	2.41325301205	19.7819565217	-2.70909090909
233	0.1165	10.6483870968	3.82590361446	1.5127173913	0.127272727273
234	0.117	10.6483870968	1.00060240964	15.5659782609	0.127272727273
235	0.1175	10.6483870968	-1.82469879518	11.35	0.127272727273
236	0.118	10.6483870968	15.1271084337	11.35	-4.12727272727
237	0.1185	2.18064516129	-6.06265060241	9.94467391304	0.127272727273
238	0.119	-0.641935483871	3.82590361446	11.35	-4.12727272727
239	0.1195	12.0596774194	2.41325301205	7.13402173913	-4.12727272727
240	0.12	-0.641935483871	1.00060240964	12.755326087	-14.0545454545
241	0.1205	-0.641935483871	1.00060240964	8.53934782609	14.3090909091
242	0.121	0.76935483871	1.00060240964	18.3766304348	-2.70909090909
243	0.1215	2.18064516129	1.00060240964	7.13402173913	-1.29090909091
244	0.122	2.18064516129	6.65120481928	4.32336956522	-2.70909090909
245	0.1225	0.76935483871	-6.06265060241	5.72869565217	-2.70909090909
246	0.123	0.76935483871	10.8891566265	2.91804347826	-2.70909090909
247	0.1235	0.76935483871	-3.23734939759	1.5127173913	-2.70909090909
248	0.124	17.7048387097	1.00060240964	2.91804347826	0.127272727273
249	0.1245	-7.69838709677	-0.412048192771	-1.29793478261	-4.12727272727
250	0.125	2.18064516129	-0.412048192771	0.107391304348	1.54545454545
251	0.1255	0.76935483871	1.00060240964	-9.72989130435	-5.54545454545
252	0.126	0.76935483871	-1.82469879518	-4.10858695652	-4.12727272727
253	0.1265	0.76935483871	2.41325301205	1.5127173913	0.127272727273
254	0.127	0.76935483871	-1.82469879518	4.32336956522	-2.70909090909
255	0.1275	7.82580645161	-0.412048192771	4.32336956522	-4.12727272727
256	0.128	0.76935483871	-8.88795180723	0.107391304348	-4.12727272727
257	0.1285	20.5274193548	-1.82469879518	0.107391304348	0.127272727273
258	0.129	17.7048387097	1.00060240964	1.5127173913	-6.96363636364
259	0.1295	-0.641935483871	1.00060240964	-1.29793478261	0.127272727273
260	0.13	3.59193548387	1.00060240964	0.107391304348	14.3090909091
261	0.1305	5.00322580645	-1.82469879518	15.5659782609	-1.29090909091
262	0.131	2.18064516129	-3.23734939759	-1.29793478261	-1.29090909091
263	0.1315	3.59193548387	1.00060240964	2.91804347826	-2.70909090909
264	0.132	0.76935483871	-10.3006024096	1.5127173913	-2.70909090909
265	0.1325	-0.641935483871	-10.3006024096	2.91804347826	1.54545454545
266	0.133	-3.46451612903	-1.82469879518	4.32336956522	-2.70909090909
267	0.1335	10.6483870968	-3.23734939759	1.5127173913	1.54545454545
268	0.134	3.59193548387	-6.06265060241	1.5127173913	-9.8
269	0.1345	2.18064516129	-4.65	8.53934782609	-8.38181818182
270	0.135	3.59193548387	-3.23734939759	11.35	-4.12727272727
271	0.1355	2.18064516129	-1.82469879518	2.91804347826	0.127272727273
272	0.136	6.41451612903	-4.65	8.53934782609	-2.70909090909
273	0.1365	7.82580645161	-7.47530120482	14.1606521739	-1.29090909091
274	0.137	3.59193548387	-7.47530120482	11.35	-2.70909090909
275	0.1375	0.76935483871	10.8891566265	11.35	-2.70909090909
276	0.138	17.7048387097	-4.65	14.1606521739	-4.12727272727
277	0.1385	14.8822580645	-3.23734939759	11.35	-5.54545454545
278	0.139	-4.87580645161	-4.65	14.1606521739	0.127272727273
279	0.1395	0.76935483871	-3.23734939759	0.107391304348	-2.70909090909
280	0.14	3.59193548387	-1.82469879518	21.1872826087	-2.70909090909
281	0.1405	0.76935483871	-4.65	8.53934782609	-2.70909090909
282	0.141	3.59193548387	2.41325301205	12.755326087	-1.29090909091
283	0.1415	7.82580645161	-11.713253012	8.53934782609	-1.29090909091
284	0.142	5.00322580645	-8.88795180723	7.13402173913	-1.29090909091
285	0.1425	-9.10967741935	-4.65	8.53934782609	0.127272727273
286	0.143	-11.9322580645	-3.23734939759	7.13402173913	-1.29090909091
287	0.1435	17.7048387097	-4.65	8.53934782609	1.54545454545
288	0.144	3.59193548387	-6.06265060241	8.53934782609	-11.2181818182
289	0.1445	0.76935483871	-4.65	-2.70326086957	0.127272727273
290	0.145	0.76935483871	-3.23734939759	21.1872826087	-2.70909090909
291	0.1455	0.76935483871	-4.65	11.35	-2.70909090909
292	0.146	3.59193548387	-11.713253012	5.72869565217	-2.70909090909
293	0.1465	7.82580645161	15.1271084337	8.53934782609	-2.70909090909
294	0.147	2.18064516129	-6.06265060241	8.53934782609	0.127272727273
295	0.1475	10.6483870968	-0.412048192771	8.53934782609	2.96363636364
296	0.148	-7.69838709677	-0.412048192771	7.13402173913	-5.54545454545
297	0.1485	-6.28709677419	1.00060240964	7.13402173913	-1.29090909091
298	0.149	3.59193548387	-1.82469879518	8.53934782609	-8.38181818182
299	0.1495	-0.641935483871	2.41325301205	28.2139130435	-2.70909090909
300	0.15	3.59193548387	1.00060240964	4.32336956522	0.127272727273
301	0.1505	2.18064516129	1.00060240964	8.53934782609	0.127272727273
302	0.151	0.76935483871	-13.1259036145	16.9713043478	0.127272727273
303	0.1515	3.59193548387	-6.06265060241	18.3766304348	-1.29090909091
304	0.152	-4.87580645161	-0.412048192771	16.9713043478	-4.12727272727
305	0.1525	12.0596774194	-0.412048192771	14.1606521739	0.127272727273
306	0.153	-7.69838709677	-0.412048192771	15.5659782609	-2.70909090909
307	0.1535	-6.28709677419	1.00060240964	18.3766304348	-1.29090909091
308	0.154	-0.641935483871	-0.412048192771	31.0245652174	-2.70909090909
309	0.1545	0.76935483871	1.00060240964	8.53934782609	-1.29090909091
310	0.155	3.59193548387	-1.82469879518	7.13402173913	-4.12727272727
311	0.1555	3.59193548387	-11.713253012	18.3766304348	-4.12727272727
312	0.156	2.18064516129	-13.1259036145	15.5659782609	-2.70909090909
313	0.1565	0.76935483871	9.4765060241	18.3766304348	-1.29090909091
314	0.157	-6.28709677419	1.00060240964	14.1606521739	-2.70909090909
315	0.1575	19.1161290323	1.00060240964	14.1606521739	1.54545454545
316	0.158	-7.69838709677	-0.412048192771	14.1606521739	-4.12727272727
317	0.1585	3.59193548387	1.00060240964	14.1606521739	-1.29090909091
318	0.159	0.76935483871	1.00060240964	28.2139130435	-1.29090909091
319	0.1595	0.76935483871	-0.412048192771	8.53934782609	-4.12727272727
320	0.16	-0.641935483871	5.23855421687	12.755326087	0.127272727273
321	0.1605	7.82580645161	17.9524096386	11.35	-1.29090909091
322	0.161	6.41451612903	-7.47530120482	12.755326087	1.54545454545
323	0.1615	2.18064516129	-0.412048192771	7.13402173913	0.127272727273
324	0.162	14.8822580645	-3.23734939759	5.72869565217	1.54545454545
325	0.1625	5.00322580645	-0.412048192771	2.91804347826	4.38181818182
326	0.163	7.82580645161	-1.82469879518	1.5127173913	-6.96363636364
327	0.1635	9.23709677419	-1.82469879518	-1.29793478261	-5.54545454545
328	0.164	9.23709677419	-3.23734939759	8.53934782609	1.54545454545
329	0.1645	9.23709677419	1.00060240964	19.7819565217	-1.29090909091
330	0.165	7.82580645161	2.41325301205	7.13402173913	-1.29090909091
331	0.1655	12.0596774194	-11.713253012	5.72869565217	-1.29090909091
332	0.166	3.59193548387	-0.412048192771	7.13402173913	1.54545454545
333	0.1665	0.76935483871	-0.412048192771	5.72869565217	-1.29090909091
334	0.167	21.9387096774	1.00060240964	5.72869565217	-1.29090909091
335	0.1675	7.82580645161	-1.82469879518	5.72869565217	0.127272727273
336	0.168	7.82580645161	-0.412048192771	7.13402173913	-8.38181818182
337	0.1685	5.00322580645	-1.82469879518	4.32336956522	-1.29090909091
338	0.169	7.82580645161	-3.23734939759	26.8085869565	-1.29090909091
339	0.1695	7.82580645161	2.41325301205	11.35	-1.29090909091
340	0.17	3.59193548387	-6.06265060241	5.72869565217	0.127272727273
341	0.1705	0.76935483871	9.4765060241	11.35	-1.29090909091
342	0.171	-7.69838709677	-0.412048192771	15.5659782609	-1.29090909091
343	0.1715	17.7048387097	1.00060240964	11.35	1.54545454545
344	0.172	-6.28709677419	1.00060240964	12.755326087	-4.12727272727
345	0.1725	2.18064516129	2.41325301205	11.35	14.3090909091
346	0.173	0.76935483871	1.00060240964	2.91804347826	-5.54545454545
347	0.1735	0.76935483871	1.00060240964	0.107391304348	-1.29090909091
348	0.174	2.18064516129	2.41325301205	7.13402173913	0.127272727273
349	0.1745	0.76935483871	-11.713253012	7.13402173913	0.127272727273
350	0.175	0.76935483871	16.5397590361	7.13402173913	2.96363636364
351	0.1755	-2.05322580645	-10.3006024096	12.755326087	-1.29090909091
352	0.176	5.00322580645	-1.82469879518	11.35	0.127272727273
353	0.1765	-3.46451612903	-3.23734939759	15.5659782609	-14.0545454545
354	0.177	-0.641935483871	-0.412048192771	8.53934782609	17.1454545455
355	0.1775	2.18064516129	-0.412048192771	14.1606521739	-9.8
356	0.178	5.00322580645	-1.82469879518	5.72869565217	0.127272727273
357	0.1785	7.82580645161	-0.412048192771	15.5659782609	-1.29090909091
358	0.179	3.59193548387	-10.3006024096	8.53934782609	-2.70909090909
359	0.1795	3.59193548387	15.1271084337	8.53934782609	-2.70909090909
360	0.18	-0.641935483871	-11.713253012	8.53934782609	0.127272727273
361	0.1805	-2.05322580645	-6.06265060241	7.13402173913	-1.29090909091
362	0.181	12.0596774194	1.00060240964	5.72869565217	2.96363636364
363	0.1815	-0.641935483871	-0.412048192771	5.72869565217	1.54545454545
364	0.182	-2.05322580645	-0.412048192771	5.72869565217	-5.54545454545
365	0.1825	-0.641935483871	-3.23734939759	-4.10858695652	-2.70909090909
366	0.183	2.18064516129	1.00060240964	21.1872826087	0.127272727273
367	0.1835	2.18064516129	-1.82469879518	-4.10858695652	-1.29090909091
368	0.184	2.18064516129	3.82590361446	2.91804347826	0.127272727273
369	0.1845	-0.641935483871	-6.06265060241	4.32336956522	-2.70909090909
370	0.185	5.00322580645	-0.412048192771	4.32336956522	-2.70909090909
371	0.1855	10.6483870968	-0.412048192771	5.72869565217	-4.12727272727
372	0.186	-0.641935483871	-1.82469879518	5.72869565217	-1.29090909091
373	0.1865	5.00322580645	-0.412048192771	4.32336956522	7.21818181818
374	0.187	3.59193548387	-0.412048192771	-4.10858695652	-4.12727272727
375	0.1875	3.59193548387	-4.65	0.107391304348	-1.29090909091
376	0.188	7.82580645161	-1.82469879518	2.91804347826	-1.29090909091
377	0.1885	7.82580645161	-1.82469879518	4.32336956522	-1.29090909091
378	0.189	3.59193548387	-0.412048192771	1.5127173913	0.127272727273
379	0.1895	0.76935483871	1.00060240964	2.91804347826	-1.29090909091
380	0.19	23.35	-0.412048192771	4.32336956522	-1.29090909091
381	0.1905	-4.87580645161	-1.82469879518	2.91804347826	-1.29090909091
382	0.191	2.18064516129	1.00060240964	4.32336956522	2.96363636364
383	0.1915	3.59193548387	1.00060240964	-4.10858695652	-1.29090909091
384	0.192	5.00322580645	1.00060240964	22.5926086957	-1.29090909091
385	0.1925	3.59193548387	-1.82469879518	18.3766304348	-1.29090909091
386	0.193	2.18064516129	-6.06265060241	8.53934782609	-1.29090909091
387	0.1935	10.6483870968	17.9524096386	7.13402173913	1.54545454545
388	0.194	7.82580645161	1.00060240964	14.1606521739	0.127272727273
389	0.1945	19.1161290323	-0.412048192771	14.1606521739	1.54545454545
390	0.195	-0.641935483871	1.00060240964	12.755326087	-1.29090909091
391	0.1955	0.76935483871	1.00060240964	11.35	-8.38181818182
392	0.196	7.82580645161	-1.82469879518	12.755326087	5.8
393	0.1965	5.00322580645	1.00060240964	2.91804347826	-1.29090909091
394	0.197	5.00322580645	-1.82469879518	4.32336956522	0.127272727273
395	0.1975	6.41451612903	1.00060240964	11.35	0.127272727273
396	0.198	7.82580645161	8.06385542169	14.1606521739	0.127272727273
397	0.1985	10.6483870968	-1.82469879518	14.1606521739	4.38181818182
398	0.199	-7.69838709677	2.41325301205	14.1606521739	1.54545454545
399	0.1995	9.23709677419	2.41325301205	12.755326087	2.96363636364
400	0.2	0.76935483871	3.82590361446	11.35	-6.96363636364
401	0.2005	2.18064516129	1.00060240964	11.35	0.127272727273
402	0.201	2.18064516129	1.00060240964	4.32336956522	0.127272727273
403	0.2015	5.00322580645	-3.23734939759	1.5127173913	1.54545454545
404	0.202	6.41451612903	-3.23734939759	12.755326087	0.127272727273
405	0.2025	7.82580645161	-1.82469879518	12.755326087	-2.70909090909
406	0.203	9.23709677419	1.00060240964	7.13402173913	0.127272727273
407	0.2035	5.00322580645	1.00060240964	5.72869565217	1.54545454545
408	0.204	17.7048387097	1.00060240964	5.72869565217	1.54545454545
409	0.2045	2.18064516129	-0.412048192771	4.32336956522	-6.96363636364
410	0.205	-0.641935483871	2.41325301205	8.53934782609	17.1454545455
411	0.2055	-2.05322580645	2.41325301205	0.107391304348	0.127272727273
412	0.206	0.76935483871	-0.412048192771	7.13402173913	0.127272727273
413	0.2065	0.76935483871	-11.713253012	5.72869565217	0.127272727273
414	0.207	2.18064516129	17.9524096386	8.53934782609	-1.29090909091
415	0.2075	0.76935483871	-4.65	4.32336956522	0.127272727273
416	0.208	-7.69838709677	1.00060240964	4.32336956522	1.54545454545
417	0.2085	-4.87580645161	1.00060240964	4.32336956522	-6.96363636364
418	0.209	3.59193548387	1.00060240964	5.72869565217	-2.70909090909
419	0.2095	5.00322580645	1.00060240964	8.53934782609	12.8909090909
420	0.21	2.18064516129	-0.412048192771	-2.70326086957	-1.29090909091
421	0.2105	-0.641935483871	1.00060240964	4.32336956522	1.54545454545
422	0.211	-2.05322580645	-8.88795180723	2.91804347826	0.127272727273
423	0.2115	2.18064516129	20.7777108434	4.32336956522	-4.12727272727
424	0.212	0.76935483871	-7.47530120482	5.72869565217	-2.70909090909
425	0.2125	5.00322580645	-0.412048192771	4.32336956522	-2.70909090909
426	0.213	-10.5209677419	-0.412048192771	5.72869565217	-2.70909090909
427	0.2135	-3.46451612903	-0.412048192771	7.13402173913	1.54545454545
428	0.214	2.18064516129	2.41325301205	7.13402173913	-8.38181818182
429	0.2145	5.00322580645	2.41325301205	-1.29793478261	2.96363636364
430	0.215	2.18064516129	-0.412048192771	4.32336956522	0.127272727273
431	0.2155	2.18064516129	6.65120481928	7.13402173913	0.127272727273
432	0.216	0.76935483871	9.4765060241	8.53934782609	-1.29090909091
433	0.2165	5.00322580645	17.9524096386	7.13402173913	0.127272727273
434	0.217	-2.05322580645	-8.88795180723	7.13402173913	0.127272727273
435	0.2175	9.23709677419	-0.412048192771	7.13402173913	0.127272727273
436	0.218	-9.10967741935	-1.82469879518	8.53934782609	-8.38181818182
437	0.2185	-2.05322580645	1.00060240964	8.53934782609	-6.96363636364
438	0.219	-0.641935483871	1.00060240964	8.53934782609	-4.12727272727
439	0.2195	-4.87580645161	-0.412048192771	5.72869565217	15.7272727273
440	0.22	-3.46451612903	2.41325301205	8.53934782609	-1.29090909091
441	0.2205	0.76935483871	-7.47530120482	11.35	-2.70909090909
442	0.221	3.59193548387	20.7777108434	11.35	-1.29090909091
443	0.2215	5.00322580645	-4.65	8.53934782609	0.127272727273
444	0.222	13.4709677419	1.00060240964	8.53934782609	-1.29090909091
445	0.2225	0.76935483871	-0.412048192771	15.5659782609	-11.2181818182
446	0.223	5.00322580645	1.00060240964	11.35	-1.29090909091
447	0.2235	5.00322580645	-0.412048192771	8.53934782609	10.0545454545
448	0.224	5.00322580645	3.82590361446	2.91804347826	-5.54545454545
449	0.2245	7.82580645161	-1.82469879518	8.53934782609	0.127272727273
450	0.225	2.18064516129	1.00060240964	11.35	0.127272727273
451	0.2255	5.00322580645	2.41325301205	11.35	1.54545454545
452	0.226	0.76935483871	-1.82469879518	8.53934782609	0.127272727273
453	0.2265	5.00322580645	-3.23734939759	11.35	0.127272727273
454	0.227	0.76935483871	2.41325301205	5.72869565217	0.127272727273
455	0.2275	-2.05322580645	-1.82469879518	5.72869565217	1.54545454545
456	0.228	0.76935483871	-1.82469879518	2.91804347826	-11.2181818182
457	0.2285	2.18064516129	-0.412048192771	2.91804347826	-6.96363636364
458	0.229	-0.641935483871	-0.412048192771	2.91804347826	0.127272727273
459	0.2295	-2.05322580645	2.41325301205	2.91804347826	-1.29090909091
460	0.23	-2.05322580645	-8.88795180723	2.91804347826	0.127272727273
461	0.2305	-2.05322580645	13.7144578313	4.32336956522	-2.70909090909
462	0.231	-2.05322580645	-4.65	1.5127173913	0.127272727273
463	0.2315	20.5274193548	-0.412048192771	4.32336956522	1.54545454545
464	0.232	-9.10967741935	1.00060240964	5.72869565217	0.127272727273
465	0.2325	0.76935483871	1.00060240964	9.94467391304	2.96363636364
466	0.233	3.59193548387	-0.412048192771	11.35	12.8909090909
467	0.2335	3.59193548387	-0.412048192771	0.107391304348	0.127272727273
468	0.234	3.59193548387	1.00060240964	18.3766304348	-4.12727272727
469	0.2345	2.18064516129	-8.88795180723	7.13402173913	-1.29090909091
470	0.235	3.59193548387	16.5397590361	7.13402173913	0.127272727273
471	0.2355	5.00322580645	1.00060240964	7.13402173913	-2.70909090909
472	0.236	5.00322580645	2.41325301205	5.72869565217	-1.29090909091
473	0.2365	0.76935483871	1.00060240964	8.53934782609	-11.2181818182
474	0.237	6.41451612903	1.00060240964	7.13402173913	-1.29090909091
475	0.2375	7.82580645161	-0.412048192771	9.94467391304	2.96363636364
476	0.238	3.59193548387	2.41325301205	0.107391304348	0.127272727273
477	0.2385	5.00322580645	-3.23734939759	8.53934782609	-1.29090909091
478	0.239	5.00322580645	-10.3006024096	8.53934782609	-1.29090909091
479	0.2395	3.59193548387	16.5397590361	8.53934782609	0.127272727273
480	0.24	0.76935483871	-10.3006024096	11.35	-2.70909090909
481	0.2405	5.00322580645	-1.82469879518	5.72869565217	1.54545454545
482	0.241	-2.05322580645	1.00060240964	11.35	-11.2181818182
483	0.2415	3.59193548387	-0.412048192771	14.1606521739	-1.29090909091
484	0.242	2.18064516129	-0.412048192771	11.35	7.21818181818
485	0.2425	0.76935483871	-0.412048192771	12.755326087	-1.29090909091
486	0.243	3.59193548387	-1.82469879518	7.13402173913	0.127272727273
487	0.2435	3.59193548387	3.82590361446	7.13402173913	0.127272727273
488	0.244	5.00322580645	-0.412048192771	8.53934782609	0.127272727273
489	0.2445	3.59193548387	-0.412048192771	11.35	-1.29090909091
490	0.245	-10.5209677419	-0.412048192771	7.13402173913	-2.70909090909
491	0.2455	17.7048387097	5.23855421687	11.35	2.96363636364
492	0.246	7.82580645161	-0.412048192771	8.53934782609	-9.8
493	0.2465	7.82580645161	-1.82469879518	8.53934782609	14.3090909091
494	0.247	5.00322580645	1.00060240964	16.9713043478	-1.29090909091
495	0.2475	9.23709677419	-1.82469879518	8.53934782609	0.127272727273
496	0.248	10.6483870968	5.23855421687	11.35	-2.70909090909
497	0.2485	7.82580645161	-7.47530120482	12.755326087	-1.29090909091
498	0.249	10.6483870968	15.1271084337	14.1606521739	-2.70909090909
499	0.2495	-3.46451612903	2.41325301205	14.1606521739	-2.70909090909
500	0.25	24.7612903226	1.00060240964	14.1606521739	0.127272727273
501	0.2505	-6.28709677419	-0.412048192771	12.755326087	-1.29090909091
502	0.251	0.76935483871	-0.412048192771	16.9713043478	0.127272727273
503	0.2515	3.59193548387	2.41325301205	16.9713043478	-8.38181818182
504	0.252	7.82580645161	1.00060240964	25.4032608696	-1.29090909091
505	0.2525	3.59193548387	1.00060240964	5.72869565217	-1.29090909091
506	0.253	3.59193548387	3.82590361446	4.32336956522	-2.70909090909
507	0.2535	5.00322580645	-11.713253012	9.94467391304	-2.70909090909
508	0.254	6.41451612903	-7.47530120482	12.755326087	0.127272727273
509	0.2545	-4.87580645161	-0.412048192771	12.755326087	-4.12727272727
510	0.255	-4.87580645161	-3.23734939759	14.1606521739	-1.29090909091
511	0.2555	3.59193548387	-3.23734939759	14.1606521739	-4.12727272727
512	0.256	3.59193548387	-1.82469879518	15.5659782609	12.8909090909
513	0.2565	3.59193548387	-0.412048192771	1.5127173913	-1.29090909091
514	0.257	5.00322580645	-0.412048192771	16.9713043478	0.127272727273
515	0.2575	5.00322580645	-11.713253012	7.13402173913	0.127272727273
516	0.258	7.82580645161	16.5397590361	7.13402173913	0.127272727273
517	0.2585	5.00322580645	1.00060240964	7.13402173913	-1.29090909091
518	0.259	23.35	2.41325301205	12.755326087	0.127272727273
519	0.2595	-2.05322580645	2.41325301205	11.35	-1.29090909091
520	0.26	2.18064516129	1.00060240964	8.53934782609	-1.29090909091
521	0.2605	7.82580645161	1.00060240964	11.35	-11.2181818182
522	0.261	9.23709677419	2.41325301205	11.35	-11.2181818182
523	0.2615	5.00322580645	1.00060240964	11.35	-1.29090909091
524	0.262	3.59193548387	6.65120481928	5.72869565217	0.127272727273
525	0.2625	3.59193548387	-6.06265060241	7.13402173913	-1.29090909091
526	0.263	5.00322580645	1.00060240964	7.13402173913	0.127272727273
527	0.2635	-4.87580645161	1.00060240964	5.72869565217	-1.29090909091
528	0.264	24.7612903226	1.00060240964	4.32336956522	0.127272727273
529	0.2645	-2.05322580645	2.41325301205	7.13402173913	-1.29090909091
530	0.265	5.00322580645	3.82590361446	4.32336956522	7.21818181818
531	0.2655	2.18064516129	2.41325301205	-4.10858695652	-9.8
532	0.266	5.00322580645	1.00060240964	12.755326087	-1.29090909091
533	0.2665	2.18064516129	-7.47530120482	4.32336956522	-2.70909090909
534	0.267	3.59193548387	20.7777108434	1.5127173913	-2.70909090909
535	0.2675	0.76935483871	-4.65	4.32336956522	0.127272727273
536	0.268	7.82580645161	-1.82469879518	4.32336956522	1.54545454545
537	0.2685	-9.10967741935	-0.412048192771	4.32336956522	0.127272727273
538	0.269	-7.69838709677	-1.82469879518	7.13402173913	0.127272727273
539	0.2695	0.76935483871	1.00060240964	7.13402173913	-5.54545454545
540	0.27	2.18064516129	2.41325301205	-2.70326086957	-1.29090909091
541	0.2705	2.18064516129	1.00060240964	4.32336956522	-8.38181818182
542	0.271	3.59193548387	5.23855421687	1.5127173913	0.127272727273
543	0.2715	7.82580645161	-11.713253012	2.91804347826	-1.29090909091
544	0.272	7.82580645161	-8.88795180723	4.32336956522	-1.29090909091
545	0.2725	10.6483870968	-8.88795180723	4.32336956522	-5.54545454545
546	0.273	-3.46451612903	-3.23734939759	2.91804347826	-6.96363636364
547	0.2735	16.2935483871	-4.65	0.107391304348	-1.29090909091
548	0.274	2.18064516129	1.00060240964	2.91804347826	-11.2181818182
549	0.2745	3.59193548387	-1.82469879518	4.32336956522	17.1454545455
550	0.275	2.18064516129	-1.82469879518	-4.10858695652	0.127272727273
551	0.2755	0.76935483871	1.00060240964	2.91804347826	0.127272727273
552	0.276	2.18064516129	-10.3006024096	4.32336956522	-2.70909090909
553	0.2765	-0.641935483871	19.365060241	2.91804347826	-2.70909090909
554	0.277	-0.641935483871	-4.65	2.91804347826	-1.29090909091
555	0.2775	17.7048387097	1.00060240964	4.32336956522	4.38181818182
556	0.278	-7.69838709677	-0.412048192771	7.13402173913	1.54545454545
557	0.2785	-3.46451612903	-1.82469879518	2.91804347826	5.8
558	0.279	0.76935483871	-0.412048192771	2.91804347826	-9.8
559	0.2795	2.18064516129	1.00060240964	-1.29793478261	14.3090909091
560	0.28	0.76935483871	-0.412048192771	5.72869565217	-1.29090909091
561	0.2805	2.18064516129	1.00060240964	2.91804347826	-1.29090909091
562	0.281	2.18064516129	-11.713253012	0.107391304348	-1.29090909091
563	0.2815	3.59193548387	-7.47530120482	-2.70326086957	-1.29090909091
564	0.282	-7.69838709677	-0.412048192771	-1.29793478261	0.127272727273
565	0.2825	20.5274193548	-1.82469879518	-1.29793478261	-1.29090909091
566	0.283	13.4709677419	-0.412048192771	0.107391304348	-2.70909090909
567	0.2835	0.76935483871	-3.23734939759	-12.5405434783	-2.70909090909
568	0.284	0.76935483871	-1.82469879518	-12.5405434783	-6.96363636364
569	0.2845	0.76935483871	-1.82469879518	2.91804347826	0.127272727273
570	0.285	5.00322580645	-3.23734939759	12.755326087	-1.29090909091
571	0.2855	5.00322580645	-0.412048192771	0.107391304348	-1.29090909091
572	0.286	5.00322580645	-1.82469879518	-1.29793478261	-1.29090909091
573	0.2865	10.6483870968	-3.23734939759	-1.29793478261	-1.29090909091
574	0.287	3.59193548387	-0.412048192771	-1.29793478261	0.127272727273
575	0.2875	0.76935483871	1.00060240964	-4.10858695652	1.54545454545
576	0.288	3.59193548387	-0.412048192771	-4.10858695652	-6.96363636364
577	0.2885	5.00322580645	1.00060240964	-6.91923913043	8.63636363636
578	0.289	5.00322580645	1.00060240964	-1.29793478261	-11.2181818182
579	0.2895	3.59193548387	-1.82469879518	-4.10858695652	0.127272727273
580	0.29	7.82580645161	-10.3006024096	-4.10858695652	-2.70909090909
581	0.2905	7.82580645161	19.365060241	-5.51391304348	-2.70909090909
582	0.291	7.82580645161	-3.23734939759	-4.10858695652	0.127272727273
583	0.2915	23.35	3.82590361446	-5.51391304348	-2.70909090909
584	0.292	-4.87580645161	-0.412048192771	-2.70326086957	-1.29090909091
585	0.2925	5.00322580645	1.00060240964	-6.91923913043	-9.8
586	0.293	6.41451612903	1.00060240964	-2.70326086957	-6.96363636364
587	0.2935	9.23709677419	1.00060240964	11.35	-2.70909090909
588	0.294	3.59193548387	2.41325301205	-2.70326086957	-2.70909090909
589	0.2945	3.59193548387	6.65120481928	-4.10858695652	0.127272727273
590	0.295	9.23709677419	19.365060241	-5.51391304348	0.127272727273
591	0.2955	2.18064516129	-6.06265060241	-2.70326086957	0.127272727273
592	0.296	13.4709677419	2.41325301205	-4.10858695652	1.54545454545
593	0.2965	-4.87580645161	1.00060240964	0.107391304348	-8.38181818182
594	0.297	5.00322580645	-0.412048192771	-1.29793478261	0.127272727273
595	0.2975	10.6483870968	-0.412048192771	-11.1352173913	-9.8
596	0.298	7.82580645161	3.82590361446	11.35	-1.29090909091
597	0.2985	7.82580645161	2.41325301205	-5.51391304348	0.127272727273
598	0.299	3.59193548387	3.82590361446	0.107391304348	-1.29090909091
599	0.2995	5.00322580645	-0.412048192771	-1.29793478261	0.127272727273
600	0.3	9.23709677419	-0.412048192771	1.5127173913	0.127272727273
601	0.3005	0.76935483871	-4.65	1.5127173913	-4.12727272727
602	0.301	-4.87580645161	-1.82469879518	5.72869565217	-12.6363636364
603	0.3015	3.59193548387	-0.412048192771	1.5127173913	10.0545454545
604	0.302	5.00322580645	-1.82469879518	2.91804347826	1.54545454545
605	0.3025	2.18064516129	-1.82469879518	-6.91923913043	-5.54545454545
606	0.303	2.18064516129	-6.06265060241	18.3766304348	0.127272727273
607	0.3035	-3.46451612903	-1.82469879518	2.91804347826	-1.29090909091
608	0.304	-2.05322580645	12.3018072289	1.5127173913	0.127272727273
609	0.3045	0.76935483871	-8.88795180723	2.91804347826	-1.29090909091
610	0.305	0.76935483871	2.41325301205	2.91804347826	0.127272727273
611	0.3055	-4.87580645161	1.00060240964	5.72869565217	-2.70909090909
612	0.306	-6.28709677419	1.00060240964	4.32336956522	-5.54545454545
613	0.3065	0.76935483871	1.00060240964	2.91804347826	-8.38181818182
614	0.307	0.76935483871	-1.82469879518	2.91804347826	-11.2181818182
615	0.3075	-2.05322580645	1.00060240964	14.1606521739	-5.54545454545
616	0.308	0.76935483871	5.23855421687	-1.29793478261	0.127272727273
617	0.3085	2.18064516129	15.1271084337	0.107391304348	-2.70909090909
618	0.309	5.00322580645	-3.23734939759	2.91804347826	0.127272727273
619	0.3095	-6.28709677419	1.00060240964	2.91804347826	-5.54545454545
620	0.31	0.76935483871	3.82590361446	1.5127173913	1.54545454545
621	0.3105	0.76935483871	1.00060240964	2.91804347826	-14.0545454545
622	0.311	7.82580645161	-1.82469879518	0.107391304348	-5.54545454545
623	0.3115	10.6483870968	-1.82469879518	12.755326087	-4.12727272727
624	0.312	12.0596774194	2.41325301205	-8.32456521739	-4.12727272727
625	0.3125	10.6483870968	2.41325301205	11.35	-2.70909090909
626	0.313	13.4709677419	20.7777108434	0.107391304348	-1.29090909091
627	0.3135	10.6483870968	1.00060240964	0.107391304348	-2.70909090909
628	0.314	13.4709677419	-0.412048192771	0.107391304348	-2.70909090909
629	0.3145	2.18064516129	1.00060240964	0.107391304348	-2.70909090909
630	0.315	5.00322580645	1.00060240964	0.107391304348	0.127272727273
631	0.3155	10.6483870968	1.00060240964	1.5127173913	-11.2181818182
632	0.316	9.23709677419	1.00060240964	-1.29793478261	4.38181818182
633	0.3165	9.23709677419	1.00060240964	0.107391304348	-2.70909090909
634	0.317	5.00322580645	2.41325301205	4.32336956522	-1.29090909091
635	0.3175	0.76935483871	5.23855421687	2.91804347826	-2.70909090909
636	0.318	5.00322580645	-6.06265060241	2.91804347826	-1.29090909091
637	0.3185	0.76935483871	-8.88795180723	4.32336956522	-2.70909090909
638	0.319	10.6483870968	2.41325301205	0.107391304348	1.54545454545
639	0.3195	-6.28709677419	5.23855421687	4.32336956522	-8.38181818182
640	0.32	3.59193548387	3.82590361446	5.72869565217	-1.29090909091
641	0.3205	3.59193548387	1.00060240964	-5.51391304348	-1.29090909091
642	0.321	2.18064516129	2.41325301205	4.32336956522	-2.70909090909
643	0.3215	3.59193548387	3.82590361446	1.5127173913	-5.54545454545
644	0.322	5.00322580645	1.00060240964	5.72869565217	-4.12727272727
645	0.3225	6.41451612903	16.5397590361	4.32336956522	-2.70909090909
646	0.323	-2.05322580645	-1.82469879518	4.32336956522	-5.54545454545
647	0.3235	23.35	-1.82469879518	4.32336956522	-2.70909090909
648	0.324	5.00322580645	-0.412048192771	5.72869565217	-14.0545454545
649	0.3245	10.6483870968	3.82590361446	5.72869565217	2.96363636364
650	0.325	12.0596774194	6.65120481928	23.9979347826	-2.70909090909
651	0.3255	12.0596774194	1.00060240964	-1.29793478261	-1.29090909091
652	0.326	10.6483870968	-8.88795180723	4.32336956522	-2.70909090909
653	0.3265	10.6483870968	-8.88795180723	2.91804347826	-2.70909090909
654	0.327	9.23709677419	5.23855421687	4.32336956522	-1.29090909091
655	0.3275	13.4709677419	1.00060240964	4.32336956522	-2.70909090909
656	0.328	20.5274193548	1.00060240964	4.32336956522	-11.2181818182
657	0.3285	9.23709677419	1.00060240964	5.72869565217	15.7272727273
658	0.329	10.6483870968	-0.412048192771	7.13402173913	-2.70909090909
659	0.3295	7.82580645161	2.41325301205	-6.91923913043	-4.12727272727
660	0.33	7.82580645161	2.41325301205	-2.70326086957	-1.29090909091
661	0.3305	3.59193548387	1.00060240964	7.13402173913	-2.70909090909
662	0.331	2.18064516129	-10.3006024096	8.53934782609	-2.70909090909
663	0.3315	3.59193548387	-6.06265060241	8.53934782609	0.127272727273
664	0.332	-4.87580645161	-0.412048192771	11.35	-6.96363636364
665	0.3325	-6.28709677419	-4.65	7.13402173913	-1.29090909091
666	0.333	-2.05322580645	-0.412048192771	7.13402173913	-1.29090909091
667	0.3335	3.59193548387	-0.412048192771	14.1606521739	-6.96363636364
668	0.334	6.41451612903	-1.82469879518	0.107391304348	-2.70909090909
669	0.3345	3.59193548387	1.00060240964	11.35	-9.8
670	0.335	5.00322580645	3.82590361446	11.35	-5.54545454545
671	0.3355	7.82580645161	-1.82469879518	8.53934782609	-5.54545454545
672	0.336	3.59193548387	1.00060240964	5.72869565217	-4.12727272727
673	0.3365	2.18064516129	1.00060240964	5.72869565217	-4.12727272727
674	0.337	12.0596774194	1.00060240964	7.13402173913	-11.2181818182
675	0.3375	-0.641935483871	1.00060240964	2.91804347826	12.8909090909
676	0.338	7.82580645161	1.00060240964	7.13402173913	-1.29090909091
677	0.3385	3.59193548387	1.00060240964	-5.51391304348	-5.54545454545
678	0.339	3.59193548387	1.00060240964	2.91804347826	-9.8
679	0.3395	0.76935483871	-0.412048192771	2.91804347826	-8.38181818182
680	0.34	2.18064516129	-8.88795180723	5.72869565217	-2.70909090909
681	0.3405	3.59193548387	5.23855421687	5.72869565217	-4.12727272727
682	0.341	7.82580645161	-0.412048192771	7.13402173913	-4.12727272727
683	0.3415	19.1161290323	1.00060240964	7.13402173913	-5.54545454545
684	0.342	-2.05322580645	1.00060240964	5.72869565217	-1.29090909091
685	0.3425	2.18064516129	1.00060240964	0.107391304348	8.63636363636
686	0.343	3.59193548387	-0.412048192771	-1.29793478261	-1.29090909091
687	0.3435	5.00322580645	-1.82469879518	-9.72989130435	-4.12727272727
688	0.344	0.76935483871	-4.65	2.91804347826	-5.54545454545
689	0.3445	3.59193548387	-10.3006024096	0.107391304348	-2.70909090909
690	0.345	3.59193548387	16.5397590361	2.91804347826	-4.12727272727
691	0.3455	-2.05322580645	1.00060240964	4.32336956522	-5.54545454545
692	0.346	14.8822580645	-1.82469879518	4.32336956522	0.127272727273
693	0.3465	-4.87580645161	2.41325301205	4.32336956522	-11.2181818182
694	0.347	3.59193548387	1.00060240964	5.72869565217	-8.38181818182
695	0.3475	5.00322580645	2.41325301205	14.1606521739	-4.12727272727
696	0.348	5.00322580645	2.41325301205	-2.70326086957	-2.70909090909
697	0.3485	0.76935483871	-0.412048192771	-1.29793478261	-4.12727272727
698	0.349	2.18064516129	9.4765060241	4.32336956522	-4.12727272727
699	0.3495	0.76935483871	-8.88795180723	1.5127173913	-2.70909090909
700	0.35	0.76935483871	2.41325301205	4.32336956522	-4.12727272727
701	0.3505	-0.641935483871	1.00060240964	1.5127173913	-14.0545454545
702	0.351	3.59193548387	2.41325301205	2.91804347826	1.54545454545
703	0.3515	3.59193548387	3.82590361446	2.91804347826	10.0545454545
704	0.352	5.00322580645	1.00060240964	-6.91923913043	-4.12727272727
705	0.3525	0.76935483871	2.41325301205	4.32336956522	-11.2181818182
706	0.353	0.76935483871	2.41325301205	1.5127173913	-5.54545454545
707	0.3535	-0.641935483871	-10.3006024096	4.32336956522	-4.12727272727
708	0.354	3.59193548387	-6.06265060241	2.91804347826	-2.70909090909
709	0.3545	-7.69838709677	-0.412048192771	1.5127173913	-5.54545454545
710	0.355	17.7048387097	-0.412048192771	0.107391304348	-2.70909090909
711	0.3555	17.7048387097	-0.412048192771	4.32336956522	-4.12727272727
712	0.356	-3.46451612903	-0.412048192771	-5.51391304348	-8.38181818182
713	0.3565	0.76935483871	1.00060240964	16.9713043478	-2.70909090909
714	0.357	-0.641935483871	1.00060240964	19.7819565217	-5.54545454545
715	0.3575	3.59193548387	-1.82469879518	-1.29793478261	-2.70909090909
716	0.358	0.76935483871	-3.23734939759	4.32336956522	-2.70909090909
717	0.3585	0.76935483871	-1.82469879518	2.91804347826	-1.29090909091
718	0.359	5.00322580645	-1.82469879518	4.32336956522	-1.29090909091
719	0.3595	-3.46451612903	-0.412048192771	5.72869565217	-4.12727272727
720	0.36	5.00322580645	-1.82469879518	4.32336956522	-1.29090909091
721	0.3605	-2.05322580645	-0.412048192771	5.72869565217	-14.0545454545
722	0.361	0.76935483871	1.00060240964	-4.10858695652	-4.12727272727
723	0.3615	-0.641935483871	1.00060240964	22.5926086957	-5.54545454545
724	0.362	0.76935483871	1.00060240964	7.13402173913	-4.12727272727
725	0.3625	3.59193548387	6.65120481928	4.32336956522	-5.54545454545
726	0.363	9.23709677419	5.23855421687	0.107391304348	-2.70909090909
727	0.3635	7.82580645161	-1.82469879518	8.53934782609	-2.70909090909
728	0.364	10.6483870968	-1.82469879518	8.53934782609	0.127272727273
729	0.3645	-7.69838709677	-0.412048192771	8.53934782609	-6.96363636364
730	0.365	-4.87580645161	2.41325301205	8.53934782609	-1.29090909091
731	0.3655	5.00322580645	1.00060240964	2.91804347826	-12.6363636364
732	0.366	3.59193548387	1.00060240964	11.35	-11.2181818182
733	0.3665	5.00322580645	-0.412048192771	5.72869565217	-2.70909090909
734	0.367	5.00322580645	1.00060240964	15.5659782609	-4.12727272727
735	0.3675	3.59193548387	-8.88795180723	14.1606521739	-5.54545454545
736	0.368	0.76935483871	3.82590361446	12.755326087	-1.29090909091
737	0.3685	2.18064516129	-6.06265060241	11.35	-5.54545454545
738	0.369	-4.87580645161	1.00060240964	7.13402173913	-5.54545454545
739	0.3695	7.82580645161	1.00060240964	7.13402173913	-5.54545454545
740	0.37	5.00322580645	1.00060240964	11.35	-2.70909090909
741	0.3705	5.00322580645	1.00060240964	14.1606521739	-5.54545454545
742	0.371	7.82580645161	2.41325301205	1.5127173913	-4.12727272727
743	0.3715	6.41451612903	1.00060240964	0.107391304348	-1.29090909091
744	0.372	5.00322580645	-4.65	5.72869565217	-4.12727272727
745	0.3725	3.59193548387	-8.88795180723	4.32336956522	-5.54545454545
746	0.373	3.59193548387	20.7777108434	7.13402173913	-2.70909090909
747	0.3735	3.59193548387	1.00060240964	5.72869565217	-5.54545454545
748	0.374	7.82580645161	1.00060240964	5.72869565217	-5.54545454545
749	0.3745	3.59193548387	1.00060240964	7.13402173913	-1.29090909091
750	0.375	0.76935483871	1.00060240964	4.32336956522	1.54545454545
751	0.3755	-0.641935483871	1.00060240964	2.91804347826	4.38181818182
752	0.376	0.76935483871	-0.412048192771	-9.72989130435	-4.12727272727
753	0.3765	0.76935483871	-0.412048192771	1.5127173913	-4.12727272727
754	0.377	3.59193548387	-6.06265060241	2.91804347826	-4.12727272727
755	0.3775	3.59193548387	20.7777108434	0.107391304348	-5.54545454545
756	0.378	-2.05322580645	-7.47530120482	0.107391304348	-5.54545454545
757	0.3785	12.0596774194	-1.82469879518	0.107391304348	-1.29090909091
758	0.379	-9.10967741935	-0.412048192771	0.107391304348	-2.70909090909
759	0.3795	-2.05322580645	-0.412048192771	-9.72989130435	-4.12727272727
760	0.38	-2.05322580645	-0.412048192771	15.5659782609	-2.70909090909
761	0.3805	0.76935483871	2.41325301205	-9.72989130435	-2.70909090909
762	0.381	-0.641935483871	-0.412048192771	-4.10858695652	-2.70909090909
763	0.3815	0.76935483871	-10.3006024096	-2.70326086957	-2.70909090909
764	0.382	3.59193548387	-7.47530120482	0.107391304348	-4.12727272727
765	0.3825	-10.5209677419	-1.82469879518	-1.29793478261	-5.54545454545
766	0.383	21.9387096774	-3.23734939759	-4.10858695652	-1.29090909091
767	0.3835	12.0596774194	-0.412048192771	-1.29793478261	-11.2181818182
768	0.384	0.76935483871	-4.65	0.107391304348	1.54545454545
769	0.3845	2.18064516129	-3.23734939759	-6.91923913043	-4.12727272727
770	0.385	5.00322580645	1.00060240964	-1.29793478261	-4.12727272727
771	0.3855	2.18064516129	-4.65	-6.91923913043	-5.54545454545
772	0.386	5.00322580645	1.00060240964	-2.70326086957	-2.70909090909
773	0.3865	2.18064516129	-1.82469879518	-4.10858695652	-5.54545454545
774	0.387	6.41451612903	-1.82469879518	-5.51391304348	-2.70909090909
775	0.3875	-9.10967741935	1.00060240964	-5.51391304348	-1.29090909091
776	0.388	-3.46451612903	2.41325301205	-4.10858695652	-1.29090909091
777	0.3885	5.00322580645	1.00060240964	-1.29793478261	-5.54545454545
778	0.389	6.41451612903	2.41325301205	-18.1618478261	-5.54545454545
779	0.3895	3.59193548387	5.23855421687	-9.72989130435	-12.6363636364
780	0.39	9.23709677419	2.41325301205	-8.32456521739	-4.12727272727
781	0.3905	10.6483870968	-6.06265060241	-1.29793478261	-5.54545454545
782	0.391	10.6483870968	6.65120481928	-5.51391304348	-4.12727272727
783	0.3915	7.82580645161	1.00060240964	-6.91923913043	-5.54545454545
784	0.392	12.0596774194	-3.23734939759	-4.10858695652	-4.12727272727
785	0.3925	2.18064516129	-1.82469879518	-4.10858695652	-4.12727272727
786	0.393	2.18064516129	-0.412048192771	-8.32456521739	10.0545454545
787	0.3935	5.00322580645	1.00060240964	0.107391304348	-14.0545454545
788	0.394	7.82580645161	1.00060240964	-2.70326086957	7.21818181818
789	0.3945	2.18064516129	1.00060240964	2.91804347826	-6.96363636364
790	0.395	0.76935483871	5.23855421687	-11.1352173913	-4.12727272727
791	0.3955	-2.05322580645	-11.713253012	-5.51391304348	-2.70909090909
792	0.396	2.18064516129	9.4765060241	-2.70326086957	-4.12727272727
793	0.3965	-0.641935483871	-1.82469879518	-1.29793478261	-4.12727272727
794	0.397	-9.10967741935	-0.412048192771	-1.29793478261	-5.54545454545
795	0.3975	23.35	-1.82469879518	-4.10858695652	-2.70909090909
796	0.398	-6.28709677419	-0.412048192771	-4.10858695652	-1.29090909091
797	0.3985	5.00322580645	1.00060240964	-12.5405434783	-2.70909090909
798	0.399	9.23709677419	5.23855421687	11.35	-5.54545454545
799	0.3995	5.00322580645	3.82590361446	-4.10858695652	-5.54545454545
800	0.4	3.59193548387	1.00060240964	-1.29793478261	-2.70909090909
801	0.4005	6.41451612903	1.00060240964	-6.91923913043	-8.38181818182
802	0.401	13.4709677419	-1.82469879518	-2.70326086957	-2.70909090909
803	0.4015	-0.641935483871	-0.412048192771	-2.70326086957	-5.54545454545
804	0.402	13.4709677419	1.00060240964	-4.10858695652	0.127272727273
805	0.4025	0.76935483871	-0.412048192771	-1.29793478261	-15.4727272727
806	0.403	12.0596774194	-0.412048192771	-6.91923913043	-5.54545454545
807	0.4035	9.23709677419	1.00060240964	1.5127173913	-8.38181818182
808	0.404	12.0596774194	-4.65	-6.91923913043	-4.12727272727
809	0.4045	9.23709677419	1.00060240964	0.107391304348	-5.54545454545
810	0.405	9.23709677419	-7.47530120482	-8.32456521739	-2.70909090909
811	0.4055	2.18064516129	-4.65	0.107391304348	-2.70909090909
812	0.406	9.23709677419	1.00060240964	-4.10858695652	-2.70909090909
813	0.4065	3.59193548387	1.00060240964	-4.10858695652	-5.54545454545
814	0.407	5.00322580645	3.82590361446	-4.10858695652	-6.96363636364
815	0.4075	7.82580645161	1.00060240964	-1.29793478261	-12.6363636364
816	0.408	9.23709677419	-0.412048192771	-6.91923913043	-2.70909090909
817	0.4085	7.82580645161	1.00060240964	14.1606521739	-5.54545454545
818	0.409	5.00322580645	-1.82469879518	-9.72989130435	-4.12727272727
819	0.4095	3.59193548387	-0.412048192771	-1.29793478261	-2.70909090909
820	0.41	3.59193548387	-0.412048192771	0.107391304348	-2.70909090909
821	0.4105	0.76935483871	-0.412048192771	-1.29793478261	-2.70909090909
822	0.411	-3.46451612903	-1.82469879518	-1.29793478261	-5.54545454545
823	0.4115	12.0596774194	1.00060240964	-1.29793478261	0.127272727273
824	0.412	-3.46451612903	1.00060240964	-1.29793478261	-4.12727272727
825	0.4125	-0.641935483871	-0.412048192771	-4.10858695652	-6.96363636364
826	0.413	-0.641935483871	-1.82469879518	14.1606521739	-6.96363636364
827	0.4135	-0.641935483871	1.00060240964	18.3766304348	-2.70909090909
828	0.414	-0.641935483871	-1.82469879518	-4.10858695652	-5.54545454545
829	0.4145	2.18064516129	6.65120481928	-1.29793478261	-2.70909090909
830	0.415	-0.641935483871	-8.88795180723	1.5127173913	-5.54545454545
831	0.4155	2.18064516129	-0.412048192771	-2.70326086957	-2.70909090909
832	0.416	2.18064516129	1.00060240964	-2.70326086957	-14.0545454545
833	0.4165	-0.641935483871	1.00060240964	-4.10858695652	12.8909090909
834	0.417	-2.05322580645	-1.82469879518	-6.91923913043	-11.2181818182
835	0.4175	-2.05322580645	-1.82469879518	-6.91923913043	-8.38181818182
836	0.418	-3.46451612903	1.00060240964	4.32336956522	-5.54545454545
837	0.4185	-4.87580645161	3.82590361446	-6.91923913043	-4.12727272727
838	0.419	-2.05322580645	-1.82469879518	-4.10858695652	-2.70909090909
839	0.4195	-3.46451612903	3.82590361446	-4.10858695652	-5.54545454545
840	0.42	-4.87580645161	-3.23734939759	-5.51391304348	-5.54545454545
841	0.4205	-10.5209677419	5.23855421687	-4.10858695652	-5.54545454545
842	0.421	13.4709677419	5.23855421687	-2.70326086957	-11.2181818182
843	0.4215	-2.05322580645	2.41325301205	-2.70326086957	8.63636363636
844	0.422	2.18064516129	3.82590361446	-6.91923913043	-4.12727272727
845	0.4225	3.59193548387	1.00060240964	-1.29793478261	-5.54545454545
846	0.423	0.76935483871	-0.412048192771	-12.5405434783	-5.54545454545
847	0.4235	0.76935483871	1.00060240964	-4.10858695652	-5.54545454545
848	0.424	0.76935483871	8.06385542169	-2.70326086957	-4.12727272727
849	0.4245	5.00322580645	1.00060240964	-1.29793478261	-1.29090909091
850	0.425	-6.28709677419	1.00060240964	-1.29793478261	-2.70909090909
851	0.4255	12.0596774194	1.00060240964	-2.70326086957	0.127272727273
852	0.426	-7.69838709677	-0.412048192771	-5.51391304348	-5.54545454545
853	0.4265	7.82580645161	2.41325301205	-13.9458695652	-8.38181818182
854	0.427	2.18064516129	1.00060240964	7.13402173913	-4.12727272727
855	0.4275	5.00322580645	1.00060240964	-8.32456521739	-5.54545454545
856	0.428	5.00322580645	3.82590361446	-1.29793478261	-5.54545454545
857	0.4285	5.00322580645	-4.65	-1.29793478261	-2.70909090909
858	0.429	7.82580645161	-6.06265060241	0.107391304348	-2.70909090909
859	0.4295	-11.9322580645	-0.412048192771	0.107391304348	-5.54545454545
860	0.43	19.1161290323	-0.412048192771	0.107391304348	-5.54545454545
861	0.4305	-4.87580645161	-0.412048192771	2.91804347826	-5.54545454545
862	0.431	-4.87580645161	-1.82469879518	-2.70326086957	5.8
863	0.4315	3.59193548387	1.00060240964	15.5659782609	-5.54545454545
864	0.432	2.18064516129	2.41325301205	5.72869565217	-2.70909090909
865	0.4325	-2.05322580645	2.41325301205	-6.91923913043	-5.54545454545
866	0.433	2.18064516129	2.41325301205	-11.1352173913	-4.12727272727
867	0.4335	0.76935483871	-6.06265060241	-2.70326086957	-5.54545454545
868	0.434	0.76935483871	-6.06265060241	-4.10858695652	-5.54545454545
869	0.4345	-10.5209677419	-1.82469879518	-4.10858695652	-2.70909090909
870	0.435	-4.87580645161	1.00060240964	-1.29793478261	-14.0545454545
871	0.4355	2.18064516129	-1.82469879518	-2.70326086957	1.54545454545
872	0.436	3.59193548387	-0.412048192771	-12.5405434783	-8.38181818182
873	0.4365	3.59193548387	-0.412048192771	-13.9458695652	-12.6363636364
874	0.437	3.59193548387	1.00060240964	4.32336956522	-6.96363636364
875	0.4375	2.18064516129	-7.47530120482	-4.10858695652	-6.96363636364
876	0.438	0.76935483871	10.8891566265	-6.91923913043	-4.12727272727
877	0.4385	-3.46451612903	-11.713253012	-4.10858695652	-5.54545454545
878	0.439	0.76935483871	-3.23734939759	-4.10858695652	-2.70909090909
879	0.4395	-10.5209677419	-3.23734939759	-2.70326086957	-6.96363636364
880	0.44	-10.5209677419	-1.82469879518	-2.70326086957	-4.12727272727
881	0.4405	0.76935483871	-3.23734939759	-6.91923913043	-12.6363636364
882	0.441	-0.641935483871	-1.82469879518	-6.91923913043	-15.4727272727
883	0.4415	0.76935483871	-1.82469879518	0.107391304348	-6.96363636364
884	0.442	2.18064516129	3.82590361446	-9.72989130435	-5.54545454545
885	0.4425	0.76935483871	5.23855421687	-16.7565217391	-2.70909090909
886	0.443	5.00322580645	-4.65	-6.91923913043	-5.54545454545
887	0.4435	5.00322580645	-6.06265060241	-8.32456521739	-4.12727272727
888	0.444	-11.9322580645	-0.412048192771	-8.32456521739	-5.54545454545
889	0.4445	-2.05322580645	-1.82469879518	-9.72989130435	4.38181818182
890	0.445	7.82580645161	1.00060240964	-4.10858695652	-11.2181818182
891	0.4455	3.59193548387	1.00060240964	-12.5405434783	-5.54545454545
892	0.446	2.18064516129	1.00060240964	-11.1352173913	-5.54545454545
893	0.4465	0.76935483871	-1.82469879518	-18.1618478261	-4.12727272727
894	0.447	3.59193548387	-3.23734939759	-9.72989130435	-4.12727272727
895	0.4475	2.18064516129	1.00060240964	-9.72989130435	-4.12727272727
896	0.448	5.00322580645	-0.412048192771	-9.72989130435	-5.54545454545
897	0.4485	19.1161290323	-1.82469879518	-9.72989130435	-8.38181818182
898	0.449	-0.641935483871	-0.412048192771	-9.72989130435	10.0545454545
899	0.4495	5.00322580645	-0.412048192771	-4.10858695652	-11.2181818182
900	0.45	7.82580645161	-1.82469879518	-12.5405434783	-1.29090909091
901	0.4505	3.59193548387	1.00060240964	11.35	-6.96363636364
902	0.451	0.76935483871	-0.412048192771	-6.91923913043	-4.12727272727
903	0.4515	3.59193548387	16.5397590361	-8.32456521739	-5.54545454545
904	0.452	2.18064516129	-11.713253012	-6.91923913043	-2.70909090909
905	0.4525	5.00322580645	-6.06265060241	-8.32456521739	-4.12727272727
906	0.453	-10.5209677419	-0.412048192771	-6.91923913043	-5.54545454545
907	0.4535	-7.69838709677	-0.412048192771	-5.51391304348	-2.70909090909
908	0.454	0.76935483871	1.00060240964	-2.70326086957	-11.2181818182
909	0.4545	-0.641935483871	2.41325301205	-12.5405434783	-4.12727272727
910	0.455	-0.641935483871	1.00060240964	-1.29793478261	-9.8
911	0.4555	-0.641935483871	2.41325301205	-12.5405434783	-5.54545454545
912	0.456	0.76935483871	-0.412048192771	-4.10858695652	-2.70909090909
913	0.4565	5.00322580645	-6.06265060241	-6.91923913043	-5.54545454545
914	0.457	-7.69838709677	1.00060240964	-4.10858695652	-6.96363636364
915	0.4575	10.6483870968	-1.82469879518	-5.51391304348	-4.12727272727
916	0.458	-2.05322580645	-1.82469879518	-2.70326086957	-14.0545454545
917	0.4585	-3.46451612903	-0.412048192771	-6.91923913043	11.4727272727
918	0.459	-2.05322580645	1.00060240964	-2.70326086957	-8.38181818182
919	0.4595	-3.46451612903	1.00060240964	-11.1352173913	-4.12727272727
920	0.46	-4.87580645161	2.41325301205	-6.91923913043	-4.12727272727
921	0.4605	-4.87580645161	-8.88795180723	-11.1352173913	-5.54545454545
922	0.461	-4.87580645161	-1.82469879518	-6.91923913043	-4.12727272727
923	0.4615	-6.28709677419	-0.412048192771	-8.32456521739	-1.29090909091
924	0.462	5.00322580645	-0.412048192771	-5.51391304348	-2.70909090909
925	0.4625	-3.46451612903	-0.412048192771	-6.91923913043	8.63636363636
926	0.463	-2.05322580645	-0.412048192771	-12.5405434783	-8.38181818182
927	0.4635	-2.05322580645	1.00060240964	4.32336956522	-2.70909090909
928	0.464	-0.641935483871	-1.82469879518	11.35	-5.54545454545
929	0.4645	-2.05322580645	-0.412048192771	-11.1352173913	-4.12727272727
930	0.465	0.76935483871	10.8891566265	-4.10858695652	-1.29090909091
931	0.4655	-4.87580645161	-6.06265060241	-6.91923913043	-5.54545454545
932	0.466	-0.641935483871	2.41325301205	-2.70326086957	-5.54545454545
933	0.4665	-6.28709677419	1.00060240964	-8.32456521739	-2.70909090909
934	0.467	17.7048387097	-0.412048192771	-5.51391304348	-1.29090909091
935	0.4675	0.76935483871	-1.82469879518	-5.51391304348	-11.2181818182
936	0.468	0.76935483871	-3.23734939759	-15.3511956522	-2.70909090909
937	0.4685	-0.641935483871	-1.82469879518	-2.70326086957	-11.2181818182
938	0.469	-0.641935483871	-0.412048192771	-12.5405434783	-4.12727272727
939	0.4695	-0.641935483871	9.4765060241	-6.91923913043	-4.12727272727
940	0.47	2.18064516129	-8.88795180723	-4.10858695652	-2.70909090909
941	0.4705	0.76935483871	-7.47530120482	-6.91923913043	-5.54545454545
942	0.471	-10.5209677419	-0.412048192771	-5.51391304348	-6.96363636364
943	0.4715	-7.69838709677	1.00060240964	-6.91923913043	-5.54545454545
944	0.472	0.76935483871	-1.82469879518	-2.70326086957	-8.38181818182
945	0.4725	0.76935483871	-0.412048192771	-13.9458695652	-5.54545454545
946	0.473	-0.641935483871	1.00060240964	0.107391304348	-8.38181818182
947	0.4735	-0.641935483871	-1.82469879518	-18.1618478261	-4.12727272727
948	0.474	-0.641935483871	1.00060240964	2.91804347826	-4.12727272727
949	0.4745	3.59193548387	-8.88795180723	-9.72989130435	-6.96363636364
950	0.475	0.76935483871	-11.713253012	-6.91923913043	-2.70909090909
951	0.4755	-2.05322580645	-1.82469879518	-6.91923913043	-4.12727272727
952	0.476	19.1161290323	-4.65	-8.32456521739	-2.70909090909
953	0.4765	-0.641935483871	-4.65	-8.32456521739	0.127272727273
954	0.477	0.76935483871	-3.23734939759	-11.1352173913	8.63636363636
955	0.4775	2.18064516129	-0.412048192771	-11.1352173913	-4.12727272727
956	0.478	0.76935483871	-0.412048192771	-12.5405434783	-4.12727272727
957	0.4785	-0.641935483871	-10.3006024096	-11.1352173913	-5.54545454545
958	0.479	3.59193548387	8.06385542169	-8.32456521739	-4.12727272727
959	0.4795	0.76935483871	-4.65	-8.32456521739	-5.54545454545
960	0.48	7.82580645161	-0.412048192771	-12.5405434783	-5.54545454545
961	0.4805	20.5274193548	1.00060240964	-8.32456521739	-4.12727272727
962	0.481	-3.46451612903	1.00060240964	-11.1352173913	2.96363636364
963	0.4815	0.76935483871	1.00060240964	-11.1352173913	-16.8909090909
964	0.482	0.76935483871	2.41325301205	-8.32456521739	-12.6363636364
965	0.4825	0.76935483871	1.00060240964	-6.91923913043	-5.54545454545
966	0.483	0.76935483871	1.00060240964	7.13402173913	-5.54545454545
967	0.4835	0.76935483871	1.00060240964	-18.1618478261	-2.70909090909
968	0.484	-3.46451612903	-1.82469879518	-8.32456521739	-2.70909090909
969	0.4845	5.00322580645	2.41325301205	-9.72989130435	-4.12727272727
970	0.485	-4.87580645161	1.00060240964	-9.72989130435	-2.70909090909
971	0.4855	5.00322580645	-1.82469879518	-6.91923913043	-12.6363636364
972	0.486	0.76935483871	-0.412048192771	-9.72989130435	14.3090909091
973	0.4865	-0.641935483871	2.41325301205	-12.5405434783	-9.8
974	0.487	2.18064516129	1.00060240964	-13.9458695652	-8.38181818182
975	0.4875	2.18064516129	-3.23734939759	-12.5405434783	-2.70909090909
976	0.488	3.59193548387	-7.47530120482	-6.91923913043	-4.12727272727
977	0.4885	3.59193548387	-0.412048192771	-6.91923913043	-4.12727272727
978	0.489	7.82580645161	-3.23734939759	-5.51391304348	-2.70909090909
979	0.4895	9.23709677419	-0.412048192771	-5.51391304348	-1.29090909091
980	0.49	13.4709677419	1.00060240964	-4.10858695652	-1.29090909091
981	0.4905	7.82580645161	-0.412048192771	-8.32456521739	12.8909090909
982	0.491	5.00322580645	1.00060240964	-11.1352173913	-11.2181818182
983	0.4915	2.18064516129	-4.65	11.35	-5.54545454545
984	0.492	0.76935483871	-0.412048192771	5.72869565217	-4.12727272727
985	0.4925	0.76935483871	-1.82469879518	-1.29793478261	-1.29090909091
986	0.493	2.18064516129	12.3018072289	-2.70326086957	-4.12727272727
987	0.4935	-2.05322580645	-8.88795180723	-4.10858695652	-4.12727272727
988	0.494	-0.641935483871	-0.412048192771	-4.10858695652	-2.70909090909
989	0.4945	-10.5209677419	-0.412048192771	-4.10858695652	-5.54545454545
990	0.495	-7.69838709677	1.00060240964	-5.51391304348	-9.8
991	0.4955	-0.641935483871	-0.412048192771	-8.32456521739	-1.29090909091
992	0.496	-0.641935483871	1.00060240964	-22.377826087	-4.12727272727
993	0.4965	0.76935483871	1.00060240964	-16.7565217391	-11.2181818182
994	0.497	0.76935483871	3.82590361446	-1.29793478261	-4.12727272727
995	0.4975	3.59193548387	-6.06265060241	-8.32456521739	-1.29090909091
996	0.498	5.00322580645	17.9524096386	-9.72989130435	-2.70909090909
997	0.4985	5.00322580645	-8.88795180723	-9.72989130435	-5.54545454545
998	0.499	5.00322580645	1.00060240964	-8.32456521739	-1.29090909091
999	0.4995	-4.87580645161	1.00060240964	-8.32456521739	-11.2181818182
1000	0.5	-9.10967741935	1.00060240964	-12.5405434783	-4.12727272727
1001	0.5005	-0.641935483871	-0.412048192771	-8.32456521739	-5.54545454545
1002	0.501	-2.05322580645	-0.412048192771	-20.9725	-2.70909090909
1003	0.5015	0.76935483871	-1.82469879518	-12.5405434783	-2.70909090909
1004	0.502	0.76935483871	1.00060240964	-8.32456521739	-5.54545454545
1005	0.5025	-0.641935483871	-11.713253012	-9.72989130435	-5.54545454545
1006	0.503	0.76935483871	17.9524096386	-11.1352173913	-6.96363636364
1007	0.5035	-2.05322580645	3.82590361446	-9.72989130435	-6.96363636364
1008	0.504	21.9387096774	-1.82469879518	-8.32456521739	-2.70909090909
1009	0.5045	-3.46451612903	3.82590361446	-9.72989130435	-6.96363636364
1010	0.505	0.76935483871	-1.82469879518	-12.5405434783	2.96363636364
1011	0.5055	7.82580645161	2.41325301205	-5.51391304348	-9.8
1012	0.506	5.00322580645	2.41325301205	-18.1618478261	-5.54545454545
1013	0.5065	3.59193548387	1.00060240964	-8.32456521739	-5.54545454545
1014	0.507	2.18064516129	-6.06265060241	-9.72989130435	-4.12727272727
1015	0.5075	3.59193548387	6.65120481928	-9.72989130435	-4.12727272727
1016	0.508	7.82580645161	-4.65	-11.1352173913	-4.12727272727
1017	0.5085	-9.10967741935	-0.412048192771	-13.9458695652	-5.54545454545
1018	0.509	16.2935483871	5.23855421687	-18.1618478261	-2.70909090909
1019	0.5095	2.18064516129	-0.412048192771	-13.9458695652	-14.0545454545
1020	0.51	6.41451612903	1.00060240964	-11.1352173913	10.0545454545
1021	0.5105	5.00322580645	-0.412048192771	-15.3511956522	-5.54545454545
1022	0.511	2.18064516129	2.41325301205	-22.377826087	-5.54545454545
1023	0.5115	3.59193548387	-4.65	-12.5405434783	-1.29090909091
1024	0.512	2.18064516129	1.00060240964	-12.5405434783	-2.70909090909
1025	0.5125	-0.641935483871	-7.47530120482	-9.72989130435	-4.12727272727
1026	0.513	5.00322580645	1.00060240964	-15.3511956522	-6.96363636364
1027	0.5135	12.0596774194	1.00060240964	-13.9458695652	-8.38181818182
1028	0.514	-2.05322580645	3.82590361446	-13.9458695652	-5.54545454545
1029	0.5145	-2.05322580645	2.41325301205	-15.3511956522	5.8
1030	0.515	3.59193548387	3.82590361446	-1.29793478261	-2.70909090909
1031	0.5155	0.76935483871	1.00060240964	-20.9725	-2.70909090909
1032	0.516	0.76935483871	5.23855421687	-18.1618478261	-4.12727272727
1033	0.5165	3.59193548387	-11.713253012	-12.5405434783	-5.54545454545
1034	0.517	5.00322580645	19.365060241	-9.72989130435	-2.70909090909
1035	0.5175	-2.05322580645	1.00060240964	-9.72989130435	-8.38181818182
1036	0.518	21.9387096774	1.00060240964	-6.91923913043	-2.70909090909
1037	0.5185	-6.28709677419	-0.412048192771	-6.91923913043	-6.96363636364
1038	0.519	0.76935483871	2.41325301205	-5.51391304348	8.63636363636
1039	0.5195	5.00322580645	1.00060240964	-4.10858695652	-14.0545454545
1040	0.52	7.82580645161	1.00060240964	-13.9458695652	-11.2181818182
1041	0.5205	5.00322580645	-0.412048192771	-9.72989130435	-4.12727272727
1042	0.521	3.59193548387	2.41325301205	-8.32456521739	-1.29090909091
1043	0.5215	7.82580645161	5.23855421687	-6.91923913043	-4.12727272727
1044	0.522	12.0596774194	-1.82469879518	-11.1352173913	-2.70909090909
1045	0.5225	12.0596774194	-8.88795180723	-11.1352173913	-4.12727272727
1046	0.523	17.7048387097	1.00060240964	-11.1352173913	-4.12727272727
1047	0.5235	5.00322580645	2.41325301205	-12.5405434783	10.0545454545
1048	0.524	5.00322580645	1.00060240964	-6.91923913043	-11.2181818182
1049	0.5245	10.6483870968	-0.412048192771	-9.72989130435	-4.12727272727
1050	0.525	9.23709677419	-1.82469879518	5.72869565217	-5.54545454545
1051	0.5255	5.00322580645	-4.65	-8.32456521739	-4.12727272727
1052	0.526	3.59193548387	-11.713253012	-12.5405434783	-6.96363636364
1053	0.5265	2.18064516129	-1.82469879518	-11.1352173913	-4.12727272727
1054	0.527	-2.05322580645	-0.412048192771	-8.32456521739	-4.12727272727
1055	0.5275	23.35	-1.82469879518	-8.32456521739	-4.12727272727
1056	0.528	-4.87580645161	1.00060240964	-8.32456521739	-6.96363636364
1057	0.5285	3.59193548387	-1.82469879518	-18.1618478261	-5.54545454545
1058	0.529	9.23709677419	-1.82469879518	8.53934782609	-4.12727272727
1059	0.5295	5.00322580645	1.00060240964	1.5127173913	-4.12727272727
1060	0.53	5.00322580645	2.41325301205	-12.5405434783	-5.54545454545
1061	0.5305	12.0596774194	16.5397590361	-12.5405434783	-4.12727272727
1062	0.531	2.18064516129	-7.47530120482	-8.32456521739	-5.54545454545
1063	0.5315	-7.69838709677	-0.412048192771	-13.9458695652	-2.70909090909
1064	0.532	-6.28709677419	-0.412048192771	-13.9458695652	-6.96363636364
1065	0.5325	-0.641935483871	-1.82469879518	-12.5405434783	-4.12727272727
1066	0.533	7.82580645161	-0.412048192771	-11.1352173913	-8.38181818182
1067	0.5335	7.82580645161	-0.412048192771	-20.9725	-4.12727272727
1068	0.534	10.6483870968	1.00060240964	-8.32456521739	-6.96363636364
1069	0.5345	10.6483870968	5.23855421687	-12.5405434783	-6.96363636364
1070	0.535	9.23709677419	-6.06265060241	-12.5405434783	-4.12727272727
1071	0.5355	10.6483870968	2.41325301205	-13.9458695652	-5.54545454545
1072	0.536	5.00322580645	1.00060240964	-12.5405434783	-5.54545454545
1073	0.5365	9.23709677419	-0.412048192771	-12.5405434783	-5.54545454545
1074	0.537	2.18064516129	-0.412048192771	-15.3511956522	8.63636363636
1075	0.5375	3.59193548387	-3.23734939759	-12.5405434783	-4.12727272727
1076	0.538	7.82580645161	-1.82469879518	-20.9725	-11.2181818182
1077	0.5385	10.6483870968	-1.82469879518	-18.1618478261	-11.2181818182
1078	0.539	9.23709677419	-1.82469879518	-9.72989130435	-4.12727272727
1079	0.5395	7.82580645161	-4.65	-6.91923913043	-5.54545454545
1080	0.54	10.6483870968	20.7777108434	-9.72989130435	-4.12727272727
1081	0.5405	12.0596774194	-7.47530120482	-8.32456521739	-5.54545454545
1082	0.541	10.6483870968	-0.412048192771	-9.72989130435	-4.12727272727
1083	0.5415	3.59193548387	3.82590361446	-9.72989130435	-15.4727272727
1084	0.542	9.23709677419	1.00060240964	-11.1352173913	8.63636363636
1085	0.5425	9.23709677419	1.00060240964	-8.32456521739	-1.29090909091
1086	0.543	2.18064516129	-1.82469879518	-19.567173913	-6.96363636364
1087	0.5435	2.18064516129	-4.65	-6.91923913043	-5.54545454545
1088	0.544	0.76935483871	-7.47530120482	-6.91923913043	-5.54545454545
1089	0.5445	-0.641935483871	10.8891566265	-6.91923913043	-4.12727272727
1090	0.545	-2.05322580645	13.7144578313	-9.72989130435	-5.54545454545
1091	0.5455	-10.5209677419	-3.23734939759	-8.32456521739	-5.54545454545
1092	0.546	13.4709677419	-3.23734939759	-8.32456521739	-5.54545454545
1093	0.5465	-11.9322580645	-1.82469879518	-9.72989130435	-2.70909090909
1094	0.547	-2.05322580645	1.00060240964	-18.1618478261	-6.96363636364
1095	0.5475	0.76935483871	-0.412048192771	8.53934782609	-5.54545454545
1096	0.548	0.76935483871	-1.82469879518	-15.3511956522	-5.54545454545
1097	0.5485	5.00322580645	2.41325301205	-12.5405434783	-4.12727272727
1098	0.549	5.00322580645	22.1903614458	-8.32456521739	-2.70909090909
1099	0.5495	7.82580645161	17.9524096386	-9.72989130435	-2.70909090909
1100	0.55	3.59193548387	-4.65	-9.72989130435	-4.12727272727
1101	0.5505	-3.46451612903	2.41325301205	-6.91923913043	-6.96363636364
1102	0.551	-0.641935483871	2.41325301205	-5.51391304348	-12.6363636364
1103	0.5515	3.59193548387	1.00060240964	-5.51391304348	-5.54545454545
1104	0.552	7.82580645161	-1.82469879518	-4.10858695652	-6.96363636364
1105	0.5525	3.59193548387	-0.412048192771	-5.51391304348	11.4727272727
1106	0.553	7.82580645161	-1.82469879518	-6.91923913043	-4.12727272727
1107	0.5535	9.23709677419	-8.88795180723	-4.10858695652	-5.54545454545
1108	0.554	10.6483870968	17.9524096386	-6.91923913043	-5.54545454545
1109	0.5545	7.82580645161	6.65120481928	-4.10858695652	-4.12727272727
1110	0.555	12.0596774194	-3.23734939759	-6.91923913043	-4.12727272727
1111	0.5555	26.1725806452	-1.82469879518	-2.70326086957	-5.54545454545
1112	0.556	2.18064516129	-1.82469879518	-4.10858695652	1.54545454545
1113	0.5565	10.6483870968	-0.412048192771	0.107391304348	-8.38181818182
1114	0.557	5.00322580645	2.41325301205	-2.70326086957	11.4727272727
1115	0.5575	10.6483870968	-1.82469879518	-4.10858695652	-5.54545454545
1116	0.558	5.00322580645	3.82590361446	-2.70326086957	-4.12727272727
1117	0.5585	9.23709677419	-11.713253012	-2.70326086957	-2.70909090909
1118	0.559	5.00322580645	-8.88795180723	-2.70326086957	-5.54545454545
1119	0.5595	0.76935483871	-0.412048192771	-1.29793478261	-4.12727272727
1120	0.56	14.8822580645	1.00060240964	0.107391304348	-5.54545454545
1121	0.5605	21.9387096774	1.00060240964	0.107391304348	-4.12727272727
1122	0.561	-3.46451612903	1.00060240964	-1.29793478261	-4.12727272727
1123	0.5615	3.59193548387	-1.82469879518	12.755326087	-2.70909090909
1124	0.562	5.00322580645	1.00060240964	-8.32456521739	-2.70909090909
1125	0.5625	0.76935483871	1.00060240964	-4.10858695652	-4.12727272727
1126	0.563	2.18064516129	-8.88795180723	-1.29793478261	-2.70909090909
1127	0.5635	2.18064516129	16.5397590361	-1.29793478261	-5.54545454545
1128	0.564	-2.05322580645	-0.412048192771	-2.70326086957	-5.54545454545
1129	0.5645	13.4709677419	-0.412048192771	-1.29793478261	-2.70909090909
1130	0.565	17.7048387097	1.00060240964	-4.10858695652	0.127272727273
1131	0.5655	-6.28709677419	-0.412048192771	-2.70326086957	-5.54545454545
1132	0.566	3.59193548387	-0.412048192771	12.755326087	-4.12727272727
1133	0.5665	3.59193548387	5.23855421687	5.72869565217	-2.70909090909
1134	0.567	2.18064516129	8.06385542169	-5.51391304348	-5.54545454545
1135	0.5675	3.59193548387	6.65120481928	-11.1352173913	-2.70909090909
1136	0.568	9.23709677419	5.23855421687	-1.29793478261	-6.96363636364
1137	0.5685	12.0596774194	-1.82469879518	2.91804347826	-2.70909090909
1138	0.569	-3.46451612903	2.41325301205	4.32336956522	-2.70909090909
1139	0.5695	23.35	2.41325301205	4.32336956522	-6.96363636364
1140	0.57	9.23709677419	2.41325301205	7.13402173913	-15.4727272727
1141	0.5705	10.6483870968	1.00060240964	7.13402173913	10.0545454545
1142	0.571	10.6483870968	1.00060240964	5.72869565217	-5.54545454545
1143	0.5715	10.6483870968	2.41325301205	-4.10858695652	-6.96363636364
1144	0.572	10.6483870968	-0.412048192771	0.107391304348	-5.54545454545
1145	0.5725	9.23709677419	17.9524096386	2.91804347826	-5.54545454545
1146	0.573	2.18064516129	-4.65	5.72869565217	-2.70909090909
1147	0.5735	-2.05322580645	1.00060240964	4.32336956522	-6.96363636364
1148	0.574	-4.87580645161	2.41325301205	4.32336956522	-14.0545454545
1149	0.5745	3.59193548387	3.82590361446	4.32336956522	-4.12727272727
1150	0.575	5.00322580645	-0.412048192771	5.72869565217	12.8909090909
1151	0.5755	5.00322580645	2.41325301205	-1.29793478261	-4.12727272727
1152	0.576	5.00322580645	3.82590361446	0.107391304348	-2.70909090909
1153	0.5765	7.82580645161	-7.47530120482	0.107391304348	-5.54545454545
1154	0.577	9.23709677419	9.4765060241	0.107391304348	-2.70909090909
1155	0.5775	9.23709677419	2.41325301205	0.107391304348	-5.54545454545
1156	0.578	14.8822580645	2.41325301205	2.91804347826	-6.96363636364
1157	0.5785	19.1161290323	2.41325301205	1.5127173913	-5.54545454545
1158	0.579	9.23709677419	-0.412048192771	-1.29793478261	8.63636363636
1159	0.5795	7.82580645161	-0.412048192771	2.91804347826	-11.2181818182
1160	0.58	2.18064516129	1.00060240964	0.107391304348	-8.38181818182
1161	0.5805	3.59193548387	-4.65	1.5127173913	-5.54545454545
1162	0.581	0.76935483871	2.41325301205	1.5127173913	-4.12727272727
1163	0.5815	2.18064516129	9.4765060241	0.107391304348	-2.70909090909
1164	0.582	2.18064516129	-7.47530120482	-1.29793478261	-2.70909090909
1165	0.5825	5.00322580645	-3.23734939759	1.5127173913	-2.70909090909
1166	0.583	-9.10967741935	-3.23734939759	0.107391304348	-5.54545454545
1167	0.5835	7.82580645161	-1.82469879518	2.91804347826	0.127272727273
1168	0.584	7.82580645161	1.00060240964	-8.32456521739	-2.70909090909
1169	0.5845	7.82580645161	1.00060240964	-6.91923913043	-12.6363636364
1170	0.585	12.0596774194	1.00060240964	4.32336956522	-6.96363636364
1171	0.5855	10.6483870968	-0.412048192771	12.755326087	-5.54545454545
1172	0.586	12.0596774194	3.82590361446	0.107391304348	-4.12727272727
1173	0.5865	12.0596774194	17.9524096386	-1.29793478261	-6.96363636364
1174	0.587	12.0596774194	-1.82469879518	-4.10858695652	-6.96363636364
1175	0.5875	24.7612903226	2.41325301205	-2.70326086957	-5.54545454545
1176	0.588	-2.05322580645	2.41325301205	-1.29793478261	-5.54545454545
1177	0.5885	7.82580645161	2.41325301205	-1.29793478261	-4.12727272727
1178	0.589	7.82580645161	1.00060240964	-1.29793478261	7.21818181818
1179	0.5895	7.82580645161	2.41325301205	-11.1352173913	-5.54545454545
1180	0.59	5.00322580645	-0.412048192771	-2.70326086957	-6.96363636364
1181	0.5905	5.00322580645	2.41325301205	-2.70326086957	-5.54545454545
1182	0.591	10.6483870968	9.4765060241	-1.29793478261	-6.96363636364
1183	0.5915	10.6483870968	1.00060240964	-1.29793478261	-2.70909090909
1184	0.592	-4.87580645161	2.41325301205	-4.10858695652	-8.38181818182
1185	0.5925	24.7612903226	5.23855421687	-1.29793478261	-5.54545454545
1186	0.593	-0.641935483871	1.00060240964	0.107391304348	-5.54545454545
1187	0.5935	7.82580645161	-0.412048192771	1.5127173913	7.21818181818
1188	0.594	5.00322580645	-3.23734939759	18.3766304348	-6.96363636364
1189	0.5945	9.23709677419	-3.23734939759	-5.51391304348	-6.96363636364
1190	0.595	5.00322580645	1.00060240964	4.32336956522	-6.96363636364
1191	0.5955	9.23709677419	-7.47530120482	2.91804347826	-6.96363636364
1192	0.596	3.59193548387	-7.47530120482	2.91804347826	-5.54545454545
1193	0.5965	6.41451612903	-0.412048192771	4.32336956522	-6.96363636364
1194	0.597	19.1161290323	1.00060240964	4.32336956522	-2.70909090909
1195	0.5975	2.18064516129	2.41325301205	4.32336956522	-4.12727272727
1196	0.598	6.41451612903	5.23855421687	-1.29793478261	-14.0545454545
1197	0.5985	9.23709677419	2.41325301205	18.3766304348	-6.96363636364
1198	0.599	10.6483870968	6.65120481928	-2.70326086957	-4.12727272727
1199	0.5995	10.6483870968	-3.23734939759	1.5127173913	-8.38181818182
1200	0.6	14.8822580645	13.7144578313	0.107391304348	-5.54545454545
1201	0.6005	10.6483870968	-6.06265060241	-1.29793478261	-9.8
1202	0.601	10.6483870968	3.82590361446	-1.29793478261	-4.12727272727
1203	0.6015	5.00322580645	2.41325301205	0.107391304348	-16.8909090909
1204	0.602	7.82580645161	3.82590361446	-1.29793478261	12.8909090909
1205	0.6025	7.82580645161	3.82590361446	-1.29793478261	-12.6363636364
1206	0.603	7.82580645161	1.00060240964	-9.72989130435	-9.8
1207	0.6035	12.0596774194	-1.82469879518	15.5659782609	-6.96363636364
1208	0.604	10.6483870968	-4.65	-1.29793478261	-5.54545454545
1209	0.6045	7.82580645161	10.8891566265	-1.29793478261	-6.96363636364
1210	0.605	13.4709677419	17.9524096386	0.107391304348	-6.96363636364
1211	0.6055	5.00322580645	-6.06265060241	-1.29793478261	-6.96363636364
1212	0.606	14.8822580645	1.00060240964	-2.70326086957	-1.29090909091
1213	0.6065	-2.05322580645	1.00060240964	1.5127173913	-15.4727272727
1214	0.607	9.23709677419	1.00060240964	0.107391304348	-8.38181818182
1215	0.6075	12.0596774194	1.00060240964	2.91804347826	-6.96363636364
1216	0.608	9.23709677419	5.23855421687	-8.32456521739	-6.96363636364
1217	0.6085	5.00322580645	1.00060240964	-8.32456521739	-8.38181818182
1218	0.609	9.23709677419	10.8891566265	0.107391304348	-6.96363636364
1219	0.6095	10.6483870968	-1.82469879518	1.5127173913	-8.38181818182
1220	0.61	5.00322580645	3.82590361446	4.32336956522	-8.38181818182
1221	0.6105	17.7048387097	2.41325301205	5.72869565217	-14.0545454545
1222	0.611	12.0596774194	1.00060240964	4.32336956522	7.21818181818
1223	0.6115	9.23709677419	1.00060240964	7.13402173913	-16.8909090909
1224	0.612	9.23709677419	1.00060240964	4.32336956522	-11.2181818182
1225	0.6125	9.23709677419	2.41325301205	14.1606521739	-11.2181818182
1226	0.613	10.6483870968	6.65120481928	25.4032608696	-6.96363636364
1227	0.6135	10.6483870968	-1.82469879518	11.35	-8.38181818182
1228	0.614	9.23709677419	23.6030120482	12.755326087	-6.96363636364
1229	0.6145	0.76935483871	5.23855421687	14.1606521739	-6.96363636364
1230	0.615	21.9387096774	3.82590361446	12.755326087	-5.54545454545
1231	0.6155	-3.46451612903	6.65120481928	12.755326087	0.127272727273
1232	0.616	7.82580645161	8.06385542169	9.94467391304	-15.4727272727
1233	0.6165	3.59193548387	8.06385542169	7.13402173913	-11.2181818182
1234	0.617	3.59193548387	6.65120481928	28.2139130435	-5.54545454545
1235	0.6175	5.00322580645	5.23855421687	14.1606521739	-6.96363636364
1236	0.618	2.18064516129	16.5397590361	12.755326087	-5.54545454545
1237	0.6185	3.59193548387	-1.82469879518	12.755326087	-8.38181818182
1238	0.619	3.59193548387	1.00060240964	14.1606521739	-8.38181818182
1239	0.6195	20.5274193548	5.23855421687	8.53934782609	-5.54545454545
1240	0.62	-4.87580645161	9.4765060241	11.35	-5.54545454545
1241	0.6205	0.76935483871	6.65120481928	15.5659782609	-12.6363636364
1242	0.621	0.76935483871	8.06385542169	4.32336956522	-4.12727272727
1243	0.6215	-2.05322580645	9.4765060241	22.5926086957	-4.12727272727
1244	0.622	-6.28709677419	2.41325301205	11.35	-5.54545454545
1245	0.6225	-3.46451612903	20.7777108434	11.35	-2.70909090909
1246	0.623	-10.5209677419	3.82590361446	14.1606521739	-1.29090909091
1247	0.6235	-14.7548387097	10.8891566265	12.755326087	-2.70909090909
1248	0.624	-16.1661290323	10.8891566265	14.1606521739	-1.29090909091
1249	0.6245	-4.87580645161	10.8891566265	18.3766304348	-4.12727272727
1250	0.625	-3.46451612903	10.8891566265	18.3766304348	0.127272727273
1251	0.6255	-4.87580645161	8.06385542169	14.1606521739	2.96363636364
1252	0.626	-6.28709677419	10.8891566265	4.32336956522	1.54545454545
1253	0.6265	-7.69838709677	8.06385542169	12.755326087	0.127272727273
1254	0.627	-10.5209677419	5.23855421687	12.755326087	-1.29090909091
1255	0.6275	-13.3435483871	1.00060240964	14.1606521739	2.96363636364
1256	0.628	-11.9322580645	9.4765060241	12.755326087	4.38181818182
1257	0.6285	-0.641935483871	6.65120481928	11.35	4.38181818182
1258	0.629	9.23709677419	6.65120481928	5.72869565217	0.127272727273
1259	0.6295	-10.5209677419	8.06385542169	11.35	8.63636363636
1260	0.63	-13.3435483871	8.06385542169	-1.29793478261	4.38181818182
1261	0.6305	-13.3435483871	8.06385542169	4.32336956522	-1.29090909091
1262	0.631	-16.1661290323	6.65120481928	2.91804347826	4.38181818182
1263	0.6315	-13.3435483871	-1.82469879518	5.72869565217	2.96363636364
1264	0.632	-14.7548387097	16.5397590361	2.91804347826	4.38181818182
1265	0.6325	-10.5209677419	6.65120481928	2.91804347826	5.8
1266	0.633	5.00322580645	6.65120481928	2.91804347826	2.96363636364
1267	0.6335	-17.5774193548	6.65120481928	0.107391304348	4.38181818182
1268	0.634	-11.9322580645	9.4765060241	4.32336956522	-6.96363636364
1269	0.6345	-11.9322580645	8.06385542169	0.107391304348	15.7272727273
1270	0.635	-11.9322580645	6.65120481928	-1.29793478261	2.96363636364
1271	0.6355	-13.3435483871	5.23855421687	0.107391304348	-1.29090909091
1272	0.636	-10.5209677419	8.06385542169	-2.70326086957	0.127272727273
1273	0.6365	-11.9322580645	-4.65	-4.10858695652	-1.29090909091
1274	0.637	-10.5209677419	2.41325301205	-6.91923913043	-2.70909090909
1275	0.6375	0.76935483871	1.00060240964	-8.32456521739	-5.54545454545
1276	0.638	-10.5209677419	-0.412048192771	-12.5405434783	15.7272727273
1277	0.6385	-6.28709677419	1.00060240964	-9.72989130435	-8.38181818182
1278	0.639	-3.46451612903	-0.412048192771	-12.5405434783	0.127272727273
1279	0.6395	-4.87580645161	1.00060240964	-26.5938043478	1.54545454545
1280	0.64	-3.46451612903	-6.06265060241	-29.4044565217	1.54545454545
1281	0.6405	0.76935483871	-0.412048192771	-22.377826087	0.127272727273
1282	0.641	-2.05322580645	-10.3006024096	-27.9991304348	1.54545454545
1283	0.6415	-2.05322580645	-3.23734939759	-29.4044565217	1.54545454545
1284	0.642	10.6483870968	-1.82469879518	-27.9991304348	-5.54545454545
1285	0.6425	2.18064516129	-1.82469879518	-33.6204347826	18.5636363636
1286	0.643	2.18064516129	-4.65	-37.8364130435	-2.70909090909
1287	0.6435	2.18064516129	-4.65	-32.2151086957	2.96363636364
1288	0.644	3.59193548387	-4.65	-46.2683695652	1.54545454545
1289	0.6445	3.59193548387	-7.47530120482	-50.4843478261	0.127272727273
1290	0.645	5.00322580645	5.23855421687	-43.4577173913	4.38181818182
1291	0.6455	2.18064516129	-13.1259036145	-44.8630434783	2.96363636364
1292	0.646	5.00322580645	-11.713253012	-44.8630434783	1.54545454545
1293	0.6465	3.59193548387	-8.88795180723	-47.6736956522	-11.2181818182
1294	0.647	10.6483870968	-11.713253012	-47.6736956522	7.21818181818
1295	0.6475	9.23709677419	-10.3006024096	-42.0523913043	14.3090909091
1296	0.648	9.23709677419	-11.713253012	-49.0790217391	-2.70909090909
1297	0.6485	10.6483870968	-8.88795180723	-50.4843478261	-4.12727272727
1298	0.649	9.23709677419	-8.88795180723	-47.6736956522	-1.29090909091
1299	0.6495	7.82580645161	-3.23734939759	-40.6470652174	-2.70909090909
1300	0.65	3.59193548387	-11.713253012	-35.0257608696	-2.70909090909
1301	0.6505	7.82580645161	-4.65	-37.8364130435	-5.54545454545
1302	0.651	-0.641935483871	-4.65	-37.8364130435	-5.54545454545
1303	0.6515	-2.05322580645	-4.65	-35.0257608696	-6.96363636364
1304	0.652	9.23709677419	-1.82469879518	-29.4044565217	-15.4727272727
1305	0.6525	7.82580645161	-3.23734939759	-16.7565217391	-5.54545454545
1306	0.653	3.59193548387	-0.412048192771	-32.2151086957	-8.38181818182
1307	0.6535	7.82580645161	1.00060240964	-35.0257608696	-5.54545454545
1308	0.654	7.82580645161	-1.82469879518	-23.7831521739	-5.54545454545
1309	0.6545	9.23709677419	-4.65	-22.377826087	-4.12727272727
1310	0.655	-7.69838709677	-1.82469879518	-22.377826087	-5.54545454545
1311	0.6555	3.59193548387	-1.82469879518	-20.9725	-5.54545454545
1312	0.656	9.23709677419	-1.82469879518	-18.1618478261	-11.2181818182
1313	0.6565	12.0596774194	-0.412048192771	-18.1618478261	10.0545454545
1314	0.657	9.23709677419	1.00060240964	-15.3511956522	-5.54545454545
1315	0.6575	5.00322580645	1.00060240964	-22.377826087	-5.54545454545
1316	0.658	7.82580645161	3.82590361446	-13.9458695652	-6.96363636364
1317	0.6585	10.6483870968	5.23855421687	-16.7565217391	-9.8
1318	0.659	14.8822580645	1.00060240964	-15.3511956522	-11.2181818182
1319	0.6595	9.23709677419	1.00060240964	-12.5405434783	-8.38181818182
1320	0.66	17.7048387097	-0.412048192771	-13.9458695652	-5.54545454545
1321	0.6605	7.82580645161	-0.412048192771	-15.3511956522	-21.1454545455
1322	0.661	7.82580645161	-3.23734939759	-19.567173913	-14.0545454545
1323	0.6615	5.00322580645	-0.412048192771	-4.10858695652	-11.2181818182
1324	0.662	6.41451612903	-4.65	-22.377826087	-8.38181818182
1325	0.6625	5.00322580645	-4.65	-13.9458695652	-8.38181818182
1326	0.663	5.00322580645	-7.47530120482	-11.1352173913	-9.8
1327	0.6635	10.6483870968	-4.65	-15.3511956522	-6.96363636364
1328	0.664	10.6483870968	-0.412048192771	-12.5405434783	-11.2181818182
1329	0.6645	3.59193548387	1.00060240964	-12.5405434783	-21.1454545455
1330	0.665	9.23709677419	2.41325301205	-12.5405434783	1.54545454545
1331	0.6655	10.6483870968	1.00060240964	-8.32456521739	-4.12727272727
1332	0.666	10.6483870968	1.00060240964	-15.3511956522	-11.2181818182
1333	0.6665	10.6483870968	-0.412048192771	-8.32456521739	-11.2181818182
1334	0.667	12.0596774194	-8.88795180723	-8.32456521739	-11.2181818182
1335	0.6675	13.4709677419	17.9524096386	-6.91923913043	-9.8
1336	0.668	10.6483870968	-1.82469879518	-9.72989130435	-8.38181818182
1337	0.6685	16.2935483871	-1.82469879518	-6.91923913043	-8.38181818182
1338	0.669	5.00322580645	1.00060240964	-9.72989130435	-12.6363636364
1339	0.6695	12.0596774194	-0.412048192771	-6.91923913043	0.127272727273
1340	0.67	10.6483870968	1.00060240964	-8.32456521739	-6.96363636364
1341	0.6705	7.82580645161	-0.412048192771	-12.5405434783	-11.2181818182
1342	0.671	7.82580645161	-0.412048192771	-2.70326086957	-11.2181818182
1343	0.6715	0.76935483871	-1.82469879518	-1.29793478261	-9.8
1344	0.672	-0.641935483871	9.4765060241	-1.29793478261	-11.2181818182
1345	0.6725	5.00322580645	1.00060240964	-4.10858695652	-12.6363636364
1346	0.673	0.76935483871	-3.23734939759	-1.29793478261	-9.8
1347	0.6735	0.76935483871	-0.412048192771	-1.29793478261	-19.7272727273
1348	0.674	2.18064516129	-0.412048192771	-1.29793478261	-18.3090909091
1349	0.6745	0.76935483871	-0.412048192771	4.32336956522	-11.2181818182
1350	0.675	3.59193548387	1.00060240964	-8.32456521739	-14.0545454545
1351	0.6755	3.59193548387	-1.82469879518	-6.91923913043	-12.6363636364
1352	0.676	7.82580645161	5.23855421687	-1.29793478261	-12.6363636364
1353	0.6765	0.76935483871	-11.713253012	-1.29793478261	-8.38181818182
1354	0.677	2.18064516129	-1.82469879518	0.107391304348	-6.96363636364
1355	0.6775	7.82580645161	1.00060240964	2.91804347826	-11.2181818182
1356	0.678	3.59193548387	1.00060240964	2.91804347826	-8.38181818182
1357	0.6785	10.6483870968	-1.82469879518	2.91804347826	-5.54545454545
1358	0.679	12.0596774194	1.00060240964	-1.29793478261	-9.8
1359	0.6795	9.23709677419	-1.82469879518	1.5127173913	-9.8
1360	0.68	7.82580645161	-6.06265060241	2.91804347826	-9.8
1361	0.6805	7.82580645161	13.7144578313	4.32336956522	-9.8
1362	0.681	7.82580645161	-10.3006024096	4.32336956522	-9.8
1363	0.6815	16.2935483871	-0.412048192771	5.72869565217	-6.96363636364
1364	0.682	-3.46451612903	1.00060240964	5.72869565217	-16.8909090909
1365	0.6825	7.82580645161	2.41325301205	5.72869565217	-9.8
1366	0.683	5.00322580645	3.82590361446	5.72869565217	7.21818181818
1367	0.6835	9.23709677419	2.41325301205	4.32336956522	-8.38181818182
1368	0.684	5.00322580645	6.65120481928	1.5127173913	-8.38181818182
1369	0.6845	6.41451612903	-6.06265060241	1.5127173913	-8.38181818182
1370	0.685	0.76935483871	-1.82469879518	1.5127173913	-5.54545454545
1371	0.6855	3.59193548387	12.3018072289	2.91804347826	-6.96363636364
1372	0.686	17.7048387097	-1.82469879518	0.107391304348	-5.54545454545
1373	0.6865	-9.10967741935	-0.412048192771	-1.29793478261	-14.0545454545
1374	0.687	-0.641935483871	-0.412048192771	2.91804347826	-11.2181818182
1375	0.6875	2.18064516129	-1.82469879518	4.32336956522	7.21818181818
1376	0.688	3.59193548387	5.23855421687	-2.70326086957	-5.54545454545
1377	0.6885	2.18064516129	1.00060240964	-2.70326086957	-9.8
1378	0.689	3.59193548387	-8.88795180723	1.5127173913	-8.38181818182
1379	0.6895	-0.641935483871	-6.06265060241	-1.29793478261	-6.96363636364
1380	0.69	-2.05322580645	1.00060240964	-1.29793478261	-8.38181818182
1381	0.6905	16.2935483871	1.00060240964	-1.29793478261	-6.96363636364
1382	0.691	-10.5209677419	3.82590361446	2.91804347826	-15.4727272727
1383	0.6915	-0.641935483871	1.00060240964	1.5127173913	-6.96363636364
1384	0.692	-0.641935483871	2.41325301205	-11.1352173913	-9.8
1385	0.6925	-0.641935483871	1.00060240964	-8.32456521739	-9.8
1386	0.693	5.00322580645	-1.82469879518	0.107391304348	-12.6363636364
1387	0.6935	7.82580645161	-7.47530120482	0.107391304348	-11.2181818182
1388	0.694	7.82580645161	16.5397590361	2.91804347826	-9.8
1389	0.6945	-10.5209677419	1.00060240964	1.5127173913	-11.2181818182
1390	0.695	-10.5209677419	1.00060240964	1.5127173913	-11.2181818182
1391	0.6955	5.00322580645	1.00060240964	4.32336956522	-18.3090909091
1392	0.696	-2.05322580645	3.82590361446	1.5127173913	2.96363636364
1393	0.6965	2.18064516129	2.41325301205	4.32336956522	-16.8909090909
1394	0.697	5.00322580645	-0.412048192771	2.91804347826	-9.8
1395	0.6975	3.59193548387	6.65120481928	4.32336956522	-6.96363636364
1396	0.698	5.00322580645	1.00060240964	-1.29793478261	-9.8
1397	0.6985	2.18064516129	9.4765060241	4.32336956522	-6.96363636364
1398	0.699	9.23709677419	1.00060240964	2.91804347826	-8.38181818182
1399	0.6995	-3.46451612903	1.00060240964	7.13402173913	-9.8
1400	0.7	9.23709677419	-1.82469879518	5.72869565217	-16.8909090909
1401	0.7005	2.18064516129	-0.412048192771	7.13402173913	5.8
1402	0.701	3.59193548387	-1.82469879518	18.3766304348	-11.2181818182
1403	0.7015	0.76935483871	-0.412048192771	7.13402173913	-12.6363636364
1404	0.702	0.76935483871	2.41325301205	11.35	-6.96363636364
1405	0.7025	5.00322580645	-7.47530120482	11.35	-6.96363636364
1406	0.703	5.00322580645	6.65120481928	14.1606521739	-9.8
1407	0.7035	-7.69838709677	1.00060240964	7.13402173913	-11.2181818182
1408	0.704	26.1725806452	-0.412048192771	8.53934782609	-6.96363636364
1409	0.7045	0.76935483871	1.00060240964	11.35	-11.2181818182
1410	0.705	2.18064516129	-0.412048192771	11.35	2.96363636364
1411	0.7055	3.59193548387	1.00060240964	12.755326087	-15.4727272727
1412	0.706	3.59193548387	1.00060240964	22.5926086957	-8.38181818182
1413	0.7065	2.18064516129	2.41325301205	7.13402173913	-9.8
1414	0.707	3.59193548387	15.1271084337	8.53934782609	-9.8
1415	0.7075	0.76935483871	-10.3006024096	11.35	-9.8
1416	0.708	-2.05322580645	-0.412048192771	8.53934782609	-9.8
1417	0.7085	17.7048387097	-0.412048192771	8.53934782609	-6.96363636364
1418	0.709	23.35	-1.82469879518	8.53934782609	-8.38181818182
1419	0.7095	2.18064516129	-1.82469879518	4.32336956522	-12.6363636364
1420	0.71	5.00322580645	-1.82469879518	23.9979347826	-8.38181818182
1421	0.7105	10.6483870968	1.00060240964	2.91804347826	-6.96363636364
1422	0.711	9.23709677419	-1.82469879518	4.32336956522	-6.96363636364
1423	0.7115	5.00322580645	-6.06265060241	12.755326087	-9.8
1424	0.712	3.59193548387	-8.88795180723	11.35	-8.38181818182
1425	0.7125	7.82580645161	-0.412048192771	8.53934782609	-6.96363636364
1426	0.713	13.4709677419	-1.82469879518	7.13402173913	-6.96363636364
1427	0.7135	23.35	-1.82469879518	7.13402173913	-9.8
1428	0.714	-3.46451612903	-0.412048192771	8.53934782609	-11.2181818182
1429	0.7145	3.59193548387	-3.23734939759	-1.29793478261	-9.8
1430	0.715	5.00322580645	-1.82469879518	23.9979347826	-11.2181818182
1431	0.7155	3.59193548387	-3.23734939759	4.32336956522	-11.2181818182
1432	0.716	3.59193548387	5.23855421687	8.53934782609	-8.38181818182
1433	0.7165	5.00322580645	-6.06265060241	8.53934782609	-9.8
1434	0.717	5.00322580645	-1.82469879518	5.72869565217	-4.12727272727
1435	0.7175	-6.28709677419	-0.412048192771	7.13402173913	-11.2181818182
1436	0.718	19.1161290323	-0.412048192771	7.13402173913	-8.38181818182
1437	0.7185	5.00322580645	-0.412048192771	8.53934782609	-21.1454545455
1438	0.719	5.00322580645	-1.82469879518	-2.70326086957	-8.38181818182
1439	0.7195	3.59193548387	-0.412048192771	14.1606521739	-11.2181818182
1440	0.72	3.59193548387	1.00060240964	4.32336956522	-6.96363636364
1441	0.7205	7.82580645161	-10.3006024096	7.13402173913	-8.38181818182
1442	0.721	9.23709677419	9.4765060241	7.13402173913	-9.8
1443	0.7215	12.0596774194	1.00060240964	7.13402173913	-6.96363636364
1444	0.722	9.23709677419	-7.47530120482	7.13402173913	-8.38181818182
1445	0.7225	12.0596774194	1.00060240964	4.32336956522	-9.8
1446	0.723	0.76935483871	-1.82469879518	2.91804347826	5.8
1447	0.7235	0.76935483871	-4.65	7.13402173913	-15.4727272727
1448	0.724	3.59193548387	-1.82469879518	5.72869565217	-15.4727272727
1449	0.7245	3.59193548387	-1.82469879518	5.72869565217	-9.8
1450	0.725	2.18064516129	3.82590361446	4.32336956522	-11.2181818182
1451	0.7255	7.82580645161	16.5397590361	4.32336956522	-9.8
1452	0.726	3.59193548387	-3.23734939759	7.13402173913	-8.38181818182
1453	0.7265	3.59193548387	1.00060240964	5.72869565217	-6.96363636364
1454	0.727	-9.10967741935	2.41325301205	8.53934782609	-12.6363636364
1455	0.7275	2.18064516129	1.00060240964	4.32336956522	-15.4727272727
1456	0.728	0.76935483871	-0.412048192771	7.13402173913	-11.2181818182
1457	0.7285	2.18064516129	1.00060240964	-4.10858695652	-9.8
1458	0.729	3.59193548387	3.82590361446	2.91804347826	-11.2181818182
1459	0.7295	7.82580645161	-10.3006024096	14.1606521739	-11.2181818182
1460	0.73	7.82580645161	17.9524096386	8.53934782609	-11.2181818182
1461	0.7305	10.6483870968	10.8891566265	8.53934782609	-11.2181818182
1462	0.731	-0.641935483871	-6.06265060241	11.35	-11.2181818182
1463	0.7315	23.35	-1.82469879518	12.755326087	-6.96363636364
1464	0.732	-0.641935483871	1.00060240964	12.755326087	-5.54545454545
1465	0.7325	10.6483870968	1.00060240964	9.94467391304	-14.0545454545
1466	0.733	10.6483870968	-0.412048192771	26.8085869565	-11.2181818182
1467	0.7335	5.00322580645	1.00060240964	16.9713043478	-9.8
1468	0.734	3.59193548387	6.65120481928	12.755326087	-8.38181818182
1469	0.7345	0.76935483871	-6.06265060241	14.1606521739	-6.96363636364
1470	0.735	7.82580645161	-0.412048192771	11.35	-8.38181818182
1471	0.7355	-6.28709677419	2.41325301205	11.35	-11.2181818182
1472	0.736	23.35	1.00060240964	11.35	-11.2181818182
1473	0.7365	-0.641935483871	1.00060240964	8.53934782609	-8.38181818182
1474	0.737	9.23709677419	1.00060240964	7.13402173913	7.21818181818
1475	0.7375	10.6483870968	1.00060240964	16.9713043478	-9.8
1476	0.738	7.82580645161	-1.82469879518	1.5127173913	-6.96363636364
1477	0.7385	10.6483870968	2.41325301205	-1.29793478261	-9.8
1478	0.739	10.6483870968	1.00060240964	-2.70326086957	-6.96363636364
1479	0.7395	10.6483870968	-4.65	5.72869565217	-8.38181818182
1480	0.74	9.23709677419	1.00060240964	4.32336956522	-9.8
1481	0.7405	-4.87580645161	-0.412048192771	2.91804347826	-6.96363636364
1482	0.741	2.18064516129	1.00060240964	5.72869565217	-6.96363636364
1483	0.7415	0.76935483871	3.82590361446	7.13402173913	-18.3090909091
1484	0.742	2.18064516129	1.00060240964	-4.10858695652	-8.38181818182
1485	0.7425	3.59193548387	1.00060240964	8.53934782609	-9.8
1486	0.743	3.59193548387	-4.65	5.72869565217	-8.38181818182
1487	0.7435	-0.641935483871	3.82590361446	2.91804347826	-6.96363636364
1488	0.744	0.76935483871	10.8891566265	4.32336956522	-9.8
1489	0.7445	-0.641935483871	-7.47530120482	2.91804347826	-6.96363636364
1490	0.745	-10.5209677419	-1.82469879518	2.91804347826	-9.8
1491	0.7455	-9.10967741935	-4.65	4.32336956522	-9.8
1492	0.746	0.76935483871	-1.82469879518	7.13402173913	-8.38181818182
1493	0.7465	3.59193548387	3.82590361446	8.53934782609	5.8
1494	0.747	5.00322580645	3.82590361446	-1.29793478261	-9.8
1495	0.7475	5.00322580645	3.82590361446	7.13402173913	-9.8
1496	0.748	0.76935483871	-8.88795180723	7.13402173913	-6.96363636364
1497	0.7485	3.59193548387	17.9524096386	7.13402173913	-8.38181818182
1498	0.749	5.00322580645	-7.47530120482	14.1606521739	-9.8
1499	0.7495	14.8822580645	-0.412048192771	7.13402173913	-2.70909090909
1500	0.75	-7.69838709677	1.00060240964	9.94467391304	-11.2181818182
1501	0.7505	0.76935483871	2.41325301205	5.72869565217	-16.8909090909
1502	0.751	0.76935483871	1.00060240964	12.755326087	-19.7272727273
1503	0.7515	-0.641935483871	2.41325301205	7.13402173913	-11.2181818182
1504	0.752	2.18064516129	-3.23734939759	14.1606521739	-8.38181818182
1505	0.7525	3.59193548387	-0.412048192771	14.1606521739	-8.38181818182
1506	0.753	3.59193548387	9.4765060241	16.9713043478	-8.38181818182
1507	0.7535	5.00322580645	-10.3006024096	14.1606521739	-6.96363636364
1508	0.754	10.6483870968	-0.412048192771	12.755326087	-4.12727272727
1509	0.7545	-2.05322580645	-1.82469879518	18.3766304348	-21.1454545455
1510	0.755	5.00322580645	-0.412048192771	16.9713043478	2.96363636364
1511	0.7555	5.00322580645	-1.82469879518	14.1606521739	0.127272727273
1512	0.756	9.23709677419	-0.412048192771	-1.29793478261	-6.96363636364
1513	0.7565	9.23709677419	-1.82469879518	12.755326087	-8.38181818182
1514	0.757	10.6483870968	-14.5385542169	11.35	-8.38181818182
1515	0.7575	5.00322580645	15.1271084337	7.13402173913	-11.2181818182
1516	0.758	5.00322580645	5.23855421687	7.13402173913	-6.96363636364
1517	0.7585	20.5274193548	1.00060240964	7.13402173913	-6.96363636364
1518	0.759	19.1161290323	1.00060240964	5.72869565217	-6.96363636364
1519	0.7595	-3.46451612903	2.41325301205	7.13402173913	1.54545454545
1520	0.76	5.00322580645	1.00060240964	8.53934782609	-16.8909090909
1521	0.7605	5.00322580645	2.41325301205	2.91804347826	-11.2181818182
1522	0.761	3.59193548387	-3.23734939759	21.1872826087	-9.8
1523	0.7615	3.59193548387	-0.412048192771	9.94467391304	-8.38181818182
1524	0.762	3.59193548387	5.23855421687	5.72869565217	-6.96363636364
1525	0.7625	0.76935483871	15.1271084337	8.53934782609	-8.38181818182
1526	0.763	-4.87580645161	1.00060240964	5.72869565217	-9.8
1527	0.7635	-4.87580645161	1.00060240964	4.32336956522	-8.38181818182
1528	0.764	3.59193548387	-0.412048192771	7.13402173913	-4.12727272727
1529	0.7645	0.76935483871	1.00060240964	-2.70326086957	-6.96363636364
1530	0.765	3.59193548387	1.00060240964	11.35	-14.0545454545
1531	0.7655	2.18064516129	3.82590361446	1.5127173913	-8.38181818182
1532	0.766	7.82580645161	-6.06265060241	11.35	-9.8
1533	0.7665	3.59193548387	-1.82469879518	4.32336956522	-6.96363636364
1534	0.767	10.6483870968	1.00060240964	5.72869565217	-6.96363636364
1535	0.7675	12.0596774194	1.00060240964	8.53934782609	-6.96363636364
1536	0.768	0.76935483871	-0.412048192771	5.72869565217	5.8
1537	0.7685	3.59193548387	-0.412048192771	8.53934782609	-2.70909090909
1538	0.769	6.41451612903	-1.82469879518	-4.10858695652	-6.96363636364
1539	0.7695	3.59193548387	-1.82469879518	0.107391304348	-9.8
1540	0.77	5.00322580645	-11.713253012	7.13402173913	-11.2181818182
1541	0.7705	0.76935483871	-8.88795180723	5.72869565217	-9.8
1542	0.771	-0.641935483871	-3.23734939759	8.53934782609	-9.8
1543	0.7715	14.8822580645	-0.412048192771	7.13402173913	-5.54545454545
1544	0.772	-3.46451612903	1.00060240964	7.13402173913	-9.8
1545	0.7725	-0.641935483871	3.82590361446	5.72869565217	-4.12727272727
1546	0.773	7.82580645161	2.41325301205	23.9979347826	-11.2181818182
1547	0.7735	5.00322580645	6.65120481928	1.5127173913	-9.8
1548	0.774	9.23709677419	8.06385542169	5.72869565217	-8.38181818182
1549	0.7745	2.18064516129	-3.23734939759	0.107391304348	-8.38181818182
1550	0.775	5.00322580645	6.65120481928	0.107391304348	-8.38181818182
1551	0.7755	-9.10967741935	3.82590361446	1.5127173913	-8.38181818182
1552	0.776	13.4709677419	3.82590361446	2.91804347826	-14.0545454545
1553	0.7765	-2.05322580645	1.00060240964	0.107391304348	-5.54545454545
1554	0.777	0.76935483871	5.23855421687	-1.29793478261	8.63636363636
1555	0.7775	-2.05322580645	2.41325301205	-2.70326086957	-12.6363636364
1556	0.778	2.18064516129	-0.412048192771	-1.29793478261	-6.96363636364
1557	0.7785	-0.641935483871	3.82590361446	1.5127173913	-9.8
1558	0.779	5.00322580645	-4.65	-2.70326086957	-6.96363636364
1559	0.7795	5.00322580645	2.41325301205	-4.10858695652	-8.38181818182
1560	0.78	3.59193548387	-0.412048192771	-1.29793478261	-9.8
1561	0.7805	23.35	1.00060240964	-1.29793478261	-6.96363636364
1562	0.781	-6.28709677419	1.00060240964	-1.29793478261	-8.38181818182
1563	0.7815	-3.46451612903	1.00060240964	-1.29793478261	5.8
1564	0.782	-2.05322580645	-0.412048192771	-1.29793478261	-14.0545454545
1565	0.7825	-2.05322580645	-0.412048192771	-2.70326086957	-6.96363636364
1566	0.783	-0.641935483871	3.82590361446	-1.29793478261	-8.38181818182
1567	0.7835	0.76935483871	-4.65	-1.29793478261	-9.8
1568	0.784	0.76935483871	3.82590361446	-1.29793478261	-6.96363636364
1569	0.7845	0.76935483871	-0.412048192771	-1.29793478261	-9.8
1570	0.785	23.35	1.00060240964	-1.29793478261	-6.96363636364
1571	0.7855	-0.641935483871	1.00060240964	-2.70326086957	-9.8
1572	0.786	3.59193548387	1.00060240964	1.5127173913	-11.2181818182
1573	0.7865	5.00322580645	1.00060240964	-8.32456521739	-8.38181818182
1574	0.787	2.18064516129	5.23855421687	18.3766304348	-8.38181818182
1575	0.7875	0.76935483871	3.82590361446	8.53934782609	-11.2181818182
1576	0.788	3.59193548387	20.7777108434	4.32336956522	-9.8
1577	0.7885	-0.641935483871	19.365060241	4.32336956522	-8.38181818182
1578	0.789	-0.641935483871	-0.412048192771	7.13402173913	-6.96363636364
1579	0.7895	-13.3435483871	1.00060240964	11.35	-9.8
1580	0.79	-7.69838709677	-1.82469879518	8.53934782609	-9.8
1581	0.7905	0.76935483871	-0.412048192771	11.35	-12.6363636364
1582	0.791	0.76935483871	-0.412048192771	-4.10858695652	-6.96363636364
1583	0.7915	3.59193548387	-0.412048192771	-1.29793478261	-14.0545454545
1584	0.792	2.18064516129	-0.412048192771	18.3766304348	-9.8
1585	0.7925	3.59193548387	-8.88795180723	5.72869565217	-6.96363636364
1586	0.793	3.59193548387	16.5397590361	2.91804347826	-11.2181818182
1587	0.7935	3.59193548387	1.00060240964	4.32336956522	-11.2181818182
1588	0.794	16.2935483871	-0.412048192771	5.72869565217	-5.54545454545
1589	0.7945	23.35	-0.412048192771	4.32336956522	-11.2181818182
1590	0.795	0.76935483871	-0.412048192771	2.91804347826	1.54545454545
1591	0.7955	5.00322580645	-1.82469879518	23.9979347826	-8.38181818182
1592	0.796	7.82580645161	-3.23734939759	0.107391304348	-11.2181818182
1593	0.7965	10.6483870968	-0.412048192771	2.91804347826	-8.38181818182
1594	0.797	7.82580645161	-13.1259036145	4.32336956522	-9.8
1595	0.7975	9.23709677419	8.06385542169	5.72869565217	-8.38181818182
1596	0.798	-4.87580645161	-0.412048192771	7.13402173913	-8.38181818182
1597	0.7985	23.35	-0.412048192771	4.32336956522	-6.96363636364
1598	0.799	14.8822580645	-0.412048192771	5.72869565217	-11.2181818182
1599	0.7995	0.76935483871	-0.412048192771	1.5127173913	5.8
1600	0.8	-0.641935483871	1.00060240964	-4.10858695652	-14.0545454545
1601	0.8005	3.59193548387	1.00060240964	0.107391304348	-11.2181818182
1602	0.801	3.59193548387	-0.412048192771	16.9713043478	-12.6363636364
1603	0.8015	9.23709677419	2.41325301205	0.107391304348	-6.96363636364
1604	0.802	3.59193548387	-3.23734939759	0.107391304348	-8.38181818182
1605	0.8025	7.82580645161	-0.412048192771	0.107391304348	-6.96363636364
1606	0.803	-7.69838709677	1.00060240964	-2.70326086957	-8.38181818182
1607	0.8035	-6.28709677419	1.00060240964	-2.70326086957	-6.96363636364
1608	0.804	0.76935483871	1.00060240964	-6.91923913043	-18.3090909091
1609	0.8045	0.76935483871	-0.412048192771	-4.10858695652	-16.8909090909
1610	0.805	0.76935483871	-1.82469879518	-1.29793478261	-12.6363636364
1611	0.8055	-4.87580645161	-0.412048192771	-6.91923913043	-8.38181818182
1612	0.806	-0.641935483871	-8.88795180723	-2.70326086957	-9.8
1613	0.8065	3.59193548387	17.9524096386	-4.10858695652	-6.96363636364
1614	0.807	-2.05322580645	-8.88795180723	-9.72989130435	-9.8
1615	0.8075	13.4709677419	1.00060240964	-8.32456521739	-6.96363636364
1616	0.808	-11.9322580645	-1.82469879518	-2.70326086957	-14.0545454545
1617	0.8085	-3.46451612903	-0.412048192771	-4.10858695652	-14.0545454545
1618	0.809	-2.05322580645	-0.412048192771	-1.29793478261	-15.4727272727
1619	0.8095	-4.87580645161	2.41325301205	-5.51391304348	-8.38181818182
1620	0.81	-0.641935483871	-0.412048192771	-4.10858695652	-8.38181818182
1621	0.8105	-4.87580645161	-10.3006024096	0.107391304348	-9.8
1622	0.811	0.76935483871	-6.06265060241	0.107391304348	-6.96363636364
1623	0.8115	-13.3435483871	1.00060240964	-1.29793478261	-6.96363636364
1624	0.812	-6.28709677419	3.82590361446	-1.29793478261	-6.96363636364
1625	0.8125	2.18064516129	1.00060240964	0.107391304348	-18.3090909091
1626	0.813	5.00322580645	1.00060240964	0.107391304348	-6.96363636364
1627	0.8135	7.82580645161	1.00060240964	7.13402173913	-8.38181818182
1628	0.814	10.6483870968	2.41325301205	-11.1352173913	-8.38181818182
1629	0.8145	5.00322580645	-1.82469879518	-1.29793478261	-6.96363636364
1630	0.815	2.18064516129	-10.3006024096	-2.70326086957	-8.38181818182
1631	0.8155	2.18064516129	-8.88795180723	-1.29793478261	-11.2181818182
1632	0.816	-2.05322580645	1.00060240964	-2.70326086957	-9.8
1633	0.8165	-7.69838709677	-0.412048192771	-1.29793478261	-9.8
1634	0.817	10.6483870968	1.00060240964	0.107391304348	-6.96363636364
1635	0.8175	5.00322580645	-0.412048192771	-12.5405434783	-9.8
1636	0.818	7.82580645161	-0.412048192771	0.107391304348	-8.38181818182
1637	0.8185	5.00322580645	-3.23734939759	-8.32456521739	-8.38181818182
1638	0.819	5.00322580645	1.00060240964	-2.70326086957	-8.38181818182
1639	0.8195	0.76935483871	10.8891566265	-6.91923913043	-6.96363636364
1640	0.82	5.00322580645	-1.82469879518	-6.91923913043	-6.96363636364
1641	0.8205	-9.10967741935	1.00060240964	-5.51391304348	-6.96363636364
1642	0.821	-6.28709677419	1.00060240964	-2.70326086957	-8.38181818182
1643	0.8215	0.76935483871	-0.412048192771	-2.70326086957	-12.6363636364
1644	0.822	3.59193548387	2.41325301205	-1.29793478261	8.63636363636
1645	0.8225	0.76935483871	1.00060240964	-8.32456521739	-8.38181818182
1646	0.823	0.76935483871	5.23855421687	-5.51391304348	-8.38181818182
1647	0.8235	2.18064516129	-8.88795180723	-5.51391304348	-6.96363636364
1648	0.824	2.18064516129	20.7777108434	-5.51391304348	-6.96363636364
1649	0.8245	3.59193548387	-3.23734939759	-4.10858695652	-8.38181818182
1650	0.825	5.00322580645	1.00060240964	-4.10858695652	-8.38181818182
1651	0.8255	-4.87580645161	-0.412048192771	-4.10858695652	-6.96363636364
1652	0.826	0.76935483871	1.00060240964	1.5127173913	-12.6363636364
1653	0.8265	0.76935483871	3.82590361446	-11.1352173913	-8.38181818182
1654	0.827	2.18064516129	1.00060240964	-1.29793478261	-6.96363636364
1655	0.8275	5.00322580645	1.00060240964	-12.5405434783	-6.96363636364
1656	0.828	2.18064516129	13.7144578313	-1.29793478261	-5.54545454545
1657	0.8285	2.18064516129	1.00060240964	-1.29793478261	-9.8
1658	0.829	5.00322580645	-0.412048192771	-1.29793478261	-6.96363636364
1659	0.8295	-4.87580645161	-0.412048192771	-1.29793478261	-9.8
1660	0.83	10.6483870968	1.00060240964	-1.29793478261	-15.4727272727
1661	0.8305	0.76935483871	1.00060240964	2.91804347826	-16.8909090909
1662	0.831	0.76935483871	-0.412048192771	7.13402173913	-8.38181818182
1663	0.8315	-0.641935483871	1.00060240964	-6.91923913043	-6.96363636364
1664	0.832	-0.641935483871	3.82590361446	-8.32456521739	-8.38181818182
1665	0.8325	0.76935483871	17.9524096386	0.107391304348	-11.2181818182
1666	0.833	-3.46451612903	-6.06265060241	-2.70326086957	-6.96363636364
1667	0.8335	-2.05322580645	1.00060240964	-1.29793478261	-8.38181818182
1668	0.834	-7.69838709677	1.00060240964	-1.29793478261	-21.1454545455
1669	0.8345	2.18064516129	-0.412048192771	-1.29793478261	-9.8
1670	0.835	-2.05322580645	-1.82469879518	2.91804347826	-8.38181818182
1671	0.8355	3.59193548387	1.00060240964	-9.72989130435	-6.96363636364
1672	0.836	3.59193548387	2.41325301205	0.107391304348	-14.0545454545
1673	0.8365	5.00322580645	-0.412048192771	0.107391304348	-6.96363636364
1674	0.837	3.59193548387	-6.06265060241	0.107391304348	-6.96363636364
1675	0.8375	7.82580645161	3.82590361446	0.107391304348	-5.54545454545
1676	0.838	-7.69838709677	1.00060240964	1.5127173913	-6.96363636364
1677	0.8385	16.2935483871	2.41325301205	0.107391304348	-12.6363636364
1678	0.839	-4.87580645161	1.00060240964	-2.70326086957	7.21818181818
1679	0.8395	-2.05322580645	-0.412048192771	0.107391304348	-11.2181818182
1680	0.84	0.76935483871	2.41325301205	-9.72989130435	-6.96363636364
1681	0.8405	-2.05322580645	-3.23734939759	-8.32456521739	-9.8
1682	0.841	-2.05322580645	-4.65	1.5127173913	-6.96363636364
1683	0.8415	-0.641935483871	-8.88795180723	4.32336956522	-8.38181818182
1684	0.842	-7.69838709677	2.41325301205	5.72869565217	-5.54545454545
1685	0.8425	-11.9322580645	1.00060240964	4.32336956522	-6.96363636364
1686	0.843	16.2935483871	-1.82469879518	4.32336956522	-6.96363636364
1687	0.8435	-6.28709677419	1.00060240964	5.72869565217	-4.12727272727
1688	0.844	-3.46451612903	-0.412048192771	0.107391304348	-9.8
1689	0.8445	-0.641935483871	1.00060240964	-1.29793478261	-4.12727272727
1690	0.845	-0.641935483871	-0.412048192771	-4.10858695652	-8.38181818182
1691	0.8455	2.18064516129	-8.88795180723	1.5127173913	-6.96363636364
1692	0.846	-0.641935483871	-8.88795180723	2.91804347826	-6.96363636364
1693	0.8465	0.76935483871	-0.412048192771	1.5127173913	-5.54545454545
1694	0.847	-10.5209677419	-3.23734939759	2.91804347826	-8.38181818182
1695	0.8475	-3.46451612903	-0.412048192771	4.32336956522	-16.8909090909
1696	0.848	2.18064516129	-0.412048192771	2.91804347826	-5.54545454545
1697	0.8485	3.59193548387	2.41325301205	18.3766304348	-6.96363636364
1698	0.849	3.59193548387	2.41325301205	-5.51391304348	-5.54545454545
1699	0.8495	3.59193548387	5.23855421687	0.107391304348	-5.54545454545
1700	0.85	0.76935483871	2.41325301205	0.107391304348	-6.96363636364
1701	0.8505	3.59193548387	-6.06265060241	-1.29793478261	-4.12727272727
1702	0.851	-2.05322580645	1.00060240964	-2.70326086957	-5.54545454545
1703	0.8515	-7.69838709677	3.82590361446	-4.10858695652	-6.96363636364
1704	0.852	0.76935483871	1.00060240964	-1.29793478261	5.8
1705	0.8525	3.59193548387	1.00060240964	0.107391304348	-14.0545454545
1706	0.853	-0.641935483871	1.00060240964	11.35	-6.96363636364
1707	0.8535	2.18064516129	2.41325301205	18.3766304348	-8.38181818182
1708	0.854	2.18064516129	9.4765060241	0.107391304348	-6.96363636364
1709	0.8545	5.00322580645	19.365060241	0.107391304348	-5.54545454545
1710	0.855	2.18064516129	-4.65	0.107391304348	-5.54545454545
1711	0.8555	-11.9322580645	1.00060240964	0.107391304348	-5.54545454545
1712	0.856	-2.05322580645	-1.82469879518	-2.70326086957	-6.96363636364
1713	0.8565	0.76935483871	-0.412048192771	-2.70326086957	-14.0545454545
1714	0.857	0.76935483871	-0.412048192771	-9.72989130435	-5.54545454545
1715	0.8575	3.59193548387	-1.82469879518	4.32336956522	-9.8
1716	0.858	2.18064516129	-6.06265060241	-12.5405434783	-6.96363636364
1717	0.8585	0.76935483871	-3.23734939759	-6.91923913043	-5.54545454545
1718	0.859	-0.641935483871	-4.65	-5.51391304348	-5.54545454545
1719	0.8595	5.00322580645	-0.412048192771	-5.51391304348	-5.54545454545
1720	0.86	-4.87580645161	-0.412048192771	-6.91923913043	-6.96363636364
1721	0.8605	20.5274193548	2.41325301205	-6.91923913043	-5.54545454545
1722	0.861	-0.641935483871	2.41325301205	-4.10858695652	-9.8
1723	0.8615	2.18064516129	1.00060240964	-12.5405434783	-4.12727272727
1724	0.862	3.59193548387	1.00060240964	-8.32456521739	-4.12727272727
1725	0.8625	0.76935483871	-1.82469879518	-16.7565217391	-5.54545454545
1726	0.863	2.18064516129	3.82590361446	-8.32456521739	-8.38181818182
1727	0.8635	-2.05322580645	-4.65	-5.51391304348	-6.96363636364
1728	0.864	-0.641935483871	1.00060240964	-5.51391304348	-5.54545454545
1729	0.8645	-7.69838709677	-0.412048192771	-4.10858695652	-8.38181818182
1730	0.865	0.76935483871	-0.412048192771	-4.10858695652	5.8
1731	0.8655	-2.05322580645	-1.82469879518	-1.29793478261	1.54545454545
1732	0.866	0.76935483871	1.00060240964	-13.9458695652	-5.54545454545
1733	0.8665	2.18064516129	1.00060240964	-11.1352173913	-9.8
1734	0.867	0.76935483871	-0.412048192771	-11.1352173913	-5.54545454545
1735	0.8675	3.59193548387	-0.412048192771	-5.51391304348	-8.38181818182
1736	0.868	0.76935483871	-1.82469879518	-4.10858695652	-9.8
1737	0.8685	-6.28709677419	1.00060240964	-1.29793478261	-6.96363636364
1738	0.869	14.8822580645	-1.82469879518	-2.70326086957	-6.96363636364
1739	0.8695	-0.641935483871	2.41325301205	-2.70326086957	-16.8909090909
1740	0.87	0.76935483871	3.82590361446	-1.29793478261	-5.54545454545
1741	0.8705	0.76935483871	2.41325301205	-1.29793478261	-6.96363636364
1742	0.871	2.18064516129	2.41325301205	-12.5405434783	-6.96363636364
1743	0.8715	2.18064516129	1.00060240964	-1.29793478261	-9.8
1744	0.872	3.59193548387	-8.88795180723	-4.10858695652	-8.38181818182
1745	0.8725	-0.641935483871	-8.88795180723	-5.51391304348	-6.96363636364
1746	0.873	-4.87580645161	1.00060240964	-4.10858695652	-6.96363636364
1747	0.8735	-4.87580645161	-0.412048192771	-4.10858695652	-9.8
1748	0.874	3.59193548387	-0.412048192771	-4.10858695652	-11.2181818182
1749	0.8745	3.59193548387	2.41325301205	-1.29793478261	-14.0545454545
1750	0.875	0.76935483871	2.41325301205	-12.5405434783	-8.38181818182
1751	0.8755	3.59193548387	2.41325301205	-8.32456521739	-5.54545454545
1752	0.876	5.00322580645	-6.06265060241	-11.1352173913	-5.54545454545
1753	0.8765	5.00322580645	-0.412048192771	-6.91923913043	-6.96363636364
1754	0.877	0.76935483871	-6.06265060241	-6.91923913043	-5.54545454545
1755	0.8775	9.23709677419	1.00060240964	-4.10858695652	-6.96363636364
1756	0.878	-7.69838709677	1.00060240964	-2.70326086957	-12.6363636364
1757	0.8785	3.59193548387	1.00060240964	-1.29793478261	-11.2181818182
1758	0.879	3.59193548387	-0.412048192771	-4.10858695652	5.8
1759	0.8795	2.18064516129	1.00060240964	-6.91923913043	-8.38181818182
1760	0.88	0.76935483871	1.00060240964	-4.10858695652	-6.96363636364
1761	0.8805	3.59193548387	9.4765060241	-2.70326086957	-6.96363636364
1762	0.881	2.18064516129	-7.47530120482	-1.29793478261	-9.8
1763	0.8815	2.18064516129	-1.82469879518	-4.10858695652	-9.8
1764	0.882	17.7048387097	1.00060240964	-4.10858695652	-2.70909090909
1765	0.8825	-7.69838709677	2.41325301205	-2.70326086957	-11.2181818182
1766	0.883	0.76935483871	2.41325301205	-5.51391304348	-18.3090909091
1767	0.8835	3.59193548387	2.41325301205	7.13402173913	-6.96363636364
1768	0.884	5.00322580645	-1.82469879518	-2.70326086957	-8.38181818182
1769	0.8845	7.82580645161	2.41325301205	-4.10858695652	-6.96363636364
1770	0.885	2.18064516129	17.9524096386	-5.51391304348	-6.96363636364
1771	0.8855	9.23709677419	-0.412048192771	-4.10858695652	-5.54545454545
1772	0.886	17.7048387097	-0.412048192771	-6.91923913043	-5.54545454545
1773	0.8865	20.5274193548	-0.412048192771	-4.10858695652	-11.2181818182
1774	0.887	-2.05322580645	1.00060240964	-5.51391304348	-4.12727272727
