	Time	Channel 1	Channel 2	Channel 3	Channel 4
0	0.0	-5.078125	0.811111111111	1.7	1.37741935484
1	0.0005	-0.7375	0.811111111111	-2.6	15.8612903226
2	0.001	2.15625	-0.644444444444	14.6	-1.51935483871
3	0.0015	-9.41875	-2.1	1.7	1.37741935484
4	0.002	0.709375	0.811111111111	0.266666666667	2.82580645161
5	0.0025	2.15625	0.811111111111	3.13333333333	1.37741935484
6	0.003	-0.7375	-2.1	3.13333333333	-8.76129032258
7	0.0035	-3.63125	-6.46666666667	3.13333333333	-1.51935483871
8	0.004	20.965625	0.811111111111	0.266666666667	-1.51935483871
9	0.0045	-0.7375	6.63333333333	1.7	1.37741935484
10	0.005	2.15625	-9.37777777778	3.13333333333	2.82580645161
11	0.0055	2.15625	0.811111111111	1.7	2.82580645161
12	0.006	-0.7375	-2.1	0.266666666667	-2.96774193548
13	0.0065	-3.63125	-2.1	3.13333333333	-0.0709677419355
14	0.007	-0.7375	-0.644444444444	11.7333333333	-1.51935483871
15	0.0075	-0.7375	0.811111111111	1.7	-0.0709677419355
16	0.008	-0.7375	-7.92222222222	1.7	1.37741935484
17	0.0085	-3.63125	19.7333333333	3.13333333333	-0.0709677419355
18	0.009	0.709375	-5.01111111111	1.7	1.37741935484
19	0.0095	-5.078125	-0.644444444444	-1.16666666667	5.72258064516
20	0.01	0.709375	-0.644444444444	3.13333333333	-8.76129032258
21	0.0105	-0.7375	-0.644444444444	-1.16666666667	18.7580645161
22	0.011	-0.7375	-2.1	18.9	-1.51935483871
23	0.0115	0.709375	-10.8333333333	1.7	-0.0709677419355
24	0.012	2.15625	18.2777777778	3.13333333333	1.37741935484
25	0.0125	-5.078125	0.811111111111	3.13333333333	4.27419354839
26	0.013	16.625	-2.1	4.56666666667	-7.31290322581
27	0.0135	2.15625	0.811111111111	0.266666666667	1.37741935484
28	0.014	0.709375	-2.1	-5.46666666667	-4.41612903226
29	0.0145	0.709375	-0.644444444444	3.13333333333	-4.41612903226
30	0.015	0.709375	-3.55555555556	0.266666666667	1.37741935484
31	0.0155	0.709375	-3.55555555556	-1.16666666667	2.82580645161
32	0.016	0.709375	-10.8333333333	1.7	1.37741935484
33	0.0165	-10.865625	-3.55555555556	-2.6	2.82580645161
34	0.017	-10.865625	-2.1	3.13333333333	-8.76129032258
35	0.0175	-0.7375	-2.1	-1.16666666667	2.82580645161
36	0.018	-2.184375	-0.644444444444	21.7666666667	-0.0709677419355
37	0.0185	-2.184375	0.811111111111	1.7	2.82580645161
38	0.019	0.709375	-13.7444444444	0.266666666667	1.37741935484
39	0.0195	-3.63125	19.7333333333	1.7	2.82580645161
40	0.02	3.603125	-7.92222222222	3.13333333333	2.82580645161
41	0.0205	18.071875	-0.644444444444	3.13333333333	5.72258064516
42	0.021	-2.184375	-0.644444444444	3.13333333333	20.2064516129
43	0.0215	0.709375	-0.644444444444	20.3333333333	-0.0709677419355
44	0.022	-2.184375	-3.55555555556	-6.9	1.37741935484
45	0.0225	0.709375	3.72222222222	0.266666666667	1.37741935484
46	0.023	-2.184375	-0.644444444444	4.56666666667	-0.0709677419355
47	0.0235	-10.865625	-0.644444444444	0.266666666667	-1.51935483871
48	0.024	7.94375	-3.55555555556	1.7	-1.51935483871
49	0.0245	5.05	-3.55555555556	0.266666666667	-0.0709677419355
50	0.025	0.709375	-3.55555555556	1.7	17.3096774194
51	0.0255	-0.7375	-0.644444444444	20.3333333333	-0.0709677419355
52	0.026	-2.184375	-3.55555555556	3.13333333333	-0.0709677419355
53	0.0265	0.709375	-9.37777777778	3.13333333333	-1.51935483871
54	0.027	2.15625	-0.644444444444	3.13333333333	2.82580645161
55	0.0275	-12.3125	-0.644444444444	0.266666666667	-0.0709677419355
56	0.028	-6.525	2.26666666667	1.7	5.72258064516
57	0.0285	-0.7375	-2.1	-2.6	-7.31290322581
58	0.029	2.15625	-0.644444444444	-1.16666666667	1.37741935484
59	0.0295	0.709375	2.26666666667	1.7	-1.51935483871
60	0.03	-2.184375	0.811111111111	-2.6	-0.0709677419355
61	0.0305	0.709375	-2.1	-1.16666666667	-1.51935483871
62	0.031	9.390625	-0.644444444444	1.7	-2.96774193548
63	0.0315	2.15625	-0.644444444444	1.7	-0.0709677419355
64	0.032	0.709375	-0.644444444444	0.266666666667	10.0677419355
65	0.0325	-0.7375	-2.1	4.56666666667	1.37741935484
66	0.033	0.709375	-0.644444444444	8.86666666667	1.37741935484
67	0.0335	-2.184375	5.17777777778	4.56666666667	1.37741935484
68	0.034	0.709375	9.54444444444	1.7	-0.0709677419355
69	0.0345	0.709375	-0.644444444444	0.266666666667	-1.51935483871
70	0.035	-7.971875	-2.1	1.7	-0.0709677419355
71	0.0355	-0.7375	-2.1	0.266666666667	-7.31290322581
72	0.036	-0.7375	0.811111111111	-6.9	1.37741935484
73	0.0365	0.709375	2.26666666667	-1.16666666667	-0.0709677419355
74	0.037	-2.184375	-12.2888888889	-1.16666666667	-0.0709677419355
75	0.0375	0.709375	-10.8333333333	0.266666666667	1.37741935484
76	0.038	-9.41875	0.811111111111	1.7	1.37741935484
77	0.0385	5.05	0.811111111111	0.266666666667	-0.0709677419355
78	0.039	-7.971875	-0.644444444444	3.13333333333	5.72258064516
79	0.0395	-0.7375	0.811111111111	3.13333333333	-7.31290322581
80	0.04	-0.7375	-0.644444444444	-6.9	-1.51935483871
81	0.0405	-2.184375	3.72222222222	0.266666666667	1.37741935484
82	0.041	0.709375	-9.37777777778	0.266666666667	-0.0709677419355
83	0.0415	0.709375	2.26666666667	1.7	-0.0709677419355
84	0.042	-6.525	-2.1	0.266666666667	-1.51935483871
85	0.0425	16.625	-0.644444444444	1.7	-2.96774193548
86	0.043	-0.7375	0.811111111111	6.0	-0.0709677419355
87	0.0435	-0.7375	-0.644444444444	1.7	4.27419354839
88	0.044	-3.63125	0.811111111111	8.86666666667	-0.0709677419355
89	0.0445	-0.7375	-5.01111111111	3.13333333333	1.37741935484
90	0.045	0.709375	15.3666666667	1.7	-0.0709677419355
91	0.0455	-2.184375	0.811111111111	1.7	1.37741935484
92	0.046	-9.41875	0.811111111111	1.7	-2.96774193548
93	0.0465	-2.184375	0.811111111111	0.266666666667	4.27419354839
94	0.047	-2.184375	-2.1	4.56666666667	-1.51935483871
95	0.0475	-3.63125	0.811111111111	-8.33333333333	-2.96774193548
96	0.048	-2.184375	-12.2888888889	3.13333333333	-1.51935483871
97	0.0485	-0.7375	-12.2888888889	3.13333333333	-0.0709677419355
98	0.049	2.15625	-5.01111111111	1.7	2.82580645161
99	0.0495	-5.078125	0.811111111111	1.7	1.37741935484
100	0.05	-7.971875	-2.1	0.266666666667	-0.0709677419355
101	0.0505	-2.184375	-0.644444444444	1.7	8.61935483871
102	0.051	-3.63125	0.811111111111	0.266666666667	1.37741935484
103	0.0515	-0.7375	-10.8333333333	4.56666666667	1.37741935484
104	0.052	3.603125	16.8222222222	3.13333333333	1.37741935484
105	0.0525	-3.63125	0.811111111111	1.7	-0.0709677419355
106	0.053	19.51875	-0.644444444444	4.56666666667	-0.0709677419355
107	0.0535	2.15625	-0.644444444444	3.13333333333	5.72258064516
108	0.054	0.709375	0.811111111111	4.56666666667	4.27419354839
109	0.0545	0.709375	-0.644444444444	3.13333333333	-5.86451612903
110	0.055	-0.7375	-13.7444444444	-1.16666666667	1.37741935484
111	0.0555	-0.7375	19.7333333333	1.7	2.82580645161
112	0.056	-2.184375	16.8222222222	4.56666666667	1.37741935484
113	0.0565	-12.3125	-2.1	1.7	2.82580645161
114	0.057	-0.7375	-2.1	0.266666666667	-7.31290322581
115	0.0575	0.709375	-0.644444444444	-8.33333333333	2.82580645161
116	0.058	0.709375	0.811111111111	17.4666666667	-0.0709677419355
117	0.0585	-2.184375	-0.644444444444	1.7	2.82580645161
118	0.059	0.709375	-5.01111111111	0.266666666667	-1.51935483871
119	0.0595	0.709375	-2.1	0.266666666667	1.37741935484
120	0.06	-12.3125	-0.644444444444	1.7	2.82580645161
121	0.0605	0.709375	-2.1	-1.16666666667	-1.51935483871
122	0.061	-2.184375	-0.644444444444	3.13333333333	-8.76129032258
123	0.0615	0.709375	0.811111111111	-6.9	-0.0709677419355
124	0.062	-0.7375	0.811111111111	-5.46666666667	-0.0709677419355
125	0.0625	-3.63125	-12.2888888889	0.266666666667	-0.0709677419355
126	0.063	-0.7375	-5.01111111111	0.266666666667	-4.41612903226
127	0.0635	2.15625	-3.55555555556	1.7	-1.51935483871
128	0.064	-13.759375	0.811111111111	-1.16666666667	-1.51935483871
129	0.0645	-3.63125	-0.644444444444	0.266666666667	-1.51935483871
130	0.065	-0.7375	-0.644444444444	0.266666666667	-1.51935483871
131	0.0655	-0.7375	-0.644444444444	0.266666666667	-10.2096774194
132	0.066	-0.7375	0.811111111111	-8.33333333333	1.37741935484
133	0.0665	0.709375	-5.01111111111	1.7	1.37741935484
134	0.067	-2.184375	-6.46666666667	1.7	1.37741935484
135	0.0675	-0.7375	-0.644444444444	3.13333333333	-0.0709677419355
136	0.068	16.625	0.811111111111	0.266666666667	4.27419354839
137	0.0685	0.709375	-0.644444444444	1.7	-8.76129032258
138	0.069	-2.184375	0.811111111111	-8.33333333333	-0.0709677419355
139	0.0695	-0.7375	3.72222222222	-8.33333333333	1.37741935484
140	0.07	-0.7375	18.2777777778	3.13333333333	1.37741935484
141	0.0705	-3.63125	-7.92222222222	1.7	-0.0709677419355
142	0.071	3.603125	-2.1	0.266666666667	1.37741935484
143	0.0715	9.390625	-2.1	-1.16666666667	4.27419354839
144	0.072	0.709375	-2.1	3.13333333333	2.82580645161
145	0.0725	0.709375	0.811111111111	4.56666666667	20.2064516129
146	0.073	-0.7375	2.26666666667	20.3333333333	-0.0709677419355
147	0.0735	-0.7375	-12.2888888889	1.7	-0.0709677419355
148	0.074	2.15625	16.8222222222	1.7	2.82580645161
149	0.0745	-2.184375	6.63333333333	0.266666666667	-1.51935483871
150	0.075	0.709375	5.17777777778	1.7	-1.51935483871
151	0.0755	10.8375	0.811111111111	-1.16666666667	-0.0709677419355
152	0.076	-0.7375	-5.01111111111	-2.6	18.7580645161
153	0.0765	-3.63125	0.811111111111	3.13333333333	2.82580645161
154	0.077	-3.63125	-3.55555555556	-8.33333333333	-1.51935483871
155	0.0775	-0.7375	3.72222222222	-1.16666666667	-0.0709677419355
156	0.078	-2.184375	9.54444444444	3.13333333333	-0.0709677419355
157	0.0785	0.709375	0.811111111111	0.266666666667	-0.0709677419355
158	0.079	5.05	-0.644444444444	-1.16666666667	1.37741935484
159	0.0795	0.709375	-0.644444444444	3.13333333333	14.4129032258
160	0.08	-0.7375	-0.644444444444	4.56666666667	2.82580645161
161	0.0805	-0.7375	-0.644444444444	4.56666666667	-7.31290322581
162	0.081	-0.7375	-2.1	-6.9	-0.0709677419355
163	0.0815	-0.7375	19.7333333333	0.266666666667	2.82580645161
164	0.082	-2.184375	-5.01111111111	-1.16666666667	1.37741935484
165	0.0825	-7.971875	0.811111111111	1.7	-0.0709677419355
166	0.083	-2.184375	-0.644444444444	-1.16666666667	2.82580645161
167	0.0835	-0.7375	0.811111111111	0.266666666667	-10.2096774194
168	0.084	-2.184375	-3.55555555556	-2.6	4.27419354839
169	0.0845	-0.7375	0.811111111111	8.86666666667	-7.31290322581
170	0.085	-0.7375	-0.644444444444	14.6	-0.0709677419355
171	0.0855	-0.7375	-0.644444444444	-4.03333333333	-0.0709677419355
172	0.086	-2.184375	-2.1	4.56666666667	1.37741935484
173	0.0865	-10.865625	-2.1	0.266666666667	-1.51935483871
174	0.087	19.51875	-0.644444444444	1.7	1.37741935484
175	0.0875	-2.184375	-0.644444444444	-1.16666666667	15.8612903226
176	0.088	0.709375	0.811111111111	6.0	-2.96774193548
177	0.0885	0.709375	-2.1	-2.6	1.37741935484
178	0.089	-3.63125	0.811111111111	-1.16666666667	-0.0709677419355
179	0.0895	0.709375	-10.8333333333	1.7	1.37741935484
180	0.09	-3.63125	11.0	0.266666666667	1.37741935484
181	0.0905	9.390625	-2.1	1.7	-0.0709677419355
182	0.091	-0.7375	-3.55555555556	3.13333333333	2.82580645161
183	0.0915	-0.7375	-0.644444444444	3.13333333333	-1.51935483871
184	0.092	-0.7375	0.811111111111	1.7	-7.31290322581
185	0.0925	-0.7375	0.811111111111	-8.33333333333	-0.0709677419355
186	0.093	-0.7375	19.7333333333	0.266666666667	1.37741935484
187	0.0935	3.603125	-9.37777777778	3.13333333333	2.82580645161
188	0.094	2.15625	-2.1	1.7	-0.0709677419355
189	0.0945	-13.759375	-2.1	3.13333333333	2.82580645161
190	0.095	0.709375	-0.644444444444	4.56666666667	1.37741935484
191	0.0955	-2.184375	-2.1	-4.03333333333	-0.0709677419355
192	0.096	0.709375	0.811111111111	6.0	1.37741935484
193	0.0965	-0.7375	-2.1	-4.03333333333	1.37741935484
194	0.097	-2.184375	-0.644444444444	0.266666666667	-0.0709677419355
195	0.0975	0.709375	0.811111111111	0.266666666667	1.37741935484
196	0.098	-6.525	0.811111111111	-1.16666666667	-0.0709677419355
197	0.0985	16.625	-2.1	-1.16666666667	1.37741935484
198	0.099	-10.865625	-0.644444444444	-1.16666666667	5.72258064516
199	0.0995	-0.7375	0.811111111111	18.9	-0.0709677419355
200	0.1	0.709375	-2.1	-5.46666666667	1.37741935484
201	0.1005	-0.7375	3.72222222222	0.266666666667	1.37741935484
202	0.101	-0.7375	2.26666666667	-1.16666666667	1.37741935484
203	0.1015	0.709375	-2.1	3.13333333333	1.37741935484
204	0.102	15.178125	-2.1	1.7	2.82580645161
205	0.1025	-2.184375	-0.644444444444	3.13333333333	7.17096774194
206	0.103	0.709375	-0.644444444444	0.266666666667	-1.51935483871
207	0.1035	-2.184375	-0.644444444444	8.86666666667	-0.0709677419355
208	0.104	0.709375	-0.644444444444	0.266666666667	4.27419354839
209	0.1045	-0.7375	-9.37777777778	0.266666666667	1.37741935484
210	0.105	0.709375	18.2777777778	0.266666666667	1.37741935484
211	0.1055	-15.20625	2.26666666667	3.13333333333	4.27419354839
212	0.106	0.709375	-0.644444444444	3.13333333333	-1.51935483871
213	0.1065	-5.078125	0.811111111111	1.7	14.4129032258
214	0.107	0.709375	0.811111111111	0.266666666667	-5.86451612903
215	0.1075	-0.7375	2.26666666667	-8.33333333333	1.37741935484
216	0.108	-0.7375	2.26666666667	0.266666666667	-1.51935483871
217	0.1085	-2.184375	-9.37777777778	-1.16666666667	-1.51935483871
218	0.109	3.603125	-0.644444444444	-1.16666666667	-1.51935483871
219	0.1095	19.51875	-0.644444444444	3.13333333333	5.72258064516
220	0.11	-9.41875	0.811111111111	1.7	2.82580645161
221	0.1105	-2.184375	-0.644444444444	3.13333333333	-8.76129032258
222	0.111	-0.7375	-0.644444444444	-8.33333333333	-7.31290322581
223	0.1115	-2.184375	3.72222222222	1.7	1.37741935484
224	0.112	-2.184375	-12.2888888889	-1.16666666667	-0.0709677419355
225	0.1125	0.709375	-10.8333333333	0.266666666667	-1.51935483871
226	0.113	-9.41875	0.811111111111	0.266666666667	1.37741935484
227	0.1135	-10.865625	2.26666666667	3.13333333333	-11.6580645161
228	0.114	0.709375	0.811111111111	-1.16666666667	-11.6580645161
229	0.1145	0.709375	-0.644444444444	-11.2	-1.51935483871
230	0.115	-3.63125	3.72222222222	-2.6	1.37741935484
231	0.1155	-0.7375	-10.8333333333	1.7	-0.0709677419355
232	0.116	0.709375	-7.92222222222	3.13333333333	1.37741935484
233	0.1165	-5.078125	-0.644444444444	1.7	1.37741935484
234	0.117	-0.7375	2.26666666667	1.7	1.37741935484
235	0.1175	2.15625	0.811111111111	-1.16666666667	-7.31290322581
236	0.118	0.709375	0.811111111111	-5.46666666667	-7.31290322581
237	0.1185	0.709375	0.811111111111	-6.9	2.82580645161
238	0.119	0.709375	-0.644444444444	17.4666666667	1.37741935484
239	0.1195	-0.7375	-10.8333333333	0.266666666667	-0.0709677419355
240	0.12	-0.7375	0.811111111111	1.7	-0.0709677419355
241	0.1205	-9.41875	-0.644444444444	-1.16666666667	2.82580645161
242	0.121	-0.7375	-2.1	0.266666666667	-0.0709677419355
243	0.1215	0.709375	-0.644444444444	0.266666666667	2.82580645161
244	0.122	-2.184375	-2.1	-5.46666666667	2.82580645161
245	0.1225	-2.184375	0.811111111111	3.13333333333	-0.0709677419355
246	0.123	-2.184375	-0.644444444444	0.266666666667	2.82580645161
247	0.1235	-0.7375	-5.01111111111	3.13333333333	1.37741935484
248	0.124	10.8375	-2.1	3.13333333333	-2.96774193548
249	0.1245	-5.078125	-2.1	0.266666666667	-0.0709677419355
250	0.125	-2.184375	-0.644444444444	3.13333333333	-4.41612903226
251	0.1255	-2.184375	2.26666666667	8.86666666667	-0.0709677419355
252	0.126	2.15625	6.63333333333	0.266666666667	-1.51935483871
253	0.1265	0.709375	0.811111111111	-4.03333333333	4.27419354839
254	0.127	2.15625	-0.644444444444	1.7	1.37741935484
255	0.1275	2.15625	0.811111111111	0.266666666667	1.37741935484
256	0.128	10.8375	-0.644444444444	1.7	2.82580645161
257	0.1285	-0.7375	-2.1	4.56666666667	5.72258064516
258	0.129	0.709375	-0.644444444444	0.266666666667	-1.51935483871
259	0.1295	-2.184375	3.72222222222	-4.03333333333	-0.0709677419355
260	0.13	-0.7375	-2.1	3.13333333333	1.37741935484
261	0.1305	-0.7375	11.0	3.13333333333	-0.0709677419355
262	0.131	0.709375	-7.92222222222	3.13333333333	-0.0709677419355
263	0.1315	18.071875	0.811111111111	-1.16666666667	4.27419354839
264	0.132	-0.7375	0.811111111111	4.56666666667	-5.86451612903
265	0.1325	-0.7375	0.811111111111	-2.6	-10.2096774194
266	0.133	0.709375	-2.1	-9.76666666667	-0.0709677419355
267	0.1335	0.709375	-9.37777777778	3.13333333333	2.82580645161
268	0.134	2.15625	-6.46666666667	1.7	4.27419354839
269	0.1345	2.15625	-0.644444444444	0.266666666667	-0.0709677419355
270	0.135	-12.3125	0.811111111111	0.266666666667	1.37741935484
271	0.1355	5.05	2.26666666667	1.7	-4.41612903226
272	0.136	-0.7375	-0.644444444444	-4.03333333333	1.37741935484
273	0.1365	0.709375	2.26666666667	20.3333333333	-0.0709677419355
274	0.137	-0.7375	-3.55555555556	0.266666666667	-0.0709677419355
275	0.1375	-2.184375	-10.8333333333	1.7	1.37741935484
276	0.138	0.709375	8.08888888889	0.266666666667	1.37741935484
277	0.1385	-7.971875	0.811111111111	3.13333333333	1.37741935484
278	0.139	-3.63125	-0.644444444444	3.13333333333	1.37741935484
279	0.1395	-6.525	0.811111111111	3.13333333333	-10.2096774194
280	0.14	-0.7375	0.811111111111	-8.33333333333	-7.31290322581
281	0.1405	3.603125	0.811111111111	-8.33333333333	-0.0709677419355
282	0.141	-0.7375	2.26666666667	-1.16666666667	-0.0709677419355
283	0.1415	-0.7375	-13.7444444444	-1.16666666667	1.37741935484
284	0.142	3.603125	0.811111111111	1.7	-2.96774193548
285	0.1425	19.51875	-0.644444444444	1.7	2.82580645161
286	0.143	-2.184375	-0.644444444444	4.56666666667	2.82580645161
287	0.1435	-5.078125	0.811111111111	3.13333333333	-0.0709677419355
288	0.144	0.709375	0.811111111111	7.43333333333	1.37741935484
289	0.1445	-0.7375	-0.644444444444	-2.6	-0.0709677419355
290	0.145	0.709375	-2.1	-8.33333333333	4.27419354839
291	0.1455	-3.63125	-0.644444444444	0.266666666667	1.37741935484
292	0.146	-12.3125	0.811111111111	1.7	-0.0709677419355
293	0.1465	19.51875	0.811111111111	0.266666666667	1.37741935484
294	0.147	-9.41875	-2.1	-1.16666666667	4.27419354839
295	0.1475	-0.7375	0.811111111111	18.9	-2.96774193548
296	0.148	2.15625	-2.1	-5.46666666667	-0.0709677419355
297	0.1485	0.709375	2.26666666667	-1.16666666667	-1.51935483871
298	0.149	-2.184375	16.8222222222	-1.16666666667	-0.0709677419355
299	0.1495	-13.759375	0.811111111111	-1.16666666667	-0.0709677419355
300	0.15	15.178125	-0.644444444444	0.266666666667	-0.0709677419355
301	0.1505	-5.078125	-0.644444444444	1.7	-4.41612903226
302	0.151	0.709375	-2.1	0.266666666667	-8.76129032258
303	0.1515	0.709375	-2.1	-9.76666666667	-0.0709677419355
304	0.152	-0.7375	-3.55555555556	21.7666666667	-0.0709677419355
305	0.1525	3.603125	-13.7444444444	3.13333333333	-1.51935483871
306	0.153	-0.7375	15.3666666667	0.266666666667	-0.0709677419355
307	0.1535	3.603125	0.811111111111	3.13333333333	1.37741935484
308	0.154	5.05	-0.644444444444	1.7	1.37741935484
309	0.1545	-2.184375	0.811111111111	4.56666666667	-0.0709677419355
310	0.155	-0.7375	0.811111111111	0.266666666667	1.37741935484
311	0.1555	0.709375	-2.1	-2.6	-7.31290322581
312	0.156	-0.7375	-7.92222222222	1.7	-0.0709677419355
313	0.1565	-0.7375	15.3666666667	0.266666666667	1.37741935484
314	0.157	-2.184375	15.3666666667	0.266666666667	-0.0709677419355
315	0.1575	18.071875	-0.644444444444	1.7	-2.96774193548
316	0.158	0.709375	-0.644444444444	0.266666666667	18.7580645161
317	0.1585	0.709375	-0.644444444444	1.7	18.7580645161
318	0.159	-0.7375	-2.1	18.9	-0.0709677419355
319	0.1595	0.709375	-12.2888888889	0.266666666667	1.37741935484
320	0.16	3.603125	16.8222222222	1.7	2.82580645161
321	0.1605	-3.63125	19.7333333333	3.13333333333	-0.0709677419355
322	0.161	3.603125	-3.55555555556	0.266666666667	-0.0709677419355
323	0.1615	-5.078125	-0.644444444444	4.56666666667	5.72258064516
324	0.162	-3.63125	0.811111111111	1.7	-4.41612903226
325	0.1625	-3.63125	-0.644444444444	-2.6	-1.51935483871
326	0.163	-2.184375	0.811111111111	7.43333333333	-1.51935483871
327	0.1635	-5.078125	-5.01111111111	-6.9	2.82580645161
328	0.164	0.709375	0.811111111111	1.7	-0.0709677419355
329	0.1645	-6.525	2.26666666667	1.7	-0.0709677419355
330	0.165	-2.184375	0.811111111111	1.7	-0.0709677419355
331	0.1655	-5.078125	2.26666666667	1.7	-4.41612903226
332	0.166	0.709375	2.26666666667	3.13333333333	1.37741935484
333	0.1665	-0.7375	-0.644444444444	-4.03333333333	1.37741935484
334	0.167	0.709375	0.811111111111	11.7333333333	1.37741935484
335	0.1675	-2.184375	-3.55555555556	-1.16666666667	-0.0709677419355
336	0.168	-0.7375	2.26666666667	0.266666666667	1.37741935484
337	0.1685	-12.3125	0.811111111111	3.13333333333	-0.0709677419355
338	0.169	18.071875	-0.644444444444	4.56666666667	-0.0709677419355
339	0.1695	0.709375	0.811111111111	-8.33333333333	-0.0709677419355
340	0.17	-0.7375	0.811111111111	0.266666666667	8.61935483871
341	0.1705	-0.7375	-3.55555555556	0.266666666667	1.37741935484
342	0.171	-0.7375	-0.644444444444	1.7	-0.0709677419355
343	0.1715	0.709375	-3.55555555556	0.266666666667	-0.0709677419355
344	0.172	0.709375	11.0	0.266666666667	1.37741935484
345	0.1725	-7.971875	-0.644444444444	1.7	-7.31290322581
346	0.173	0.709375	-5.01111111111	-1.16666666667	-4.41612903226
347	0.1735	-3.63125	0.811111111111	-1.16666666667	1.37741935484
348	0.174	0.709375	-0.644444444444	13.1666666667	-1.51935483871
349	0.1745	-0.7375	-2.1	1.7	-0.0709677419355
350	0.175	3.603125	-7.92222222222	3.13333333333	-0.0709677419355
351	0.1755	-0.7375	-2.1	0.266666666667	-0.0709677419355
352	0.176	-0.7375	-0.644444444444	0.266666666667	1.37741935484
353	0.1765	0.709375	0.811111111111	3.13333333333	-0.0709677419355
354	0.177	-0.7375	-0.644444444444	1.7	-1.51935483871
355	0.1775	-3.63125	0.811111111111	-4.03333333333	2.82580645161
356	0.178	-0.7375	0.811111111111	1.7	-0.0709677419355
357	0.1785	2.15625	18.2777777778	1.7	-0.0709677419355
358	0.179	-2.184375	-7.92222222222	0.266666666667	1.37741935484
359	0.1795	16.625	-2.1	3.13333333333	2.82580645161
360	0.18	-3.63125	0.811111111111	0.266666666667	5.72258064516
361	0.1805	-0.7375	0.811111111111	1.7	-1.51935483871
362	0.181	-0.7375	0.811111111111	-1.16666666667	-2.96774193548
363	0.1815	0.709375	0.811111111111	0.266666666667	1.37741935484
364	0.182	0.709375	-7.92222222222	0.266666666667	1.37741935484
365	0.1825	0.709375	-9.37777777778	3.13333333333	1.37741935484
366	0.183	2.15625	-2.1	0.266666666667	4.27419354839
367	0.1835	-2.184375	-2.1	1.7	2.82580645161
368	0.184	0.709375	0.811111111111	1.7	4.27419354839
369	0.1845	0.709375	-0.644444444444	-6.9	8.61935483871
370	0.185	-0.7375	0.811111111111	13.1666666667	-1.51935483871
371	0.1855	0.709375	-5.01111111111	-1.16666666667	-0.0709677419355
372	0.186	2.15625	16.8222222222	3.13333333333	-0.0709677419355
373	0.1865	-2.184375	-0.644444444444	0.266666666667	1.37741935484
374	0.187	-12.3125	0.811111111111	0.266666666667	-0.0709677419355
375	0.1875	-0.7375	0.811111111111	3.13333333333	1.37741935484
376	0.188	-0.7375	-0.644444444444	4.56666666667	-0.0709677419355
377	0.1885	-0.7375	-0.644444444444	14.6	-0.0709677419355
378	0.189	-0.7375	0.811111111111	-4.03333333333	1.37741935484
379	0.1895	-2.184375	0.811111111111	-2.6	1.37741935484
380	0.19	2.15625	-7.92222222222	3.13333333333	-0.0709677419355
381	0.1905	2.15625	-3.55555555556	1.7	4.27419354839
382	0.191	-10.865625	-3.55555555556	0.266666666667	-7.31290322581
383	0.1915	-0.7375	0.811111111111	-1.16666666667	-7.31290322581
384	0.192	-2.184375	-0.644444444444	0.266666666667	14.4129032258
385	0.1925	-0.7375	0.811111111111	0.266666666667	2.82580645161
386	0.193	2.15625	3.72222222222	4.56666666667	2.82580645161
387	0.1935	-2.184375	0.811111111111	4.56666666667	-0.0709677419355
388	0.194	0.709375	5.17777777778	1.7	1.37741935484
389	0.1945	2.15625	-0.644444444444	3.13333333333	1.37741935484
390	0.195	0.709375	-2.1	1.7	5.72258064516
391	0.1955	-0.7375	-0.644444444444	-6.9	2.82580645161
392	0.196	-2.184375	-2.1	1.7	2.82580645161
393	0.1965	-2.184375	2.26666666667	-2.6	-0.0709677419355
394	0.197	0.709375	-10.8333333333	0.266666666667	-0.0709677419355
395	0.1975	-5.078125	15.3666666667	0.266666666667	-0.0709677419355
396	0.198	19.51875	-0.644444444444	0.266666666667	-10.2096774194
397	0.1985	-0.7375	0.811111111111	1.7	4.27419354839
398	0.199	0.709375	-0.644444444444	1.7	1.37741935484
399	0.1995	-3.63125	0.811111111111	17.4666666667	1.37741935484
400	0.2	-0.7375	-9.37777777778	0.266666666667	2.82580645161
401	0.2005	0.709375	16.8222222222	1.7	4.27419354839
402	0.201	-0.7375	-0.644444444444	4.56666666667	1.37741935484
403	0.2015	-7.971875	-2.1	3.13333333333	-0.0709677419355
404	0.202	13.73125	-0.644444444444	4.56666666667	-5.86451612903
405	0.2025	-0.7375	2.26666666667	1.7	1.37741935484
406	0.203	-3.63125	-0.644444444444	0.266666666667	-8.76129032258
407	0.2035	-2.184375	0.811111111111	-4.03333333333	1.37741935484
408	0.204	-2.184375	-0.644444444444	1.7	1.37741935484
409	0.2045	2.15625	13.9111111111	1.7	-0.0709677419355
410	0.205	-10.865625	-2.1	0.266666666667	-0.0709677419355
411	0.2055	19.51875	0.811111111111	3.13333333333	-11.6580645161
412	0.206	-2.184375	-0.644444444444	-1.16666666667	18.7580645161
413	0.2065	-0.7375	2.26666666667	18.9	1.37741935484
414	0.207	-0.7375	-3.55555555556	18.9	-0.0709677419355
415	0.2075	-0.7375	2.26666666667	-4.03333333333	1.37741935484
416	0.208	-3.63125	-7.92222222222	4.56666666667	-0.0709677419355
417	0.2085	3.603125	-2.1	0.266666666667	-1.51935483871
418	0.209	20.965625	-0.644444444444	1.7	2.82580645161
419	0.2095	-10.865625	0.811111111111	1.7	1.37741935484
420	0.21	2.15625	-0.644444444444	23.2	-0.0709677419355
421	0.2105	2.15625	-3.55555555556	-5.46666666667	-1.51935483871
422	0.211	-0.7375	5.17777777778	0.266666666667	-1.51935483871
423	0.2115	-3.63125	3.72222222222	-1.16666666667	-1.51935483871
424	0.212	3.603125	2.26666666667	-1.16666666667	-1.51935483871
425	0.2125	19.51875	0.811111111111	3.13333333333	5.72258064516
426	0.213	-5.078125	0.811111111111	3.13333333333	7.17096774194
427	0.2135	-0.7375	-0.644444444444	3.13333333333	2.82580645161
428	0.214	-3.63125	2.26666666667	-6.9	-2.96774193548
429	0.2145	-2.184375	-5.01111111111	-6.9	2.82580645161
430	0.215	0.709375	9.54444444444	1.7	1.37741935484
431	0.2155	-0.7375	-9.37777777778	0.266666666667	-0.0709677419355
432	0.216	-0.7375	0.811111111111	3.13333333333	1.37741935484
433	0.2165	-12.3125	-0.644444444444	1.7	2.82580645161
434	0.217	0.709375	-0.644444444444	0.266666666667	-7.31290322581
435	0.2175	0.709375	-0.644444444444	-11.2	-0.0709677419355
436	0.218	-0.7375	2.26666666667	1.7	2.82580645161
437	0.2185	0.709375	-12.2888888889	-1.16666666667	2.82580645161
438	0.219	0.709375	-9.37777777778	1.7	1.37741935484
439	0.2195	-15.20625	-2.1	0.266666666667	1.37741935484
440	0.22	16.625	-3.55555555556	3.13333333333	2.82580645161
441	0.2205	0.709375	-2.1	7.43333333333	14.4129032258
442	0.221	0.709375	2.26666666667	16.0333333333	1.37741935484
443	0.2215	-0.7375	-0.644444444444	11.7333333333	-0.0709677419355
444	0.222	2.15625	5.17777777778	-1.16666666667	-0.0709677419355
445	0.2225	-2.184375	-5.01111111111	-1.16666666667	-0.0709677419355
446	0.223	-3.63125	-0.644444444444	0.266666666667	4.27419354839
447	0.2235	-5.078125	-0.644444444444	1.7	2.82580645161
448	0.224	-2.184375	0.811111111111	0.266666666667	-5.86451612903
449	0.2245	-3.63125	0.811111111111	-6.9	1.37741935484
450	0.225	-2.184375	0.811111111111	-8.33333333333	2.82580645161
451	0.2255	0.709375	-12.2888888889	0.266666666667	1.37741935484
452	0.226	2.15625	-9.37777777778	3.13333333333	2.82580645161
453	0.2265	2.15625	-3.55555555556	3.13333333333	4.27419354839
454	0.227	-9.41875	-0.644444444444	0.266666666667	15.8612903226
455	0.2275	-0.7375	-0.644444444444	0.266666666667	-2.96774193548
456	0.228	-0.7375	-0.644444444444	-5.46666666667	2.82580645161
457	0.2285	-2.184375	2.26666666667	6.0	2.82580645161
458	0.229	-2.184375	0.811111111111	1.7	1.37741935484
459	0.2295	0.709375	9.54444444444	4.56666666667	-1.51935483871
460	0.23	-0.7375	0.811111111111	0.266666666667	1.37741935484
461	0.2305	-7.971875	-0.644444444444	-1.16666666667	-2.96774193548
462	0.231	-2.184375	-2.1	-1.16666666667	-8.76129032258
463	0.2315	-3.63125	0.811111111111	-9.76666666667	-0.0709677419355
464	0.232	-0.7375	0.811111111111	16.0333333333	-0.0709677419355
465	0.2325	0.709375	0.811111111111	20.3333333333	-0.0709677419355
466	0.233	2.15625	15.3666666667	1.7	-0.0709677419355
467	0.2335	-0.7375	-2.1	0.266666666667	-0.0709677419355
468	0.234	18.071875	-2.1	3.13333333333	-0.0709677419355
469	0.2345	-10.865625	0.811111111111	1.7	2.82580645161
470	0.235	-3.63125	0.811111111111	1.7	-5.86451612903
471	0.2355	-0.7375	-0.644444444444	-6.9	-0.0709677419355
472	0.236	0.709375	-2.1	0.266666666667	-0.0709677419355
473	0.2365	2.15625	-6.46666666667	0.266666666667	-0.0709677419355
474	0.237	-2.184375	15.3666666667	3.13333333333	-0.0709677419355
475	0.2375	-6.525	0.811111111111	0.266666666667	1.37741935484
476	0.238	-3.63125	-0.644444444444	0.266666666667	12.964516129
477	0.2385	-2.184375	0.811111111111	-1.16666666667	1.37741935484
478	0.239	-0.7375	2.26666666667	1.7	-5.86451612903
479	0.2395	-2.184375	-2.1	-6.9	1.37741935484
480	0.24	0.709375	12.4555555556	-1.16666666667	1.37741935484
481	0.2405	0.709375	-9.37777777778	1.7	-0.0709677419355
482	0.241	15.178125	-2.1	4.56666666667	1.37741935484
483	0.2415	-9.41875	-0.644444444444	4.56666666667	17.3096774194
484	0.242	0.709375	-2.1	4.56666666667	-11.6580645161
485	0.2425	0.709375	-0.644444444444	-6.9	-0.0709677419355
486	0.243	0.709375	0.811111111111	14.6	-0.0709677419355
487	0.2435	-0.7375	9.54444444444	-1.16666666667	1.37741935484
488	0.244	-0.7375	0.811111111111	1.7	2.82580645161
489	0.2445	7.94375	0.811111111111	3.13333333333	-1.51935483871
490	0.245	-3.63125	0.811111111111	0.266666666667	-4.41612903226
491	0.2455	-0.7375	0.811111111111	0.266666666667	17.3096774194
492	0.246	0.709375	-2.1	16.0333333333	-0.0709677419355
493	0.2465	-0.7375	-2.1	0.266666666667	-0.0709677419355
494	0.247	0.709375	11.0	1.7	-0.0709677419355
495	0.2475	-6.525	0.811111111111	1.7	-0.0709677419355
496	0.248	16.625	-3.55555555556	4.56666666667	-0.0709677419355
497	0.2485	-10.865625	-2.1	3.13333333333	-0.0709677419355
498	0.249	-3.63125	-0.644444444444	-1.16666666667	-5.86451612903
499	0.2495	-2.184375	0.811111111111	-4.03333333333	-0.0709677419355
500	0.25	-0.7375	-3.55555555556	0.266666666667	-1.51935483871
501	0.2505	-0.7375	2.26666666667	0.266666666667	-1.51935483871
502	0.251	-7.971875	-2.1	-1.16666666667	2.82580645161
503	0.2515	12.284375	-0.644444444444	-2.6	1.37741935484
504	0.252	-7.971875	0.811111111111	0.266666666667	4.27419354839
505	0.2525	-0.7375	-0.644444444444	4.56666666667	-10.2096774194
506	0.253	-5.078125	-0.644444444444	-2.6	-0.0709677419355
507	0.2535	-2.184375	0.811111111111	-6.9	-1.51935483871
508	0.254	0.709375	19.7333333333	-1.16666666667	4.27419354839
509	0.2545	-0.7375	0.811111111111	-1.16666666667	-0.0709677419355
510	0.255	16.625	0.811111111111	1.7	1.37741935484
511	0.2555	-9.41875	0.811111111111	0.266666666667	5.72258064516
512	0.256	-0.7375	0.811111111111	1.7	-7.31290322581
513	0.2565	0.709375	-0.644444444444	-8.33333333333	1.37741935484
514	0.257	-2.184375	0.811111111111	0.266666666667	1.37741935484
515	0.2575	3.603125	2.26666666667	-1.16666666667	-1.51935483871
516	0.258	2.15625	-13.7444444444	0.266666666667	-1.51935483871
517	0.2585	18.071875	-0.644444444444	1.7	4.27419354839
518	0.259	-7.971875	-0.644444444444	1.7	1.37741935484
519	0.2595	-5.078125	0.811111111111	3.13333333333	-5.86451612903
520	0.26	-3.63125	2.26666666667	-2.6	2.82580645161
521	0.2605	-3.63125	-0.644444444444	0.266666666667	-0.0709677419355
522	0.261	-3.63125	-7.92222222222	-4.03333333333	1.37741935484
523	0.2615	2.15625	-3.55555555556	3.13333333333	1.37741935484
524	0.262	-12.3125	-3.55555555556	0.266666666667	2.82580645161
525	0.2625	2.15625	-2.1	1.7	-0.0709677419355
526	0.263	0.709375	-0.644444444444	-1.16666666667	2.82580645161
527	0.2635	-0.7375	-0.644444444444	-1.16666666667	-7.31290322581
528	0.264	-3.63125	-2.1	-6.9	2.82580645161
529	0.2645	-3.63125	0.811111111111	0.266666666667	1.37741935484
530	0.265	-2.184375	-2.1	0.266666666667	4.27419354839
531	0.2655	-12.3125	-0.644444444444	1.7	1.37741935484
532	0.266	20.965625	-2.1	-1.16666666667	-13.1064516129
533	0.2665	-2.184375	-0.644444444444	-1.16666666667	-0.0709677419355
534	0.267	0.709375	-2.1	3.13333333333	1.37741935484
535	0.2675	-0.7375	-0.644444444444	-1.16666666667	1.37741935484
536	0.268	-2.184375	6.63333333333	0.266666666667	-0.0709677419355
537	0.2685	-2.184375	-5.01111111111	0.266666666667	1.37741935484
538	0.269	3.603125	-5.01111111111	-1.16666666667	1.37741935484
539	0.2695	13.73125	-0.644444444444	3.13333333333	4.27419354839
540	0.27	-3.63125	-0.644444444444	3.13333333333	-7.31290322581
541	0.2705	-0.7375	-2.1	-6.9	-0.0709677419355
542	0.271	-0.7375	-0.644444444444	1.7	1.37741935484
543	0.2715	-2.184375	5.17777777778	0.266666666667	1.37741935484
544	0.272	0.709375	6.63333333333	1.7	1.37741935484
545	0.2725	-5.078125	-3.55555555556	0.266666666667	-0.0709677419355
546	0.273	-5.078125	0.811111111111	1.7	-0.0709677419355
547	0.2735	-2.184375	-3.55555555556	3.13333333333	-4.41612903226
548	0.274	-0.7375	-0.644444444444	-4.03333333333	1.37741935484
549	0.2745	-2.184375	0.811111111111	4.56666666667	17.3096774194
550	0.275	-2.184375	2.26666666667	20.3333333333	-0.0709677419355
551	0.2755	0.709375	21.1888888889	4.56666666667	2.82580645161
552	0.276	-3.63125	-0.644444444444	0.266666666667	-0.0709677419355
553	0.2765	-15.20625	-0.644444444444	1.7	1.37741935484
554	0.277	19.51875	-2.1	1.7	-1.51935483871
555	0.2775	-3.63125	-0.644444444444	4.56666666667	10.0677419355
556	0.278	-0.7375	0.811111111111	13.1666666667	1.37741935484
557	0.2785	-2.184375	-2.1	0.266666666667	2.82580645161
558	0.279	-2.184375	0.811111111111	0.266666666667	4.27419354839
559	0.2795	-0.7375	6.63333333333	3.13333333333	4.27419354839
560	0.28	-2.184375	-2.1	-1.16666666667	-0.0709677419355
561	0.2805	15.178125	-2.1	0.266666666667	-0.0709677419355
562	0.281	-2.184375	0.811111111111	0.266666666667	17.3096774194
563	0.2815	-0.7375	-2.1	6.0	10.0677419355
564	0.282	2.15625	0.811111111111	11.7333333333	1.37741935484
565	0.2825	-2.184375	-6.46666666667	3.13333333333	-0.0709677419355
566	0.283	0.709375	-2.1	1.7	1.37741935484
567	0.2835	-0.7375	-0.644444444444	-1.16666666667	-0.0709677419355
568	0.284	16.625	-0.644444444444	3.13333333333	2.82580645161
569	0.2845	-7.971875	0.811111111111	1.7	2.82580645161
570	0.285	-0.7375	0.811111111111	4.56666666667	-7.31290322581
571	0.2855	-0.7375	2.26666666667	-8.33333333333	-0.0709677419355
572	0.286	-0.7375	0.811111111111	-4.03333333333	4.27419354839
573	0.2865	-3.63125	-5.01111111111	-1.16666666667	1.37741935484
574	0.287	-2.184375	-0.644444444444	3.13333333333	4.27419354839
575	0.2875	-9.41875	-0.644444444444	0.266666666667	-0.0709677419355
576	0.288	20.965625	-0.644444444444	3.13333333333	1.37741935484
577	0.2885	-2.184375	0.811111111111	0.266666666667	15.8612903226
578	0.289	0.709375	-0.644444444444	16.0333333333	-2.96774193548
579	0.2895	-0.7375	-0.644444444444	-1.16666666667	-0.0709677419355
580	0.29	-2.184375	-7.92222222222	-1.16666666667	2.82580645161
581	0.2905	0.709375	2.26666666667	0.266666666667	1.37741935484
582	0.291	-9.41875	-0.644444444444	1.7	-0.0709677419355
583	0.2915	13.73125	-2.1	1.7	2.82580645161
584	0.292	-10.865625	-2.1	4.56666666667	15.8612903226
585	0.2925	-0.7375	0.811111111111	4.56666666667	-4.41612903226
586	0.293	-0.7375	-5.01111111111	0.266666666667	-1.51935483871
587	0.2935	-2.184375	0.811111111111	8.86666666667	-1.51935483871
588	0.294	-3.63125	-5.01111111111	3.13333333333	-0.0709677419355
589	0.2945	-0.7375	-0.644444444444	3.13333333333	2.82580645161
590	0.295	-13.759375	-3.55555555556	1.7	1.37741935484
591	0.2955	0.709375	-2.1	1.7	-0.0709677419355
592	0.296	-5.078125	-0.644444444444	-1.16666666667	4.27419354839
593	0.2965	-0.7375	-2.1	17.4666666667	1.37741935484
594	0.297	-0.7375	-2.1	-6.9	1.37741935484
595	0.2975	-3.63125	3.72222222222	-1.16666666667	2.82580645161
596	0.298	-2.184375	-3.55555555556	0.266666666667	4.27419354839
597	0.2985	-10.865625	-0.644444444444	0.266666666667	1.37741935484
598	0.299	-5.078125	-0.644444444444	0.266666666667	2.82580645161
599	0.2995	-2.184375	0.811111111111	3.13333333333	-4.41612903226
600	0.3	-2.184375	-0.644444444444	4.56666666667	-0.0709677419355
601	0.3005	-2.184375	-2.1	-1.16666666667	1.37741935484
602	0.301	-0.7375	0.811111111111	7.43333333333	-0.0709677419355
603	0.3015	0.709375	-6.46666666667	-2.6	-0.0709677419355
604	0.302	2.15625	0.811111111111	1.7	-0.0709677419355
605	0.3025	-15.20625	0.811111111111	3.13333333333	2.82580645161
606	0.303	0.709375	-0.644444444444	3.13333333333	4.27419354839
607	0.3035	-0.7375	-0.644444444444	1.7	10.0677419355
608	0.304	-0.7375	-2.1	17.4666666667	-1.51935483871
609	0.3045	2.15625	-3.55555555556	18.9	-0.0709677419355
610	0.305	0.709375	16.8222222222	-1.16666666667	1.37741935484
611	0.3055	-0.7375	0.811111111111	0.266666666667	1.37741935484
612	0.306	-7.971875	0.811111111111	3.13333333333	1.37741935484
613	0.3065	-5.078125	2.26666666667	1.7	-1.51935483871
614	0.307	0.709375	0.811111111111	-1.16666666667	-7.31290322581
615	0.3075	-2.184375	2.26666666667	-6.9	-0.0709677419355
616	0.308	-0.7375	0.811111111111	1.7	-0.0709677419355
617	0.3085	-5.078125	0.811111111111	-1.16666666667	-0.0709677419355
618	0.309	0.709375	11.0	0.266666666667	-0.0709677419355
619	0.3095	-6.525	-0.644444444444	1.7	-0.0709677419355
620	0.31	-12.3125	0.811111111111	3.13333333333	-2.96774193548
621	0.3105	-3.63125	0.811111111111	-2.6	-5.86451612903
622	0.311	0.709375	-0.644444444444	-1.16666666667	10.0677419355
623	0.3115	-3.63125	3.72222222222	-2.6	1.37741935484
624	0.312	-0.7375	-7.92222222222	-5.46666666667	1.37741935484
625	0.3125	-2.184375	8.08888888889	-2.6	2.82580645161
626	0.313	-9.41875	-0.644444444444	0.266666666667	1.37741935484
627	0.3135	16.625	-2.1	1.7	-0.0709677419355
628	0.314	-0.7375	-0.644444444444	-1.16666666667	2.82580645161
629	0.3145	-3.63125	-0.644444444444	4.56666666667	-0.0709677419355
630	0.315	-3.63125	-2.1	-2.6	-0.0709677419355
631	0.3155	-2.184375	2.26666666667	4.56666666667	-0.0709677419355
632	0.316	-0.7375	0.811111111111	-1.16666666667	-2.96774193548
633	0.3165	-10.865625	-0.644444444444	3.13333333333	-4.41612903226
634	0.317	2.15625	-0.644444444444	3.13333333333	-2.96774193548
635	0.3175	-7.971875	-0.644444444444	1.7	-10.2096774194
636	0.318	0.709375	0.811111111111	-2.6	-11.6580645161
637	0.3185	-3.63125	0.811111111111	-6.9	-1.51935483871
638	0.319	-3.63125	0.811111111111	-8.33333333333	-1.51935483871
639	0.3195	-2.184375	16.8222222222	1.7	-4.41612903226
640	0.32	3.603125	-6.46666666667	1.7	-1.51935483871
641	0.3205	15.178125	0.811111111111	1.7	-10.2096774194
642	0.321	-3.63125	0.811111111111	0.266666666667	4.27419354839
643	0.3215	-0.7375	-0.644444444444	1.7	-2.96774193548
644	0.322	0.709375	-2.1	4.56666666667	-1.51935483871
645	0.3225	-2.184375	-0.644444444444	13.1666666667	1.37741935484
646	0.323	-2.184375	11.0	-1.16666666667	-2.96774193548
647	0.3235	-3.63125	-0.644444444444	-1.16666666667	-1.51935483871
648	0.324	-12.3125	2.26666666667	1.7	-5.86451612903
649	0.3245	19.51875	-2.1	1.7	-4.41612903226
650	0.325	-0.7375	0.811111111111	-11.2	-5.86451612903
651	0.3255	-3.63125	3.72222222222	11.7333333333	-7.31290322581
652	0.326	-3.63125	-0.644444444444	-1.16666666667	-2.96774193548
653	0.3265	-0.7375	6.63333333333	1.7	-2.96774193548
654	0.327	-3.63125	-6.46666666667	1.7	-0.0709677419355
655	0.3275	0.709375	-2.1	-1.16666666667	-4.41612903226
656	0.328	-10.865625	0.811111111111	3.13333333333	-1.51935483871
657	0.3285	-2.184375	0.811111111111	3.13333333333	-2.96774193548
658	0.329	-0.7375	-0.644444444444	0.266666666667	-7.31290322581
659	0.3295	-2.184375	-2.1	-8.33333333333	-2.96774193548
660	0.33	-2.184375	5.17777777778	3.13333333333	-0.0709677419355
661	0.3305	-6.525	-7.92222222222	4.56666666667	1.37741935484
662	0.331	18.071875	0.811111111111	3.13333333333	-0.0709677419355
663	0.3315	-9.41875	-0.644444444444	6.0	4.27419354839
664	0.332	0.709375	-3.55555555556	3.13333333333	-4.41612903226
665	0.3325	0.709375	-3.55555555556	-11.2	-0.0709677419355
666	0.333	0.709375	-0.644444444444	-4.03333333333	1.37741935484
667	0.3335	-0.7375	13.9111111111	1.7	4.27419354839
668	0.334	0.709375	-6.46666666667	-1.16666666667	1.37741935484
669	0.3345	-15.20625	-2.1	1.7	2.82580645161
670	0.335	19.51875	-0.644444444444	4.56666666667	-0.0709677419355
671	0.3355	-0.7375	0.811111111111	-6.9	-0.0709677419355
672	0.336	0.709375	-0.644444444444	4.56666666667	15.8612903226
673	0.3365	2.15625	-2.1	16.0333333333	1.37741935484
674	0.337	2.15625	18.2777777778	3.13333333333	-0.0709677419355
675	0.3375	-2.184375	0.811111111111	0.266666666667	2.82580645161
676	0.338	-13.759375	-2.1	1.7	2.82580645161
677	0.3385	16.625	0.811111111111	3.13333333333	1.37741935484
678	0.339	0.709375	-0.644444444444	3.13333333333	10.0677419355
679	0.3395	-0.7375	-2.1	11.7333333333	4.27419354839
680	0.34	-2.184375	-0.644444444444	-2.6	14.4129032258
681	0.3405	-2.184375	2.26666666667	0.266666666667	1.37741935484
682	0.341	0.709375	11.0	3.13333333333	2.82580645161
683	0.3415	-2.184375	-2.1	0.266666666667	-0.0709677419355
684	0.342	16.625	-0.644444444444	0.266666666667	-0.0709677419355
685	0.3425	-9.41875	-3.55555555556	4.56666666667	2.82580645161
686	0.343	0.709375	-2.1	23.2	-0.0709677419355
687	0.3435	0.709375	-2.1	1.7	1.37741935484
688	0.344	0.709375	-12.2888888889	-1.16666666667	-0.0709677419355
689	0.3445	2.15625	16.8222222222	1.7	1.37741935484
690	0.345	-2.184375	-5.01111111111	3.13333333333	4.27419354839
691	0.3455	3.603125	-0.644444444444	0.266666666667	4.27419354839
692	0.346	-7.971875	-0.644444444444	4.56666666667	18.7580645161
693	0.3465	-2.184375	0.811111111111	3.13333333333	-5.86451612903
694	0.347	0.709375	0.811111111111	-9.76666666667	-4.41612903226
695	0.3475	2.15625	0.811111111111	-4.03333333333	-1.51935483871
696	0.348	-0.7375	0.811111111111	-8.33333333333	2.82580645161
697	0.3485	-5.078125	-10.8333333333	-1.16666666667	1.37741935484
698	0.349	2.15625	-9.37777777778	-2.6	2.82580645161
699	0.3495	16.625	-0.644444444444	-1.16666666667	-2.96774193548
700	0.35	0.709375	2.26666666667	1.7	7.17096774194
701	0.3505	-2.184375	2.26666666667	4.56666666667	2.82580645161
702	0.351	-2.184375	-2.1	-2.6	1.37741935484
703	0.3515	2.15625	-0.644444444444	13.1666666667	-0.0709677419355
704	0.352	0.709375	-9.37777777778	0.266666666667	2.82580645161
705	0.3525	0.709375	-2.1	0.266666666667	-0.0709677419355
706	0.353	18.071875	2.26666666667	3.13333333333	5.72258064516
707	0.3535	-7.971875	-0.644444444444	1.7	4.27419354839
708	0.354	-0.7375	0.811111111111	3.13333333333	1.37741935484
709	0.3545	0.709375	0.811111111111	-6.9	-4.41612903226
710	0.355	-3.63125	-9.37777777778	-6.9	-0.0709677419355
711	0.3555	0.709375	5.17777777778	-1.16666666667	-0.0709677419355
712	0.356	0.709375	-6.46666666667	1.7	-0.0709677419355
713	0.3565	7.94375	-2.1	0.266666666667	-0.0709677419355
714	0.357	-7.971875	-2.1	3.13333333333	2.82580645161
715	0.3575	2.15625	-0.644444444444	0.266666666667	-7.31290322581
716	0.358	-0.7375	-2.1	0.266666666667	-7.31290322581
717	0.3585	-0.7375	0.811111111111	0.266666666667	4.27419354839
718	0.359	-0.7375	13.9111111111	-1.16666666667	2.82580645161
719	0.3595	-5.078125	-10.8333333333	1.7	1.37741935484
720	0.36	18.071875	0.811111111111	-1.16666666667	-8.76129032258
721	0.3605	-0.7375	-2.1	-2.6	18.7580645161
722	0.361	-2.184375	0.811111111111	-1.16666666667	18.7580645161
723	0.3615	-2.184375	0.811111111111	1.7	-1.51935483871
724	0.362	-0.7375	3.72222222222	-5.46666666667	1.37741935484
725	0.3625	-0.7375	13.9111111111	0.266666666667	4.27419354839
726	0.363	-5.078125	-0.644444444444	4.56666666667	1.37741935484
727	0.3635	7.94375	-0.644444444444	0.266666666667	-5.86451612903
728	0.364	-5.078125	-0.644444444444	3.13333333333	-2.96774193548
729	0.3645	-0.7375	-2.1	-2.6	-7.31290322581
730	0.365	-2.184375	0.811111111111	-9.76666666667	-0.0709677419355
731	0.3655	-2.184375	2.26666666667	-1.16666666667	-0.0709677419355
732	0.366	2.15625	9.54444444444	-1.16666666667	-0.0709677419355
733	0.3665	-0.7375	5.17777777778	0.266666666667	2.82580645161
734	0.367	-3.63125	13.9111111111	0.266666666667	4.27419354839
735	0.3675	10.8375	-0.644444444444	3.13333333333	-0.0709677419355
736	0.368	-0.7375	0.811111111111	1.7	17.3096774194
737	0.3685	-0.7375	-0.644444444444	4.56666666667	4.27419354839
738	0.369	-2.184375	-3.55555555556	-5.46666666667	1.37741935484
739	0.3695	0.709375	2.26666666667	0.266666666667	1.37741935484
740	0.37	-0.7375	2.26666666667	1.7	-0.0709677419355
741	0.3705	-13.759375	0.811111111111	0.266666666667	-0.0709677419355
742	0.371	16.625	-0.644444444444	-1.16666666667	-0.0709677419355
743	0.3715	-5.078125	-0.644444444444	0.266666666667	1.37741935484
744	0.372	0.709375	2.26666666667	1.7	-2.96774193548
745	0.3725	-2.184375	0.811111111111	-6.9	-0.0709677419355
746	0.373	-2.184375	0.811111111111	-1.16666666667	-0.0709677419355
747	0.3735	-3.63125	-13.7444444444	-1.16666666667	-1.51935483871
748	0.374	2.15625	-2.1	0.266666666667	2.82580645161
749	0.3745	16.625	-0.644444444444	1.7	2.82580645161
750	0.375	-2.184375	-0.644444444444	0.266666666667	1.37741935484
751	0.3755	-2.184375	-2.1	1.7	-5.86451612903
752	0.376	-2.184375	0.811111111111	3.13333333333	-0.0709677419355
753	0.3765	-2.184375	-5.01111111111	0.266666666667	-4.41612903226
754	0.377	0.709375	-5.01111111111	0.266666666667	-2.96774193548
755	0.3775	-0.7375	-7.92222222222	3.13333333333	-0.0709677419355
756	0.378	-10.865625	-0.644444444444	3.13333333333	-0.0709677419355
757	0.3785	-10.865625	-0.644444444444	6.0	21.6548387097
758	0.379	-0.7375	-0.644444444444	3.13333333333	-8.76129032258
759	0.3795	-0.7375	2.26666666667	-11.2	-0.0709677419355
760	0.38	-3.63125	2.26666666667	-2.6	1.37741935484
761	0.3805	-0.7375	-5.01111111111	-1.16666666667	1.37741935484
762	0.381	2.15625	-2.1	0.266666666667	4.27419354839
763	0.3815	-6.525	-0.644444444444	0.266666666667	1.37741935484
764	0.382	18.071875	-0.644444444444	3.13333333333	-11.6580645161
765	0.3825	-0.7375	2.26666666667	-1.16666666667	7.17096774194
766	0.383	-0.7375	0.811111111111	1.7	-0.0709677419355
767	0.3835	-0.7375	-0.644444444444	-2.6	1.37741935484
768	0.384	0.709375	-6.46666666667	1.7	-0.0709677419355
769	0.3845	0.709375	-10.8333333333	0.266666666667	1.37741935484
770	0.385	2.15625	0.811111111111	0.266666666667	1.37741935484
771	0.3855	-6.525	-0.644444444444	0.266666666667	1.37741935484
772	0.386	-7.971875	-2.1	1.7	2.82580645161
773	0.3865	-0.7375	0.811111111111	3.13333333333	-10.2096774194
774	0.387	-3.63125	-5.01111111111	-8.33333333333	1.37741935484
775	0.3875	-2.184375	-0.644444444444	1.7	-2.96774193548
776	0.388	-0.7375	2.26666666667	-1.16666666667	-0.0709677419355
777	0.3885	-0.7375	16.8222222222	3.13333333333	-0.0709677419355
778	0.389	-6.525	2.26666666667	0.266666666667	-0.0709677419355
779	0.3895	19.51875	-2.1	-2.6	-8.76129032258
780	0.39	-2.184375	-0.644444444444	-6.9	-7.31290322581
781	0.3905	-2.184375	0.811111111111	11.7333333333	1.37741935484
782	0.391	-5.078125	-0.644444444444	-6.9	-1.51935483871
783	0.3915	-0.7375	0.811111111111	-2.6	-0.0709677419355
784	0.392	-3.63125	-6.46666666667	0.266666666667	-0.0709677419355
785	0.3925	3.603125	0.811111111111	-1.16666666667	-0.0709677419355
786	0.393	10.8375	-0.644444444444	-1.16666666667	-0.0709677419355
787	0.3935	2.15625	-0.644444444444	0.266666666667	-0.0709677419355
788	0.394	-0.7375	-0.644444444444	-2.6	1.37741935484
789	0.3945	-2.184375	0.811111111111	16.0333333333	2.82580645161
790	0.395	-3.63125	-3.55555555556	18.9	-0.0709677419355
791	0.3955	2.15625	12.4555555556	3.13333333333	-0.0709677419355
792	0.396	-5.078125	-5.01111111111	4.56666666667	1.37741935484
793	0.3965	-9.41875	-0.644444444444	1.7	-0.0709677419355
794	0.397	-6.525	-0.644444444444	0.266666666667	10.0677419355
795	0.3975	-0.7375	0.811111111111	-1.16666666667	-10.2096774194
796	0.398	-2.184375	-2.1	0.266666666667	-11.6580645161
797	0.3985	-2.184375	0.811111111111	-11.2	-1.51935483871
798	0.399	-3.63125	-12.2888888889	4.56666666667	-1.51935483871
799	0.3995	0.709375	-10.8333333333	3.13333333333	1.37741935484
800	0.4	0.709375	-5.01111111111	3.13333333333	2.82580645161
801	0.4005	10.8375	-0.644444444444	3.13333333333	1.37741935484
802	0.401	-9.41875	-0.644444444444	1.7	1.37741935484
803	0.4015	-0.7375	-0.644444444444	6.0	4.27419354839
804	0.402	0.709375	-0.644444444444	4.56666666667	1.37741935484
805	0.4025	-2.184375	-0.644444444444	8.86666666667	-0.0709677419355
806	0.403	-0.7375	2.26666666667	3.13333333333	-0.0709677419355
807	0.4035	-0.7375	15.3666666667	1.7	2.82580645161
808	0.404	-3.63125	-0.644444444444	0.266666666667	1.37741935484
809	0.4045	-9.41875	0.811111111111	3.13333333333	-1.51935483871
810	0.405	-2.184375	-0.644444444444	0.266666666667	-7.31290322581
811	0.4055	-3.63125	0.811111111111	-1.16666666667	12.964516129
812	0.406	-0.7375	3.72222222222	0.266666666667	-0.0709677419355
813	0.4065	-0.7375	-13.7444444444	1.7	-0.0709677419355
814	0.407	0.709375	-10.8333333333	3.13333333333	1.37741935484
815	0.4075	0.709375	-3.55555555556	0.266666666667	1.37741935484
816	0.408	2.15625	0.811111111111	3.13333333333	1.37741935484
817	0.4085	-5.078125	-0.644444444444	4.56666666667	18.7580645161
818	0.409	0.709375	-2.1	20.3333333333	1.37741935484
819	0.4095	0.709375	-2.1	20.3333333333	1.37741935484
820	0.41	-0.7375	3.72222222222	0.266666666667	-0.0709677419355
821	0.4105	-5.078125	-5.01111111111	-1.16666666667	-0.0709677419355
822	0.411	2.15625	-0.644444444444	-1.16666666667	2.82580645161
823	0.4115	9.390625	-2.1	-2.6	2.82580645161
824	0.412	10.8375	-0.644444444444	1.7	-1.51935483871
825	0.4125	-0.7375	-0.644444444444	-11.2	-0.0709677419355
826	0.413	-0.7375	-0.644444444444	3.13333333333	12.964516129
827	0.4135	-0.7375	-2.1	-1.16666666667	1.37741935484
828	0.414	0.709375	-3.55555555556	1.7	1.37741935484
829	0.4145	3.603125	-3.55555555556	-1.16666666667	-1.51935483871
830	0.415	-7.971875	0.811111111111	0.266666666667	-2.96774193548
831	0.4155	10.8375	0.811111111111	0.266666666667	-0.0709677419355
832	0.416	-0.7375	0.811111111111	-1.16666666667	-0.0709677419355
833	0.4165	0.709375	0.811111111111	16.0333333333	-0.0709677419355
834	0.417	-0.7375	-2.1	-8.33333333333	1.37741935484
835	0.4175	0.709375	0.811111111111	1.7	1.37741935484
836	0.418	0.709375	-12.2888888889	0.266666666667	-0.0709677419355
837	0.4185	3.603125	-2.1	0.266666666667	-0.0709677419355
838	0.419	-7.971875	-3.55555555556	1.7	-1.51935483871
839	0.4195	-2.184375	-3.55555555556	0.266666666667	-1.51935483871
840	0.42	0.709375	-0.644444444444	-1.16666666667	4.27419354839
841	0.4205	-0.7375	2.26666666667	-2.6	-0.0709677419355
842	0.421	-0.7375	-9.37777777778	0.266666666667	-0.0709677419355
843	0.4215	0.709375	-2.1	1.7	-0.0709677419355
844	0.422	-2.184375	-0.644444444444	0.266666666667	-0.0709677419355
845	0.4225	16.625	-0.644444444444	3.13333333333	-5.86451612903
846	0.423	0.709375	0.811111111111	3.13333333333	2.82580645161
847	0.4235	0.709375	-0.644444444444	6.0	-1.51935483871
848	0.424	-2.184375	-2.1	13.1666666667	-0.0709677419355
849	0.4245	-2.184375	3.72222222222	6.0	-0.0709677419355
850	0.425	-3.63125	2.26666666667	0.266666666667	2.82580645161
851	0.4255	-10.865625	-2.1	0.266666666667	1.37741935484
852	0.426	-6.525	-0.644444444444	1.7	-0.0709677419355
853	0.4265	-10.865625	-2.1	4.56666666667	20.2064516129
854	0.427	-2.184375	-2.1	4.56666666667	-8.76129032258
855	0.4275	-3.63125	0.811111111111	-12.6333333333	-4.41612903226
856	0.428	-2.184375	2.26666666667	0.266666666667	-1.51935483871
857	0.4285	-0.7375	-12.2888888889	0.266666666667	2.82580645161
858	0.429	3.603125	0.811111111111	1.7	-0.0709677419355
859	0.4295	5.05	0.811111111111	1.7	-2.96774193548
860	0.43	3.603125	-0.644444444444	1.7	-0.0709677419355
861	0.4305	-0.7375	0.811111111111	-1.16666666667	15.8612903226
862	0.431	-0.7375	0.811111111111	20.3333333333	-2.96774193548
863	0.4315	-0.7375	-2.1	0.266666666667	1.37741935484
864	0.432	-0.7375	-0.644444444444	1.7	-0.0709677419355
865	0.4325	-0.7375	-6.46666666667	-1.16666666667	-1.51935483871
866	0.433	13.73125	0.811111111111	-1.16666666667	-1.51935483871
867	0.4335	12.284375	0.811111111111	1.7	-8.76129032258
868	0.434	5.05	-0.644444444444	-1.16666666667	-7.31290322581
869	0.4345	3.603125	0.811111111111	0.266666666667	10.0677419355
870	0.435	0.709375	-0.644444444444	8.86666666667	-0.0709677419355
871	0.4355	-0.7375	-6.46666666667	0.266666666667	4.27419354839
872	0.436	0.709375	-5.01111111111	4.56666666667	-0.0709677419355
873	0.4365	-2.184375	0.811111111111	3.13333333333	1.37741935484
874	0.437	-13.759375	-2.1	0.266666666667	4.27419354839
875	0.4375	-7.971875	-2.1	1.7	-0.0709677419355
876	0.438	-0.7375	-0.644444444444	1.7	10.0677419355
877	0.4385	0.709375	-3.55555555556	3.13333333333	2.82580645161
878	0.439	2.15625	-6.46666666667	-1.16666666667	1.37741935484
879	0.4395	0.709375	15.3666666667	0.266666666667	-0.0709677419355
880	0.44	-0.7375	0.811111111111	1.7	-0.0709677419355
881	0.4405	-12.3125	-0.644444444444	0.266666666667	1.37741935484
882	0.441	0.709375	-2.1	0.266666666667	1.37741935484
883	0.4415	-0.7375	-2.1	3.13333333333	-1.51935483871
884	0.442	0.709375	-0.644444444444	1.7	8.61935483871
885	0.4425	0.709375	-0.644444444444	13.1666666667	-0.0709677419355
886	0.443	-0.7375	-2.1	1.7	1.37741935484
887	0.4435	0.709375	16.8222222222	0.266666666667	-1.51935483871
888	0.444	-12.3125	0.811111111111	1.7	4.27419354839
889	0.4445	-9.41875	-2.1	3.13333333333	-7.31290322581
890	0.445	-3.63125	-0.644444444444	0.266666666667	-4.41612903226
891	0.4455	-0.7375	0.811111111111	1.7	-0.0709677419355
892	0.446	-0.7375	0.811111111111	1.7	2.82580645161
893	0.4465	0.709375	-5.01111111111	4.56666666667	2.82580645161
894	0.447	0.709375	-7.92222222222	3.13333333333	-0.0709677419355
895	0.4475	0.709375	0.811111111111	4.56666666667	1.37741935484
896	0.448	-13.759375	0.811111111111	3.13333333333	4.27419354839
897	0.4485	2.15625	0.811111111111	4.56666666667	-2.96774193548
898	0.449	0.709375	-0.644444444444	4.56666666667	-4.41612903226
899	0.4495	-2.184375	-2.1	-6.9	-5.86451612903
900	0.45	-2.184375	-9.37777777778	-2.6	-0.0709677419355
901	0.4505	0.709375	8.08888888889	1.7	-0.0709677419355
902	0.451	-3.63125	-10.8333333333	0.266666666667	-0.0709677419355
903	0.4515	19.51875	-2.1	1.7	-10.2096774194
904	0.452	-3.63125	0.811111111111	3.13333333333	8.61935483871
905	0.4525	-0.7375	0.811111111111	0.266666666667	1.37741935484
906	0.453	-0.7375	0.811111111111	-1.16666666667	-1.51935483871
907	0.4535	0.709375	-0.644444444444	-6.9	-0.0709677419355
908	0.454	0.709375	16.8222222222	0.266666666667	-1.51935483871
909	0.4545	-3.63125	-10.8333333333	3.13333333333	-0.0709677419355
910	0.455	3.603125	-9.37777777778	0.266666666667	-0.0709677419355
911	0.4555	16.625	-0.644444444444	-1.16666666667	1.37741935484
912	0.456	0.709375	-0.644444444444	3.13333333333	-4.41612903226
913	0.4565	-2.184375	0.811111111111	-5.46666666667	-0.0709677419355
914	0.457	-3.63125	-0.644444444444	0.266666666667	-0.0709677419355
915	0.4575	-0.7375	2.26666666667	1.7	-0.0709677419355
916	0.458	0.709375	8.08888888889	1.7	-0.0709677419355
917	0.4585	-0.7375	0.811111111111	1.7	-0.0709677419355
918	0.459	16.625	-3.55555555556	-1.16666666667	-0.0709677419355
919	0.4595	-5.078125	0.811111111111	-1.16666666667	-5.86451612903
920	0.46	-2.184375	-0.644444444444	-2.6	12.964516129
921	0.4605	-0.7375	-3.55555555556	13.1666666667	-1.51935483871
922	0.461	-3.63125	-10.8333333333	-1.16666666667	-1.51935483871
923	0.4615	0.709375	8.08888888889	0.266666666667	-0.0709677419355
924	0.462	-9.41875	-0.644444444444	-1.16666666667	4.27419354839
925	0.4625	12.284375	-2.1	0.266666666667	-1.51935483871
926	0.463	-9.41875	-2.1	0.266666666667	5.72258064516
927	0.4635	-5.078125	0.811111111111	0.266666666667	-13.1064516129
928	0.464	0.709375	2.26666666667	-12.6333333333	-0.0709677419355
929	0.4645	-0.7375	0.811111111111	-1.16666666667	1.37741935484
930	0.465	0.709375	-10.8333333333	0.266666666667	2.82580645161
931	0.4655	3.603125	-5.01111111111	-1.16666666667	2.82580645161
932	0.466	-5.078125	0.811111111111	4.56666666667	1.37741935484
933	0.4665	0.709375	-2.1	-1.16666666667	15.8612903226
934	0.467	-0.7375	-0.644444444444	0.266666666667	15.8612903226
935	0.4675	0.709375	-0.644444444444	3.13333333333	-7.31290322581
936	0.468	-0.7375	-5.01111111111	-6.9	1.37741935484
937	0.4685	-0.7375	2.26666666667	3.13333333333	2.82580645161
938	0.469	-2.184375	-7.92222222222	0.266666666667	4.27419354839
939	0.4695	19.51875	0.811111111111	1.7	5.72258064516
940	0.47	-7.971875	-2.1	0.266666666667	5.72258064516
941	0.4705	-2.184375	-2.1	-1.16666666667	-5.86451612903
942	0.471	0.709375	2.26666666667	-6.9	-0.0709677419355
943	0.4715	-0.7375	6.63333333333	1.7	2.82580645161
944	0.472	-0.7375	-10.8333333333	-2.6	1.37741935484
945	0.4725	-2.184375	0.811111111111	1.7	1.37741935484
946	0.473	2.15625	0.811111111111	-1.16666666667	2.82580645161
947	0.4735	10.8375	-2.1	1.7	-0.0709677419355
948	0.474	-3.63125	0.811111111111	-1.16666666667	21.6548387097
949	0.4745	3.603125	-0.644444444444	17.4666666667	2.82580645161
950	0.475	-2.184375	-3.55555555556	16.0333333333	1.37741935484
951	0.4755	0.709375	-12.2888888889	-1.16666666667	1.37741935484
952	0.476	0.709375	13.9111111111	0.266666666667	-0.0709677419355
953	0.4765	-13.759375	-2.1	-1.16666666667	4.27419354839
954	0.477	-6.525	-0.644444444444	1.7	-4.41612903226
955	0.4775	-5.078125	-2.1	-1.16666666667	-0.0709677419355
956	0.478	-0.7375	-2.1	-4.03333333333	-1.51935483871
957	0.4785	-0.7375	-0.644444444444	-2.6	4.27419354839
958	0.479	2.15625	0.811111111111	3.13333333333	2.82580645161
959	0.4795	-3.63125	-9.37777777778	3.13333333333	2.82580645161
960	0.48	2.15625	-0.644444444444	1.7	1.37741935484
961	0.4805	19.51875	-2.1	0.266666666667	8.61935483871
962	0.481	-7.971875	-0.644444444444	1.7	8.61935483871
963	0.4815	-0.7375	0.811111111111	20.3333333333	-0.0709677419355
964	0.482	0.709375	-3.55555555556	-4.03333333333	5.72258064516
965	0.4825	0.709375	3.72222222222	-4.03333333333	2.82580645161
966	0.483	-2.184375	18.2777777778	4.56666666667	1.37741935484
967	0.4835	0.709375	-7.92222222222	3.13333333333	5.72258064516
968	0.484	-12.3125	0.811111111111	0.266666666667	4.27419354839
969	0.4845	-0.7375	-2.1	4.56666666667	1.37741935484
970	0.485	-3.63125	-0.644444444444	6.0	7.17096774194
971	0.4855	-2.184375	-0.644444444444	-6.9	-0.0709677419355
972	0.486	-0.7375	-9.37777777778	-1.16666666667	2.82580645161
973	0.4865	-0.7375	-10.8333333333	0.266666666667	2.82580645161
974	0.487	-0.7375	6.63333333333	-1.16666666667	7.17096774194
975	0.4875	-5.078125	-0.644444444444	3.13333333333	-7.31290322581
976	0.488	-3.63125	0.811111111111	7.43333333333	-0.0709677419355
977	0.4885	-0.7375	-0.644444444444	0.266666666667	2.82580645161
978	0.489	-0.7375	2.26666666667	0.266666666667	-0.0709677419355
979	0.4895	0.709375	0.811111111111	-2.6	2.82580645161
980	0.49	-0.7375	-5.01111111111	0.266666666667	2.82580645161
981	0.4905	0.709375	-9.37777777778	3.13333333333	4.27419354839
982	0.491	15.178125	-2.1	3.13333333333	5.72258064516
983	0.4915	-12.3125	-0.644444444444	3.13333333333	7.17096774194
984	0.492	-3.63125	-2.1	-1.16666666667	-4.41612903226
985	0.4925	-2.184375	-2.1	-12.6333333333	-1.51935483871
986	0.493	-0.7375	0.811111111111	-8.33333333333	2.82580645161
987	0.4935	-0.7375	-10.8333333333	-1.16666666667	1.37741935484
988	0.494	3.603125	-0.644444444444	4.56666666667	2.82580645161
989	0.4945	-12.3125	0.811111111111	1.7	1.37741935484
990	0.495	-2.184375	0.811111111111	1.7	1.37741935484
991	0.4955	-0.7375	-3.55555555556	-2.6	1.37741935484
992	0.496	0.709375	-2.1	0.266666666667	-5.86451612903
993	0.4965	-0.7375	-2.1	-4.03333333333	4.27419354839
994	0.497	0.709375	3.72222222222	-2.6	-0.0709677419355
995	0.4975	-3.63125	-0.644444444444	3.13333333333	1.37741935484
996	0.498	-15.20625	0.811111111111	0.266666666667	-1.51935483871
997	0.4985	2.15625	-2.1	0.266666666667	1.37741935484
998	0.499	-0.7375	0.811111111111	6.0	-13.1064516129
999	0.4995	-0.7375	0.811111111111	-6.9	-1.51935483871
1000	0.5	2.15625	0.811111111111	-4.03333333333	2.82580645161
1001	0.5005	-2.184375	2.26666666667	0.266666666667	1.37741935484
1002	0.501	-3.63125	-0.644444444444	-1.16666666667	4.27419354839
1003	0.5015	0.709375	6.63333333333	4.56666666667	-0.0709677419355
1004	0.502	-2.184375	-0.644444444444	3.13333333333	1.37741935484
1005	0.5025	2.15625	-0.644444444444	-1.16666666667	2.82580645161
1006	0.503	-0.7375	-0.644444444444	3.13333333333	-1.51935483871
1007	0.5035	-2.184375	-0.644444444444	4.56666666667	-5.86451612903
1008	0.504	-0.7375	-12.2888888889	4.56666666667	-1.51935483871
1009	0.5045	3.603125	18.2777777778	7.43333333333	1.37741935484
1010	0.505	-2.184375	18.2777777778	7.43333333333	-2.96774193548
1011	0.5055	-15.20625	0.811111111111	10.3	-4.41612903226
1012	0.506	-2.184375	-0.644444444444	-1.16666666667	2.82580645161
1013	0.5065	0.709375	-2.1	-2.6	-8.76129032258
1014	0.507	-2.184375	3.72222222222	-21.2333333333	-0.0709677419355
1015	0.5075	-2.184375	3.72222222222	-8.33333333333	-0.0709677419355
1016	0.508	-3.63125	-10.8333333333	-8.33333333333	-0.0709677419355
1017	0.5085	2.15625	0.811111111111	-32.7	-1.51935483871
1018	0.509	16.625	-0.644444444444	-42.7333333333	2.82580645161
1019	0.5095	-10.865625	0.811111111111	-21.2333333333	17.3096774194
1020	0.51	-3.63125	-0.644444444444	-6.9	-10.2096774194
1021	0.5105	-0.7375	0.811111111111	-9.76666666667	-0.0709677419355
1022	0.511	-0.7375	-3.55555555556	-9.76666666667	-0.0709677419355
1023	0.5115	-0.7375	-0.644444444444	-2.6	1.37741935484
1024	0.512	2.15625	-5.01111111111	-2.6	-0.0709677419355
1025	0.5125	-5.078125	-2.1	0.266666666667	-7.31290322581
1026	0.513	-5.078125	-0.644444444444	-1.16666666667	1.37741935484
1027	0.5135	-2.184375	0.811111111111	0.266666666667	-0.0709677419355
1028	0.514	-0.7375	-0.644444444444	0.266666666667	-0.0709677419355
1029	0.5145	-0.7375	0.811111111111	-1.16666666667	1.37741935484
1030	0.515	-2.184375	2.26666666667	-4.03333333333	-0.0709677419355
1031	0.5155	0.709375	-2.1	0.266666666667	-0.0709677419355
1032	0.516	3.603125	0.811111111111	0.266666666667	-0.0709677419355
1033	0.5165	3.603125	-0.644444444444	-1.16666666667	-0.0709677419355
1034	0.517	-2.184375	0.811111111111	3.13333333333	14.4129032258
1035	0.5175	-2.184375	-0.644444444444	0.266666666667	-8.76129032258
1036	0.518	0.709375	-2.1	-9.76666666667	-2.96774193548
1037	0.5185	3.603125	16.8222222222	-2.6	-0.0709677419355
1038	0.519	0.709375	-7.92222222222	0.266666666667	-1.51935483871
1039	0.5195	16.625	0.811111111111	-1.16666666667	-0.0709677419355
1040	0.52	-10.865625	-3.55555555556	-1.16666666667	2.82580645161
1041	0.5205	0.709375	-0.644444444444	1.7	-0.0709677419355
1042	0.521	-2.184375	-2.1	-11.2	-0.0709677419355
1043	0.5215	-0.7375	2.26666666667	-4.03333333333	-1.51935483871
1044	0.522	-2.184375	8.08888888889	1.7	1.37741935484
1045	0.5225	-2.184375	0.811111111111	3.13333333333	-0.0709677419355
1046	0.523	-0.7375	8.08888888889	1.7	-0.0709677419355
1047	0.5235	7.94375	-0.644444444444	3.13333333333	1.37741935484
1048	0.524	-0.7375	0.811111111111	-1.16666666667	18.7580645161
1049	0.5245	-0.7375	-2.1	4.56666666667	15.8612903226
1050	0.525	-2.184375	-2.1	17.4666666667	-0.0709677419355
1051	0.5255	0.709375	2.26666666667	-6.9	1.37741935484
1052	0.526	-3.63125	-10.8333333333	3.13333333333	-0.0709677419355
1053	0.5265	5.05	-5.01111111111	4.56666666667	-0.0709677419355
1054	0.527	-12.3125	-2.1	4.56666666667	-0.0709677419355
1055	0.5275	0.709375	0.811111111111	4.56666666667	7.17096774194
1056	0.528	-0.7375	-0.644444444444	-2.6	14.4129032258
1057	0.5285	-3.63125	-0.644444444444	17.4666666667	-1.51935483871
1058	0.529	-0.7375	-5.01111111111	-5.46666666667	-0.0709677419355
1059	0.5295	-2.184375	3.72222222222	3.13333333333	-0.0709677419355
1060	0.53	-3.63125	-6.46666666667	0.266666666667	1.37741935484
1061	0.5305	0.709375	-3.55555555556	1.7	-2.96774193548
1062	0.531	-0.7375	0.811111111111	-2.6	2.82580645161
1063	0.5315	-2.184375	-2.1	3.13333333333	-1.51935483871
1064	0.532	0.709375	-2.1	4.56666666667	-5.86451612903
1065	0.5325	-0.7375	0.811111111111	-6.9	-0.0709677419355
1066	0.533	-0.7375	0.811111111111	0.266666666667	-0.0709677419355
1067	0.5335	0.709375	-13.7444444444	-1.16666666667	-0.0709677419355
1068	0.534	3.603125	-3.55555555556	1.7	1.37741935484
1069	0.5345	-13.759375	-0.644444444444	3.13333333333	4.27419354839
1070	0.535	-2.184375	0.811111111111	1.7	12.964516129
1071	0.5355	-0.7375	-0.644444444444	-4.03333333333	1.37741935484
1072	0.536	2.15625	0.811111111111	17.4666666667	1.37741935484
1073	0.5365	0.709375	-5.01111111111	17.4666666667	1.37741935484
1074	0.537	0.709375	-15.2	1.7	-0.0709677419355
1075	0.5375	-2.184375	11.0	0.266666666667	-1.51935483871
1076	0.538	-13.759375	-0.644444444444	0.266666666667	-4.41612903226
1077	0.5385	12.284375	-2.1	0.266666666667	-0.0709677419355
1078	0.539	0.709375	-0.644444444444	1.7	-0.0709677419355
1079	0.5395	-2.184375	-0.644444444444	4.56666666667	-1.51935483871
1080	0.54	-0.7375	-0.644444444444	-5.46666666667	10.0677419355
1081	0.5405	-0.7375	6.63333333333	1.7	-0.0709677419355
1082	0.541	-2.184375	2.26666666667	3.13333333333	-2.96774193548
1083	0.5415	2.15625	-3.55555555556	0.266666666667	-2.96774193548
1084	0.542	7.94375	-2.1	0.266666666667	-1.51935483871
1085	0.5425	2.15625	-2.1	0.266666666667	-0.0709677419355
1086	0.543	-2.184375	-2.1	3.13333333333	1.37741935484
1087	0.5435	-0.7375	-0.644444444444	18.9	1.37741935484
1088	0.544	-2.184375	-9.37777777778	0.266666666667	1.37741935484
1089	0.5445	2.15625	18.2777777778	0.266666666667	2.82580645161
1090	0.545	-2.184375	18.2777777778	1.7	-0.0709677419355
1091	0.5455	20.965625	-2.1	0.266666666667	-0.0709677419355
1092	0.546	-0.7375	-3.55555555556	-1.16666666667	11.5161290323
1093	0.5465	-2.184375	-0.644444444444	0.266666666667	5.72258064516
1094	0.547	-2.184375	0.811111111111	7.43333333333	-2.96774193548
1095	0.5475	-3.63125	-0.644444444444	7.43333333333	-1.51935483871
1096	0.548	-0.7375	-3.55555555556	1.7	1.37741935484
1097	0.5485	-0.7375	11.0	1.7	-0.0709677419355
1098	0.549	-2.184375	-7.92222222222	-1.16666666667	-0.0709677419355
1099	0.5495	16.625	0.811111111111	1.7	2.82580645161
1100	0.55	0.709375	-0.644444444444	0.266666666667	-11.6580645161
1101	0.5505	-5.078125	2.26666666667	-8.33333333333	1.37741935484
1102	0.551	-0.7375	0.811111111111	-2.6	-0.0709677419355
1103	0.5515	-0.7375	11.0	3.13333333333	-1.51935483871
1104	0.552	-0.7375	-0.644444444444	1.7	-0.0709677419355
1105	0.5525	9.390625	-2.1	0.266666666667	1.37741935484
1106	0.553	9.390625	-2.1	1.7	-1.51935483871
1107	0.5535	2.15625	-0.644444444444	0.266666666667	18.7580645161
1108	0.554	-2.184375	0.811111111111	-1.16666666667	15.8612903226
1109	0.5545	-0.7375	-0.644444444444	1.7	1.37741935484
1110	0.555	0.709375	-9.37777777778	1.7	-1.51935483871
1111	0.5555	3.603125	19.7333333333	1.7	1.37741935484
1112	0.556	-3.63125	18.2777777778	-1.16666666667	-0.0709677419355
1113	0.5565	-6.525	-0.644444444444	3.13333333333	-10.2096774194
1114	0.557	-3.63125	0.811111111111	3.13333333333	-1.51935483871
1115	0.5575	0.709375	0.811111111111	-6.9	-2.96774193548
1116	0.558	-3.63125	0.811111111111	-1.16666666667	-5.86451612903
1117	0.5585	0.709375	-0.644444444444	0.266666666667	-0.0709677419355
1118	0.559	-0.7375	8.08888888889	0.266666666667	-0.0709677419355
1119	0.5595	-2.184375	-7.92222222222	1.7	-2.96774193548
1120	0.56	20.965625	0.811111111111	-1.16666666667	1.37741935484
1121	0.5605	-10.865625	0.811111111111	0.266666666667	14.4129032258
1122	0.561	-3.63125	-2.1	4.56666666667	-5.86451612903
1123	0.5615	-2.184375	-0.644444444444	-1.16666666667	-4.41612903226
1124	0.562	-0.7375	-0.644444444444	-5.46666666667	-0.0709677419355
1125	0.5625	-0.7375	-2.1	1.7	-4.41612903226
1126	0.563	-2.184375	18.2777777778	-1.16666666667	-2.96774193548
1127	0.5635	0.709375	-7.92222222222	4.56666666667	-1.51935483871
1128	0.564	19.51875	-0.644444444444	1.7	1.37741935484
1129	0.5645	-3.63125	-0.644444444444	4.56666666667	2.82580645161
1130	0.565	-2.184375	0.811111111111	6.0	14.4129032258
1131	0.5655	-2.184375	0.811111111111	4.56666666667	-8.76129032258
1132	0.566	0.709375	0.811111111111	-6.9	1.37741935484
1133	0.5665	-0.7375	18.2777777778	0.266666666667	2.82580645161
1134	0.567	-3.63125	-7.92222222222	-1.16666666667	1.37741935484
1135	0.5675	3.603125	-2.1	1.7	-0.0709677419355
1136	0.568	-2.184375	0.811111111111	3.13333333333	2.82580645161
1137	0.5685	0.709375	-2.1	4.56666666667	5.72258064516
1138	0.569	-0.7375	0.811111111111	-5.46666666667	8.61935483871
1139	0.5695	0.709375	-2.1	8.86666666667	-0.0709677419355
1140	0.57	2.15625	0.811111111111	-1.16666666667	-0.0709677419355
1141	0.5705	2.15625	15.3666666667	1.7	1.37741935484
1142	0.571	-3.63125	-2.1	0.266666666667	-0.0709677419355
1143	0.5715	-6.525	-0.644444444444	1.7	-7.31290322581
1144	0.572	-0.7375	-0.644444444444	-1.16666666667	-7.31290322581
1145	0.5725	-0.7375	0.811111111111	-2.6	-0.0709677419355
1146	0.573	0.709375	-0.644444444444	-9.76666666667	-0.0709677419355
1147	0.5735	-0.7375	0.811111111111	16.0333333333	-1.51935483871
1148	0.574	2.15625	-10.8333333333	0.266666666667	2.82580645161
1149	0.5745	3.603125	-0.644444444444	0.266666666667	-0.0709677419355
1150	0.575	-12.3125	0.811111111111	3.13333333333	2.82580645161
1151	0.5755	0.709375	0.811111111111	4.56666666667	-8.76129032258
1152	0.576	-0.7375	2.26666666667	-5.46666666667	-2.96774193548
1153	0.5765	2.15625	0.811111111111	8.86666666667	-0.0709677419355
1154	0.577	-0.7375	0.811111111111	14.6	-0.0709677419355
1155	0.5775	0.709375	8.08888888889	0.266666666667	-0.0709677419355
1156	0.578	2.15625	0.811111111111	-1.16666666667	-1.51935483871
1157	0.5785	-0.7375	-2.1	0.266666666667	-0.0709677419355
1158	0.579	13.73125	-0.644444444444	0.266666666667	-0.0709677419355
1159	0.5795	2.15625	0.811111111111	0.266666666667	20.2064516129
1160	0.58	2.15625	-2.1	4.56666666667	-8.76129032258
1161	0.5805	-0.7375	-2.1	-5.46666666667	1.37741935484
1162	0.581	0.709375	18.2777777778	-1.16666666667	-1.51935483871
1163	0.5815	-3.63125	-3.55555555556	0.266666666667	-0.0709677419355
1164	0.582	-12.3125	-0.644444444444	0.266666666667	-1.51935483871
1165	0.5825	18.071875	-0.644444444444	1.7	-0.0709677419355
1166	0.583	-0.7375	0.811111111111	-1.16666666667	-5.86451612903
1167	0.5835	0.709375	0.811111111111	3.13333333333	-4.41612903226
1168	0.584	-2.184375	-2.1	-2.6	1.37741935484
1169	0.5845	0.709375	-6.46666666667	1.7	-0.0709677419355
1170	0.585	-2.184375	-12.2888888889	3.13333333333	2.82580645161
1171	0.5855	3.603125	-2.1	1.7	1.37741935484
1172	0.586	-7.971875	-0.644444444444	3.13333333333	-7.31290322581
1173	0.5865	-0.7375	0.811111111111	1.7	-0.0709677419355
1174	0.587	0.709375	-0.644444444444	1.7	-2.96774193548
1175	0.5875	0.709375	0.811111111111	-5.46666666667	-0.0709677419355
1176	0.588	2.15625	-0.644444444444	18.9	1.37741935484
1177	0.5885	0.709375	-5.01111111111	0.266666666667	1.37741935484
1178	0.589	0.709375	-0.644444444444	-1.16666666667	1.37741935484
1179	0.5895	-13.759375	-3.55555555556	0.266666666667	2.82580645161
1180	0.59	-5.078125	-0.644444444444	0.266666666667	2.82580645161
1181	0.5905	-2.184375	-0.644444444444	4.56666666667	-0.0709677419355
1182	0.591	-0.7375	-0.644444444444	1.7	2.82580645161
1183	0.5915	0.709375	0.811111111111	-4.03333333333	4.27419354839
1184	0.592	0.709375	-12.2888888889	0.266666666667	1.37741935484
1185	0.5925	0.709375	-3.55555555556	0.266666666667	1.37741935484
1186	0.593	3.603125	-6.46666666667	1.7	1.37741935484
1187	0.5935	10.8375	-0.644444444444	1.7	4.27419354839
1188	0.594	-9.41875	-0.644444444444	4.56666666667	20.2064516129
1189	0.5945	0.709375	-0.644444444444	21.7666666667	1.37741935484
1190	0.595	0.709375	-0.644444444444	-8.33333333333	-0.0709677419355
1191	0.5955	0.709375	2.26666666667	1.7	-1.51935483871
1192	0.596	0.709375	6.63333333333	-1.16666666667	-0.0709677419355
1193	0.5965	-5.078125	-0.644444444444	1.7	1.37741935484
1194	0.597	18.071875	-2.1	3.13333333333	7.17096774194
1195	0.5975	-9.41875	-2.1	4.56666666667	12.964516129
1196	0.598	-0.7375	-2.1	1.7	1.37741935484
1197	0.5985	0.709375	3.72222222222	-1.16666666667	-5.86451612903
1198	0.599	3.603125	-3.55555555556	-6.9	2.82580645161
1199	0.5995	2.15625	13.9111111111	1.7	5.72258064516
1200	0.6	0.709375	-5.01111111111	1.7	-0.0709677419355
1201	0.6005	-5.078125	0.811111111111	1.7	1.37741935484
1202	0.601	-7.971875	-0.644444444444	1.7	1.37741935484
1203	0.6015	0.709375	0.811111111111	3.13333333333	-10.2096774194
1204	0.602	0.709375	-2.1	-12.6333333333	2.82580645161
1205	0.6025	-0.7375	-0.644444444444	3.13333333333	2.82580645161
1206	0.603	-0.7375	0.811111111111	1.7	2.82580645161
1207	0.6035	2.15625	16.8222222222	1.7	4.27419354839
1208	0.604	-2.184375	-2.1	1.7	2.82580645161
1209	0.6045	-10.865625	-0.644444444444	1.7	1.37741935484
1210	0.605	-0.7375	-2.1	1.7	8.61935483871
1211	0.6055	0.709375	-0.644444444444	-2.6	-2.96774193548
1212	0.606	0.709375	0.811111111111	-4.03333333333	-8.76129032258
1213	0.6065	0.709375	0.811111111111	-4.03333333333	2.82580645161
1214	0.607	-0.7375	-10.8333333333	3.13333333333	1.37741935484
1215	0.6075	-0.7375	-7.92222222222	1.7	1.37741935484
1216	0.608	-10.865625	-2.1	-1.16666666667	1.37741935484
1217	0.6085	-10.865625	-3.55555555556	0.266666666667	-1.51935483871
1218	0.609	-2.184375	-0.644444444444	-2.6	-7.31290322581
1219	0.6095	0.709375	-0.644444444444	14.6	-0.0709677419355
1220	0.61	2.15625	-2.1	-1.16666666667	-0.0709677419355
1221	0.6105	0.709375	-10.8333333333	3.13333333333	1.37741935484
1222	0.611	0.709375	16.8222222222	3.13333333333	1.37741935484
1223	0.6115	-13.759375	-2.1	1.7	5.72258064516
1224	0.612	-6.525	0.811111111111	3.13333333333	-8.76129032258
1225	0.6125	-0.7375	0.811111111111	-2.6	-8.76129032258
1226	0.613	2.15625	0.811111111111	-11.2	-0.0709677419355
1227	0.6135	0.709375	2.26666666667	11.7333333333	-1.51935483871
1228	0.614	0.709375	-0.644444444444	-4.03333333333	2.82580645161
1229	0.6145	2.15625	2.26666666667	-1.16666666667	1.37741935484
1230	0.615	5.05	0.811111111111	1.7	-0.0709677419355
1231	0.6155	19.51875	-2.1	3.13333333333	4.27419354839
1232	0.616	-10.865625	-0.644444444444	4.56666666667	1.37741935484
1233	0.6165	-3.63125	-0.644444444444	-6.9	-1.51935483871
1234	0.617	-0.7375	-0.644444444444	-1.16666666667	4.27419354839
1235	0.6175	0.709375	0.811111111111	13.1666666667	-0.0709677419355
1236	0.618	0.709375	-5.01111111111	1.7	-0.0709677419355
1237	0.6185	7.94375	-2.1	1.7	2.82580645161
1238	0.619	-9.41875	-0.644444444444	-1.16666666667	-0.0709677419355
1239	0.6195	-0.7375	0.811111111111	0.266666666667	-8.76129032258
1240	0.62	-0.7375	-2.1	-6.9	5.72258064516
1241	0.6205	0.709375	2.26666666667	4.56666666667	-0.0709677419355
1242	0.621	-2.184375	-0.644444444444	-4.03333333333	1.37741935484
1243	0.6215	-0.7375	-5.01111111111	0.266666666667	2.82580645161
1244	0.622	-2.184375	-2.1	0.266666666667	1.37741935484
1245	0.6225	-0.7375	0.811111111111	0.266666666667	-0.0709677419355
1246	0.623	12.284375	-0.644444444444	-1.16666666667	-1.51935483871
1247	0.6235	-2.184375	0.811111111111	-1.16666666667	18.7580645161
1248	0.624	-3.63125	0.811111111111	14.6	1.37741935484
1249	0.6245	0.709375	-3.55555555556	20.3333333333	4.27419354839
1250	0.625	-0.7375	-10.8333333333	3.13333333333	-0.0709677419355
1251	0.6255	-0.7375	16.8222222222	3.13333333333	-2.96774193548
1252	0.626	-16.653125	-0.644444444444	3.13333333333	1.37741935484
1253	0.6265	-10.865625	0.811111111111	3.13333333333	-0.0709677419355
1254	0.627	-0.7375	0.811111111111	-1.16666666667	-0.0709677419355
1255	0.6275	2.15625	-2.1	-6.9	-4.41612903226
1256	0.628	2.15625	-0.644444444444	7.43333333333	-0.0709677419355
1257	0.6285	0.709375	-5.01111111111	1.7	-0.0709677419355
1258	0.629	0.709375	-5.01111111111	-1.16666666667	-1.51935483871
1259	0.6295	-5.078125	-2.1	1.7	-0.0709677419355
1260	0.63	-0.7375	-2.1	-1.16666666667	-5.86451612903
1261	0.6305	-5.078125	-2.1	0.266666666667	-0.0709677419355
1262	0.631	-0.7375	0.811111111111	-2.6	-0.0709677419355
1263	0.6315	-5.078125	-0.644444444444	-2.6	-1.51935483871
1264	0.632	-0.7375	-0.644444444444	4.56666666667	2.82580645161
1265	0.6325	-0.7375	-5.01111111111	1.7	-0.0709677419355
1266	0.633	0.709375	-13.7444444444	-1.16666666667	1.37741935484
1267	0.6335	19.51875	-2.1	0.266666666667	2.82580645161
1268	0.634	-7.971875	-0.644444444444	-1.16666666667	2.82580645161
1269	0.6345	-5.078125	-2.1	0.266666666667	-7.31290322581
1270	0.635	-0.7375	2.26666666667	-2.6	-0.0709677419355
1271	0.6355	-0.7375	-0.644444444444	14.6	-4.41612903226
1272	0.636	0.709375	-0.644444444444	3.13333333333	-0.0709677419355
1273	0.6365	-3.63125	-2.1	1.7	-0.0709677419355
1274	0.637	-12.3125	-3.55555555556	0.266666666667	-0.0709677419355
1275	0.6375	16.625	-0.644444444444	0.266666666667	1.37741935484
1276	0.638	0.709375	-0.644444444444	4.56666666667	4.27419354839
1277	0.6385	0.709375	0.811111111111	4.56666666667	7.17096774194
1278	0.639	2.15625	0.811111111111	-1.16666666667	-0.0709677419355
1279	0.6395	-2.184375	2.26666666667	-1.16666666667	2.82580645161
1280	0.64	-2.184375	8.08888888889	6.0	1.37741935484
1281	0.6405	-3.63125	0.811111111111	1.7	-0.0709677419355
1282	0.641	-6.525	-0.644444444444	0.266666666667	-5.86451612903
1283	0.6415	-0.7375	-0.644444444444	-4.03333333333	-10.2096774194
1284	0.642	-3.63125	0.811111111111	-9.76666666667	1.37741935484
1285	0.6425	2.15625	0.811111111111	13.1666666667	2.82580645161
1286	0.643	2.15625	-2.1	-8.33333333333	2.82580645161
1287	0.6435	0.709375	2.26666666667	1.7	1.37741935484
1288	0.644	-0.7375	-9.37777777778	-1.16666666667	2.82580645161
1289	0.6445	19.51875	2.26666666667	1.7	-8.76129032258
1290	0.645	0.709375	0.811111111111	-1.16666666667	18.7580645161
1291	0.6455	0.709375	-2.1	3.13333333333	15.8612903226
1292	0.646	-0.7375	0.811111111111	14.6	-0.0709677419355
1293	0.6465	0.709375	-10.8333333333	3.13333333333	-0.0709677419355
1294	0.647	2.15625	16.8222222222	1.7	-0.0709677419355
1295	0.6475	-3.63125	-3.55555555556	1.7	1.37741935484
1296	0.648	-13.759375	-3.55555555556	3.13333333333	-1.51935483871
1297	0.6485	-0.7375	0.811111111111	-1.16666666667	-1.51935483871
1298	0.649	0.709375	0.811111111111	-11.2	-1.51935483871
1299	0.6495	0.709375	-0.644444444444	-9.76666666667	-2.96774193548
1300	0.65	-0.7375	-2.1	11.7333333333	1.37741935484
1301	0.6505	0.709375	16.8222222222	0.266666666667	1.37741935484
1302	0.651	-0.7375	13.9111111111	0.266666666667	1.37741935484
1303	0.6515	-13.759375	-0.644444444444	1.7	-0.0709677419355
1304	0.652	-2.184375	-0.644444444444	-1.16666666667	-0.0709677419355
1305	0.6525	0.709375	-0.644444444444	-9.76666666667	-1.51935483871
1306	0.653	-0.7375	-2.1	3.13333333333	12.964516129
1307	0.6535	0.709375	-2.1	16.0333333333	1.37741935484
1308	0.654	5.05	18.2777777778	0.266666666667	-0.0709677419355
1309	0.6545	-2.184375	-0.644444444444	4.56666666667	-1.51935483871
1310	0.655	-9.41875	0.811111111111	1.7	-5.86451612903
1311	0.6555	19.51875	-2.1	1.7	-5.86451612903
1312	0.656	0.709375	-2.1	-4.03333333333	12.964516129
1313	0.6565	-0.7375	0.811111111111	6.0	-0.0709677419355
1314	0.657	2.15625	2.26666666667	1.7	4.27419354839
1315	0.6575	-0.7375	12.4555555556	-1.16666666667	-0.0709677419355
1316	0.658	-0.7375	2.26666666667	3.13333333333	-0.0709677419355
1317	0.6585	0.709375	0.811111111111	1.7	1.37741935484
1318	0.659	-2.184375	-2.1	1.7	-0.0709677419355
1319	0.6595	-0.7375	0.811111111111	-1.16666666667	-5.86451612903
1320	0.66	-0.7375	-0.644444444444	-8.33333333333	8.61935483871
1321	0.6605	-2.184375	0.811111111111	-2.6	-0.0709677419355
1322	0.661	-0.7375	-6.46666666667	1.7	2.82580645161
1323	0.6615	0.709375	-5.01111111111	1.7	4.27419354839
1324	0.662	-5.078125	2.26666666667	3.13333333333	2.82580645161
1325	0.6625	10.8375	-2.1	4.56666666667	1.37741935484
1326	0.663	-7.971875	0.811111111111	3.13333333333	2.82580645161
1327	0.6635	2.15625	0.811111111111	3.13333333333	-8.76129032258
1328	0.664	0.709375	-2.1	-8.33333333333	1.37741935484
1329	0.6645	-2.184375	0.811111111111	-8.33333333333	2.82580645161
1330	0.665	0.709375	15.3666666667	0.266666666667	1.37741935484
1331	0.6655	-0.7375	-3.55555555556	3.13333333333	1.37741935484
1332	0.666	9.390625	-2.1	-1.16666666667	4.27419354839
1333	0.6665	-5.078125	-3.55555555556	1.7	-8.76129032258
1334	0.667	0.709375	-0.644444444444	6.0	-11.6580645161
1335	0.6675	-0.7375	0.811111111111	-11.2	-0.0709677419355
1336	0.668	-0.7375	0.811111111111	3.13333333333	-0.0709677419355
1337	0.6685	2.15625	-9.37777777778	0.266666666667	-0.0709677419355
1338	0.669	2.15625	-10.8333333333	3.13333333333	-0.0709677419355
1339	0.6695	-2.184375	-0.644444444444	1.7	1.37741935484
1340	0.67	-2.184375	-0.644444444444	0.266666666667	-1.51935483871
1341	0.6705	-0.7375	-3.55555555556	1.7	2.82580645161
1342	0.671	0.709375	-0.644444444444	7.43333333333	2.82580645161
1343	0.6715	0.709375	-0.644444444444	1.7	2.82580645161
1344	0.672	-0.7375	0.811111111111	0.266666666667	5.72258064516
1345	0.6725	-2.184375	-2.1	1.7	2.82580645161
1346	0.673	-12.3125	-0.644444444444	1.7	1.37741935484
1347	0.6735	10.8375	-0.644444444444	1.7	-2.96774193548
1348	0.674	-3.63125	-0.644444444444	0.266666666667	1.37741935484
1349	0.6745	-3.63125	-0.644444444444	4.56666666667	-0.0709677419355
1350	0.675	0.709375	-2.1	4.56666666667	4.27419354839
1351	0.6755	-0.7375	-0.644444444444	6.0	2.82580645161
1352	0.676	-0.7375	-5.01111111111	0.266666666667	2.82580645161
1353	0.6765	-6.525	-2.1	1.7	4.27419354839
1354	0.677	-3.63125	-0.644444444444	1.7	2.82580645161
1355	0.6775	-7.971875	-0.644444444444	0.266666666667	-0.0709677419355
1356	0.678	-0.7375	0.811111111111	-6.9	4.27419354839
1357	0.6785	-2.184375	0.811111111111	-8.33333333333	1.37741935484
1358	0.679	-2.184375	-3.55555555556	18.9	1.37741935484
1359	0.6795	0.709375	19.7333333333	0.266666666667	1.37741935484
1360	0.68	-2.184375	18.2777777778	-1.16666666667	5.72258064516
1361	0.6805	0.709375	-9.37777777778	-2.6	1.37741935484
1362	0.681	-0.7375	-2.1	-2.6	20.2064516129
1363	0.6815	-0.7375	-3.55555555556	1.7	18.7580645161
1364	0.682	-2.184375	0.811111111111	21.7666666667	2.82580645161
1365	0.6825	-0.7375	-2.1	-2.6	-0.0709677419355
1366	0.683	0.709375	0.811111111111	3.13333333333	-1.51935483871
1367	0.6835	0.709375	-9.37777777778	-1.16666666667	1.37741935484
1368	0.684	16.625	-3.55555555556	0.266666666667	5.72258064516
1369	0.6845	-9.41875	-0.644444444444	1.7	1.37741935484
1370	0.685	0.709375	-2.1	3.13333333333	-7.31290322581
1371	0.6855	0.709375	-2.1	-11.2	-7.31290322581
1372	0.686	2.15625	0.811111111111	0.266666666667	-0.0709677419355
1373	0.6865	0.709375	-10.8333333333	0.266666666667	1.37741935484
1374	0.687	-0.7375	-9.37777777778	1.7	2.82580645161
1375	0.6875	3.603125	-3.55555555556	0.266666666667	2.82580645161
1376	0.688	-6.525	-3.55555555556	-1.16666666667	14.4129032258
1377	0.6885	-2.184375	0.811111111111	1.7	-5.86451612903
1378	0.689	2.15625	0.811111111111	-1.16666666667	-10.2096774194
1379	0.6895	0.709375	-0.644444444444	-9.76666666667	-0.0709677419355
1380	0.69	-2.184375	-12.2888888889	0.266666666667	-0.0709677419355
1381	0.6905	3.603125	-2.1	0.266666666667	2.82580645161
1382	0.691	2.15625	-6.46666666667	-1.16666666667	2.82580645161
1383	0.6915	-10.865625	-3.55555555556	3.13333333333	4.27419354839
1384	0.692	-2.184375	2.26666666667	0.266666666667	1.37741935484
1385	0.6925	2.15625	-2.1	4.56666666667	2.82580645161
1386	0.693	0.709375	-0.644444444444	-1.16666666667	-0.0709677419355
1387	0.6935	0.709375	0.811111111111	-1.16666666667	2.82580645161
1388	0.694	0.709375	16.8222222222	1.7	-1.51935483871
1389	0.6945	7.94375	0.811111111111	4.56666666667	-2.96774193548
1390	0.695	16.625	-2.1	4.56666666667	-10.2096774194
1391	0.6955	-2.184375	0.811111111111	-2.6	15.8612903226
1392	0.696	0.709375	-2.1	0.266666666667	7.17096774194
1393	0.6965	0.709375	-2.1	3.13333333333	2.82580645161
1394	0.697	2.15625	3.72222222222	4.56666666667	-0.0709677419355
1395	0.6975	2.15625	-0.644444444444	1.7	-1.51935483871
1396	0.698	5.05	0.811111111111	0.266666666667	-2.96774193548
1397	0.6985	16.625	-0.644444444444	0.266666666667	-0.0709677419355
1398	0.699	-5.078125	-2.1	0.266666666667	-1.51935483871
1399	0.6995	-0.7375	-3.55555555556	3.13333333333	5.72258064516
1400	0.7	0.709375	-2.1	-1.16666666667	-0.0709677419355
1401	0.7005	-0.7375	0.811111111111	-1.16666666667	-0.0709677419355
1402	0.701	0.709375	3.72222222222	1.7	-0.0709677419355
1403	0.7015	-2.184375	3.72222222222	3.13333333333	-1.51935483871
1404	0.702	3.603125	-0.644444444444	3.13333333333	2.82580645161
1405	0.7025	-6.525	-2.1	4.56666666667	1.37741935484
1406	0.703	-3.63125	0.811111111111	1.7	1.37741935484
1407	0.7035	0.709375	0.811111111111	7.43333333333	-2.96774193548
1408	0.704	0.709375	-2.1	-4.03333333333	1.37741935484
1409	0.7045	2.15625	-9.37777777778	-1.16666666667	-0.0709677419355
1410	0.705	-2.184375	-2.1	1.7	-0.0709677419355
1411	0.7055	-12.3125	2.26666666667	0.266666666667	-0.0709677419355
1412	0.706	18.071875	0.811111111111	1.7	-1.51935483871
1413	0.7065	-9.41875	-0.644444444444	1.7	4.27419354839
1414	0.707	-2.184375	-0.644444444444	20.3333333333	1.37741935484
1415	0.7075	-3.63125	-3.55555555556	-4.03333333333	-0.0709677419355
1416	0.708	-0.7375	-2.1	1.7	1.37741935484
1417	0.7085	-2.184375	9.54444444444	4.56666666667	1.37741935484
1418	0.709	-5.078125	-7.92222222222	1.7	-0.0709677419355
1419	0.7095	2.15625	-0.644444444444	1.7	1.37741935484
1420	0.71	-0.7375	0.811111111111	1.7	-0.0709677419355
1421	0.7105	0.709375	-0.644444444444	11.7333333333	-2.96774193548
1422	0.711	0.709375	-2.1	-4.03333333333	-0.0709677419355
1423	0.7115	2.15625	16.8222222222	0.266666666667	1.37741935484
1424	0.712	-0.7375	-10.8333333333	1.7	-0.0709677419355
1425	0.7125	5.05	-2.1	3.13333333333	-2.96774193548
1426	0.713	18.071875	-3.55555555556	3.13333333333	1.37741935484
1427	0.7135	2.15625	-0.644444444444	6.0	10.0677419355
1428	0.714	0.709375	-0.644444444444	14.6	-1.51935483871
1429	0.7145	0.709375	-0.644444444444	14.6	-0.0709677419355
1430	0.715	-2.184375	3.72222222222	-1.16666666667	-0.0709677419355
1431	0.7155	-2.184375	-2.1	-1.16666666667	1.37741935484
1432	0.716	5.05	-0.644444444444	0.266666666667	-1.51935483871
1433	0.7165	-0.7375	0.811111111111	0.266666666667	7.17096774194
1434	0.717	0.709375	-0.644444444444	3.13333333333	-4.41612903226
1435	0.7175	-0.7375	-2.1	1.7	-11.6580645161
1436	0.718	-0.7375	0.811111111111	-2.6	-0.0709677419355
1437	0.7185	-2.184375	-10.8333333333	3.13333333333	-0.0709677419355
1438	0.719	2.15625	-9.37777777778	0.266666666667	2.82580645161
1439	0.7195	-12.3125	-0.644444444444	3.13333333333	4.27419354839
1440	0.72	-5.078125	0.811111111111	1.7	-8.76129032258
1441	0.7205	-0.7375	0.811111111111	-2.6	-7.31290322581
1442	0.721	-0.7375	-0.644444444444	-9.76666666667	-2.96774193548
1443	0.7215	-2.184375	2.26666666667	-1.16666666667	-0.0709677419355
1444	0.722	-0.7375	-13.7444444444	0.266666666667	1.37741935484
1445	0.7225	2.15625	-6.46666666667	0.266666666667	1.37741935484
1446	0.723	5.05	-0.644444444444	1.7	1.37741935484
1447	0.7235	-10.865625	-2.1	1.7	18.7580645161
1448	0.724	-2.184375	-0.644444444444	3.13333333333	-1.51935483871
1449	0.7245	0.709375	-0.644444444444	6.0	-1.51935483871
1450	0.725	0.709375	0.811111111111	-9.76666666667	2.82580645161
1451	0.7255	-2.184375	19.7333333333	0.266666666667	1.37741935484
1452	0.726	0.709375	-10.8333333333	-1.16666666667	4.27419354839
1453	0.7265	5.05	-2.1	0.266666666667	1.37741935484
1454	0.727	-12.3125	-0.644444444444	4.56666666667	-0.0709677419355
1455	0.7275	-5.078125	0.811111111111	1.7	-5.86451612903
1456	0.728	-3.63125	-0.644444444444	-1.16666666667	1.37741935484
1457	0.7285	3.603125	-3.55555555556	-4.03333333333	-0.0709677419355
1458	0.729	-0.7375	-0.644444444444	-4.03333333333	-0.0709677419355
1459	0.7295	0.709375	-9.37777777778	-1.16666666667	1.37741935484
1460	0.73	0.709375	-2.1	-1.16666666667	4.27419354839
1461	0.7305	-13.759375	-0.644444444444	0.266666666667	-0.0709677419355
1462	0.731	16.625	0.811111111111	0.266666666667	-1.51935483871
1463	0.7315	-0.7375	-0.644444444444	-8.33333333333	-2.96774193548
1464	0.732	-2.184375	-2.1	1.7	-1.51935483871
1465	0.7325	-3.63125	0.811111111111	-1.16666666667	-0.0709677419355
1466	0.733	2.15625	-2.1	0.266666666667	-1.51935483871
1467	0.7335	-0.7375	-10.8333333333	3.13333333333	-0.0709677419355
1468	0.734	-2.184375	18.2777777778	-1.16666666667	1.37741935484
1469	0.7345	-7.971875	-2.1	1.7	-7.31290322581
1470	0.735	0.709375	-3.55555555556	0.266666666667	-7.31290322581
1471	0.7355	-0.7375	-0.644444444444	-8.33333333333	-0.0709677419355
1472	0.736	0.709375	-0.644444444444	3.13333333333	12.964516129
1473	0.7365	-0.7375	-13.7444444444	3.13333333333	-0.0709677419355
1474	0.737	2.15625	15.3666666667	1.7	2.82580645161
1475	0.7375	-5.078125	16.8222222222	1.7	1.37741935484
1476	0.738	-7.971875	0.811111111111	-1.16666666667	-10.2096774194
1477	0.7385	-3.63125	-0.644444444444	-2.6	-10.2096774194
1478	0.739	2.15625	-2.1	-11.2	-1.51935483871
1479	0.7395	-0.7375	2.26666666667	13.1666666667	-1.51935483871
1480	0.74	0.709375	-2.1	-4.03333333333	1.37741935484
1481	0.7405	2.15625	9.54444444444	0.266666666667	-0.0709677419355
1482	0.741	-0.7375	6.63333333333	-2.6	-0.0709677419355
1483	0.7415	9.390625	-2.1	-1.16666666667	-0.0709677419355
1484	0.742	-0.7375	-0.644444444444	0.266666666667	2.82580645161
1485	0.7425	0.709375	-0.644444444444	6.0	-1.51935483871
1486	0.743	-0.7375	0.811111111111	0.266666666667	1.37741935484
1487	0.7435	0.709375	-0.644444444444	1.7	1.37741935484
1488	0.744	0.709375	-7.92222222222	0.266666666667	1.37741935484
1489	0.7445	0.709375	-9.37777777778	-2.6	-0.0709677419355
1490	0.745	5.05	-2.1	0.266666666667	4.27419354839
1491	0.7455	-12.3125	2.26666666667	6.0	4.27419354839
1492	0.746	-3.63125	-2.1	7.43333333333	-5.86451612903
1493	0.7465	0.709375	-2.1	-5.46666666667	-1.51935483871
1494	0.747	0.709375	0.811111111111	-1.16666666667	1.37741935484
1495	0.7475	-0.7375	16.8222222222	-1.16666666667	-0.0709677419355
1496	0.748	-0.7375	-3.55555555556	-2.6	-0.0709677419355
1497	0.7485	2.15625	-2.1	1.7	-0.0709677419355
1498	0.749	13.73125	-2.1	0.266666666667	1.37741935484
1499	0.7495	0.709375	-0.644444444444	3.13333333333	1.37741935484
1500	0.75	-2.184375	-2.1	-1.16666666667	-0.0709677419355
1501	0.7505	0.709375	-0.644444444444	-8.33333333333	1.37741935484
1502	0.751	-2.184375	0.811111111111	0.266666666667	2.82580645161
1503	0.7515	-2.184375	-13.7444444444	0.266666666667	4.27419354839
1504	0.752	3.603125	0.811111111111	4.56666666667	-0.0709677419355
1505	0.7525	20.965625	-0.644444444444	3.13333333333	4.27419354839
1506	0.753	-12.3125	0.811111111111	-1.16666666667	2.82580645161
1507	0.7535	-0.7375	-2.1	-1.16666666667	-4.41612903226
1508	0.754	-0.7375	-0.644444444444	-1.16666666667	-0.0709677419355
1509	0.7545	-0.7375	0.811111111111	-4.03333333333	-0.0709677419355
1510	0.755	-0.7375	-0.644444444444	-1.16666666667	-0.0709677419355
1511	0.7555	0.709375	-7.92222222222	0.266666666667	-1.51935483871
1512	0.756	-2.184375	-2.1	1.7	-0.0709677419355
1513	0.7565	-6.525	-2.1	1.7	2.82580645161
1514	0.757	-3.63125	0.811111111111	4.56666666667	-0.0709677419355
1515	0.7575	-3.63125	-2.1	1.7	17.3096774194
1516	0.758	-0.7375	-3.55555555556	-1.16666666667	2.82580645161
1517	0.7585	-0.7375	-12.2888888889	1.7	-0.0709677419355
1518	0.759	0.709375	16.8222222222	0.266666666667	2.82580645161
1519	0.7595	-0.7375	16.8222222222	1.7	-0.0709677419355
1520	0.76	-7.971875	0.811111111111	3.13333333333	-7.31290322581
1521	0.7605	-2.184375	0.811111111111	1.7	-5.86451612903
1522	0.761	0.709375	-0.644444444444	-6.9	1.37741935484
1523	0.7615	-3.63125	0.811111111111	18.9	2.82580645161
1524	0.762	-0.7375	-3.55555555556	0.266666666667	4.27419354839
1525	0.7625	-2.184375	9.54444444444	0.266666666667	2.82580645161
1526	0.763	-2.184375	3.72222222222	-1.16666666667	2.82580645161
1527	0.7635	9.390625	-2.1	-1.16666666667	4.27419354839
1528	0.764	2.15625	-2.1	-1.16666666667	2.82580645161
1529	0.7645	-2.184375	-0.644444444444	0.266666666667	17.3096774194
1530	0.765	-2.184375	-0.644444444444	16.0333333333	1.37741935484
1531	0.7655	-0.7375	-0.644444444444	-6.9	2.82580645161
1532	0.766	2.15625	2.26666666667	0.266666666667	-0.0709677419355
1533	0.7665	0.709375	0.811111111111	0.266666666667	4.27419354839
1534	0.767	-7.971875	-0.644444444444	0.266666666667	1.37741935484
1535	0.7675	18.071875	-0.644444444444	0.266666666667	1.37741935484
1536	0.768	0.709375	-0.644444444444	-1.16666666667	21.6548387097
1537	0.7685	-3.63125	-0.644444444444	3.13333333333	20.2064516129
1538	0.769	-0.7375	0.811111111111	-9.76666666667	-4.41612903226
1539	0.7695	2.15625	-0.644444444444	-6.9	1.37741935484
1540	0.77	-2.184375	-7.92222222222	1.7	1.37741935484
1541	0.7705	3.603125	0.811111111111	0.266666666667	4.27419354839
1542	0.771	15.178125	-2.1	-1.16666666667	1.37741935484
1543	0.7715	0.709375	0.811111111111	1.7	-0.0709677419355
1544	0.772	2.15625	0.811111111111	0.266666666667	1.37741935484
1545	0.7725	-0.7375	2.26666666667	16.0333333333	-0.0709677419355
1546	0.773	-0.7375	-3.55555555556	-1.16666666667	1.37741935484
1547	0.7735	3.603125	-2.1	-8.33333333333	-0.0709677419355
1548	0.774	-2.184375	-0.644444444444	0.266666666667	-0.0709677419355
1549	0.7745	-12.3125	-0.644444444444	0.266666666667	-0.0709677419355
1550	0.775	19.51875	-2.1	1.7	-0.0709677419355
1551	0.7755	-0.7375	-0.644444444444	-11.2	-1.51935483871
1552	0.776	0.709375	3.72222222222	14.6	-0.0709677419355
1553	0.7765	-0.7375	-2.1	-4.03333333333	1.37741935484
1554	0.777	-0.7375	-0.644444444444	4.56666666667	1.37741935484
1555	0.7775	-2.184375	-3.55555555556	0.266666666667	1.37741935484
1556	0.778	-7.971875	-2.1	0.266666666667	1.37741935484
1557	0.7785	5.05	-0.644444444444	0.266666666667	2.82580645161
1558	0.779	-5.078125	0.811111111111	1.7	-4.41612903226
1559	0.7795	0.709375	0.811111111111	-1.16666666667	-0.0709677419355
1560	0.78	-0.7375	0.811111111111	-4.03333333333	-0.0709677419355
1561	0.7805	0.709375	-0.644444444444	4.56666666667	-0.0709677419355
1562	0.781	-0.7375	-10.8333333333	1.7	1.37741935484
1563	0.7815	0.709375	-2.1	0.266666666667	-1.51935483871
1564	0.782	19.51875	-0.644444444444	-2.6	2.82580645161
1565	0.7825	-10.865625	-2.1	1.7	5.72258064516
1566	0.783	0.709375	-0.644444444444	7.43333333333	-5.86451612903
1567	0.7835	0.709375	-3.55555555556	-4.03333333333	2.82580645161
1568	0.784	0.709375	3.72222222222	-4.03333333333	-0.0709677419355
1569	0.7845	-0.7375	16.8222222222	-1.16666666667	1.37741935484
1570	0.785	-3.63125	-6.46666666667	0.266666666667	1.37741935484
1571	0.7855	18.071875	-0.644444444444	3.13333333333	-7.31290322581
1572	0.786	-3.63125	2.26666666667	-1.16666666667	4.27419354839
1573	0.7865	0.709375	-0.644444444444	3.13333333333	-0.0709677419355
1574	0.787	-2.184375	-0.644444444444	3.13333333333	1.37741935484
1575	0.7875	-2.184375	-5.01111111111	0.266666666667	-0.0709677419355
1576	0.788	-0.7375	-5.01111111111	-1.16666666667	1.37741935484
1577	0.7885	-0.7375	-9.37777777778	-1.16666666667	-0.0709677419355
1578	0.789	-0.7375	2.26666666667	0.266666666667	2.82580645161
1579	0.7895	-10.865625	-0.644444444444	-1.16666666667	-1.51935483871
1580	0.79	-2.184375	-2.1	-1.16666666667	-10.2096774194
1581	0.7905	0.709375	-2.1	-6.9	1.37741935484
1582	0.791	0.709375	3.72222222222	18.9	1.37741935484
1583	0.7915	-0.7375	-0.644444444444	-6.9	-0.0709677419355
1584	0.792	0.709375	3.72222222222	-1.16666666667	-0.0709677419355
1585	0.7925	3.603125	0.811111111111	1.7	-2.96774193548
1586	0.793	20.965625	-0.644444444444	3.13333333333	-0.0709677419355
1587	0.7935	-7.971875	0.811111111111	3.13333333333	18.7580645161
1588	0.794	-2.184375	0.811111111111	4.56666666667	-10.2096774194
1589	0.7945	0.709375	0.811111111111	-9.76666666667	-0.0709677419355
1590	0.795	2.15625	2.26666666667	0.266666666667	1.37741935484
1591	0.7955	0.709375	-10.8333333333	0.266666666667	4.27419354839
1592	0.796	0.709375	-9.37777777778	0.266666666667	2.82580645161
1593	0.7965	10.8375	-2.1	-2.6	5.72258064516
1594	0.797	2.15625	-0.644444444444	3.13333333333	2.82580645161
1595	0.7975	-2.184375	-0.644444444444	1.7	8.61935483871
1596	0.798	-3.63125	-0.644444444444	-1.16666666667	10.0677419355
1597	0.7985	-3.63125	-0.644444444444	13.1666666667	2.82580645161
1598	0.799	-2.184375	-3.55555555556	-6.9	2.82580645161
1599	0.7995	0.709375	-5.01111111111	-2.6	1.37741935484
1600	0.8	-2.184375	-7.92222222222	-2.6	-1.51935483871
1601	0.8005	18.071875	-0.644444444444	0.266666666667	-0.0709677419355
1602	0.801	-3.63125	2.26666666667	3.13333333333	-7.31290322581
1603	0.8015	-2.184375	0.811111111111	1.7	-10.2096774194
1604	0.802	-3.63125	-0.644444444444	-11.2	-0.0709677419355
1605	0.8025	0.709375	-12.2888888889	1.7	1.37741935484
1606	0.803	3.603125	-6.46666666667	0.266666666667	2.82580645161
1607	0.8035	7.94375	-3.55555555556	0.266666666667	1.37741935484
1608	0.804	-10.865625	-2.1	0.266666666667	-0.0709677419355
1609	0.8045	-3.63125	0.811111111111	0.266666666667	-4.41612903226
1610	0.805	-0.7375	-2.1	-4.03333333333	-7.31290322581
1611	0.8055	-2.184375	0.811111111111	-1.16666666667	-4.41612903226
1612	0.806	-0.7375	-2.1	1.7	1.37741935484
1613	0.8065	0.709375	-6.46666666667	-1.16666666667	-1.51935483871
1614	0.807	0.709375	-9.37777777778	0.266666666667	-0.0709677419355
1615	0.8075	3.603125	0.811111111111	-1.16666666667	-0.0709677419355
1616	0.808	13.73125	-3.55555555556	0.266666666667	2.82580645161
1617	0.8085	-2.184375	-3.55555555556	4.56666666667	-2.96774193548
1618	0.809	-0.7375	-0.644444444444	-5.46666666667	-0.0709677419355
1619	0.8095	2.15625	0.811111111111	14.6	-2.96774193548
1620	0.81	-0.7375	-2.1	-1.16666666667	-0.0709677419355
1621	0.8105	2.15625	-10.8333333333	0.266666666667	1.37741935484
1622	0.811	3.603125	-0.644444444444	-1.16666666667	-0.0709677419355
1623	0.8115	-13.759375	-3.55555555556	0.266666666667	5.72258064516
1624	0.812	-9.41875	-0.644444444444	3.13333333333	-0.0709677419355
1625	0.8125	-0.7375	-2.1	-5.46666666667	-1.51935483871
1626	0.813	0.709375	-0.644444444444	4.56666666667	1.37741935484
1627	0.8135	-0.7375	-3.55555555556	3.13333333333	-0.0709677419355
1628	0.814	3.603125	5.17777777778	-1.16666666667	1.37741935484
1629	0.8145	-0.7375	-2.1	0.266666666667	1.37741935484
1630	0.815	-2.184375	-0.644444444444	-1.16666666667	4.27419354839
1631	0.8155	-5.078125	0.811111111111	0.266666666667	17.3096774194
1632	0.816	-0.7375	-0.644444444444	-1.16666666667	-8.76129032258
1633	0.8165	-2.184375	-0.644444444444	14.6	-2.96774193548
1634	0.817	3.603125	-3.55555555556	-9.76666666667	-0.0709677419355
1635	0.8175	-0.7375	3.72222222222	-2.6	-0.0709677419355
1636	0.818	-2.184375	-0.644444444444	0.266666666667	1.37741935484
1637	0.8185	-10.865625	-2.1	0.266666666667	-0.0709677419355
1638	0.819	3.603125	0.811111111111	-2.6	1.37741935484
1639	0.8195	-7.971875	-2.1	-1.16666666667	-1.51935483871
1640	0.82	-2.184375	-0.644444444444	0.266666666667	1.37741935484
1641	0.8205	-2.184375	0.811111111111	-4.03333333333	1.37741935484
1642	0.821	-2.184375	0.811111111111	1.7	1.37741935484
1643	0.8215	-0.7375	-12.2888888889	0.266666666667	2.82580645161
1644	0.822	2.15625	-0.644444444444	-1.16666666667	2.82580645161
1645	0.8225	-10.865625	0.811111111111	0.266666666667	4.27419354839
1646	0.823	-7.971875	-0.644444444444	1.7	-8.76129032258
1647	0.8235	0.709375	0.811111111111	3.13333333333	-4.41612903226
1648	0.824	-2.184375	-0.644444444444	-1.16666666667	2.82580645161
1649	0.8245	-0.7375	2.26666666667	-1.16666666667	4.27419354839
1650	0.825	-0.7375	-7.92222222222	1.7	2.82580645161
1651	0.8255	2.15625	-5.01111111111	0.266666666667	5.72258064516
1652	0.826	7.94375	-2.1	1.7	5.72258064516
1653	0.8265	5.05	0.811111111111	4.56666666667	1.37741935484
1654	0.827	-0.7375	0.811111111111	0.266666666667	14.4129032258
1655	0.8275	0.709375	0.811111111111	-4.03333333333	12.964516129
1656	0.828	0.709375	0.811111111111	7.43333333333	-2.96774193548
1657	0.8285	2.15625	-3.55555555556	-5.46666666667	1.37741935484
1658	0.829	3.603125	-3.55555555556	0.266666666667	1.37741935484
1659	0.8295	-13.759375	-0.644444444444	0.266666666667	5.72258064516
1660	0.83	-7.971875	-0.644444444444	-1.16666666667	-8.76129032258
1661	0.8305	-2.184375	0.811111111111	-4.03333333333	-7.31290322581
1662	0.831	-2.184375	0.811111111111	-12.6333333333	-0.0709677419355
1663	0.8315	0.709375	3.72222222222	-1.16666666667	-0.0709677419355
1664	0.832	0.709375	-10.8333333333	3.13333333333	-0.0709677419355
1665	0.8325	0.709375	-9.37777777778	4.56666666667	1.37741935484
1666	0.833	2.15625	-5.01111111111	1.7	4.27419354839
1667	0.8335	-5.078125	0.811111111111	3.13333333333	5.72258064516
1668	0.834	-2.184375	0.811111111111	1.7	8.61935483871
1669	0.8345	0.709375	-0.644444444444	0.266666666667	5.72258064516
1670	0.835	2.15625	0.811111111111	8.86666666667	1.37741935484
1671	0.8355	-0.7375	0.811111111111	-1.16666666667	2.82580645161
1672	0.836	-0.7375	-7.92222222222	1.7	1.37741935484
1673	0.8365	-0.7375	-0.644444444444	0.266666666667	1.37741935484
1674	0.837	-7.971875	-0.644444444444	1.7	1.37741935484
1675	0.8375	-7.971875	-0.644444444444	1.7	-11.6580645161
1676	0.838	-2.184375	0.811111111111	-4.03333333333	-0.0709677419355
1677	0.8385	-0.7375	0.811111111111	-5.46666666667	-0.0709677419355
1678	0.839	-0.7375	-0.644444444444	0.266666666667	-0.0709677419355
1679	0.8395	0.709375	-10.8333333333	-1.16666666667	-0.0709677419355
1680	0.84	2.15625	-2.1	-1.16666666667	1.37741935484
1681	0.8405	20.965625	-0.644444444444	-1.16666666667	8.61935483871
1682	0.841	-3.63125	-0.644444444444	-1.16666666667	14.4129032258
1683	0.8415	-0.7375	-2.1	0.266666666667	-1.51935483871
1684	0.842	-0.7375	-2.1	1.7	10.0677419355
1685	0.8425	0.709375	-5.01111111111	1.7	2.82580645161
1686	0.843	2.15625	3.72222222222	-1.16666666667	4.27419354839
1687	0.8435	-0.7375	-3.55555555556	-1.16666666667	1.37741935484
1688	0.844	-5.078125	-3.55555555556	0.266666666667	1.37741935484
1689	0.8445	-10.865625	-0.644444444444	3.13333333333	-5.86451612903
1690	0.845	-2.184375	-2.1	4.56666666667	-11.6580645161
1691	0.8455	-2.184375	-2.1	-8.33333333333	1.37741935484
1692	0.846	-2.184375	0.811111111111	-1.16666666667	-0.0709677419355
1693	0.8465	-0.7375	-10.8333333333	-4.03333333333	-0.0709677419355
1694	0.847	0.709375	5.17777777778	-1.16666666667	-1.51935483871
1695	0.8475	3.603125	-2.1	1.7	-0.0709677419355
1696	0.848	18.071875	-5.01111111111	1.7	-0.0709677419355
1697	0.8485	0.709375	-2.1	0.266666666667	-7.31290322581
1698	0.849	0.709375	0.811111111111	-11.2	1.37741935484
1699	0.8495	-3.63125	-0.644444444444	-11.2	-0.0709677419355
1700	0.85	-0.7375	-12.2888888889	4.56666666667	4.27419354839
1701	0.8505	0.709375	-6.46666666667	1.7	-0.0709677419355
1702	0.851	2.15625	-5.01111111111	-1.16666666667	1.37741935484
1703	0.8515	-13.759375	-2.1	0.266666666667	4.27419354839
1704	0.852	-0.7375	-0.644444444444	1.7	-5.86451612903
1705	0.8525	-0.7375	0.811111111111	-5.46666666667	2.82580645161
1706	0.853	0.709375	-0.644444444444	4.56666666667	1.37741935484
1707	0.8535	0.709375	0.811111111111	-1.16666666667	1.37741935484
1708	0.854	0.709375	-3.55555555556	4.56666666667	2.82580645161
1709	0.8545	0.709375	-10.8333333333	3.13333333333	1.37741935484
1710	0.855	-3.63125	-10.8333333333	1.7	-0.0709677419355
1711	0.8555	0.709375	-2.1	-1.16666666667	17.3096774194
1712	0.856	0.709375	-0.644444444444	0.266666666667	15.8612903226
1713	0.8565	-0.7375	-0.644444444444	16.0333333333	-0.0709677419355
1714	0.857	-2.184375	-2.1	-4.03333333333	-0.0709677419355
1715	0.8575	-2.184375	3.72222222222	3.13333333333	-2.96774193548
1716	0.858	-7.971875	-9.37777777778	1.7	-2.96774193548
1717	0.8585	0.709375	0.811111111111	3.13333333333	-1.51935483871
1718	0.859	19.51875	-2.1	0.266666666667	1.37741935484
1719	0.8595	0.709375	0.811111111111	1.7	-7.31290322581
1720	0.86	-0.7375	-0.644444444444	-9.76666666667	1.37741935484
1721	0.8605	-0.7375	0.811111111111	-1.16666666667	1.37741935484
1722	0.861	0.709375	0.811111111111	8.86666666667	-1.51935483871
1723	0.8615	2.15625	-6.46666666667	1.7	1.37741935484
1724	0.862	5.05	-3.55555555556	1.7	4.27419354839
1725	0.8625	-13.759375	-5.01111111111	4.56666666667	2.82580645161
1726	0.863	-5.078125	0.811111111111	1.7	-1.51935483871
1727	0.8635	0.709375	-0.644444444444	1.7	-8.76129032258
1728	0.864	2.15625	-0.644444444444	-6.9	-8.76129032258
1729	0.8645	-0.7375	0.811111111111	-6.9	2.82580645161
1730	0.865	0.709375	-13.7444444444	-1.16666666667	-0.0709677419355
1731	0.8655	-0.7375	19.7333333333	-1.16666666667	-0.0709677419355
1732	0.866	-12.3125	2.26666666667	1.7	1.37741935484
1733	0.8665	19.51875	-0.644444444444	0.266666666667	-10.2096774194
1734	0.867	0.709375	0.811111111111	1.7	15.8612903226
1735	0.8675	0.709375	-0.644444444444	20.3333333333	-1.51935483871
1736	0.868	0.709375	-2.1	-2.6	-0.0709677419355
1737	0.8685	0.709375	-3.55555555556	0.266666666667	2.82580645161
1738	0.869	-5.078125	-2.1	-1.16666666667	1.37741935484
1739	0.8695	-10.865625	0.811111111111	4.56666666667	-0.0709677419355
1740	0.87	12.284375	0.811111111111	0.266666666667	1.37741935484
1741	0.8705	3.603125	-2.1	-6.9	1.37741935484
1742	0.871	0.709375	-0.644444444444	6.0	-1.51935483871
1743	0.8715	-2.184375	-0.644444444444	-5.46666666667	4.27419354839
1744	0.872	-0.7375	0.811111111111	-5.46666666667	-0.0709677419355
1745	0.8725	3.603125	-6.46666666667	-1.16666666667	2.82580645161
1746	0.873	-7.971875	-0.644444444444	0.266666666667	1.37741935484
1747	0.8735	13.73125	-0.644444444444	-2.6	1.37741935484
1748	0.874	-7.971875	-0.644444444444	1.7	2.82580645161
1749	0.8745	-0.7375	0.811111111111	-1.16666666667	-10.2096774194
1750	0.875	0.709375	-0.644444444444	-8.33333333333	2.82580645161
1751	0.8755	-0.7375	-13.7444444444	0.266666666667	2.82580645161
1752	0.876	2.15625	-3.55555555556	-1.16666666667	4.27419354839
1753	0.8765	0.709375	-5.01111111111	0.266666666667	4.27419354839
1754	0.877	-9.41875	-6.46666666667	0.266666666667	2.82580645161
1755	0.8775	-0.7375	0.811111111111	-1.16666666667	18.7580645161
1756	0.878	-0.7375	-0.644444444444	-4.03333333333	20.2064516129
1757	0.8785	-0.7375	-0.644444444444	0.266666666667	-4.41612903226
1758	0.879	-0.7375	2.26666666667	-1.16666666667	-0.0709677419355
1759	0.8795	0.709375	5.17777777778	3.13333333333	1.37741935484
1760	0.88	-0.7375	3.72222222222	3.13333333333	4.27419354839
1761	0.8805	3.603125	-0.644444444444	3.13333333333	5.72258064516
1762	0.881	-6.525	-0.644444444444	1.7	-2.96774193548
1763	0.8815	-2.184375	-2.1	0.266666666667	2.82580645161
1764	0.882	0.709375	-0.644444444444	17.4666666667	-0.0709677419355
1765	0.8825	-3.63125	-2.1	1.7	1.37741935484
1766	0.883	-0.7375	-0.644444444444	11.7333333333	-0.0709677419355
1767	0.8835	-2.184375	-9.37777777778	0.266666666667	2.82580645161
1768	0.884	-3.63125	-0.644444444444	-1.16666666667	1.37741935484
1769	0.8845	-10.865625	-0.644444444444	0.266666666667	2.82580645161
1770	0.885	-0.7375	0.811111111111	1.7	-8.76129032258
1771	0.8855	-0.7375	-0.644444444444	-9.76666666667	1.37741935484
1772	0.886	-3.63125	-2.1	-1.16666666667	-0.0709677419355
1773	0.8865	-0.7375	-7.92222222222	-4.03333333333	1.37741935484
1774	0.887	2.15625	-2.1	-2.6	5.72258064516
1775	0.8875	0.709375	-6.46666666667	-2.6	1.37741935484
1776	0.888	-10.865625	-0.644444444444	0.266666666667	-0.0709677419355
1777	0.8885	-7.971875	-0.644444444444	6.0	-7.31290322581
1778	0.889	-2.184375	-3.55555555556	3.13333333333	-7.31290322581
1779	0.8895	0.709375	0.811111111111	8.86666666667	1.37741935484
1780	0.89	-2.184375	-2.1	-5.46666666667	2.82580645161
1781	0.8905	0.709375	0.811111111111	0.266666666667	-0.0709677419355
1782	0.891	0.709375	15.3666666667	-1.16666666667	2.82580645161
1783	0.8915	3.603125	-7.92222222222	0.266666666667	1.37741935484
1784	0.892	18.071875	0.811111111111	0.266666666667	1.37741935484
1785	0.8925	-0.7375	-0.644444444444	0.266666666667	-5.86451612903
1786	0.893	-0.7375	-0.644444444444	-9.76666666667	7.17096774194
1787	0.8935	-0.7375	-0.644444444444	8.86666666667	-0.0709677419355
1788	0.894	-2.184375	0.811111111111	20.3333333333	1.37741935484
1789	0.8945	-0.7375	16.8222222222	6.0	-0.0709677419355
1790	0.895	-3.63125	18.2777777778	0.266666666667	1.37741935484
1791	0.8955	-13.759375	-2.1	1.7	1.37741935484
1792	0.896	-2.184375	0.811111111111	1.7	5.72258064516
1793	0.8965	-0.7375	0.811111111111	4.56666666667	-0.0709677419355
1794	0.897	-0.7375	-0.644444444444	6.0	4.27419354839
1795	0.8975	-0.7375	-2.1	1.7	4.27419354839
1796	0.898	-0.7375	-2.1	1.7	5.72258064516
1797	0.8985	0.709375	-6.46666666667	0.266666666667	4.27419354839
1798	0.899	-6.525	0.811111111111	1.7	4.27419354839
1799	0.8995	-7.971875	-2.1	-1.16666666667	-10.2096774194
1800	0.9	-0.7375	-3.55555555556	-1.16666666667	-5.86451612903
1801	0.9005	-2.184375	-0.644444444444	-2.6	15.8612903226
1802	0.901	-3.63125	3.72222222222	-4.03333333333	-0.0709677419355
1803	0.9015	-3.63125	-13.7444444444	-1.16666666667	2.82580645161
1804	0.902	-2.184375	-12.2888888889	0.266666666667	-0.0709677419355
1805	0.9025	0.709375	-2.1	3.13333333333	-0.0709677419355
1806	0.903	-0.7375	0.811111111111	4.56666666667	2.82580645161
1807	0.9035	-7.971875	0.811111111111	3.13333333333	15.8612903226
1808	0.904	-0.7375	-0.644444444444	20.3333333333	1.37741935484
1809	0.9045	0.709375	-2.1	-8.33333333333	-1.51935483871
1810	0.905	2.15625	-0.644444444444	-1.16666666667	-0.0709677419355
1811	0.9055	0.709375	2.26666666667	1.7	2.82580645161
1812	0.906	2.15625	2.26666666667	1.7	4.27419354839
1813	0.9065	-3.63125	-0.644444444444	4.56666666667	1.37741935484
1814	0.907	16.625	-3.55555555556	0.266666666667	-8.76129032258
1815	0.9075	0.709375	-2.1	-11.2	1.37741935484
1816	0.908	-3.63125	2.26666666667	18.9	-0.0709677419355
1817	0.9085	0.709375	-0.644444444444	-2.6	2.82580645161
1818	0.909	-2.184375	-9.37777777778	4.56666666667	1.37741935484
1819	0.9095	0.709375	3.72222222222	1.7	2.82580645161
1820	0.91	-2.184375	-0.644444444444	-1.16666666667	1.37741935484
1821	0.9105	13.73125	-2.1	0.266666666667	2.82580645161
1822	0.911	2.15625	-2.1	1.7	1.37741935484
1823	0.9115	-0.7375	0.811111111111	20.3333333333	1.37741935484
1824	0.912	-2.184375	-2.1	-11.2	-0.0709677419355
1825	0.9125	-0.7375	0.811111111111	-1.16666666667	1.37741935484
1826	0.913	-2.184375	5.17777777778	0.266666666667	-0.0709677419355
1827	0.9135	-2.184375	15.3666666667	4.56666666667	2.82580645161
1828	0.914	-10.865625	-0.644444444444	1.7	-0.0709677419355
1829	0.9145	-2.184375	-0.644444444444	-2.6	20.2064516129
1830	0.915	-2.184375	-0.644444444444	-2.6	15.8612903226
1831	0.9155	-0.7375	-0.644444444444	3.13333333333	-0.0709677419355
1832	0.916	-0.7375	0.811111111111	-1.16666666667	-0.0709677419355
1833	0.9165	-0.7375	11.0	4.56666666667	2.82580645161
1834	0.917	-2.184375	0.811111111111	3.13333333333	2.82580645161
1835	0.9175	2.15625	-0.644444444444	0.266666666667	-0.0709677419355
1836	0.918	-6.525	2.26666666667	3.13333333333	-2.96774193548
1837	0.9185	-0.7375	2.26666666667	0.266666666667	-8.76129032258
1838	0.919	-0.7375	-0.644444444444	-4.03333333333	17.3096774194
1839	0.9195	-2.184375	-2.1	18.9	-1.51935483871
1840	0.92	-2.184375	-13.7444444444	3.13333333333	2.82580645161
1841	0.9205	-0.7375	9.54444444444	1.7	4.27419354839
1842	0.921	-10.865625	-0.644444444444	0.266666666667	4.27419354839
1843	0.9215	-10.865625	-2.1	0.266666666667	7.17096774194
1844	0.922	-0.7375	0.811111111111	4.56666666667	-0.0709677419355
1845	0.9225	-2.184375	-2.1	-6.9	5.72258064516
1846	0.923	-3.63125	-2.1	3.13333333333	1.37741935484
1847	0.9235	-0.7375	-0.644444444444	7.43333333333	2.82580645161
1848	0.924	-2.184375	3.72222222222	1.7	-0.0709677419355
1849	0.9245	-2.184375	9.54444444444	0.266666666667	-0.0709677419355
1850	0.925	-0.7375	-0.644444444444	0.266666666667	1.37741935484
1851	0.9255	-3.63125	0.811111111111	4.56666666667	14.4129032258
1852	0.926	-3.63125	0.811111111111	4.56666666667	2.82580645161
1853	0.9265	-2.184375	-0.644444444444	3.13333333333	-1.51935483871
1854	0.927	-2.184375	-6.46666666667	3.13333333333	4.27419354839
1855	0.9275	3.603125	2.26666666667	1.7	5.72258064516
1856	0.928	0.709375	-9.37777777778	4.56666666667	2.82580645161
1857	0.9285	15.178125	-2.1	1.7	5.72258064516
1858	0.929	-6.525	-3.55555555556	3.13333333333	2.82580645161
1859	0.9295	0.709375	0.811111111111	3.13333333333	-4.41612903226
1860	0.93	-0.7375	0.811111111111	-2.6	-5.86451612903
1861	0.9305	-2.184375	3.72222222222	-1.16666666667	1.37741935484
1862	0.931	-0.7375	5.17777777778	-1.16666666667	-0.0709677419355
1863	0.9315	0.709375	15.3666666667	0.266666666667	-1.51935483871
1864	0.932	-5.078125	-5.01111111111	1.7	-0.0709677419355
1865	0.9325	19.51875	0.811111111111	1.7	-0.0709677419355
1866	0.933	-6.525	-2.1	-1.16666666667	5.72258064516
1867	0.9335	0.709375	-2.1	20.3333333333	2.82580645161
1868	0.934	-0.7375	-2.1	-5.46666666667	1.37741935484
1869	0.9345	-0.7375	0.811111111111	4.56666666667	-0.0709677419355
1870	0.935	-2.184375	-2.1	4.56666666667	-1.51935483871
1871	0.9355	0.709375	5.17777777778	0.266666666667	-0.0709677419355
1872	0.936	-5.078125	-9.37777777778	0.266666666667	5.72258064516
1873	0.9365	-0.7375	0.811111111111	-2.6	15.8612903226
1874	0.937	-2.184375	-0.644444444444	-1.16666666667	17.3096774194
1875	0.9375	0.709375	-2.1	4.56666666667	-2.96774193548
1876	0.938	-0.7375	2.26666666667	-11.2	1.37741935484
1877	0.9385	-3.63125	18.2777777778	-1.16666666667	2.82580645161
1878	0.939	-2.184375	-7.92222222222	3.13333333333	4.27419354839
1879	0.9395	15.178125	0.811111111111	0.266666666667	5.72258064516
1880	0.94	0.709375	0.811111111111	1.7	4.27419354839
1881	0.9405	-2.184375	0.811111111111	1.7	1.37741935484
1882	0.941	-0.7375	-0.644444444444	0.266666666667	-5.86451612903
1883	0.9415	-0.7375	-2.1	-5.46666666667	4.27419354839
1884	0.942	-0.7375	2.26666666667	-2.6	1.37741935484
1885	0.9425	-0.7375	-3.55555555556	0.266666666667	1.37741935484
1886	0.943	-0.7375	0.811111111111	3.13333333333	1.37741935484
1887	0.9435	-6.525	-2.1	0.266666666667	-4.41612903226
1888	0.944	-0.7375	-0.644444444444	3.13333333333	-8.76129032258
1889	0.9445	-2.184375	-0.644444444444	0.266666666667	21.6548387097
1890	0.945	-3.63125	0.811111111111	17.4666666667	-0.0709677419355
1891	0.9455	-2.184375	-3.55555555556	-1.16666666667	2.82580645161
1892	0.946	-0.7375	0.811111111111	-1.16666666667	2.82580645161
1893	0.9465	-12.3125	-0.644444444444	1.7	-0.0709677419355
1894	0.947	9.390625	0.811111111111	0.266666666667	-0.0709677419355
1895	0.9475	-5.078125	0.811111111111	-1.16666666667	15.8612903226
1896	0.948	-2.184375	-2.1	-1.16666666667	-7.31290322581
1897	0.9485	-2.184375	-2.1	-12.6333333333	2.82580645161
1898	0.949	0.709375	3.72222222222	-1.16666666667	5.72258064516
1899	0.9495	0.709375	-6.46666666667	-6.9	-0.0709677419355
1900	0.95	0.709375	-7.92222222222	0.266666666667	-0.0709677419355
1901	0.9505	2.15625	-0.644444444444	-1.16666666667	1.37741935484
1902	0.951	18.071875	-2.1	0.266666666667	2.82580645161
1903	0.9515	-0.7375	-0.644444444444	6.0	-0.0709677419355
1904	0.952	0.709375	-0.644444444444	4.56666666667	-0.0709677419355
1905	0.9525	-2.184375	-0.644444444444	0.266666666667	-0.0709677419355
1906	0.953	-0.7375	0.811111111111	0.266666666667	-1.51935483871
1907	0.9535	0.709375	-6.46666666667	1.7	-0.0709677419355
1908	0.954	-3.63125	-2.1	-1.16666666667	2.82580645161
1909	0.9545	-12.3125	-0.644444444444	0.266666666667	4.27419354839
1910	0.955	-12.3125	-5.01111111111	0.266666666667	-0.0709677419355
1911	0.9555	0.709375	-2.1	-11.2	-1.51935483871
1912	0.956	-0.7375	-0.644444444444	-4.03333333333	-1.51935483871
1913	0.9565	-0.7375	-2.1	11.7333333333	5.72258064516
1914	0.957	-0.7375	0.811111111111	3.13333333333	2.82580645161
1915	0.9575	2.15625	11.0	4.56666666667	1.37741935484
1916	0.958	7.94375	-3.55555555556	6.0	-0.0709677419355
1917	0.9585	19.51875	-0.644444444444	3.13333333333	2.82580645161
1918	0.959	12.284375	-0.644444444444	-1.16666666667	18.7580645161
1919	0.9595	12.284375	-0.644444444444	11.7333333333	4.27419354839
1920	0.96	13.73125	-2.1	0.266666666667	-0.0709677419355
1921	0.9605	12.284375	-9.37777777778	-1.16666666667	-0.0709677419355
1922	0.961	13.73125	16.8222222222	-1.16666666667	2.82580645161
1923	0.9615	2.15625	-0.644444444444	-1.16666666667	1.37741935484
1924	0.962	28.2	-0.644444444444	3.13333333333	1.37741935484
1925	0.9625	9.390625	-2.1	4.56666666667	5.72258064516
1926	0.963	3.603125	-2.1	6.0	5.72258064516
1927	0.9635	5.05	-2.1	3.13333333333	1.37741935484
1928	0.964	5.05	-2.1	1.7	1.37741935484
1929	0.9645	3.603125	-7.92222222222	-1.16666666667	1.37741935484
1930	0.965	7.94375	-3.55555555556	-1.16666666667	2.82580645161
1931	0.9655	-9.41875	-0.644444444444	-1.16666666667	4.27419354839
1932	0.966	0.709375	-2.1	3.13333333333	2.82580645161
1933	0.9665	2.15625	-3.55555555556	0.266666666667	-0.0709677419355
1934	0.967	-0.7375	0.811111111111	-2.6	-5.86451612903
1935	0.9675	3.603125	-5.01111111111	-8.33333333333	2.82580645161
1936	0.968	0.709375	11.0	3.13333333333	1.37741935484
1937	0.9685	2.15625	-10.8333333333	6.0	-0.0709677419355
1938	0.969	22.4125	-0.644444444444	3.13333333333	-13.1064516129
1939	0.9695	-2.184375	-0.644444444444	3.13333333333	-1.51935483871
1940	0.97	0.709375	-0.644444444444	-1.16666666667	-7.31290322581
1941	0.9705	0.709375	0.811111111111	-6.9	-1.51935483871
1942	0.971	3.603125	-0.644444444444	0.266666666667	-0.0709677419355
1943	0.9715	0.709375	18.2777777778	0.266666666667	1.37741935484
1944	0.972	0.709375	-10.8333333333	0.266666666667	1.37741935484
1945	0.9725	5.05	0.811111111111	0.266666666667	-0.0709677419355
1946	0.973	-0.7375	0.811111111111	0.266666666667	5.72258064516
1947	0.9735	2.15625	-0.644444444444	3.13333333333	-0.0709677419355
1948	0.974	0.709375	-2.1	1.7	15.8612903226
1949	0.9745	-0.7375	-0.644444444444	4.56666666667	2.82580645161
1950	0.975	3.603125	-3.55555555556	3.13333333333	5.72258064516
1951	0.9755	0.709375	19.7333333333	1.7	4.27419354839
1952	0.976	-12.3125	-0.644444444444	1.7	1.37741935484
1953	0.9765	18.071875	-3.55555555556	0.266666666667	-5.86451612903
1954	0.977	-0.7375	2.26666666667	0.266666666667	5.72258064516
1955	0.9775	-0.7375	-0.644444444444	3.13333333333	4.27419354839
1956	0.978	-3.63125	-2.1	6.0	5.72258064516
1957	0.9785	-2.184375	0.811111111111	3.13333333333	2.82580645161
1958	0.979	0.709375	-7.92222222222	3.13333333333	4.27419354839
1959	0.9795	3.603125	-0.644444444444	4.56666666667	2.82580645161
1960	0.98	-12.3125	-2.1	1.7	5.72258064516
1961	0.9805	-6.525	0.811111111111	3.13333333333	-4.41612903226
1962	0.981	0.709375	-0.644444444444	-11.2	-0.0709677419355
1963	0.9815	2.15625	0.811111111111	-8.33333333333	-1.51935483871
1964	0.982	0.709375	-2.1	-5.46666666667	2.82580645161
1965	0.9825	0.709375	-5.01111111111	-1.16666666667	2.82580645161
1966	0.983	2.15625	-2.1	1.7	2.82580645161
1967	0.9835	0.709375	-3.55555555556	-1.16666666667	-0.0709677419355
1968	0.984	13.73125	-2.1	0.266666666667	-0.0709677419355
1969	0.9845	-0.7375	-0.644444444444	-1.16666666667	15.8612903226
1970	0.985	-5.078125	-0.644444444444	17.4666666667	1.37741935484
1971	0.9855	0.709375	-0.644444444444	18.9	1.37741935484
1972	0.986	-0.7375	-6.46666666667	0.266666666667	1.37741935484
1973	0.9865	0.709375	16.8222222222	1.7	2.82580645161
1974	0.987	-9.41875	-3.55555555556	0.266666666667	5.72258064516
1975	0.9875	-7.971875	0.811111111111	0.266666666667	-11.6580645161
1976	0.988	-0.7375	-0.644444444444	4.56666666667	-0.0709677419355
1977	0.9885	2.15625	-3.55555555556	1.7	23.1032258065
1978	0.989	0.709375	-6.46666666667	3.13333333333	4.27419354839
1979	0.9895	-0.7375	-0.644444444444	-5.46666666667	1.37741935484
1980	0.99	0.709375	16.8222222222	4.56666666667	5.72258064516
1981	0.9905	-15.20625	-0.644444444444	0.266666666667	7.17096774194
1982	0.991	-2.184375	-0.644444444444	0.266666666667	1.37741935484
1983	0.9915	-5.078125	-3.55555555556	0.266666666667	17.3096774194
1984	0.992	-2.184375	-2.1	0.266666666667	-7.31290322581
1985	0.9925	0.709375	-2.1	-8.33333333333	2.82580645161
1986	0.993	0.709375	0.811111111111	-8.33333333333	2.82580645161
1987	0.9935	-0.7375	-12.2888888889	1.7	7.17096774194
1988	0.994	0.709375	-0.644444444444	-1.16666666667	1.37741935484
1989	0.9945	12.284375	-0.644444444444	1.7	4.27419354839
1990	0.995	-0.7375	-0.644444444444	-1.16666666667	-1.51935483871
1991	0.9955	0.709375	0.811111111111	-4.03333333333	2.82580645161
1992	0.996	0.709375	-0.644444444444	8.86666666667	4.27419354839
1993	0.9965	-2.184375	-0.644444444444	0.266666666667	-0.0709677419355
1994	0.997	-2.184375	-6.46666666667	4.56666666667	-0.0709677419355
1995	0.9975	-0.7375	15.3666666667	4.56666666667	1.37741935484
1996	0.998	-12.3125	-2.1	4.56666666667	-0.0709677419355
1997	0.9985	22.4125	-2.1	0.266666666667	-8.76129032258
1998	0.999	0.709375	0.811111111111	-12.6333333333	-0.0709677419355
1999	0.9995	2.15625	0.811111111111	17.4666666667	-0.0709677419355
2000	1.0	0.709375	-3.55555555556	-1.16666666667	-2.96774193548
2001	1.0005	0.709375	-10.8333333333	1.7	-4.41612903226
2002	1.001	2.15625	-7.92222222222	1.7	-2.96774193548
2003	1.0015	16.625	-3.55555555556	3.13333333333	1.37741935484
2004	1.002	-3.63125	-0.644444444444	6.0	4.27419354839
2005	1.0025	0.709375	-2.1	4.56666666667	-5.86451612903
2006	1.003	0.709375	-2.1	-1.16666666667	20.2064516129
2007	1.0035	-2.184375	-2.1	16.0333333333	1.37741935484
2008	1.004	0.709375	-10.8333333333	0.266666666667	1.37741935484
2009	1.0045	3.603125	-2.1	1.7	1.37741935484
