	Time	Channel 1	Channel 2	Channel 3	Channel 4
0	0.0	16.4538461538	-2.05142857143	35.2802867384	5.53469387755
1	0.0005	10.7307692308	0.84	42.3053763441	4.11632653061
2	0.001	0.715384615385	0.84	36.6853046595	4.11632653061
3	0.0015	3.57692307692	-0.605714285714	33.8752688172	2.69795918367
4	0.002	0.715384615385	-0.605714285714	31.0652329749	4.11632653061
5	0.0025	0.715384615385	-0.605714285714	42.3053763441	2.69795918367
6	0.003	-0.715384615385	-4.94285714286	35.2802867384	2.69795918367
7	0.0035	0.715384615385	-3.49714285714	42.3053763441	5.53469387755
8	0.004	2.14615384615	-2.05142857143	47.9254480287	5.53469387755
9	0.0045	2.14615384615	-3.49714285714	45.1154121864	4.11632653061
10	0.005	3.57692307692	-7.83428571429	40.9003584229	2.69795918367
11	0.0055	0.715384615385	-9.28	35.2802867384	1.27959183673
12	0.006	3.57692307692	21.08	36.6853046595	-0.138775510204
13	0.0065	0.715384615385	0.84	40.9003584229	-0.138775510204
14	0.007	-0.715384615385	-0.605714285714	39.4953405018	1.27959183673
15	0.0075	15.0230769231	0.84	40.9003584229	-1.55714285714
16	0.008	3.57692307692	-0.605714285714	43.7103942652	-1.55714285714
17	0.0085	0.715384615385	2.28571428571	40.9003584229	-10.0673469388
18	0.009	0.715384615385	0.84	32.4702508961	-2.97551020408
19	0.0095	2.14615384615	2.28571428571	35.2802867384	-0.138775510204
20	0.01	0.715384615385	-2.05142857143	29.6602150538	-0.138775510204
21	0.0105	2.14615384615	9.51428571429	32.4702508961	-0.138775510204
22	0.011	0.715384615385	-7.83428571429	25.4451612903	1.27959183673
23	0.0115	0.715384615385	-0.605714285714	21.2301075269	2.69795918367
24	0.012	-0.715384615385	-0.605714285714	29.6602150538	-0.138775510204
25	0.0125	-6.43846153846	2.28571428571	39.4953405018	-8.64897959184
26	0.013	0.715384615385	-0.605714285714	46.5204301075	-2.97551020408
27	0.0135	2.14615384615	0.84	63.3806451613	-1.55714285714
28	0.014	2.14615384615	-4.94285714286	43.7103942652	1.27959183673
29	0.0145	0.715384615385	2.28571428571	54.9505376344	2.69795918367
30	0.015	0.715384615385	-9.28	45.1154121864	2.69795918367
31	0.0155	0.715384615385	0.84	47.9254480287	5.53469387755
32	0.016	-3.57692307692	0.84	49.3304659498	4.11632653061
33	0.0165	-9.3	-0.605714285714	54.9505376344	4.11632653061
34	0.017	23.6076923077	-0.605714285714	57.7605734767	6.95306122449
35	0.0175	-6.43846153846	0.84	59.1655913978	4.11632653061
36	0.018	2.14615384615	-2.05142857143	46.5204301075	1.27959183673
37	0.0185	0.715384615385	-3.49714285714	54.9505376344	-1.55714285714
38	0.019	2.14615384615	-0.605714285714	61.9756272401	4.11632653061
39	0.0195	3.57692307692	-6.38857142857	45.1154121864	4.11632653061
40	0.02	2.14615384615	2.28571428571	49.3304659498	4.11632653061
41	0.0205	3.57692307692	16.7428571429	49.3304659498	5.53469387755
42	0.021	-5.00769230769	-0.605714285714	45.1154121864	2.69795918367
43	0.0215	13.5923076923	-0.605714285714	42.3053763441	5.53469387755
44	0.022	-7.86923076923	0.84	42.3053763441	4.11632653061
45	0.0225	-10.7307692308	0.84	43.7103942652	-1.55714285714
46	0.023	0.715384615385	-2.05142857143	40.9003584229	-2.97551020408
47	0.0235	3.57692307692	-2.05142857143	59.1655913978	-11.4857142857
48	0.024	0.715384615385	2.28571428571	60.570609319	-0.138775510204
49	0.0245	0.715384615385	3.73142857143	50.735483871	1.27959183673
50	0.025	0.715384615385	21.08	50.735483871	-0.138775510204
51	0.0255	0.715384615385	-6.38857142857	52.1405017921	-5.81224489796
52	0.026	2.14615384615	-2.05142857143	53.5455197133	-8.64897959184
53	0.0265	17.8846153846	0.84	50.735483871	-7.2306122449
54	0.027	-5.00769230769	0.84	46.5204301075	-12.9040816327
55	0.0275	5.00769230769	-2.05142857143	43.7103942652	-7.2306122449
56	0.028	0.715384615385	-0.605714285714	43.7103942652	14.0448979592
57	0.0285	3.57692307692	0.84	35.2802867384	-0.138775510204
58	0.029	-2.14615384615	-2.05142857143	31.0652329749	4.11632653061
59	0.0295	0.715384615385	-12.1714285714	35.2802867384	4.11632653061
60	0.03	2.14615384615	-12.1714285714	32.4702508961	1.27959183673
61	0.0305	5.00769230769	8.06857142857	35.2802867384	-0.138775510204
62	0.031	-13.5923076923	0.84	31.0652329749	-0.138775510204
63	0.0315	22.1769230769	0.84	24.0401433692	4.11632653061
64	0.032	0.715384615385	-0.605714285714	31.0652329749	5.53469387755
65	0.0325	2.14615384615	0.84	18.4200716846	-0.138775510204
66	0.033	2.14615384615	0.84	14.2050179211	4.11632653061
67	0.0335	2.14615384615	-0.605714285714	26.8501792115	8.37142857143
68	0.034	0.715384615385	-10.7257142857	17.0150537634	8.37142857143
69	0.0345	2.14615384615	18.1885714286	21.2301075269	5.53469387755
70	0.035	-2.14615384615	2.28571428571	18.4200716846	5.53469387755
71	0.0355	7.86923076923	-0.605714285714	15.6100358423	5.53469387755
72	0.036	-5.00769230769	-2.05142857143	1.55985663082	2.69795918367
73	0.0365	-6.43846153846	-2.05142857143	-16.7053763441	14.0448979592
74	0.037	-0.715384615385	0.84	-22.3254480287	-8.64897959184
75	0.0375	2.14615384615	-2.05142857143	-23.7304659498	5.53469387755
76	0.038	0.715384615385	-0.605714285714	-2.65519713262	-1.55714285714
77	0.0385	2.14615384615	3.73142857143	-15.3003584229	-0.138775510204
78	0.039	5.00769230769	-2.05142857143	-18.1103942652	-1.55714285714
79	0.0395	3.57692307692	-2.05142857143	-23.7304659498	-2.97551020408
80	0.04	0.715384615385	-0.605714285714	-26.5405017921	-4.39387755102
81	0.0405	-0.715384615385	0.84	-29.3505376344	-1.55714285714
82	0.041	-0.715384615385	0.84	-29.3505376344	15.4632653061
83	0.0415	-0.715384615385	-2.05142857143	-29.3505376344	-0.138775510204
84	0.042	-0.715384615385	-0.605714285714	-29.3505376344	-7.2306122449
85	0.0425	0.715384615385	-0.605714285714	-32.1605734767	-8.64897959184
86	0.043	0.715384615385	-2.05142857143	-18.1103942652	1.27959183673
87	0.0435	3.57692307692	-10.7257142857	-16.7053763441	-0.138775510204
88	0.044	-0.715384615385	16.7428571429	-13.8953405018	-0.138775510204
89	0.0445	0.715384615385	8.06857142857	-16.7053763441	-1.55714285714
90	0.045	5.00769230769	-0.605714285714	-16.7053763441	-0.138775510204
91	0.0455	19.3153846154	-2.05142857143	-12.4903225806	1.27959183673
92	0.046	-2.14615384615	-2.05142857143	-9.68028673835	15.4632653061
93	0.0465	0.715384615385	-0.605714285714	-16.7053763441	4.11632653061
94	0.047	2.14615384615	-2.05142857143	-13.8953405018	4.11632653061
95	0.0475	0.715384615385	-2.05142857143	-23.7304659498	4.11632653061
96	0.048	-0.715384615385	0.84	-4.06021505376	5.53469387755
97	0.0485	3.57692307692	-13.6171428571	-16.7053763441	5.53469387755
98	0.049	0.715384615385	-7.83428571429	-18.1103942652	2.69795918367
99	0.0495	-7.86923076923	-3.49714285714	-18.1103942652	2.69795918367
100	0.05	-13.5923076923	-0.605714285714	-20.9204301075	-0.138775510204
101	0.0505	5.00769230769	-0.605714285714	-18.1103942652	-10.0673469388
102	0.051	3.57692307692	0.84	-13.8953405018	-0.138775510204
103	0.0515	3.57692307692	-0.605714285714	0.154838709677	-0.138775510204
104	0.052	-0.715384615385	0.84	-1.25017921147	-1.55714285714
105	0.0525	2.14615384615	0.84	-20.9204301075	-1.55714285714
106	0.053	3.57692307692	2.28571428571	-25.135483871	-1.55714285714
107	0.0535	2.14615384615	-4.94285714286	-30.7555555556	-0.138775510204
108	0.054	5.00769230769	-0.605714285714	-36.3756272401	1.27959183673
109	0.0545	-2.14615384615	-0.605714285714	-36.3756272401	1.27959183673
110	0.055	3.57692307692	0.84	-36.3756272401	-5.81224489796
111	0.0555	0.715384615385	0.84	-34.970609319	18.3
112	0.056	0.715384615385	-0.605714285714	-30.7555555556	1.27959183673
113	0.0565	2.14615384615	2.28571428571	-36.3756272401	2.69795918367
114	0.057	2.14615384615	-3.49714285714	-32.1605734767	5.53469387755
115	0.0575	0.715384615385	-9.28	-19.5154121864	-0.138775510204
116	0.058	0.715384615385	-9.28	-18.1103942652	-1.55714285714
117	0.0585	0.715384615385	-0.605714285714	-15.3003584229	-1.55714285714
118	0.059	-7.86923076923	2.28571428571	-16.7053763441	-1.55714285714
119	0.0595	19.3153846154	-2.05142857143	-22.3254480287	2.69795918367
120	0.06	-0.715384615385	-0.605714285714	-22.3254480287	1.27959183673
121	0.0605	-0.715384615385	2.28571428571	-13.8953405018	8.37142857143
122	0.061	-0.715384615385	0.84	-23.7304659498	-0.138775510204
123	0.0615	-0.715384615385	-2.05142857143	-18.1103942652	-0.138775510204
124	0.062	-0.715384615385	-4.94285714286	-11.0853046595	-1.55714285714
125	0.0625	2.14615384615	-9.28	-12.4903225806	1.27959183673
126	0.063	2.14615384615	19.6342857143	-12.4903225806	-0.138775510204
127	0.0635	0.715384615385	-0.605714285714	-13.8953405018	1.27959183673
128	0.064	12.1615384615	-0.605714285714	-16.7053763441	-0.138775510204
129	0.0645	19.3153846154	2.28571428571	-15.3003584229	-1.55714285714
130	0.065	0.715384615385	0.84	-25.135483871	-4.39387755102
131	0.0655	0.715384615385	0.84	-25.135483871	-5.81224489796
132	0.066	3.57692307692	0.84	-11.0853046595	-7.2306122449
133	0.0665	0.715384615385	2.28571428571	-4.06021505376	-0.138775510204
134	0.067	-0.715384615385	-10.7257142857	-12.4903225806	-1.55714285714
135	0.0675	0.715384615385	16.7428571429	-15.3003584229	-7.2306122449
136	0.068	0.715384615385	-10.7257142857	-18.1103942652	-2.97551020408
137	0.0685	3.57692307692	0.84	-16.7053763441	-0.138775510204
138	0.069	-0.715384615385	-0.605714285714	-13.8953405018	-8.64897959184
139	0.0695	3.57692307692	-0.605714285714	-19.5154121864	1.27959183673
140	0.07	3.57692307692	0.84	-19.5154121864	4.11632653061
141	0.0705	2.14615384615	-0.605714285714	-36.3756272401	1.27959183673
142	0.071	3.57692307692	0.84	-41.9956989247	-2.97551020408
143	0.0715	2.14615384615	-2.05142857143	-37.7806451613	2.69795918367
144	0.072	2.14615384615	-10.7257142857	-41.9956989247	2.69795918367
145	0.0725	2.14615384615	21.08	-39.1856630824	2.69795918367
146	0.073	-0.715384615385	0.84	-40.5906810036	2.69795918367
147	0.0735	16.4538461538	-0.605714285714	-37.7806451613	5.53469387755
148	0.074	-7.86923076923	0.84	-36.3756272401	1.27959183673
149	0.0745	-5.00769230769	-0.605714285714	-40.5906810036	5.53469387755
150	0.075	2.14615384615	0.84	-40.5906810036	-8.64897959184
151	0.0755	-0.715384615385	-2.05142857143	-47.6157706093	-7.2306122449
152	0.076	-2.14615384615	-0.605714285714	-47.6157706093	-0.138775510204
153	0.0765	3.57692307692	0.84	-46.2107526882	-0.138775510204
154	0.077	0.715384615385	0.84	-43.4007168459	-0.138775510204
155	0.0775	3.57692307692	0.84	-39.1856630824	1.27959183673
156	0.078	0.715384615385	0.84	-41.9956989247	1.27959183673
157	0.0785	10.7307692308	0.84	-46.2107526882	4.11632653061
158	0.079	22.1769230769	0.84	-44.805734767	-0.138775510204
159	0.0795	2.14615384615	0.84	-44.805734767	-2.97551020408
160	0.08	3.57692307692	0.84	-40.5906810036	-11.4857142857
161	0.0805	3.57692307692	0.84	-29.3505376344	1.27959183673
162	0.081	-0.715384615385	-0.605714285714	-37.7806451613	-2.97551020408
163	0.0815	-0.715384615385	2.28571428571	-32.1605734767	-1.55714285714
164	0.082	0.715384615385	-4.94285714286	-29.3505376344	-5.81224489796
165	0.0825	5.00769230769	-0.605714285714	-22.3254480287	-0.138775510204
166	0.083	-13.5923076923	-0.605714285714	-15.3003584229	-2.97551020408
167	0.0835	-2.14615384615	0.84	-18.1103942652	1.27959183673
168	0.084	-0.715384615385	2.28571428571	-18.1103942652	-11.4857142857
169	0.0845	0.715384615385	0.84	-23.7304659498	-2.97551020408
170	0.085	-0.715384615385	0.84	-29.3505376344	-7.2306122449
171	0.0855	-0.715384615385	0.84	-13.8953405018	-5.81224489796
172	0.086	-0.715384615385	-7.83428571429	-20.9204301075	-4.39387755102
173	0.0865	0.715384615385	19.6342857143	-22.3254480287	-5.81224489796
174	0.087	0.715384615385	6.62285714286	-22.3254480287	-2.97551020408
175	0.0875	-10.7307692308	0.84	-23.7304659498	-2.97551020408
176	0.088	16.4538461538	0.84	-20.9204301075	4.11632653061
177	0.0885	-3.57692307692	0.84	-13.8953405018	4.11632653061
178	0.089	0.715384615385	0.84	-18.1103942652	19.7183673469
179	0.0895	2.14615384615	0.84	-13.8953405018	2.69795918367
180	0.09	0.715384615385	-2.05142857143	-25.135483871	-0.138775510204
181	0.0905	0.715384615385	0.84	-6.87025089606	2.69795918367
182	0.091	0.715384615385	-9.28	-15.3003584229	1.27959183673
183	0.0915	-0.715384615385	-7.83428571429	-13.8953405018	1.27959183673
184	0.092	-6.43846153846	0.84	-15.3003584229	1.27959183673
185	0.0925	-9.3	-0.605714285714	-18.1103942652	2.69795918367
186	0.093	13.5923076923	0.84	-18.1103942652	-4.39387755102
187	0.0935	0.715384615385	0.84	-18.1103942652	-8.64897959184
188	0.094	-0.715384615385	0.84	-23.7304659498	-0.138775510204
189	0.0945	3.57692307692	0.84	-13.8953405018	-0.138775510204
190	0.095	0.715384615385	0.84	-36.3756272401	-0.138775510204
191	0.0955	0.715384615385	10.96	-37.7806451613	-1.55714285714
192	0.096	5.00769230769	16.7428571429	-44.805734767	-1.55714285714
193	0.0965	0.715384615385	2.28571428571	-40.5906810036	-4.39387755102
194	0.097	-10.7307692308	-2.05142857143	-43.4007168459	-1.55714285714
195	0.0975	16.4538461538	-0.605714285714	-40.5906810036	-5.81224489796
196	0.098	-3.57692307692	2.28571428571	-37.7806451613	4.11632653061
197	0.0985	0.715384615385	-0.605714285714	-51.8308243728	-0.138775510204
198	0.099	5.00769230769	2.28571428571	-37.7806451613	-5.81224489796
199	0.0995	-0.715384615385	-3.49714285714	-44.805734767	1.27959183673
200	0.1	2.14615384615	-0.605714285714	-30.7555555556	-0.138775510204
201	0.1005	3.57692307692	-9.28	-29.3505376344	1.27959183673
202	0.101	0.715384615385	-9.28	-26.5405017921	2.69795918367
203	0.1015	-5.00769230769	-0.605714285714	-25.135483871	2.69795918367
204	0.102	-12.1615384615	-0.605714285714	-19.5154121864	-0.138775510204
205	0.1025	-6.43846153846	-3.49714285714	-18.1103942652	-0.138775510204
206	0.103	3.57692307692	0.84	-20.9204301075	-11.4857142857
207	0.1035	0.715384615385	-2.05142857143	-19.5154121864	-0.138775510204
208	0.104	-2.14615384615	-2.05142857143	-23.7304659498	-5.81224489796
209	0.1045	-0.715384615385	-0.605714285714	-15.3003584229	-2.97551020408
210	0.105	0.715384615385	-10.7257142857	-15.3003584229	-2.97551020408
211	0.1055	-0.715384615385	21.08	-12.4903225806	-4.39387755102
212	0.106	-3.57692307692	0.84	-8.2752688172	-2.97551020408
213	0.1065	-7.86923076923	-0.605714285714	-4.06021505376	-4.39387755102
214	0.107	-10.7307692308	-2.05142857143	0.154838709677	-2.97551020408
215	0.1075	-2.14615384615	0.84	-1.25017921147	-11.4857142857
216	0.108	-3.57692307692	0.84	0.154838709677	-15.7408163265
217	0.1085	2.14615384615	0.84	1.55985663082	-4.39387755102
218	0.109	0.715384615385	0.84	7.17992831541	-0.138775510204
219	0.1095	0.715384615385	5.17714285714	1.55985663082	-1.55714285714
220	0.11	0.715384615385	-6.38857142857	0.154838709677	-0.138775510204
221	0.1105	3.57692307692	8.06857142857	-4.06021505376	-0.138775510204
222	0.111	-0.715384615385	-6.38857142857	-12.4903225806	1.27959183673
223	0.1115	-10.7307692308	-0.605714285714	-15.3003584229	1.27959183673
224	0.112	5.00769230769	0.84	-19.5154121864	-0.138775510204
225	0.1125	-3.57692307692	-0.605714285714	-20.9204301075	-1.55714285714
226	0.113	2.14615384615	-0.605714285714	-19.5154121864	15.4632653061
227	0.1135	2.14615384615	0.84	-15.3003584229	2.69795918367
228	0.114	0.715384615385	0.84	-30.7555555556	-0.138775510204
229	0.1145	2.14615384615	-0.605714285714	-27.9455197133	1.27959183673
230	0.115	3.57692307692	0.84	-23.7304659498	-1.55714285714
231	0.1155	3.57692307692	-9.28	-15.3003584229	-2.97551020408
232	0.116	2.14615384615	-4.94285714286	-18.1103942652	2.69795918367
233	0.1165	-7.86923076923	-3.49714285714	-23.7304659498	2.69795918367
234	0.117	-0.715384615385	-0.605714285714	-23.7304659498	1.27959183673
235	0.1175	3.57692307692	-2.05142857143	-20.9204301075	-10.0673469388
236	0.118	3.57692307692	-0.605714285714	-20.9204301075	-8.64897959184
237	0.1185	2.14615384615	-0.605714285714	-26.5405017921	2.69795918367
238	0.119	0.715384615385	0.84	-1.25017921147	-1.55714285714
239	0.1195	0.715384615385	5.17714285714	-18.1103942652	-2.97551020408
240	0.12	2.14615384615	0.84	-20.9204301075	-1.55714285714
241	0.1205	2.14615384615	5.17714285714	-25.135483871	-5.81224489796
242	0.121	0.715384615385	-2.05142857143	-30.7555555556	-5.81224489796
243	0.1215	-10.7307692308	0.84	-37.7806451613	-7.2306122449
244	0.122	15.0230769231	0.84	-40.5906810036	-2.97551020408
245	0.1225	2.14615384615	-0.605714285714	-39.1856630824	-10.0673469388
246	0.123	0.715384615385	-0.605714285714	-43.4007168459	15.4632653061
247	0.1235	0.715384615385	0.84	-34.970609319	8.37142857143
248	0.124	3.57692307692	0.84	-18.1103942652	-8.64897959184
249	0.1245	0.715384615385	-3.49714285714	-26.5405017921	-4.39387755102
250	0.125	0.715384615385	-4.94285714286	-18.1103942652	-2.97551020408
251	0.1255	0.715384615385	2.28571428571	-22.3254480287	-0.138775510204
252	0.126	-2.14615384615	16.7428571429	-25.135483871	4.11632653061
253	0.1265	3.57692307692	0.84	-22.3254480287	4.11632653061
254	0.127	3.57692307692	-2.05142857143	-20.9204301075	4.11632653061
255	0.1275	2.14615384615	0.84	-18.1103942652	21.1367346939
256	0.128	2.14615384615	0.84	-15.3003584229	-7.2306122449
257	0.1285	5.00769230769	0.84	-29.3505376344	1.27959183673
258	0.129	0.715384615385	2.28571428571	-23.7304659498	-5.81224489796
259	0.1295	0.715384615385	2.28571428571	-29.3505376344	-5.81224489796
260	0.13	2.14615384615	-0.605714285714	-32.1605734767	-5.81224489796
261	0.1305	3.57692307692	3.73142857143	-34.970609319	-4.39387755102
262	0.131	0.715384615385	-6.38857142857	-34.970609319	-5.81224489796
263	0.1315	2.14615384615	-0.605714285714	-34.970609319	-4.39387755102
264	0.132	5.00769230769	0.84	-36.3756272401	-0.138775510204
265	0.1325	-7.86923076923	0.84	-40.5906810036	1.27959183673
266	0.133	0.715384615385	0.84	-43.4007168459	14.0448979592
267	0.1335	0.715384615385	-0.605714285714	-20.9204301075	4.11632653061
268	0.134	0.715384615385	0.84	-26.5405017921	4.11632653061
269	0.1345	0.715384615385	3.73142857143	-36.3756272401	1.27959183673
270	0.135	3.57692307692	22.5257142857	-29.3505376344	1.27959183673
271	0.1355	0.715384615385	-9.28	-25.135483871	1.27959183673
272	0.136	3.57692307692	-0.605714285714	-19.5154121864	-0.138775510204
273	0.1365	-10.7307692308	-3.49714285714	-16.7053763441	-1.55714285714
274	0.137	-7.86923076923	-0.605714285714	-13.8953405018	-1.55714285714
275	0.1375	0.715384615385	-0.605714285714	-11.0853046595	-8.64897959184
276	0.138	0.715384615385	0.84	-9.68028673835	16.8816326531
277	0.1385	-0.715384615385	0.84	-18.1103942652	-4.39387755102
278	0.139	2.14615384615	3.73142857143	-15.3003584229	-2.97551020408
279	0.1395	-0.715384615385	-9.28	-19.5154121864	-4.39387755102
280	0.14	2.14615384615	-0.605714285714	-25.135483871	-2.97551020408
281	0.1405	0.715384615385	-0.605714285714	-29.3505376344	-5.81224489796
282	0.141	-12.1615384615	0.84	-25.135483871	-2.97551020408
283	0.1415	2.14615384615	2.28571428571	-20.9204301075	-1.55714285714
284	0.142	-6.43846153846	0.84	-12.4903225806	-7.2306122449
285	0.1425	2.14615384615	-0.605714285714	-8.2752688172	5.53469387755
286	0.143	0.715384615385	0.84	-15.3003584229	1.27959183673
287	0.1435	0.715384615385	2.28571428571	15.6100358423	-0.138775510204
288	0.144	0.715384615385	0.84	0.154838709677	-4.39387755102
289	0.1445	0.715384615385	15.2971428571	0.154838709677	-2.97551020408
290	0.145	3.57692307692	19.6342857143	1.55985663082	-2.97551020408
291	0.1455	2.14615384615	-2.05142857143	-4.06021505376	-4.39387755102
292	0.146	7.86923076923	-2.05142857143	-5.46523297491	1.27959183673
293	0.1465	19.3153846154	-2.05142857143	-4.06021505376	-0.138775510204
294	0.147	-3.57692307692	0.84	4.36989247312	-4.39387755102
295	0.1475	-0.715384615385	0.84	4.36989247312	-0.138775510204
296	0.148	2.14615384615	-4.94285714286	2.96487455197	14.0448979592
297	0.1485	0.715384615385	0.84	-13.8953405018	-0.138775510204
298	0.149	3.57692307692	-0.605714285714	-6.87025089606	-1.55714285714
299	0.1495	0.715384615385	-13.6171428571	-5.46523297491	4.11632653061
300	0.15	2.14615384615	16.7428571429	-11.0853046595	-0.138775510204
301	0.1505	0.715384615385	-4.94285714286	-11.0853046595	-0.138775510204
302	0.151	6.43846153846	-0.605714285714	-4.06021505376	-2.97551020408
303	0.1515	17.8846153846	-0.605714285714	-1.25017921147	-1.55714285714
304	0.152	-5.00769230769	0.84	0.154838709677	2.69795918367
305	0.1525	2.14615384615	-0.605714285714	8.58494623656	-7.2306122449
306	0.153	2.14615384615	0.84	-1.25017921147	-0.138775510204
307	0.1535	2.14615384615	2.28571428571	14.2050179211	-5.81224489796
308	0.154	2.14615384615	3.73142857143	8.58494623656	-1.55714285714
309	0.1545	-0.715384615385	-7.83428571429	12.8	1.27959183673
310	0.155	2.14615384615	10.96	14.2050179211	-0.138775510204
311	0.1555	-2.14615384615	-2.05142857143	12.8	-0.138775510204
312	0.156	-12.1615384615	2.28571428571	12.8	-1.55714285714
313	0.1565	15.0230769231	0.84	21.2301075269	-1.55714285714
314	0.157	-3.57692307692	3.73142857143	25.4451612903	-0.138775510204
315	0.1575	0.715384615385	-0.605714285714	19.8250896057	-2.97551020408
316	0.158	0.715384615385	0.84	35.2802867384	-0.138775510204
317	0.1585	3.57692307692	0.84	29.6602150538	-2.97551020408
318	0.159	3.57692307692	3.73142857143	32.4702508961	-1.55714285714
319	0.1595	0.715384615385	-4.94285714286	35.2802867384	-2.97551020408
320	0.16	5.00769230769	9.51428571429	33.8752688172	-1.55714285714
321	0.1605	-9.3	0.84	38.0903225806	-5.81224489796
322	0.161	3.57692307692	-2.05142857143	35.2802867384	1.27959183673
323	0.1615	-5.00769230769	-0.605714285714	33.8752688172	-10.0673469388
324	0.162	-0.715384615385	0.84	28.2551971326	5.53469387755
325	0.1625	-0.715384615385	-2.05142857143	28.2551971326	-0.138775510204
326	0.163	2.14615384615	0.84	36.6853046595	-0.138775510204
327	0.1635	5.00769230769	-0.605714285714	19.8250896057	2.69795918367
328	0.164	2.14615384615	-0.605714285714	31.0652329749	1.27959183673
329	0.1645	0.715384615385	0.84	39.4953405018	-1.55714285714
330	0.165	-3.57692307692	-0.605714285714	42.3053763441	-2.97551020408
331	0.1655	5.00769230769	-0.605714285714	43.7103942652	-4.39387755102
332	0.166	0.715384615385	0.84	45.1154121864	-2.97551020408
333	0.1665	-3.57692307692	-2.05142857143	49.3304659498	8.37142857143
334	0.167	2.14615384615	-0.605714285714	53.5455197133	-11.4857142857
335	0.1675	0.715384615385	-0.605714285714	49.3304659498	-1.55714285714
336	0.168	-0.715384615385	-0.605714285714	63.3806451613	-7.2306122449
337	0.1685	0.715384615385	0.84	42.3053763441	-4.39387755102
338	0.169	2.14615384615	0.84	52.1405017921	-4.39387755102
339	0.1695	3.57692307692	0.84	53.5455197133	-4.39387755102
340	0.17	-2.14615384615	-6.38857142857	53.5455197133	-1.55714285714
341	0.1705	2.14615384615	0.84	59.1655913978	-5.81224489796
342	0.171	-5.00769230769	-0.605714285714	60.570609319	-5.81224489796
343	0.1715	-7.86923076923	0.84	60.570609319	-2.97551020408
344	0.172	0.715384615385	0.84	61.9756272401	-4.39387755102
345	0.1725	0.715384615385	-2.05142857143	61.9756272401	-0.138775510204
346	0.173	0.715384615385	0.84	61.9756272401	1.27959183673
347	0.1735	2.14615384615	3.73142857143	63.3806451613	1.27959183673
348	0.174	2.14615384615	-6.38857142857	63.3806451613	2.69795918367
349	0.1745	5.00769230769	-2.05142857143	60.570609319	-1.55714285714
350	0.175	0.715384615385	-10.7257142857	63.3806451613	-0.138775510204
351	0.1755	-2.14615384615	-2.05142857143	60.570609319	1.27959183673
352	0.176	2.14615384615	0.84	59.1655913978	1.27959183673
353	0.1765	-7.86923076923	-0.605714285714	57.7605734767	2.69795918367
354	0.177	3.57692307692	-2.05142857143	56.3555555556	8.37142857143
355	0.1775	3.57692307692	0.84	56.3555555556	-1.55714285714
356	0.178	2.14615384615	0.84	47.9254480287	2.69795918367
357	0.1785	3.57692307692	2.28571428571	57.7605734767	-0.138775510204
358	0.179	2.14615384615	-12.1714285714	63.3806451613	-1.55714285714
359	0.1795	0.715384615385	-7.83428571429	64.7856630824	-2.97551020408
360	0.18	5.00769230769	-2.05142857143	63.3806451613	-0.138775510204
361	0.1805	-12.1615384615	-2.05142857143	66.1906810036	-2.97551020408
362	0.181	17.8846153846	0.84	66.1906810036	-2.97551020408
363	0.1815	0.715384615385	0.84	70.405734767	-4.39387755102
364	0.182	-0.715384615385	-0.605714285714	76.0258064516	6.95306122449
365	0.1825	2.14615384615	0.84	69.0007168459	-8.64897959184
366	0.183	2.14615384615	0.84	67.5956989247	-12.9040816327
367	0.1835	2.14615384615	-9.28	71.8107526882	-11.4857142857
368	0.184	0.715384615385	18.1885714286	70.405734767	-8.64897959184
369	0.1845	-0.715384615385	2.28571428571	67.5956989247	-7.2306122449
370	0.185	5.00769230769	-2.05142857143	64.7856630824	-5.81224489796
371	0.1855	0.715384615385	-0.605714285714	64.7856630824	-4.39387755102
372	0.186	-2.14615384615	0.84	61.9756272401	8.37142857143
373	0.1865	2.14615384615	-0.605714285714	61.9756272401	-8.64897959184
374	0.187	0.715384615385	-0.605714285714	57.7605734767	-7.2306122449
375	0.1875	0.715384615385	0.84	64.7856630824	-2.97551020408
376	0.188	2.14615384615	0.84	47.9254480287	-0.138775510204
377	0.1885	2.14615384615	-9.28	56.3555555556	-1.55714285714
378	0.189	5.00769230769	8.06857142857	56.3555555556	2.69795918367
379	0.1895	0.715384615385	-6.38857142857	56.3555555556	5.53469387755
380	0.19	5.00769230769	-0.605714285714	56.3555555556	2.69795918367
381	0.1905	10.7307692308	-2.05142857143	57.7605734767	-1.55714285714
382	0.191	2.14615384615	-0.605714285714	59.1655913978	12.6265306122
383	0.1915	0.715384615385	0.84	61.9756272401	-1.55714285714
384	0.192	0.715384615385	-2.05142857143	63.3806451613	14.0448979592
385	0.1925	2.14615384615	-0.605714285714	77.4308243728	-1.55714285714
386	0.193	0.715384615385	-2.05142857143	54.9505376344	-2.97551020408
387	0.1935	2.14615384615	13.8514285714	56.3555555556	-4.39387755102
388	0.194	2.14615384615	-10.7257142857	54.9505376344	-5.81224489796
389	0.1945	0.715384615385	-6.38857142857	47.9254480287	-2.97551020408
390	0.195	-7.86923076923	0.84	45.1154121864	-7.2306122449
391	0.1955	23.6076923077	0.84	42.3053763441	-7.2306122449
392	0.196	3.57692307692	-0.605714285714	38.0903225806	-11.4857142857
393	0.1965	0.715384615385	-0.605714285714	35.2802867384	-14.3224489796
394	0.197	3.57692307692	0.84	22.635125448	-5.81224489796
395	0.1975	2.14615384615	-0.605714285714	31.0652329749	-7.2306122449
396	0.198	3.57692307692	0.84	15.6100358423	-2.97551020408
397	0.1985	-0.715384615385	0.84	4.36989247312	-1.55714285714
398	0.199	5.00769230769	18.1885714286	-1.25017921147	-0.138775510204
399	0.1995	0.715384615385	-4.94285714286	-5.46523297491	1.27959183673
400	0.2	15.0230769231	-2.05142857143	-2.65519713262	4.11632653061
401	0.2005	22.1769230769	-2.05142857143	2.96487455197	4.11632653061
402	0.201	-3.57692307692	0.84	5.77491039427	8.37142857143
403	0.2015	2.14615384615	0.84	-6.87025089606	-0.138775510204
404	0.202	0.715384615385	-0.605714285714	24.0401433692	-4.39387755102
405	0.2025	0.715384615385	0.84	4.36989247312	-5.81224489796
406	0.203	0.715384615385	2.28571428571	28.2551971326	-2.97551020408
407	0.2035	0.715384615385	2.28571428571	14.2050179211	-4.39387755102
408	0.204	0.715384615385	2.28571428571	15.6100358423	-4.39387755102
409	0.2045	5.00769230769	-2.05142857143	18.4200716846	-4.39387755102
410	0.205	-6.43846153846	-2.05142857143	18.4200716846	-7.2306122449
411	0.2055	9.3	0.84	18.4200716846	-5.81224489796
412	0.206	-7.86923076923	-0.605714285714	19.8250896057	-17.1591836735
413	0.2065	0.715384615385	0.84	12.8	-5.81224489796
414	0.207	-3.57692307692	0.84	14.2050179211	-5.81224489796
415	0.2075	0.715384615385	-2.05142857143	-5.46523297491	-1.55714285714
416	0.208	0.715384615385	-3.49714285714	15.6100358423	1.27959183673
417	0.2085	0.715384615385	3.73142857143	-4.06021505376	-0.138775510204
418	0.209	0.715384615385	-7.83428571429	-8.2752688172	-0.138775510204
419	0.2095	-0.715384615385	13.8514285714	-12.4903225806	-0.138775510204
420	0.21	-3.57692307692	-0.605714285714	-13.8953405018	-1.55714285714
421	0.2105	-5.00769230769	-0.605714285714	-15.3003584229	1.27959183673
422	0.211	5.00769230769	-0.605714285714	-15.3003584229	16.8816326531
423	0.2115	0.715384615385	-0.605714285714	-19.5154121864	-0.138775510204
424	0.212	3.57692307692	-2.05142857143	-23.7304659498	4.11632653061
425	0.2125	3.57692307692	0.84	-1.25017921147	4.11632653061
426	0.213	3.57692307692	-0.605714285714	-20.9204301075	1.27959183673
427	0.2135	0.715384615385	-0.605714285714	-20.9204301075	-0.138775510204
428	0.214	0.715384615385	10.96	-22.3254480287	-2.97551020408
429	0.2145	-0.715384615385	-7.83428571429	-23.7304659498	-4.39387755102
430	0.215	0.715384615385	0.84	-23.7304659498	-2.97551020408
431	0.2155	15.0230769231	-3.49714285714	-30.7555555556	-2.97551020408
432	0.216	-5.00769230769	0.84	-30.7555555556	-2.97551020408
433	0.2165	3.57692307692	0.84	-32.1605734767	-7.2306122449
434	0.217	2.14615384615	-2.05142857143	-46.2107526882	-5.81224489796
435	0.2175	0.715384615385	-2.05142857143	-22.3254480287	-5.81224489796
436	0.218	0.715384615385	-2.05142857143	-36.3756272401	-4.39387755102
437	0.2185	3.57692307692	-10.7257142857	-37.7806451613	-2.97551020408
438	0.219	5.00769230769	0.84	-40.5906810036	-1.55714285714
439	0.2195	3.57692307692	-15.0628571429	-40.5906810036	-1.55714285714
440	0.22	-2.14615384615	0.84	-40.5906810036	-2.97551020408
441	0.2205	17.8846153846	-0.605714285714	-37.7806451613	-1.55714285714
442	0.221	-6.43846153846	-0.605714285714	-36.3756272401	-2.97551020408
443	0.2215	-0.715384615385	-0.605714285714	-39.1856630824	6.95306122449
444	0.222	2.14615384615	2.28571428571	-25.135483871	-2.97551020408
445	0.2225	3.57692307692	-2.05142857143	-27.9455197133	-1.55714285714
446	0.223	2.14615384615	-4.94285714286	-30.7555555556	-1.55714285714
447	0.2235	2.14615384615	-2.05142857143	-32.1605734767	-2.97551020408
448	0.224	0.715384615385	-4.94285714286	-34.970609319	-0.138775510204
449	0.2245	2.14615384615	0.84	-37.7806451613	-1.55714285714
450	0.225	-9.3	0.84	-43.4007168459	-4.39387755102
451	0.2255	20.7461538462	-0.605714285714	-43.4007168459	-0.138775510204
452	0.226	12.1615384615	0.84	-44.805734767	-1.55714285714
453	0.2265	0.715384615385	0.84	-46.2107526882	9.78979591837
454	0.227	0.715384615385	-0.605714285714	-57.4508960573	-2.97551020408
455	0.2275	0.715384615385	3.73142857143	-54.6408602151	-2.97551020408
456	0.228	2.14615384615	0.84	-57.4508960573	-1.55714285714
457	0.2285	5.00769230769	-4.94285714286	-50.4258064516	-1.55714285714
458	0.229	-0.715384615385	0.84	-53.2358422939	-0.138775510204
459	0.2295	-0.715384615385	0.84	-50.4258064516	-1.55714285714
460	0.23	7.86923076923	-0.605714285714	-39.1856630824	-1.55714285714
461	0.2305	-5.00769230769	-0.605714285714	-33.5655913978	1.27959183673
462	0.231	-0.715384615385	-0.605714285714	-29.3505376344	9.78979591837
463	0.2315	0.715384615385	0.84	-22.3254480287	-15.7408163265
464	0.232	0.715384615385	-0.605714285714	-19.5154121864	4.11632653061
465	0.2325	0.715384615385	-0.605714285714	-20.9204301075	-4.39387755102
466	0.233	-2.14615384615	5.17714285714	-18.1103942652	1.27959183673
467	0.2335	2.14615384615	-13.6171428571	-16.7053763441	1.27959183673
468	0.234	0.715384615385	19.6342857143	-20.9204301075	2.69795918367
469	0.2345	-0.715384615385	-4.94285714286	-19.5154121864	2.69795918367
470	0.235	5.00769230769	-3.49714285714	-22.3254480287	-0.138775510204
471	0.2355	20.7461538462	-2.05142857143	-22.3254480287	4.11632653061
472	0.236	-5.00769230769	-0.605714285714	-23.7304659498	2.69795918367
473	0.2365	0.715384615385	0.84	-23.7304659498	-4.39387755102
474	0.237	5.00769230769	-0.605714285714	-19.5154121864	-8.64897959184
475	0.2375	0.715384615385	-0.605714285714	-26.5405017921	-1.55714285714
476	0.238	0.715384615385	0.84	-25.135483871	-2.97551020408
477	0.2385	2.14615384615	-10.7257142857	-26.5405017921	-2.97551020408
478	0.239	2.14615384615	-6.38857142857	-23.7304659498	-0.138775510204
479	0.2395	2.14615384615	5.17714285714	-26.5405017921	-0.138775510204
480	0.24	-10.7307692308	2.28571428571	-29.3505376344	-2.97551020408
481	0.2405	23.6076923077	-2.05142857143	-36.3756272401	-2.97551020408
482	0.241	-3.57692307692	-2.05142857143	-40.5906810036	-8.64897959184
483	0.2415	-2.14615384615	-0.605714285714	-43.4007168459	1.27959183673
484	0.242	3.57692307692	-2.05142857143	-53.2358422939	-2.97551020408
485	0.2425	0.715384615385	0.84	-36.3756272401	-5.81224489796
486	0.243	-0.715384615385	-0.605714285714	-40.5906810036	-2.97551020408
487	0.2435	3.57692307692	0.84	-47.6157706093	-5.81224489796
488	0.244	3.57692307692	18.1885714286	-46.2107526882	-7.2306122449
489	0.2445	2.14615384615	-6.38857142857	-40.5906810036	-7.2306122449
490	0.245	2.14615384615	0.84	-36.3756272401	-5.81224489796
491	0.2455	-12.1615384615	-0.605714285714	-37.7806451613	-5.81224489796
492	0.246	-9.3	0.84	-37.7806451613	-4.39387755102
493	0.2465	5.00769230769	-0.605714285714	-36.3756272401	-8.64897959184
494	0.247	3.57692307692	0.84	-34.970609319	6.95306122449
495	0.2475	2.14615384615	-0.605714285714	-44.805734767	-2.97551020408
496	0.248	0.715384615385	-0.605714285714	-29.3505376344	1.27959183673
497	0.2485	3.57692307692	-0.605714285714	-25.135483871	-0.138775510204
498	0.249	3.57692307692	2.28571428571	-22.3254480287	1.27959183673
499	0.2495	2.14615384615	16.7428571429	-22.3254480287	-1.55714285714
500	0.25	5.00769230769	0.84	-16.7053763441	-1.55714285714
501	0.2505	0.715384615385	2.28571428571	-13.8953405018	-0.138775510204
502	0.251	15.0230769231	-0.605714285714	-11.0853046595	-0.138775510204
503	0.2515	-9.3	-0.605714285714	-6.87025089606	-7.2306122449
504	0.252	0.715384615385	0.84	-12.4903225806	-2.97551020408
505	0.2525	5.00769230769	2.28571428571	17.0150537634	-4.39387755102
506	0.253	0.715384615385	-3.49714285714	-12.4903225806	-0.138775510204
507	0.2535	0.715384615385	-0.605714285714	-8.2752688172	-2.97551020408
508	0.254	-2.14615384615	-12.1714285714	-12.4903225806	-2.97551020408
509	0.2545	-3.57692307692	-6.38857142857	-11.0853046595	-2.97551020408
510	0.255	-6.43846153846	0.84	-6.87025089606	-10.0673469388
511	0.2555	-12.1615384615	0.84	-6.87025089606	-7.2306122449
512	0.256	15.0230769231	-0.605714285714	-8.2752688172	-11.4857142857
513	0.2565	-3.57692307692	0.84	-9.68028673835	-0.138775510204
514	0.257	2.14615384615	-0.605714285714	-13.8953405018	-0.138775510204
515	0.2575	0.715384615385	0.84	-4.06021505376	-5.81224489796
516	0.258	2.14615384615	-2.05142857143	-8.2752688172	-0.138775510204
517	0.2585	0.715384615385	0.84	-12.4903225806	2.69795918367
518	0.259	3.57692307692	13.8514285714	-11.0853046595	-0.138775510204
519	0.2595	0.715384615385	-4.94285714286	-18.1103942652	2.69795918367
520	0.26	7.86923076923	0.84	-15.3003584229	-0.138775510204
521	0.2605	-0.715384615385	0.84	-12.4903225806	-0.138775510204
522	0.261	12.1615384615	0.84	-13.8953405018	4.11632653061
523	0.2615	5.00769230769	0.84	-12.4903225806	-10.0673469388
524	0.262	0.715384615385	-0.605714285714	-18.1103942652	5.53469387755
525	0.2625	2.14615384615	0.84	-8.2752688172	-2.97551020408
526	0.263	0.715384615385	0.84	-23.7304659498	-4.39387755102
527	0.2635	3.57692307692	-0.605714285714	-19.5154121864	-7.2306122449
528	0.264	5.00769230769	13.8514285714	-15.3003584229	-2.97551020408
529	0.2645	-0.715384615385	-7.83428571429	-12.4903225806	-4.39387755102
530	0.265	5.00769230769	0.84	-13.8953405018	-5.81224489796
531	0.2655	-6.43846153846	-0.605714285714	-18.1103942652	-8.64897959184
532	0.266	22.1769230769	0.84	-23.7304659498	-5.81224489796
533	0.2665	0.715384615385	0.84	-27.9455197133	-10.0673469388
534	0.267	-0.715384615385	-0.605714285714	-40.5906810036	-7.2306122449
535	0.2675	5.00769230769	0.84	-39.1856630824	-14.3224489796
536	0.268	-0.715384615385	0.84	-29.3505376344	-4.39387755102
537	0.2685	0.715384615385	-7.83428571429	-30.7555555556	-7.2306122449
538	0.269	7.86923076923	18.1885714286	-34.970609319	-7.2306122449
539	0.2695	-0.715384615385	-6.38857142857	-34.970609319	-8.64897959184
540	0.27	-0.715384615385	-4.94285714286	-36.3756272401	-7.2306122449
541	0.2705	-5.00769230769	-0.605714285714	-37.7806451613	-19.9959183673
542	0.271	-9.3	-2.05142857143	-37.7806451613	-14.3224489796
543	0.2715	2.14615384615	-0.605714285714	-39.1856630824	-12.9040816327
544	0.272	3.57692307692	-0.605714285714	-40.5906810036	-17.1591836735
545	0.2725	-0.715384615385	0.84	-41.9956989247	-10.0673469388
546	0.273	-3.57692307692	0.84	-34.970609319	-0.138775510204
547	0.2735	0.715384615385	-10.7257142857	-46.2107526882	-1.55714285714
548	0.274	0.715384615385	16.7428571429	-44.805734767	2.69795918367
549	0.2745	0.715384615385	-13.6171428571	-44.805734767	-1.55714285714
550	0.275	-2.14615384615	-6.38857142857	-43.4007168459	-2.97551020408
551	0.2755	-3.57692307692	0.84	-40.5906810036	-0.138775510204
552	0.276	-9.3	0.84	-41.9956989247	-8.64897959184
553	0.2765	-7.86923076923	0.84	-40.5906810036	-5.81224489796
554	0.277	-0.715384615385	0.84	-53.2358422939	-14.3224489796
555	0.2775	0.715384615385	2.28571428571	-26.5405017921	-11.4857142857
556	0.278	-0.715384615385	2.28571428571	-44.805734767	-11.4857142857
557	0.2785	0.715384615385	3.73142857143	-29.3505376344	-14.3224489796
558	0.279	0.715384615385	3.73142857143	-36.3756272401	-5.81224489796
559	0.2795	2.14615384615	19.6342857143	-32.1605734767	-8.64897959184
560	0.28	-2.14615384615	-4.94285714286	-29.3505376344	-5.81224489796
561	0.2805	16.4538461538	2.28571428571	-34.970609319	-5.81224489796
562	0.281	-10.7307692308	0.84	-30.7555555556	-8.64897959184
563	0.2815	-6.43846153846	0.84	-30.7555555556	-2.97551020408
564	0.282	0.715384615385	-0.605714285714	-32.1605734767	-12.9040816327
565	0.2825	0.715384615385	5.17714285714	-19.5154121864	-2.97551020408
566	0.283	-0.715384615385	0.84	-47.6157706093	-5.81224489796
567	0.2835	-2.14615384615	3.73142857143	-37.7806451613	-2.97551020408
568	0.284	-0.715384615385	-12.1714285714	-34.970609319	-2.97551020408
569	0.2845	0.715384615385	19.6342857143	-37.7806451613	-4.39387755102
570	0.285	-7.86923076923	0.84	-39.1856630824	-2.97551020408
571	0.2855	10.7307692308	3.73142857143	-37.7806451613	-0.138775510204
572	0.286	-12.1615384615	3.73142857143	-34.970609319	-11.4857142857
573	0.2865	-12.1615384615	0.84	-36.3756272401	-8.64897959184
574	0.287	-3.57692307692	2.28571428571	-34.970609319	-4.39387755102
575	0.2875	-3.57692307692	5.17714285714	-44.805734767	-7.2306122449
576	0.288	-3.57692307692	3.73142857143	-43.4007168459	-8.64897959184
577	0.2885	-3.57692307692	3.73142857143	-30.7555555556	-8.64897959184
578	0.289	-3.57692307692	-2.05142857143	-33.5655913978	-10.0673469388
579	0.2895	-5.00769230769	18.1885714286	-32.1605734767	-7.2306122449
580	0.29	0.715384615385	3.73142857143	-32.1605734767	-7.2306122449
581	0.2905	-9.3	3.73142857143	-33.5655913978	-7.2306122449
582	0.291	0.715384615385	0.84	-36.3756272401	1.27959183673
583	0.2915	-0.715384615385	3.73142857143	-34.970609319	-8.64897959184
584	0.292	-2.14615384615	0.84	-46.2107526882	1.27959183673
585	0.2925	-2.14615384615	3.73142857143	-39.1856630824	1.27959183673
586	0.293	-5.00769230769	3.73142857143	-56.0458781362	8.37142857143
587	0.2935	0.715384615385	2.28571428571	-44.805734767	6.95306122449
588	0.294	-0.715384615385	0.84	-51.8308243728	4.11632653061
589	0.2945	-5.00769230769	0.84	-50.4258064516	6.95306122449
590	0.295	-5.00769230769	0.84	-51.8308243728	6.95306122449
591	0.2955	-9.3	-2.05142857143	-56.0458781362	6.95306122449
592	0.296	-7.86923076923	0.84	-58.8559139785	5.53469387755
593	0.2965	-0.715384615385	2.28571428571	-60.2609318996	4.11632653061
594	0.297	2.14615384615	0.84	-58.8559139785	5.53469387755
595	0.2975	2.14615384615	3.73142857143	-43.4007168459	6.95306122449
596	0.298	3.57692307692	0.84	-65.8810035842	6.95306122449
597	0.2985	0.715384615385	2.28571428571	-57.4508960573	4.11632653061
598	0.299	2.14615384615	-6.38857142857	-58.8559139785	2.69795918367
599	0.2995	0.715384615385	0.84	-60.2609318996	2.69795918367
600	0.3	-3.57692307692	-3.49714285714	-63.0709677419	4.11632653061
601	0.3005	17.8846153846	-2.05142857143	-65.8810035842	5.53469387755
602	0.301	20.7461538462	-0.605714285714	-70.0960573477	1.27959183673
603	0.3015	3.57692307692	-0.605714285714	-77.1211469534	8.37142857143
604	0.302	5.00769230769	0.84	-95.3863799283	4.11632653061
605	0.3025	2.14615384615	-0.605714285714	-89.7663082437	-0.138775510204
606	0.303	0.715384615385	-0.605714285714	-89.7663082437	6.95306122449
607	0.3035	5.00769230769	-9.28	-99.6014336918	12.6265306122
608	0.304	5.00769230769	21.08	-103.816487455	9.78979591837
609	0.3045	3.57692307692	-7.83428571429	-105.221505376	9.78979591837
610	0.305	9.3	0.84	-109.43655914	12.6265306122
611	0.3055	2.14615384615	0.84	-108.031541219	-0.138775510204
612	0.306	2.14615384615	2.28571428571	-108.031541219	28.2285714286
613	0.3065	0.715384615385	0.84	-108.031541219	5.53469387755
614	0.307	3.57692307692	0.84	-112.246594982	5.53469387755
615	0.3075	0.715384615385	0.84	-109.43655914	14.0448979592
616	0.308	3.57692307692	0.84	-109.43655914	14.0448979592
617	0.3085	7.86923076923	-4.94285714286	-109.43655914	14.0448979592
618	0.309	9.3	3.73142857143	-108.031541219	15.4632653061
619	0.3095	7.86923076923	-0.605714285714	-103.816487455	14.0448979592
620	0.31	-3.57692307692	-0.605714285714	-105.221505376	5.53469387755
621	0.3105	7.86923076923	-0.605714285714	-106.626523297	4.11632653061
622	0.311	3.57692307692	-2.05142857143	-108.031541219	5.53469387755
623	0.3115	0.715384615385	-2.05142857143	-110.841577061	8.37142857143
624	0.312	2.14615384615	-0.605714285714	-112.246594982	5.53469387755
625	0.3125	3.57692307692	-4.94285714286	-113.651612903	5.53469387755
626	0.313	2.14615384615	0.84	-105.221505376	5.53469387755
627	0.3135	2.14615384615	-0.605714285714	-112.246594982	4.11632653061
628	0.314	0.715384615385	2.28571428571	-105.221505376	2.69795918367
629	0.3145	7.86923076923	-3.49714285714	-102.411469534	5.53469387755
630	0.315	-10.7307692308	0.84	-102.411469534	4.11632653061
631	0.3155	-3.57692307692	-0.605714285714	-101.006451613	1.27959183673
632	0.316	2.14615384615	-0.605714285714	-99.6014336918	-7.2306122449
633	0.3165	0.715384615385	0.84	-96.7913978495	-5.81224489796
634	0.317	0.715384615385	-2.05142857143	-93.9813620072	5.53469387755
635	0.3175	0.715384615385	0.84	-89.7663082437	1.27959183673
636	0.318	-0.715384615385	-0.605714285714	-101.006451613	1.27959183673
637	0.3185	3.57692307692	3.73142857143	-101.006451613	4.11632653061
638	0.319	-0.715384615385	-4.94285714286	-95.3863799283	2.69795918367
639	0.3195	3.57692307692	-0.605714285714	-93.9813620072	4.11632653061
640	0.32	9.3	-0.605714285714	-91.1713261649	-7.2306122449
641	0.3205	-0.715384615385	-3.49714285714	-92.576344086	19.7183673469
642	0.321	3.57692307692	-0.605714285714	-93.9813620072	-2.97551020408
643	0.3215	2.14615384615	-0.605714285714	-96.7913978495	14.0448979592
644	0.322	3.57692307692	-3.49714285714	-88.3612903226	-0.138775510204
645	0.3225	2.14615384615	-2.05142857143	-78.5261648746	-1.55714285714
646	0.323	2.14615384615	-10.7257142857	-81.3362007168	-0.138775510204
647	0.3235	5.00769230769	19.6342857143	-85.5512544803	-0.138775510204
648	0.324	-6.43846153846	-0.605714285714	-84.1462365591	-2.97551020408
649	0.3245	13.5923076923	0.84	-81.3362007168	-0.138775510204
650	0.325	23.6076923077	-2.05142857143	-77.1211469534	1.27959183673
651	0.3255	-7.86923076923	0.84	-71.5010752688	4.11632653061
652	0.326	0.715384615385	-2.05142857143	-75.7161290323	-0.138775510204
653	0.3265	2.14615384615	-0.605714285714	-60.2609318996	-5.81224489796
654	0.327	5.00769230769	-2.05142857143	-63.0709677419	1.27959183673
655	0.3275	2.14615384615	3.73142857143	-56.0458781362	-0.138775510204
656	0.328	3.57692307692	-9.28	-57.4508960573	-1.55714285714
657	0.3285	0.715384615385	-7.83428571429	-53.2358422939	-0.138775510204
658	0.329	-5.00769230769	-2.05142857143	-56.0458781362	-0.138775510204
659	0.3295	-9.3	0.84	-57.4508960573	-2.97551020408
660	0.33	2.14615384615	-0.605714285714	-57.4508960573	8.37142857143
661	0.3305	0.715384615385	0.84	-53.2358422939	12.6265306122
662	0.331	0.715384615385	-2.05142857143	-60.2609318996	-2.97551020408
663	0.3315	2.14615384615	0.84	-58.8559139785	-5.81224489796
664	0.332	-0.715384615385	-12.1714285714	-50.4258064516	-1.55714285714
665	0.3325	3.57692307692	16.7428571429	-51.8308243728	-0.138775510204
666	0.333	0.715384615385	9.51428571429	-50.4258064516	-0.138775510204
667	0.3335	2.14615384615	-3.49714285714	-51.8308243728	-0.138775510204
668	0.334	22.1769230769	0.84	-53.2358422939	-1.55714285714
669	0.3345	-6.43846153846	0.84	-51.8308243728	-0.138775510204
670	0.335	-7.86923076923	-0.605714285714	-53.2358422939	1.27959183673
671	0.3355	0.715384615385	-0.605714285714	-50.4258064516	-17.1591836735
672	0.336	-0.715384615385	0.84	-37.7806451613	-5.81224489796
673	0.3365	2.14615384615	-0.605714285714	-47.6157706093	-0.138775510204
674	0.337	0.715384615385	0.84	-56.0458781362	1.27959183673
675	0.3375	0.715384615385	-2.05142857143	-57.4508960573	-1.55714285714
676	0.338	0.715384615385	-6.38857142857	-49.0207885305	-1.55714285714
677	0.3385	2.14615384615	-0.605714285714	-51.8308243728	1.27959183673
678	0.339	-12.1615384615	0.84	-53.2358422939	1.27959183673
679	0.3395	-9.3	-2.05142857143	-56.0458781362	1.27959183673
680	0.34	2.14615384615	-2.05142857143	-53.2358422939	-11.4857142857
681	0.3405	0.715384615385	-0.605714285714	-51.8308243728	-10.0673469388
682	0.341	-0.715384615385	0.84	-50.4258064516	-5.81224489796
683	0.3415	0.715384615385	3.73142857143	-51.8308243728	-5.81224489796
684	0.342	3.57692307692	3.73142857143	-51.8308243728	-1.55714285714
685	0.3425	-0.715384615385	-0.605714285714	-47.6157706093	-1.55714285714
686	0.343	7.86923076923	-4.94285714286	-44.805734767	-0.138775510204
687	0.3435	-7.86923076923	-0.605714285714	-47.6157706093	-2.97551020408
688	0.344	0.715384615385	-0.605714285714	-50.4258064516	-0.138775510204
689	0.3445	-2.14615384615	0.84	-58.8559139785	12.6265306122
690	0.345	0.715384615385	-0.605714285714	-61.6659498208	-8.64897959184
691	0.3455	2.14615384615	0.84	-68.6910394265	1.27959183673
692	0.346	5.00769230769	-0.605714285714	-53.2358422939	-0.138775510204
693	0.3465	3.57692307692	0.84	-68.6910394265	4.11632653061
694	0.347	2.14615384615	3.73142857143	-71.5010752688	1.27959183673
695	0.3475	5.00769230769	-7.83428571429	-70.0960573477	2.69795918367
696	0.348	0.715384615385	-7.83428571429	-65.8810035842	4.11632653061
697	0.3485	13.5923076923	-0.605714285714	-64.4759856631	5.53469387755
698	0.349	-3.57692307692	-0.605714285714	-58.8559139785	-10.0673469388
699	0.3495	2.14615384615	-2.05142857143	-56.0458781362	-2.97551020408
700	0.35	-2.14615384615	0.84	-51.8308243728	-8.64897959184
701	0.3505	-0.715384615385	0.84	-49.0207885305	-8.64897959184
702	0.351	0.715384615385	-0.605714285714	-60.2609318996	-2.97551020408
703	0.3515	2.14615384615	0.84	-57.4508960573	-1.55714285714
704	0.352	2.14615384615	15.2971428571	-51.8308243728	-1.55714285714
705	0.3525	-0.715384615385	-7.83428571429	-49.0207885305	-2.97551020408
706	0.353	0.715384615385	6.62285714286	-47.6157706093	-0.138775510204
707	0.3535	-7.86923076923	-2.05142857143	-47.6157706093	-0.138775510204
708	0.354	0.715384615385	2.28571428571	-44.805734767	15.4632653061
709	0.3545	2.14615384615	2.28571428571	-44.805734767	2.69795918367
710	0.355	0.715384615385	0.84	-58.8559139785	-2.97551020408
711	0.3555	0.715384615385	0.84	-49.0207885305	-8.64897959184
712	0.356	-0.715384615385	-2.05142857143	-49.0207885305	1.27959183673
713	0.3565	-0.715384615385	-10.7257142857	-53.2358422939	-1.55714285714
714	0.357	0.715384615385	15.2971428571	-58.8559139785	-0.138775510204
715	0.3575	-0.715384615385	2.28571428571	-58.8559139785	-1.55714285714
716	0.358	-12.1615384615	-0.605714285714	-56.0458781362	-0.138775510204
717	0.3585	15.0230769231	-2.05142857143	-56.0458781362	-0.138775510204
718	0.359	0.715384615385	0.84	-54.6408602151	-1.55714285714
719	0.3595	-0.715384615385	-2.05142857143	-57.4508960573	-7.2306122449
720	0.36	0.715384615385	-0.605714285714	-53.2358422939	-0.138775510204
721	0.3605	2.14615384615	0.84	-46.2107526882	-0.138775510204
722	0.361	3.57692307692	-2.05142857143	-63.0709677419	1.27959183673
723	0.3615	7.86923076923	-3.49714285714	-50.4258064516	1.27959183673
724	0.362	2.14615384615	-3.49714285714	-53.2358422939	2.69795918367
725	0.3625	-0.715384615385	-3.49714285714	-50.4258064516	2.69795918367
726	0.363	-0.715384615385	-0.605714285714	-50.4258064516	2.69795918367
727	0.3635	17.8846153846	2.28571428571	-50.4258064516	6.95306122449
728	0.364	3.57692307692	-3.49714285714	-47.6157706093	19.7183673469
729	0.3645	3.57692307692	-2.05142857143	-46.2107526882	16.8816326531
730	0.365	0.715384615385	-2.05142857143	-60.2609318996	4.11632653061
731	0.3655	0.715384615385	0.84	-43.4007168459	-2.97551020408
732	0.366	3.57692307692	-7.83428571429	-34.970609319	1.27959183673
733	0.3665	3.57692307692	-12.1714285714	-33.5655913978	-0.138775510204
734	0.367	-0.715384615385	5.17714285714	-33.5655913978	-4.39387755102
735	0.3675	-2.14615384615	10.96	-33.5655913978	-1.55714285714
736	0.368	20.7461538462	0.84	-34.970609319	-1.55714285714
737	0.3685	17.8846153846	0.84	-39.1856630824	-7.2306122449
738	0.369	-2.14615384615	-0.605714285714	-44.805734767	-1.55714285714
739	0.3695	0.715384615385	-0.605714285714	-53.2358422939	-7.2306122449
740	0.37	-0.715384615385	0.84	-46.2107526882	-8.64897959184
741	0.3705	0.715384615385	0.84	-47.6157706093	-1.55714285714
742	0.371	2.14615384615	0.84	-46.2107526882	-1.55714285714
743	0.3715	0.715384615385	-0.605714285714	-54.6408602151	-1.55714285714
744	0.372	-2.14615384615	-4.94285714286	-47.6157706093	-0.138775510204
745	0.3725	7.86923076923	-2.05142857143	-47.6157706093	4.11632653061
746	0.373	-5.00769230769	-0.605714285714	-46.2107526882	2.69795918367
747	0.3735	7.86923076923	-0.605714285714	-41.9956989247	-7.2306122449
748	0.374	2.14615384615	0.84	-41.9956989247	-5.81224489796
749	0.3745	0.715384615385	-0.605714285714	-49.0207885305	-4.39387755102
750	0.375	-0.715384615385	-2.05142857143	-26.5405017921	-0.138775510204
751	0.3755	2.14615384615	0.84	-49.0207885305	-0.138775510204
752	0.376	0.715384615385	9.51428571429	-39.1856630824	-1.55714285714
753	0.3765	3.57692307692	19.6342857143	-33.5655913978	-0.138775510204
754	0.377	-0.715384615385	-7.83428571429	-30.7555555556	-0.138775510204
755	0.3775	5.00769230769	-0.605714285714	-30.7555555556	-1.55714285714
756	0.378	-0.715384615385	-2.05142857143	-25.135483871	-11.4857142857
757	0.3785	0.715384615385	0.84	-33.5655913978	16.8816326531
758	0.379	2.14615384615	0.84	-34.970609319	-7.2306122449
759	0.3795	2.14615384615	0.84	-51.8308243728	-5.81224489796
760	0.38	0.715384615385	0.84	-27.9455197133	-2.97551020408
761	0.3805	2.14615384615	-0.605714285714	-36.3756272401	-2.97551020408
762	0.381	3.57692307692	-9.28	-46.2107526882	-1.55714285714
763	0.3815	3.57692307692	18.1885714286	-46.2107526882	-1.55714285714
764	0.382	2.14615384615	-7.83428571429	-50.4258064516	-0.138775510204
765	0.3825	6.43846153846	-2.05142857143	-54.6408602151	1.27959183673
766	0.383	-5.00769230769	0.84	-51.8308243728	-1.55714285714
767	0.3835	-6.43846153846	-2.05142857143	-51.8308243728	-5.81224489796
768	0.384	0.715384615385	-0.605714285714	-54.6408602151	4.11632653061
769	0.3845	0.715384615385	2.28571428571	-63.0709677419	2.69795918367
770	0.385	-0.715384615385	-0.605714285714	-58.8559139785	2.69795918367
771	0.3855	3.57692307692	0.84	-47.6157706093	2.69795918367
772	0.386	3.57692307692	-12.1714285714	-46.2107526882	2.69795918367
773	0.3865	3.57692307692	16.7428571429	-44.805734767	1.27959183673
774	0.387	-3.57692307692	-2.05142857143	-44.805734767	-0.138775510204
775	0.3875	20.7461538462	-0.605714285714	-40.5906810036	2.69795918367
776	0.388	-7.86923076923	0.84	-37.7806451613	1.27959183673
777	0.3885	-5.00769230769	0.84	-37.7806451613	12.6265306122
778	0.389	0.715384615385	-0.605714285714	-29.3505376344	-8.64897959184
779	0.3895	0.715384615385	0.84	-23.7304659498	-0.138775510204
780	0.39	0.715384615385	2.28571428571	-34.970609319	1.27959183673
781	0.3905	-0.715384615385	2.28571428571	-33.5655913978	4.11632653061
782	0.391	-0.715384615385	-2.05142857143	-37.7806451613	1.27959183673
783	0.3915	2.14615384615	-10.7257142857	-37.7806451613	4.11632653061
784	0.392	-12.1615384615	-0.605714285714	-40.5906810036	4.11632653061
785	0.3925	5.00769230769	-0.605714285714	-37.7806451613	5.53469387755
786	0.393	-5.00769230769	0.84	-34.970609319	-10.0673469388
787	0.3935	3.57692307692	-2.05142857143	-39.1856630824	12.6265306122
788	0.394	3.57692307692	-2.05142857143	-36.3756272401	6.95306122449
789	0.3945	2.14615384615	0.84	-41.9956989247	1.27959183673
790	0.395	3.57692307692	-2.05142857143	-49.0207885305	5.53469387755
791	0.3955	7.86923076923	-4.94285714286	-40.5906810036	4.11632653061
792	0.396	0.715384615385	-2.05142857143	-46.2107526882	4.11632653061
793	0.3965	-2.14615384615	13.8514285714	-46.2107526882	2.69795918367
794	0.397	3.57692307692	-0.605714285714	-43.4007168459	5.53469387755
795	0.3975	-0.715384615385	0.84	-40.5906810036	15.4632653061
796	0.398	2.14615384615	-0.605714285714	-41.9956989247	4.11632653061
797	0.3985	3.57692307692	-0.605714285714	-54.6408602151	-4.39387755102
798	0.399	0.715384615385	-0.605714285714	-37.7806451613	-0.138775510204
799	0.3995	0.715384615385	2.28571428571	-34.970609319	-1.55714285714
800	0.4	0.715384615385	6.62285714286	-47.6157706093	-1.55714285714
801	0.4005	0.715384615385	15.2971428571	-44.805734767	-0.138775510204
802	0.401	-2.14615384615	-7.83428571429	-43.4007168459	1.27959183673
803	0.4015	2.14615384615	0.84	-39.1856630824	2.69795918367
804	0.402	-7.86923076923	0.84	-30.7555555556	-8.64897959184
805	0.4025	-3.57692307692	-2.05142857143	-27.9455197133	-4.39387755102
806	0.403	0.715384615385	-0.605714285714	-20.9204301075	-5.81224489796
807	0.4035	0.715384615385	-0.605714285714	-26.5405017921	1.27959183673
808	0.404	-0.715384615385	0.84	-9.68028673835	2.69795918367
809	0.4045	0.715384615385	0.84	-23.7304659498	4.11632653061
810	0.405	2.14615384615	6.62285714286	-20.9204301075	2.69795918367
811	0.4055	2.14615384615	-7.83428571429	-20.9204301075	4.11632653061
812	0.406	0.715384615385	-7.83428571429	-18.1103942652	1.27959183673
813	0.4065	15.0230769231	0.84	-18.1103942652	5.53469387755
814	0.407	-9.3	0.84	-20.9204301075	2.69795918367
815	0.4075	-3.57692307692	-0.605714285714	-19.5154121864	2.69795918367
816	0.408	-0.715384615385	0.84	-26.5405017921	-0.138775510204
817	0.4085	0.715384615385	-3.49714285714	-16.7053763441	-0.138775510204
818	0.409	0.715384615385	5.17714285714	-18.1103942652	-0.138775510204
819	0.4095	-0.715384615385	-0.605714285714	-20.9204301075	-0.138775510204
820	0.41	2.14615384615	10.96	-19.5154121864	-0.138775510204
821	0.4105	5.00769230769	3.73142857143	-19.5154121864	-0.138775510204
822	0.411	9.3	-2.05142857143	-19.5154121864	5.53469387755
823	0.4115	-10.7307692308	0.84	-23.7304659498	-0.138775510204
824	0.412	2.14615384615	-0.605714285714	-25.135483871	4.11632653061
825	0.4125	2.14615384615	-0.605714285714	-22.3254480287	-8.64897959184
826	0.413	0.715384615385	0.84	-12.4903225806	-0.138775510204
827	0.4135	0.715384615385	0.84	-26.5405017921	-1.55714285714
828	0.414	0.715384615385	5.17714285714	-32.1605734767	-1.55714285714
829	0.4145	0.715384615385	-4.94285714286	-26.5405017921	-0.138775510204
830	0.415	2.14615384615	-7.83428571429	-29.3505376344	4.11632653061
831	0.4155	-12.1615384615	2.28571428571	-36.3756272401	4.11632653061
832	0.416	-7.86923076923	-0.605714285714	-43.4007168459	2.69795918367
833	0.4165	-0.715384615385	-2.05142857143	-46.2107526882	4.11632653061
834	0.417	3.57692307692	2.28571428571	-58.8559139785	1.27959183673
835	0.4175	2.14615384615	-0.605714285714	-56.0458781362	-4.39387755102
836	0.418	0.715384615385	0.84	-36.3756272401	2.69795918367
837	0.4185	2.14615384615	-0.605714285714	-47.6157706093	2.69795918367
838	0.419	2.14615384615	21.08	-41.9956989247	-0.138775510204
839	0.4195	3.57692307692	-7.83428571429	-40.5906810036	4.11632653061
840	0.42	3.57692307692	-3.49714285714	-36.3756272401	-0.138775510204
841	0.4205	-15.0230769231	0.84	-29.3505376344	-0.138775510204
842	0.421	-12.1615384615	2.28571428571	-22.3254480287	-1.55714285714
843	0.4215	-9.3	-2.05142857143	-22.3254480287	-0.138775510204
844	0.422	0.715384615385	-0.605714285714	-25.135483871	2.69795918367
845	0.4225	0.715384615385	0.84	-32.1605734767	-1.55714285714
846	0.423	-0.715384615385	2.28571428571	-6.87025089606	-0.138775510204
847	0.4235	0.715384615385	-2.05142857143	-23.7304659498	-2.97551020408
848	0.424	0.715384615385	15.2971428571	-23.7304659498	-2.97551020408
849	0.4245	2.14615384615	-7.83428571429	-26.5405017921	-2.97551020408
850	0.425	-0.715384615385	-7.83428571429	-26.5405017921	-0.138775510204
851	0.4255	-5.00769230769	-0.605714285714	-25.135483871	1.27959183673
852	0.426	12.1615384615	-0.605714285714	-25.135483871	5.53469387755
853	0.4265	0.715384615385	2.28571428571	-26.5405017921	19.7183673469
854	0.427	0.715384615385	-2.05142857143	-23.7304659498	-0.138775510204
855	0.4275	3.57692307692	0.84	-29.3505376344	6.95306122449
856	0.428	0.715384615385	-0.605714285714	-19.5154121864	8.37142857143
857	0.4285	0.715384615385	3.73142857143	-23.7304659498	2.69795918367
858	0.429	0.715384615385	-10.7257142857	-23.7304659498	4.11632653061
859	0.4295	3.57692307692	-6.38857142857	-23.7304659498	4.11632653061
860	0.43	3.57692307692	-6.38857142857	-23.7304659498	1.27959183673
861	0.4305	-12.1615384615	0.84	-23.7304659498	1.27959183673
862	0.431	-9.3	0.84	-22.3254480287	1.27959183673
863	0.4315	13.5923076923	0.84	-18.1103942652	-8.64897959184
864	0.432	-0.715384615385	-0.605714285714	-16.7053763441	-2.97551020408
865	0.4325	0.715384615385	-2.05142857143	-20.9204301075	-2.97551020408
866	0.433	3.57692307692	-0.605714285714	-2.65519713262	-2.97551020408
867	0.4335	2.14615384615	-0.605714285714	-5.46523297491	-4.39387755102
868	0.434	-2.14615384615	0.84	-1.25017921147	-4.39387755102
869	0.4345	0.715384615385	-7.83428571429	-9.68028673835	-2.97551020408
870	0.435	-0.715384615385	-2.05142857143	-16.7053763441	-4.39387755102
871	0.4355	-12.1615384615	0.84	-19.5154121864	-2.97551020408
872	0.436	-13.5923076923	-0.605714285714	-26.5405017921	-2.97551020408
873	0.4365	-3.57692307692	-0.605714285714	-33.5655913978	-2.97551020408
874	0.437	0.715384615385	2.28571428571	-36.3756272401	2.69795918367
875	0.4375	-0.715384615385	-0.605714285714	-37.7806451613	19.7183673469
876	0.438	-0.715384615385	0.84	-43.4007168459	4.11632653061
877	0.4385	2.14615384615	-10.7257142857	-34.970609319	4.11632653061
878	0.439	0.715384615385	-12.1714285714	-40.5906810036	-0.138775510204
879	0.4395	0.715384615385	10.96	-39.1856630824	4.11632653061
880	0.44	0.715384615385	-3.49714285714	-40.5906810036	4.11632653061
881	0.4405	5.00769230769	-0.605714285714	-41.9956989247	4.11632653061
882	0.441	-3.57692307692	-2.05142857143	-39.1856630824	9.78979591837
883	0.4415	3.57692307692	0.84	-34.970609319	-5.81224489796
884	0.442	2.14615384615	-0.605714285714	-36.3756272401	-2.97551020408
885	0.4425	3.57692307692	2.28571428571	-22.3254480287	2.69795918367
886	0.443	2.14615384615	2.28571428571	-40.5906810036	-0.138775510204
887	0.4435	0.715384615385	0.84	-34.970609319	1.27959183673
888	0.444	2.14615384615	15.2971428571	-25.135483871	1.27959183673
889	0.4445	-0.715384615385	-7.83428571429	-22.3254480287	-0.138775510204
890	0.445	-6.43846153846	-2.05142857143	-25.135483871	-0.138775510204
891	0.4455	-12.1615384615	0.84	-23.7304659498	-0.138775510204
892	0.446	-9.3	-0.605714285714	-25.135483871	-0.138775510204
893	0.4465	-0.715384615385	0.84	-22.3254480287	-7.2306122449
894	0.447	-0.715384615385	0.84	-20.9204301075	2.69795918367
895	0.4475	-2.14615384615	-0.605714285714	-25.135483871	1.27959183673
896	0.448	-0.715384615385	2.28571428571	-13.8953405018	4.11632653061
897	0.4485	-0.715384615385	-12.1714285714	-12.4903225806	5.53469387755
898	0.449	0.715384615385	-6.38857142857	-18.1103942652	6.95306122449
899	0.4495	-0.715384615385	2.28571428571	-22.3254480287	5.53469387755
900	0.45	-9.3	0.84	-23.7304659498	5.53469387755
901	0.4505	16.4538461538	-2.05142857143	-22.3254480287	4.11632653061
902	0.451	-0.715384615385	0.84	-25.135483871	5.53469387755
903	0.4515	0.715384615385	0.84	-26.5405017921	22.5551020408
904	0.452	2.14615384615	2.28571428571	-26.5405017921	4.11632653061
905	0.4525	0.715384615385	-0.605714285714	-32.1605734767	1.27959183673
906	0.453	0.715384615385	-3.49714285714	-25.135483871	4.11632653061
907	0.4535	0.715384615385	-4.94285714286	-20.9204301075	-0.138775510204
908	0.454	0.715384615385	-13.6171428571	-20.9204301075	-0.138775510204
909	0.4545	-5.00769230769	0.84	-19.5154121864	-1.55714285714
910	0.455	-5.00769230769	0.84	-22.3254480287	-2.97551020408
911	0.4555	12.1615384615	0.84	-25.135483871	1.27959183673
912	0.456	-0.715384615385	-0.605714285714	-29.3505376344	19.7183673469
913	0.4565	-0.715384615385	-2.05142857143	-26.5405017921	-5.81224489796
914	0.457	2.14615384615	-2.05142857143	-33.5655913978	-0.138775510204
915	0.4575	-0.715384615385	0.84	-25.135483871	4.11632653061
916	0.458	0.715384615385	0.84	-29.3505376344	1.27959183673
917	0.4585	-0.715384615385	-10.7257142857	-23.7304659498	-0.138775510204
918	0.459	-0.715384615385	-6.38857142857	-25.135483871	-1.55714285714
919	0.4595	-2.14615384615	2.28571428571	-23.7304659498	-1.55714285714
920	0.46	2.14615384615	-7.83428571429	-27.9455197133	-0.138775510204
921	0.4605	-7.86923076923	0.84	-29.3505376344	1.27959183673
922	0.461	10.7307692308	0.84	-26.5405017921	-7.2306122449
923	0.4615	-2.14615384615	0.84	-30.7555555556	16.8816326531
924	0.462	0.715384615385	-0.605714285714	-25.135483871	-5.81224489796
925	0.4625	2.14615384615	0.84	-27.9455197133	-0.138775510204
926	0.463	0.715384615385	-2.05142857143	-12.4903225806	4.11632653061
927	0.4635	-0.715384615385	0.84	-29.3505376344	1.27959183673
928	0.464	2.14615384615	-0.605714285714	-32.1605734767	-0.138775510204
929	0.4645	3.57692307692	9.51428571429	-36.3756272401	-0.138775510204
930	0.465	0.715384615385	-7.83428571429	-33.5655913978	4.11632653061
931	0.4655	-6.43846153846	0.84	-33.5655913978	5.53469387755
932	0.466	0.715384615385	0.84	-32.1605734767	-7.2306122449
933	0.4665	-0.715384615385	2.28571428571	-32.1605734767	22.5551020408
934	0.467	0.715384615385	-0.605714285714	-34.970609319	12.6265306122
935	0.4675	0.715384615385	0.84	-40.5906810036	5.53469387755
936	0.468	0.715384615385	-2.05142857143	-37.7806451613	6.95306122449
937	0.4685	0.715384615385	0.84	-33.5655913978	4.11632653061
938	0.469	0.715384615385	10.96	-30.7555555556	1.27959183673
939	0.4695	-0.715384615385	18.1885714286	-27.9455197133	2.69795918367
940	0.47	-3.57692307692	-2.05142857143	-20.9204301075	5.53469387755
941	0.4705	7.86923076923	-0.605714285714	-18.1103942652	4.11632653061
942	0.471	-6.43846153846	0.84	-16.7053763441	1.27959183673
943	0.4715	-0.715384615385	0.84	-15.3003584229	-5.81224489796
944	0.472	0.715384615385	-2.05142857143	-19.5154121864	8.37142857143
945	0.4725	-2.14615384615	-0.605714285714	0.154838709677	-0.138775510204
946	0.473	0.715384615385	0.84	-4.06021505376	1.27959183673
947	0.4735	-0.715384615385	-6.38857142857	-19.5154121864	-2.97551020408
948	0.474	2.14615384615	21.08	-20.9204301075	-1.55714285714
949	0.4745	-0.715384615385	-7.83428571429	-20.9204301075	1.27959183673
950	0.475	2.14615384615	-0.605714285714	-20.9204301075	-0.138775510204
951	0.4755	17.8846153846	-0.605714285714	-23.7304659498	1.27959183673
952	0.476	-6.43846153846	0.84	-26.5405017921	12.6265306122
953	0.4765	0.715384615385	0.84	-27.9455197133	-4.39387755102
954	0.477	-2.14615384615	0.84	-27.9455197133	-7.2306122449
955	0.4775	-0.715384615385	0.84	-32.1605734767	2.69795918367
956	0.478	2.14615384615	3.73142857143	-27.9455197133	4.11632653061
957	0.4785	0.715384615385	-7.83428571429	-26.5405017921	1.27959183673
958	0.479	0.715384615385	2.28571428571	-30.7555555556	4.11632653061
959	0.4795	3.57692307692	-0.605714285714	-30.7555555556	4.11632653061
960	0.48	-9.3	-0.605714285714	-32.1605734767	5.53469387755
961	0.4805	5.00769230769	-0.605714285714	-27.9455197133	-7.2306122449
962	0.481	-5.00769230769	-0.605714285714	-26.5405017921	-5.81224489796
963	0.4815	-2.14615384615	0.84	-23.7304659498	12.6265306122
964	0.482	-0.715384615385	0.84	-23.7304659498	1.27959183673
965	0.4825	0.715384615385	-2.05142857143	-29.3505376344	1.27959183673
966	0.483	0.715384615385	-3.49714285714	-18.1103942652	1.27959183673
967	0.4835	-2.14615384615	-10.7257142857	-16.7053763441	4.11632653061
968	0.484	0.715384615385	16.7428571429	-15.3003584229	2.69795918367
969	0.4845	-3.57692307692	0.84	-15.3003584229	2.69795918367
970	0.485	12.1615384615	-0.605714285714	-12.4903225806	2.69795918367
971	0.4855	-7.86923076923	-0.605714285714	-11.0853046595	-1.55714285714
972	0.486	-0.715384615385	-0.605714285714	-8.2752688172	1.27959183673
973	0.4865	0.715384615385	0.84	-20.9204301075	2.69795918367
974	0.487	-2.14615384615	0.84	-11.0853046595	-5.81224489796
975	0.4875	-2.14615384615	2.28571428571	-11.0853046595	1.27959183673
976	0.488	-0.715384615385	-10.7257142857	-15.3003584229	-0.138775510204
977	0.4885	0.715384615385	8.06857142857	-18.1103942652	2.69795918367
978	0.489	-2.14615384615	13.8514285714	-18.1103942652	4.11632653061
979	0.4895	-12.1615384615	0.84	-20.9204301075	4.11632653061
980	0.49	12.1615384615	0.84	-22.3254480287	2.69795918367
981	0.4905	3.57692307692	0.84	-19.5154121864	-4.39387755102
982	0.491	2.14615384615	0.84	-19.5154121864	-0.138775510204
983	0.4915	0.715384615385	0.84	-1.25017921147	-1.55714285714
984	0.492	0.715384615385	-2.05142857143	-27.9455197133	-0.138775510204
985	0.4925	2.14615384615	2.28571428571	-22.3254480287	1.27959183673
986	0.493	-2.14615384615	-7.83428571429	-26.5405017921	2.69795918367
987	0.4935	-0.715384615385	16.7428571429	-29.3505376344	-0.138775510204
988	0.494	-6.43846153846	0.84	-33.5655913978	-0.138775510204
989	0.4945	17.8846153846	0.84	-30.7555555556	1.27959183673
990	0.495	-6.43846153846	-0.605714285714	-29.3505376344	4.11632653061
991	0.4955	2.14615384615	0.84	-37.7806451613	2.69795918367
992	0.496	-0.715384615385	0.84	-34.970609319	-4.39387755102
993	0.4965	0.715384615385	0.84	-18.1103942652	4.11632653061
994	0.497	0.715384615385	3.73142857143	-26.5405017921	5.53469387755
995	0.4975	2.14615384615	18.1885714286	-26.5405017921	2.69795918367
996	0.498	3.57692307692	-4.94285714286	-25.135483871	2.69795918367
997	0.4985	3.57692307692	-2.05142857143	-29.3505376344	1.27959183673
998	0.499	-12.1615384615	0.84	-26.5405017921	4.11632653061
999	0.4995	-3.57692307692	0.84	-23.7304659498	15.4632653061
1000	0.5	-2.14615384615	0.84	-16.7053763441	-5.81224489796
1001	0.5005	-0.715384615385	0.84	-20.9204301075	2.69795918367
1002	0.501	-2.14615384615	2.28571428571	-13.8953405018	1.27959183673
1003	0.5015	0.715384615385	3.73142857143	-15.3003584229	-1.55714285714
1004	0.502	0.715384615385	-7.83428571429	-12.4903225806	1.27959183673
1005	0.5025	0.715384615385	0.84	-12.4903225806	1.27959183673
1006	0.503	-2.14615384615	-6.38857142857	-11.0853046595	-0.138775510204
1007	0.5035	2.14615384615	0.84	-12.4903225806	2.69795918367
1008	0.504	-6.43846153846	-0.605714285714	-12.4903225806	-7.2306122449
1009	0.5045	0.715384615385	0.84	-20.9204301075	1.27959183673
1010	0.505	0.715384615385	0.84	-20.9204301075	-0.138775510204
1011	0.5055	0.715384615385	0.84	-33.5655913978	1.27959183673
1012	0.506	0.715384615385	-0.605714285714	-26.5405017921	2.69795918367
1013	0.5065	0.715384615385	-9.28	-18.1103942652	2.69795918367
1014	0.507	0.715384615385	-10.7257142857	-16.7053763441	1.27959183673
1015	0.5075	-2.14615384615	2.28571428571	-13.8953405018	5.53469387755
1016	0.508	-7.86923076923	2.28571428571	-11.0853046595	2.69795918367
1017	0.5085	19.3153846154	0.84	-8.2752688172	4.11632653061
1018	0.509	17.8846153846	-0.605714285714	-11.0853046595	1.27959183673
1019	0.5095	-2.14615384615	-0.605714285714	-20.9204301075	2.69795918367
1020	0.51	0.715384615385	2.28571428571	-19.5154121864	-2.97551020408
1021	0.5105	-2.14615384615	-0.605714285714	-11.0853046595	2.69795918367
1022	0.511	-0.715384615385	-3.49714285714	4.36989247312	5.53469387755
1023	0.5115	0.715384615385	8.06857142857	-9.68028673835	5.53469387755
1024	0.512	-0.715384615385	-2.05142857143	-9.68028673835	4.11632653061
1025	0.5125	0.715384615385	-2.05142857143	-9.68028673835	6.95306122449
1026	0.513	-5.00769230769	-4.94285714286	-13.8953405018	1.27959183673
1027	0.5135	-0.715384615385	-0.605714285714	-11.0853046595	5.53469387755
1028	0.514	0.715384615385	0.84	-8.2752688172	8.37142857143
1029	0.5145	-0.715384615385	0.84	-23.7304659498	-0.138775510204
1030	0.515	-2.14615384615	2.28571428571	0.154838709677	1.27959183673
1031	0.5155	-2.14615384615	0.84	-16.7053763441	1.27959183673
1032	0.516	0.715384615385	18.1885714286	-12.4903225806	4.11632653061
1033	0.5165	-2.14615384615	-6.38857142857	-11.0853046595	2.69795918367
1034	0.517	2.14615384615	-0.605714285714	-6.87025089606	4.11632653061
1035	0.5175	-7.86923076923	0.84	-8.2752688172	1.27959183673
1036	0.518	12.1615384615	0.84	-6.87025089606	1.27959183673
1037	0.5185	2.14615384615	2.28571428571	-4.06021505376	14.0448979592
1038	0.519	3.57692307692	-0.605714285714	-5.46523297491	22.5551020408
1039	0.5195	0.715384615385	0.84	-6.87025089606	14.0448979592
1040	0.52	0.715384615385	5.17714285714	-11.0853046595	5.53469387755
1041	0.5205	3.57692307692	-4.94285714286	-9.68028673835	6.95306122449
1042	0.521	-0.715384615385	5.17714285714	-8.2752688172	2.69795918367
1043	0.5215	-2.14615384615	-9.28	-9.68028673835	1.27959183673
1044	0.522	-2.14615384615	0.84	-9.68028673835	2.69795918367
1045	0.5225	-6.43846153846	0.84	-9.68028673835	2.69795918367
1046	0.523	-7.86923076923	0.84	-9.68028673835	5.53469387755
1047	0.5235	-0.715384615385	-2.05142857143	-13.8953405018	-7.2306122449
1048	0.524	0.715384615385	0.84	-12.4903225806	-0.138775510204
1049	0.5245	0.715384615385	-0.605714285714	-18.1103942652	6.95306122449
1050	0.525	-2.14615384615	-0.605714285714	-4.06021505376	6.95306122449
1051	0.5255	-2.14615384615	8.06857142857	-15.3003584229	5.53469387755
1052	0.526	-2.14615384615	-7.83428571429	-13.8953405018	5.53469387755
1053	0.5265	0.715384615385	0.84	-13.8953405018	4.11632653061
1054	0.527	-3.57692307692	-0.605714285714	-12.4903225806	-7.2306122449
1055	0.5275	-9.3	-0.605714285714	-11.0853046595	4.11632653061
1056	0.528	-0.715384615385	-3.49714285714	-18.1103942652	-7.2306122449
1057	0.5285	0.715384615385	0.84	2.96487455197	2.69795918367
1058	0.529	0.715384615385	-0.605714285714	-15.3003584229	1.27959183673
1059	0.5295	0.715384615385	3.73142857143	-11.0853046595	4.11632653061
1060	0.53	0.715384615385	-6.38857142857	-11.0853046595	1.27959183673
1061	0.5305	3.57692307692	6.62285714286	-11.0853046595	1.27959183673
1062	0.531	5.00769230769	-6.38857142857	-13.8953405018	-0.138775510204
1063	0.5315	-7.86923076923	-0.605714285714	-12.4903225806	4.11632653061
1064	0.532	-0.715384615385	-0.605714285714	-12.4903225806	-0.138775510204
1065	0.5325	2.14615384615	0.84	-8.2752688172	-7.2306122449
1066	0.533	0.715384615385	2.28571428571	-6.87025089606	2.69795918367
1067	0.5335	0.715384615385	0.84	5.77491039427	1.27959183673
1068	0.534	-0.715384615385	-0.605714285714	-12.4903225806	1.27959183673
1069	0.5345	0.715384615385	0.84	-6.87025089606	2.69795918367
1070	0.535	0.715384615385	0.84	-11.0853046595	1.27959183673
1071	0.5355	5.00769230769	0.84	-12.4903225806	5.53469387755
1072	0.536	0.715384615385	0.84	-12.4903225806	2.69795918367
1073	0.5365	5.00769230769	0.84	-12.4903225806	5.53469387755
1074	0.537	0.715384615385	-0.605714285714	-19.5154121864	22.5551020408
1075	0.5375	-0.715384615385	0.84	-18.1103942652	6.95306122449
1076	0.538	0.715384615385	-0.605714285714	-29.3505376344	5.53469387755
1077	0.5385	3.57692307692	-0.605714285714	-20.9204301075	-2.97551020408
1078	0.539	-2.14615384615	-2.05142857143	-22.3254480287	5.53469387755
1079	0.5395	0.715384615385	10.96	-18.1103942652	6.95306122449
1080	0.54	2.14615384615	18.1885714286	-18.1103942652	6.95306122449
1081	0.5405	0.715384615385	-9.28	-16.7053763441	4.11632653061
1082	0.541	13.5923076923	-0.605714285714	-12.4903225806	6.95306122449
1083	0.5415	-10.7307692308	2.28571428571	-9.68028673835	-5.81224489796
1084	0.542	-0.715384615385	0.84	-9.68028673835	-4.39387755102
1085	0.5425	-0.715384615385	0.84	-11.0853046595	-7.2306122449
1086	0.543	-0.715384615385	3.73142857143	-5.46523297491	-0.138775510204
1087	0.5435	-0.715384615385	3.73142857143	-15.3003584229	2.69795918367
1088	0.544	0.715384615385	3.73142857143	-16.7053763441	1.27959183673
1089	0.5445	0.715384615385	6.62285714286	-15.3003584229	2.69795918367
1090	0.545	5.00769230769	-2.05142857143	-15.3003584229	1.27959183673
1091	0.5455	-9.3	0.84	-15.3003584229	1.27959183673
1092	0.546	7.86923076923	-2.05142857143	-12.4903225806	6.95306122449
1093	0.5465	-7.86923076923	-2.05142857143	-11.0853046595	-7.2306122449
1094	0.547	5.00769230769	-2.05142857143	-9.68028673835	-0.138775510204
1095	0.5475	2.14615384615	-0.605714285714	-2.65519713262	-4.39387755102
1096	0.548	0.715384615385	-0.605714285714	-4.06021505376	-0.138775510204
1097	0.5485	2.14615384615	-12.1714285714	-4.06021505376	9.78979591837
1098	0.549	2.14615384615	16.7428571429	-9.68028673835	12.6265306122
1099	0.5495	0.715384615385	0.84	-11.0853046595	8.37142857143
1100	0.55	5.00769230769	-0.605714285714	-16.7053763441	14.0448979592
1101	0.5505	0.715384615385	0.84	-19.5154121864	8.37142857143
1102	0.551	0.715384615385	0.84	-23.7304659498	22.5551020408
1103	0.5515	2.14615384615	-2.05142857143	-23.7304659498	-0.138775510204
1104	0.552	2.14615384615	0.84	-29.3505376344	-2.97551020408
1105	0.5525	0.715384615385	-0.605714285714	-6.87025089606	5.53469387755
1106	0.553	-0.715384615385	-10.7257142857	-16.7053763441	2.69795918367
1107	0.5535	2.14615384615	22.5257142857	-18.1103942652	5.53469387755
1108	0.554	0.715384615385	-7.83428571429	-20.9204301075	5.53469387755
1109	0.5545	2.14615384615	-2.05142857143	-22.3254480287	2.69795918367
1110	0.555	19.3153846154	-2.05142857143	-25.135483871	5.53469387755
1111	0.5555	-9.3	-0.605714285714	-26.5405017921	-1.55714285714
1112	0.556	3.57692307692	0.84	-20.9204301075	2.69795918367
1113	0.5565	0.715384615385	0.84	-30.7555555556	5.53469387755
1114	0.557	-0.715384615385	-2.05142857143	-22.3254480287	-2.97551020408
1115	0.5575	2.14615384615	2.28571428571	-13.8953405018	2.69795918367
1116	0.558	-0.715384615385	-10.7257142857	-8.2752688172	1.27959183673
1117	0.5585	2.14615384615	16.7428571429	-5.46523297491	-0.138775510204
1118	0.559	0.715384615385	-9.28	-4.06021505376	-2.97551020408
1119	0.5595	5.00769230769	-2.05142857143	-5.46523297491	-1.55714285714
1120	0.56	17.8846153846	0.84	-9.68028673835	2.69795918367
1121	0.5605	-7.86923076923	-0.605714285714	-11.0853046595	-0.138775510204
1122	0.561	-0.715384615385	0.84	-8.2752688172	1.27959183673
1123	0.5615	2.14615384615	-0.605714285714	-9.68028673835	21.1367346939
1124	0.562	-2.14615384615	0.84	-15.3003584229	1.27959183673
1125	0.5625	-0.715384615385	-0.605714285714	-11.0853046595	4.11632653061
1126	0.563	0.715384615385	-10.7257142857	-5.46523297491	4.11632653061
1127	0.5635	-2.14615384615	-9.28	-4.06021505376	4.11632653061
1128	0.564	-0.715384615385	0.84	-1.25017921147	2.69795918367
1129	0.5645	-5.00769230769	0.84	2.96487455197	-0.138775510204
1130	0.565	15.0230769231	-0.605714285714	2.96487455197	1.27959183673
1131	0.5655	0.715384615385	-0.605714285714	2.96487455197	14.0448979592
1132	0.566	0.715384615385	-0.605714285714	-4.06021505376	-2.97551020408
1133	0.5665	2.14615384615	-2.05142857143	11.3949820789	-2.97551020408
1134	0.567	-0.715384615385	0.84	18.4200716846	4.11632653061
1135	0.5675	-2.14615384615	-4.94285714286	0.154838709677	5.53469387755
1136	0.568	0.715384615385	2.28571428571	-2.65519713262	6.95306122449
1137	0.5685	-2.14615384615	-4.94285714286	-4.06021505376	5.53469387755
1138	0.569	-2.14615384615	0.84	-1.25017921147	8.37142857143
1139	0.5695	-3.57692307692	2.28571428571	-5.46523297491	9.78979591837
1140	0.57	-2.14615384615	0.84	-5.46523297491	5.53469387755
1141	0.5705	-0.715384615385	0.84	-11.0853046595	4.11632653061
1142	0.571	2.14615384615	0.84	-1.25017921147	4.11632653061
1143	0.5715	0.715384615385	2.28571428571	-20.9204301075	2.69795918367
1144	0.572	0.715384615385	-0.605714285714	-22.3254480287	1.27959183673
1145	0.5725	0.715384615385	-12.1714285714	-18.1103942652	2.69795918367
1146	0.573	0.715384615385	-10.7257142857	-18.1103942652	5.53469387755
1147	0.5735	0.715384615385	0.84	-13.8953405018	2.69795918367
1148	0.574	-10.7307692308	0.84	-13.8953405018	4.11632653061
1149	0.5745	15.0230769231	-2.05142857143	-11.0853046595	-4.39387755102
1150	0.575	-3.57692307692	0.84	-9.68028673835	-10.0673469388
1151	0.5755	-0.715384615385	-0.605714285714	-19.5154121864	-0.138775510204
1152	0.576	-0.715384615385	0.84	-11.0853046595	-1.55714285714
1153	0.5765	0.715384615385	0.84	-29.3505376344	-1.55714285714
1154	0.577	-0.715384615385	-2.05142857143	-15.3003584229	-0.138775510204
1155	0.5775	-0.715384615385	-0.605714285714	-18.1103942652	-0.138775510204
1156	0.578	-2.14615384615	-7.83428571429	-15.3003584229	-0.138775510204
1157	0.5785	-0.715384615385	2.28571428571	-13.8953405018	2.69795918367
1158	0.579	-3.57692307692	0.84	-13.8953405018	-0.138775510204
1159	0.5795	-6.43846153846	-0.605714285714	-15.3003584229	8.37142857143
1160	0.58	2.14615384615	0.84	-11.0853046595	-7.2306122449
1161	0.5805	2.14615384615	0.84	-12.4903225806	1.27959183673
1162	0.581	0.715384615385	-2.05142857143	-19.5154121864	-0.138775510204
1163	0.5815	0.715384615385	-3.49714285714	-19.5154121864	4.11632653061
1164	0.582	0.715384615385	2.28571428571	-13.8953405018	2.69795918367
1165	0.5825	-2.14615384615	-7.83428571429	-15.3003584229	1.27959183673
1166	0.583	0.715384615385	0.84	-18.1103942652	8.37142857143
1167	0.5835	-10.7307692308	-0.605714285714	-19.5154121864	5.53469387755
1168	0.584	-6.43846153846	-0.605714285714	-20.9204301075	-2.97551020408
1169	0.5845	-0.715384615385	-2.05142857143	-19.5154121864	4.11632653061
1170	0.585	0.715384615385	-2.05142857143	-20.9204301075	15.4632653061
1171	0.5855	-0.715384615385	-2.05142857143	-29.3505376344	-1.55714285714
1172	0.586	0.715384615385	0.84	-19.5154121864	2.69795918367
1173	0.5865	-0.715384615385	-12.1714285714	-16.7053763441	1.27959183673
1174	0.587	-0.715384615385	15.2971428571	-18.1103942652	2.69795918367
1175	0.5875	-0.715384615385	2.28571428571	-15.3003584229	-1.55714285714
1176	0.588	-12.1615384615	-2.05142857143	-12.4903225806	2.69795918367
1177	0.5885	20.7461538462	-0.605714285714	-13.8953405018	2.69795918367
1178	0.589	-3.57692307692	2.28571428571	-12.4903225806	9.78979591837
1179	0.5895	-0.715384615385	0.84	-22.3254480287	5.53469387755
1180	0.59	0.715384615385	0.84	-15.3003584229	-2.97551020408
1181	0.5905	-0.715384615385	-0.605714285714	-22.3254480287	4.11632653061
1182	0.591	0.715384615385	-2.05142857143	-19.5154121864	6.95306122449
1183	0.5915	0.715384615385	-3.49714285714	-12.4903225806	6.95306122449
1184	0.592	-2.14615384615	0.84	-9.68028673835	5.53469387755
1185	0.5925	-13.5923076923	0.84	-12.4903225806	4.11632653061
1186	0.593	19.3153846154	-2.05142857143	-9.68028673835	2.69795918367
1187	0.5935	10.7307692308	0.84	-8.2752688172	-5.81224489796
1188	0.594	-3.57692307692	0.84	-6.87025089606	4.11632653061
1189	0.5945	0.715384615385	-0.605714285714	-4.06021505376	18.3
1190	0.595	0.715384615385	0.84	12.8	-0.138775510204
1191	0.5955	-5.00769230769	-2.05142857143	2.96487455197	1.27959183673
1192	0.596	0.715384615385	-9.28	4.36989247312	2.69795918367
1193	0.5965	0.715384615385	13.8514285714	0.154838709677	1.27959183673
1194	0.597	3.57692307692	-4.94285714286	-2.65519713262	4.11632653061
1195	0.5975	5.00769230769	2.28571428571	-5.46523297491	4.11632653061
1196	0.598	-5.00769230769	-0.605714285714	-11.0853046595	15.4632653061
1197	0.5985	0.715384615385	0.84	-13.8953405018	-5.81224489796
1198	0.599	0.715384615385	2.28571428571	-23.7304659498	-2.97551020408
1199	0.5995	0.715384615385	-0.605714285714	-11.0853046595	-0.138775510204
1200	0.6	0.715384615385	-0.605714285714	2.96487455197	4.11632653061
1201	0.6005	-2.14615384615	-0.605714285714	-13.8953405018	4.11632653061
1202	0.601	2.14615384615	9.51428571429	-18.1103942652	1.27959183673
1203	0.6015	3.57692307692	-2.05142857143	-16.7053763441	4.11632653061
1204	0.602	-3.57692307692	-0.605714285714	-15.3003584229	4.11632653061
1205	0.6025	-3.57692307692	-0.605714285714	-13.8953405018	1.27959183673
1206	0.603	-9.3	0.84	-12.4903225806	-1.55714285714
1207	0.6035	0.715384615385	-2.05142857143	-12.4903225806	-7.2306122449
1208	0.604	0.715384615385	2.28571428571	-1.25017921147	4.11632653061
1209	0.6045	0.715384615385	0.84	-23.7304659498	4.11632653061
1210	0.605	2.14615384615	0.84	-18.1103942652	5.53469387755
1211	0.6055	-0.715384615385	-12.1714285714	-19.5154121864	4.11632653061
1212	0.606	-0.715384615385	-9.28	-16.7053763441	4.11632653061
1213	0.6065	5.00769230769	0.84	-16.7053763441	2.69795918367
1214	0.607	-13.5923076923	-2.05142857143	-16.7053763441	-0.138775510204
1215	0.6075	0.715384615385	-0.605714285714	-13.8953405018	12.6265306122
1216	0.608	0.715384615385	2.28571428571	-12.4903225806	5.53469387755
1217	0.6085	0.715384615385	-0.605714285714	-23.7304659498	1.27959183673
1218	0.609	2.14615384615	0.84	-1.25017921147	4.11632653061
1219	0.6095	0.715384615385	0.84	-23.7304659498	5.53469387755
1220	0.61	-0.715384615385	3.73142857143	-19.5154121864	4.11632653061
1221	0.6105	3.57692307692	21.08	-18.1103942652	1.27959183673
1222	0.611	3.57692307692	-9.28	-18.1103942652	5.53469387755
1223	0.6115	9.3	0.84	-20.9204301075	5.53469387755
1224	0.612	-2.14615384615	0.84	-18.1103942652	-7.2306122449
1225	0.6125	3.57692307692	-0.605714285714	-18.1103942652	5.53469387755
1226	0.613	2.14615384615	-0.605714285714	-15.3003584229	11.2081632653
1227	0.6135	3.57692307692	0.84	-18.1103942652	18.3
1228	0.614	0.715384615385	-2.05142857143	-23.7304659498	1.27959183673
1229	0.6145	-0.715384615385	0.84	-5.46523297491	1.27959183673
1230	0.615	0.715384615385	-9.28	-13.8953405018	2.69795918367
1231	0.6155	-0.715384615385	-10.7257142857	-16.7053763441	-0.138775510204
1232	0.616	-0.715384615385	-0.605714285714	-16.7053763441	5.53469387755
1233	0.6165	7.86923076923	-2.05142857143	-11.0853046595	5.53469387755
1234	0.617	-3.57692307692	0.84	-6.87025089606	2.69795918367
1235	0.6175	-0.715384615385	-0.605714285714	-5.46523297491	-2.97551020408
1236	0.618	2.14615384615	-0.605714285714	-12.4903225806	12.6265306122
1237	0.6185	0.715384615385	2.28571428571	-1.25017921147	2.69795918367
1238	0.619	-0.715384615385	-0.605714285714	-22.3254480287	2.69795918367
1239	0.6195	0.715384615385	-0.605714285714	-23.7304659498	1.27959183673
1240	0.62	2.14615384615	3.73142857143	-18.1103942652	2.69795918367
1241	0.6205	-0.715384615385	-6.38857142857	-19.5154121864	-0.138775510204
1242	0.621	-6.43846153846	-0.605714285714	-22.3254480287	1.27959183673
1243	0.6215	2.14615384615	0.84	-18.1103942652	-8.64897959184
1244	0.622	-0.715384615385	-3.49714285714	-13.8953405018	5.53469387755
1245	0.6225	2.14615384615	-0.605714285714	-15.3003584229	14.0448979592
1246	0.623	0.715384615385	0.84	-16.7053763441	2.69795918367
1247	0.6235	0.715384615385	-3.49714285714	-18.1103942652	4.11632653061
1248	0.624	3.57692307692	0.84	-19.5154121864	2.69795918367
1249	0.6245	-2.14615384615	6.62285714286	-18.1103942652	1.27959183673
1250	0.625	2.14615384615	-6.38857142857	-18.1103942652	4.11632653061
1251	0.6255	-12.1615384615	-2.05142857143	-18.1103942652	-0.138775510204
1252	0.626	13.5923076923	-0.605714285714	-18.1103942652	4.11632653061
1253	0.6265	7.86923076923	-0.605714285714	-15.3003584229	-4.39387755102
1254	0.627	0.715384615385	0.84	-18.1103942652	16.8816326531
1255	0.6275	-0.715384615385	0.84	-15.3003584229	-7.2306122449
1256	0.628	0.715384615385	-0.605714285714	-11.0853046595	4.11632653061
1257	0.6285	3.57692307692	5.17714285714	-18.1103942652	1.27959183673
1258	0.629	0.715384615385	0.84	-29.3505376344	2.69795918367
1259	0.6295	0.715384615385	2.28571428571	-25.135483871	4.11632653061
1260	0.63	5.00769230769	-2.05142857143	-22.3254480287	2.69795918367
1261	0.6305	-5.00769230769	0.84	-22.3254480287	4.11632653061
1262	0.631	9.3	0.84	-23.7304659498	2.69795918367
1263	0.6315	-6.43846153846	-0.605714285714	-22.3254480287	-5.81224489796
1264	0.632	0.715384615385	0.84	-25.135483871	2.69795918367
1265	0.6325	0.715384615385	-0.605714285714	-19.5154121864	1.27959183673
1266	0.633	2.14615384615	0.84	-30.7555555556	5.53469387755
1267	0.6335	0.715384615385	-0.605714285714	-15.3003584229	4.11632653061
1268	0.634	2.14615384615	-10.7257142857	-12.4903225806	5.53469387755
1269	0.6345	-2.14615384615	-9.28	-13.8953405018	4.11632653061
1270	0.635	-6.43846153846	-0.605714285714	-12.4903225806	1.27959183673
1271	0.6355	17.8846153846	0.84	-9.68028673835	4.11632653061
1272	0.636	15.0230769231	-0.605714285714	-9.68028673835	-0.138775510204
1273	0.6365	-5.00769230769	0.84	-9.68028673835	8.37142857143
1274	0.637	0.715384615385	0.84	-18.1103942652	5.53469387755
1275	0.6375	0.715384615385	0.84	-6.87025089606	2.69795918367
1276	0.638	2.14615384615	0.84	0.154838709677	1.27959183673
1277	0.6385	-2.14615384615	-0.605714285714	-13.8953405018	1.27959183673
1278	0.639	-0.715384615385	-3.49714285714	-12.4903225806	2.69795918367
1279	0.6395	7.86923076923	-0.605714285714	-13.8953405018	4.11632653061
1280	0.64	-6.43846153846	-2.05142857143	-12.4903225806	2.69795918367
1281	0.6405	7.86923076923	-0.605714285714	-13.8953405018	-2.97551020408
1282	0.641	0.715384615385	0.84	-15.3003584229	9.78979591837
1283	0.6415	2.14615384615	-0.605714285714	-13.8953405018	1.27959183673
1284	0.642	0.715384615385	0.84	-23.7304659498	2.69795918367
1285	0.6425	0.715384615385	-2.05142857143	-25.135483871	1.27959183673
1286	0.643	0.715384615385	0.84	-11.0853046595	4.11632653061
1287	0.6435	5.00769230769	-10.7257142857	-16.7053763441	2.69795918367
1288	0.644	0.715384615385	-10.7257142857	-19.5154121864	-0.138775510204
1289	0.6445	-2.14615384615	-0.605714285714	-20.9204301075	1.27959183673
1290	0.645	-3.57692307692	-2.05142857143	-20.9204301075	4.11632653061
1291	0.6455	-7.86923076923	-0.605714285714	-22.3254480287	-0.138775510204
1292	0.646	-5.00769230769	-2.05142857143	-22.3254480287	-0.138775510204
1293	0.6465	0.715384615385	-2.05142857143	-29.3505376344	-4.39387755102
1294	0.647	0.715384615385	0.84	-1.25017921147	4.11632653061
1295	0.6475	0.715384615385	-2.05142857143	-16.7053763441	5.53469387755
1296	0.648	-3.57692307692	5.17714285714	-15.3003584229	4.11632653061
1297	0.6485	-0.715384615385	8.06857142857	-16.7053763441	-0.138775510204
1298	0.649	3.57692307692	-3.49714285714	-18.1103942652	2.69795918367
1299	0.6495	7.86923076923	-2.05142857143	-16.7053763441	-1.55714285714
1300	0.65	-2.14615384615	-2.05142857143	-15.3003584229	2.69795918367
1301	0.6505	-0.715384615385	2.28571428571	-18.1103942652	21.1367346939
1302	0.651	0.715384615385	-0.605714285714	-16.7053763441	-1.55714285714
1303	0.6515	0.715384615385	0.84	-19.5154121864	2.69795918367
1304	0.652	0.715384615385	-0.605714285714	2.96487455197	5.53469387755
1305	0.6525	0.715384615385	-4.94285714286	-9.68028673835	2.69795918367
1306	0.653	0.715384615385	5.17714285714	-6.87025089606	2.69795918367
1307	0.6535	2.14615384615	9.51428571429	-5.46523297491	2.69795918367
1308	0.654	9.3	-3.49714285714	-2.65519713262	5.53469387755
1309	0.6545	-12.1615384615	-2.05142857143	1.55985663082	6.95306122449
1310	0.655	-6.43846153846	0.84	1.55985663082	9.78979591837
1311	0.6555	0.715384615385	-3.49714285714	4.36989247312	-1.55714285714
1312	0.656	0.715384615385	-0.605714285714	2.96487455197	-5.81224489796
1313	0.6565	0.715384615385	-2.05142857143	2.96487455197	4.11632653061
1314	0.657	-0.715384615385	0.84	5.77491039427	2.69795918367
1315	0.6575	0.715384615385	-10.7257142857	15.6100358423	5.53469387755
1316	0.658	2.14615384615	18.1885714286	18.4200716846	2.69795918367
1317	0.6585	0.715384615385	3.73142857143	17.0150537634	2.69795918367
1318	0.659	3.57692307692	-0.605714285714	18.4200716846	5.53469387755
1319	0.6595	15.0230769231	-0.605714285714	17.0150537634	1.27959183673
1320	0.66	-0.715384615385	-2.05142857143	15.6100358423	5.53469387755
1321	0.6605	0.715384615385	0.84	11.3949820789	14.0448979592
1322	0.661	-2.14615384615	2.28571428571	0.154838709677	1.27959183673
1323	0.6615	0.715384615385	-0.605714285714	4.36989247312	4.11632653061
1324	0.662	0.715384615385	2.28571428571	5.77491039427	2.69795918367
1325	0.6625	3.57692307692	-10.7257142857	4.36989247312	4.11632653061
1326	0.663	0.715384615385	3.73142857143	0.154838709677	4.11632653061
1327	0.6635	0.715384615385	18.1885714286	0.154838709677	4.11632653061
1328	0.664	13.5923076923	-2.05142857143	1.55985663082	2.69795918367
1329	0.6645	3.57692307692	0.84	-1.25017921147	2.69795918367
1330	0.665	2.14615384615	-0.605714285714	1.55985663082	-2.97551020408
1331	0.6655	-0.715384615385	0.84	11.3949820789	2.69795918367
1332	0.666	2.14615384615	0.84	-2.65519713262	-5.81224489796
1333	0.6665	0.715384615385	-2.05142857143	-6.87025089606	1.27959183673
1334	0.667	-0.715384615385	-15.0628571429	-11.0853046595	2.69795918367
1335	0.6675	2.14615384615	9.51428571429	-15.3003584229	5.53469387755
1336	0.668	0.715384615385	-10.7257142857	-15.3003584229	1.27959183673
1337	0.6685	-3.57692307692	0.84	-15.3003584229	2.69795918367
1338	0.669	7.86923076923	-2.05142857143	-15.3003584229	-5.81224489796
1339	0.6695	0.715384615385	-2.05142857143	-18.1103942652	21.1367346939
1340	0.67	3.57692307692	0.84	-12.4903225806	-1.55714285714
1341	0.6705	0.715384615385	-0.605714285714	-25.135483871	1.27959183673
1342	0.671	3.57692307692	0.84	-13.8953405018	-5.81224489796
1343	0.6715	5.00769230769	-4.94285714286	-12.4903225806	5.53469387755
1344	0.672	3.57692307692	-10.7257142857	-8.2752688172	1.27959183673
1345	0.6725	3.57692307692	6.62285714286	-8.2752688172	2.69795918367
1346	0.673	0.715384615385	-2.05142857143	-11.0853046595	4.11632653061
1347	0.6735	19.3153846154	-2.05142857143	-12.4903225806	-1.55714285714
1348	0.674	-0.715384615385	-2.05142857143	-8.2752688172	5.53469387755
1349	0.6745	2.14615384615	-0.605714285714	-12.4903225806	2.69795918367
1350	0.675	0.715384615385	0.84	-8.2752688172	18.3
1351	0.6755	0.715384615385	0.84	-18.1103942652	5.53469387755
1352	0.676	5.00769230769	-0.605714285714	-15.3003584229	2.69795918367
1353	0.6765	3.57692307692	-10.7257142857	-9.68028673835	1.27959183673
1354	0.677	3.57692307692	-7.83428571429	-12.4903225806	4.11632653061
1355	0.6775	5.00769230769	-3.49714285714	-13.8953405018	5.53469387755
1356	0.678	-9.3	-0.605714285714	-12.4903225806	5.53469387755
1357	0.6785	0.715384615385	0.84	-15.3003584229	5.53469387755
1358	0.679	2.14615384615	3.73142857143	-19.5154121864	-2.97551020408
1359	0.6795	2.14615384615	-2.05142857143	-22.3254480287	-0.138775510204
1360	0.68	2.14615384615	3.73142857143	-12.4903225806	5.53469387755
1361	0.6805	2.14615384615	0.84	-34.970609319	6.95306122449
1362	0.681	3.57692307692	0.84	-29.3505376344	2.69795918367
1363	0.6815	5.00769230769	15.2971428571	-18.1103942652	1.27959183673
1364	0.682	3.57692307692	-7.83428571429	-20.9204301075	1.27959183673
1365	0.6825	-7.86923076923	-3.49714285714	-16.7053763441	2.69795918367
1366	0.683	23.6076923077	-0.605714285714	-18.1103942652	-0.138775510204
1367	0.6835	-3.57692307692	-3.49714285714	-18.1103942652	15.4632653061
1368	0.684	3.57692307692	-0.605714285714	-22.3254480287	-4.39387755102
1369	0.6845	2.14615384615	-0.605714285714	-23.7304659498	-4.39387755102
1370	0.685	0.715384615385	-2.05142857143	-25.135483871	4.11632653061
1371	0.6855	2.14615384615	3.73142857143	-25.135483871	4.11632653061
1372	0.686	2.14615384615	-0.605714285714	-32.1605734767	6.95306122449
1373	0.6865	7.86923076923	8.06857142857	-26.5405017921	2.69795918367
1374	0.687	7.86923076923	-2.05142857143	-27.9455197133	5.53469387755
1375	0.6875	-7.86923076923	-0.605714285714	-26.5405017921	1.27959183673
1376	0.688	5.00769230769	2.28571428571	-27.9455197133	-4.39387755102
1377	0.6885	-0.715384615385	-0.605714285714	-29.3505376344	-8.64897959184
1378	0.689	2.14615384615	-2.05142857143	-29.3505376344	16.8816326531
1379	0.6895	0.715384615385	0.84	-23.7304659498	1.27959183673
1380	0.69	2.14615384615	2.28571428571	-36.3756272401	4.11632653061
1381	0.6905	2.14615384615	-2.05142857143	-30.7555555556	2.69795918367
1382	0.691	2.14615384615	-6.38857142857	-30.7555555556	4.11632653061
1383	0.6915	0.715384615385	-4.94285714286	-33.5655913978	4.11632653061
1384	0.692	5.00769230769	-0.605714285714	-29.3505376344	1.27959183673
1385	0.6925	-5.00769230769	0.84	-30.7555555556	2.69795918367
1386	0.693	17.8846153846	0.84	-30.7555555556	5.53469387755
1387	0.6935	5.00769230769	0.84	-32.1605734767	-1.55714285714
1388	0.694	6.43846153846	-2.05142857143	-40.5906810036	5.53469387755
1389	0.6945	3.57692307692	-0.605714285714	-26.5405017921	-0.138775510204
1390	0.695	3.57692307692	-0.605714285714	-34.970609319	4.11632653061
1391	0.6955	5.00769230769	-2.05142857143	-33.5655913978	4.11632653061
1392	0.696	5.00769230769	6.62285714286	-25.135483871	5.53469387755
1393	0.6965	9.3	-0.605714285714	-25.135483871	2.69795918367
1394	0.697	-2.14615384615	-0.605714285714	-25.135483871	2.69795918367
1395	0.6975	15.0230769231	-2.05142857143	-23.7304659498	2.69795918367
1396	0.698	-3.57692307692	3.73142857143	-22.3254480287	-1.55714285714
1397	0.6985	6.43846153846	-3.49714285714	-27.9455197133	2.69795918367
1398	0.699	2.14615384615	0.84	-4.06021505376	2.69795918367
1399	0.6995	2.14615384615	0.84	-29.3505376344	4.11632653061
1400	0.7	5.00769230769	2.28571428571	-23.7304659498	2.69795918367
1401	0.7005	5.00769230769	15.2971428571	-19.5154121864	4.11632653061
1402	0.701	-0.715384615385	-6.38857142857	-19.5154121864	2.69795918367
1403	0.7015	-5.00769230769	0.84	-22.3254480287	2.69795918367
1404	0.702	-10.7307692308	0.84	-22.3254480287	1.27959183673
1405	0.7025	2.14615384615	-0.605714285714	-19.5154121864	9.78979591837
1406	0.703	3.57692307692	0.84	-16.7053763441	14.0448979592
1407	0.7035	3.57692307692	0.84	-29.3505376344	4.11632653061
1408	0.704	5.00769230769	-0.605714285714	-26.5405017921	-4.39387755102
1409	0.7045	3.57692307692	-10.7257142857	-23.7304659498	2.69795918367
1410	0.705	7.86923076923	-10.7257142857	-23.7304659498	1.27959183673
1411	0.7055	5.00769230769	9.51428571429	-26.5405017921	-1.55714285714
1412	0.706	9.3	-2.05142857143	-27.9455197133	1.27959183673
1413	0.7065	23.6076923077	2.28571428571	-29.3505376344	1.27959183673
1414	0.707	-5.00769230769	0.84	-30.7555555556	8.37142857143
1415	0.7075	5.00769230769	-0.605714285714	-32.1605734767	-10.0673469388
1416	0.708	5.00769230769	-0.605714285714	-30.7555555556	-8.64897959184
1417	0.7085	2.14615384615	2.28571428571	-29.3505376344	1.27959183673
1418	0.709	5.00769230769	3.73142857143	-32.1605734767	4.11632653061
1419	0.7095	5.00769230769	-6.38857142857	-30.7555555556	1.27959183673
1420	0.71	3.57692307692	0.84	-32.1605734767	2.69795918367
1421	0.7105	0.715384615385	0.84	-26.5405017921	2.69795918367
1422	0.711	-0.715384615385	0.84	-25.135483871	1.27959183673
1423	0.7115	15.0230769231	0.84	-19.5154121864	8.37142857143
1424	0.712	3.57692307692	0.84	-18.1103942652	16.8816326531
1425	0.7125	2.14615384615	-2.05142857143	-18.1103942652	-1.55714285714
1426	0.713	0.715384615385	-3.49714285714	7.17992831541	4.11632653061
1427	0.7135	5.00769230769	0.84	-16.7053763441	2.69795918367
1428	0.714	3.57692307692	2.28571428571	-15.3003584229	4.11632653061
1429	0.7145	5.00769230769	-12.1714285714	-8.2752688172	2.69795918367
1430	0.715	7.86923076923	-6.38857142857	-9.68028673835	2.69795918367
1431	0.7155	-9.3	-0.605714285714	-9.68028673835	1.27959183673
1432	0.716	26.4692307692	0.84	-11.0853046595	4.11632653061
1433	0.7165	17.8846153846	-0.605714285714	-9.68028673835	-2.97551020408
1434	0.717	0.715384615385	-3.49714285714	-9.68028673835	5.53469387755
1435	0.7175	2.14615384615	0.84	-16.7053763441	4.11632653061
1436	0.718	3.57692307692	0.84	-16.7053763441	-0.138775510204
1437	0.7185	2.14615384615	-3.49714285714	-13.8953405018	4.11632653061
1438	0.719	3.57692307692	-2.05142857143	1.55985663082	5.53469387755
1439	0.7195	0.715384615385	-10.7257142857	-1.25017921147	5.53469387755
1440	0.72	2.14615384615	2.28571428571	-1.25017921147	2.69795918367
1441	0.7205	-7.86923076923	-0.605714285714	-2.65519713262	-0.138775510204
1442	0.721	22.1769230769	0.84	4.36989247312	1.27959183673
1443	0.7215	3.57692307692	-0.605714285714	12.8	-5.81224489796
1444	0.722	2.14615384615	-2.05142857143	15.6100358423	9.78979591837
1445	0.7225	2.14615384615	-0.605714285714	35.2802867384	1.27959183673
1446	0.723	2.14615384615	-0.605714285714	26.8501792115	5.53469387755
1447	0.7235	3.57692307692	-2.05142857143	33.8752688172	4.11632653061
1448	0.724	2.14615384615	18.1885714286	32.4702508961	4.11632653061
1449	0.7245	0.715384615385	-7.83428571429	33.8752688172	1.27959183673
1450	0.725	17.8846153846	0.84	33.8752688172	1.27959183673
1451	0.7255	17.8846153846	-2.05142857143	35.2802867384	-0.138775510204
1452	0.726	0.715384615385	0.84	36.6853046595	6.95306122449
1453	0.7265	3.57692307692	0.84	38.0903225806	4.11632653061
1454	0.727	5.00769230769	0.84	40.9003584229	4.11632653061
1455	0.7275	5.00769230769	5.17714285714	31.0652329749	2.69795918367
1456	0.728	3.57692307692	0.84	31.0652329749	1.27959183673
1457	0.7285	9.3	16.7428571429	39.4953405018	2.69795918367
1458	0.729	0.715384615385	-9.28	40.9003584229	1.27959183673
1459	0.7295	5.00769230769	6.62285714286	39.4953405018	1.27959183673
1460	0.73	22.1769230769	-2.05142857143	40.9003584229	2.69795918367
1461	0.7305	-2.14615384615	-0.605714285714	40.9003584229	4.11632653061
1462	0.731	7.86923076923	-0.605714285714	39.4953405018	-8.64897959184
1463	0.7315	6.43846153846	0.84	32.4702508961	-2.97551020408
1464	0.732	5.00769230769	2.28571428571	39.4953405018	-7.2306122449
1465	0.7325	7.86923076923	0.84	43.7103942652	2.69795918367
1466	0.733	5.00769230769	-12.1714285714	39.4953405018	-0.138775510204
1467	0.7335	5.00769230769	8.06857142857	45.1154121864	1.27959183673
1468	0.734	3.57692307692	0.84	47.9254480287	-0.138775510204
1469	0.7345	17.8846153846	-2.05142857143	47.9254480287	-2.97551020408
1470	0.735	2.14615384615	-0.605714285714	43.7103942652	19.7183673469
1471	0.7355	3.57692307692	-2.05142857143	52.1405017921	-5.81224489796
1472	0.736	5.00769230769	-2.05142857143	45.1154121864	-0.138775510204
1473	0.7365	2.14615384615	0.84	73.2157706093	2.69795918367
1474	0.737	2.14615384615	0.84	53.5455197133	4.11632653061
1475	0.7375	9.3	9.51428571429	60.570609319	-1.55714285714
1476	0.738	5.00769230769	-10.7257142857	59.1655913978	2.69795918367
1477	0.7385	5.00769230769	-0.605714285714	56.3555555556	2.69795918367
1478	0.739	-7.86923076923	-3.49714285714	53.5455197133	1.27959183673
1479	0.7395	17.8846153846	-0.605714285714	57.7605734767	4.11632653061
1480	0.74	2.14615384615	0.84	61.9756272401	-5.81224489796
1481	0.7405	3.57692307692	-0.605714285714	56.3555555556	1.27959183673
1482	0.741	3.57692307692	2.28571428571	78.8358422939	1.27959183673
1483	0.7415	0.715384615385	-0.605714285714	69.0007168459	1.27959183673
1484	0.742	7.86923076923	2.28571428571	66.1906810036	1.27959183673
1485	0.7425	5.00769230769	-6.38857142857	64.7856630824	1.27959183673
1486	0.743	10.7307692308	-2.05142857143	66.1906810036	2.69795918367
1487	0.7435	-9.3	0.84	69.0007168459	-0.138775510204
1488	0.744	3.57692307692	2.28571428571	67.5956989247	-0.138775510204
1489	0.7445	0.715384615385	0.84	66.1906810036	-0.138775510204
1490	0.745	2.14615384615	0.84	66.1906810036	-7.2306122449
1491	0.7455	0.715384615385	2.28571428571	83.0508960573	1.27959183673
1492	0.746	2.14615384615	0.84	64.7856630824	1.27959183673
1493	0.7465	2.14615384615	0.84	76.0258064516	2.69795918367
1494	0.747	7.86923076923	-10.7257142857	71.8107526882	2.69795918367
1495	0.7475	5.00769230769	-10.7257142857	71.8107526882	4.11632653061
1496	0.748	5.00769230769	0.84	66.1906810036	1.27959183673
1497	0.7485	22.1769230769	0.84	66.1906810036	-0.138775510204
1498	0.749	-2.14615384615	-0.605714285714	74.6207885305	4.11632653061
1499	0.7495	5.00769230769	-0.605714285714	73.2157706093	21.1367346939
1500	0.75	3.57692307692	0.84	83.0508960573	1.27959183673
1501	0.7505	3.57692307692	-0.605714285714	71.8107526882	-0.138775510204
1502	0.751	5.00769230769	-0.605714285714	77.4308243728	1.27959183673
1503	0.7515	5.00769230769	-10.7257142857	77.4308243728	1.27959183673
1504	0.752	7.86923076923	18.1885714286	81.6458781362	1.27959183673
1505	0.7525	2.14615384615	-0.605714285714	83.0508960573	1.27959183673
1506	0.753	16.4538461538	0.84	84.4559139785	5.53469387755
1507	0.7535	-5.00769230769	-0.605714285714	83.0508960573	4.11632653061
1508	0.754	0.715384615385	-2.05142857143	83.0508960573	4.11632653061
1509	0.7545	7.86923076923	2.28571428571	94.2910394265	-0.138775510204
1510	0.755	5.00769230769	-2.05142857143	80.2408602151	1.27959183673
1511	0.7555	5.00769230769	2.28571428571	81.6458781362	2.69795918367
1512	0.756	3.57692307692	-3.49714285714	71.8107526882	-0.138775510204
1513	0.7565	2.14615384615	-3.49714285714	74.6207885305	1.27959183673
1514	0.757	7.86923076923	-2.05142857143	71.8107526882	4.11632653061
1515	0.7575	0.715384615385	-0.605714285714	73.2157706093	4.11632653061
1516	0.758	-0.715384615385	-0.605714285714	70.405734767	-7.2306122449
1517	0.7585	2.14615384615	-0.605714285714	70.405734767	12.6265306122
1518	0.759	2.14615384615	2.28571428571	81.6458781362	2.69795918367
1519	0.7595	5.00769230769	-2.05142857143	57.7605734767	5.53469387755
1520	0.76	7.86923076923	0.84	60.570609319	2.69795918367
1521	0.7605	5.00769230769	-7.83428571429	59.1655913978	1.27959183673
1522	0.761	7.86923076923	8.06857142857	54.9505376344	-0.138775510204
1523	0.7615	10.7307692308	-2.05142857143	56.3555555556	2.69795918367
1524	0.762	9.3	-0.605714285714	61.9756272401	2.69795918367
1525	0.7625	-5.00769230769	0.84	63.3806451613	-0.138775510204
1526	0.763	5.00769230769	0.84	63.3806451613	-0.138775510204
1527	0.7635	9.3	-0.605714285714	74.6207885305	2.69795918367
1528	0.764	6.43846153846	0.84	56.3555555556	-0.138775510204
1529	0.7645	5.00769230769	-0.605714285714	63.3806451613	-0.138775510204
1530	0.765	7.86923076923	-10.7257142857	67.5956989247	4.11632653061
1531	0.7655	2.14615384615	-10.7257142857	63.3806451613	4.11632653061
1532	0.766	0.715384615385	0.84	61.9756272401	-1.55714285714
1533	0.7665	22.1769230769	-2.05142857143	63.3806451613	-0.138775510204
1534	0.767	16.4538461538	-0.605714285714	61.9756272401	-8.64897959184
1535	0.7675	3.57692307692	-0.605714285714	60.570609319	9.78979591837
1536	0.768	5.00769230769	0.84	47.9254480287	-0.138775510204
1537	0.7685	5.00769230769	0.84	52.1405017921	1.27959183673
1538	0.769	5.00769230769	2.28571428571	50.735483871	-0.138775510204
1539	0.7695	10.7307692308	-6.38857142857	46.5204301075	-0.138775510204
1540	0.77	5.00769230769	-3.49714285714	43.7103942652	-1.55714285714
1541	0.7705	-5.00769230769	0.84	39.4953405018	-1.55714285714
1542	0.771	15.0230769231	-0.605714285714	39.4953405018	-0.138775510204
1543	0.7715	-5.00769230769	-0.605714285714	35.2802867384	-2.97551020408
1544	0.772	5.00769230769	-0.605714285714	35.2802867384	-5.81224489796
1545	0.7725	5.00769230769	-4.94285714286	31.0652329749	16.8816326531
1546	0.773	5.00769230769	-0.605714285714	28.2551971326	-0.138775510204
1547	0.7735	5.00769230769	0.84	28.2551971326	-1.55714285714
1548	0.774	3.57692307692	10.96	25.4451612903	-2.97551020408
1549	0.7745	5.00769230769	-7.83428571429	26.8501792115	-0.138775510204
1550	0.775	5.00769230769	-6.38857142857	22.635125448	1.27959183673
1551	0.7755	22.1769230769	-2.05142857143	21.2301075269	-0.138775510204
1552	0.776	-0.715384615385	-0.605714285714	15.6100358423	-1.55714285714
1553	0.7765	5.00769230769	-0.605714285714	15.6100358423	-1.55714285714
1554	0.777	7.86923076923	0.84	17.0150537634	-7.2306122449
1555	0.7775	3.57692307692	-3.49714285714	7.17992831541	-2.97551020408
1556	0.778	5.00769230769	-0.605714285714	31.0652329749	-2.97551020408
1557	0.7785	7.86923076923	-10.7257142857	14.2050179211	-4.39387755102
1558	0.779	3.57692307692	-7.83428571429	19.8250896057	-2.97551020408
1559	0.7795	7.86923076923	-0.605714285714	19.8250896057	-1.55714285714
1560	0.78	-7.86923076923	-0.605714285714	21.2301075269	-4.39387755102
1561	0.7805	12.1615384615	-0.605714285714	19.8250896057	-4.39387755102
1562	0.781	7.86923076923	0.84	21.2301075269	-11.4857142857
1563	0.7815	3.57692307692	0.84	26.8501792115	-5.81224489796
1564	0.782	3.57692307692	0.84	35.2802867384	-4.39387755102
1565	0.7825	7.86923076923	2.28571428571	12.8	-10.0673469388
1566	0.783	10.7307692308	9.51428571429	14.2050179211	-5.81224489796
1567	0.7835	7.86923076923	-9.28	15.6100358423	-4.39387755102
1568	0.784	10.7307692308	0.84	14.2050179211	-0.138775510204
1569	0.7845	-7.86923076923	0.84	14.2050179211	-1.55714285714
1570	0.785	13.5923076923	-0.605714285714	15.6100358423	-7.2306122449
1571	0.7855	5.00769230769	-2.05142857143	21.2301075269	-12.9040816327
1572	0.786	3.57692307692	-2.05142857143	21.2301075269	1.27959183673
1573	0.7865	2.14615384615	-0.605714285714	2.96487455197	-11.4857142857
1574	0.787	5.00769230769	0.84	22.635125448	-4.39387755102
1575	0.7875	7.86923076923	-0.605714285714	11.3949820789	-4.39387755102
1576	0.788	12.1615384615	-6.38857142857	14.2050179211	-7.2306122449
1577	0.7885	9.3	-3.49714285714	12.8	-8.64897959184
1578	0.789	7.86923076923	-0.605714285714	14.2050179211	-7.2306122449
1579	0.7895	2.14615384615	-0.605714285714	9.98996415771	12.6265306122
1580	0.79	9.3	-0.605714285714	12.8	-10.0673469388
1581	0.7905	5.00769230769	2.28571428571	-2.65519713262	-5.81224489796
1582	0.791	9.3	-2.05142857143	19.8250896057	-7.2306122449
1583	0.7915	10.7307692308	-3.49714285714	2.96487455197	-2.97551020408
1584	0.792	9.3	-9.28	1.55985663082	-7.2306122449
1585	0.7925	5.00769230769	-4.94285714286	2.96487455197	-7.2306122449
1586	0.793	5.00769230769	-6.38857142857	7.17992831541	-7.2306122449
1587	0.7935	22.1769230769	0.84	4.36989247312	-8.64897959184
1588	0.794	-0.715384615385	-0.605714285714	4.36989247312	-8.64897959184
1589	0.7945	5.00769230769	0.84	1.55985663082	-17.1591836735
1590	0.795	7.86923076923	-0.605714285714	-4.06021505376	-10.0673469388
1591	0.7955	9.3	0.84	15.6100358423	-7.2306122449
1592	0.796	7.86923076923	-12.1714285714	7.17992831541	-10.0673469388
1593	0.7965	7.86923076923	13.8514285714	4.36989247312	-5.81224489796
1594	0.797	3.57692307692	-6.38857142857	1.55985663082	-8.64897959184
1595	0.7975	9.3	-2.05142857143	4.36989247312	-7.2306122449
1596	0.798	10.7307692308	-0.605714285714	4.36989247312	-15.7408163265
1597	0.7985	6.43846153846	-2.05142857143	7.17992831541	-10.0673469388
1598	0.799	7.86923076923	0.84	14.2050179211	-15.7408163265
1599	0.7995	5.00769230769	0.84	8.58494623656	2.69795918367
1600	0.8	7.86923076923	5.17714285714	12.8	-10.0673469388
1601	0.8005	7.86923076923	-0.605714285714	5.77491039427	-10.0673469388
1602	0.801	7.86923076923	15.2971428571	14.2050179211	-11.4857142857
1603	0.8015	7.86923076923	-0.605714285714	19.8250896057	-14.3224489796
1604	0.802	23.6076923077	0.84	18.4200716846	-11.4857142857
1605	0.8025	19.3153846154	-0.605714285714	21.2301075269	-24.2510204082
1606	0.803	3.57692307692	-2.05142857143	15.6100358423	-0.138775510204
1607	0.8035	5.00769230769	0.84	17.0150537634	-24.2510204082
1608	0.804	7.86923076923	0.84	11.3949820789	-24.2510204082
1609	0.8045	7.86923076923	-3.49714285714	32.4702508961	-29.9244897959
1610	0.805	10.7307692308	-7.83428571429	15.6100358423	-29.9244897959
1611	0.8055	7.86923076923	18.1885714286	21.2301075269	-27.087755102
1612	0.806	9.3	8.06857142857	15.6100358423	-19.9959183673
1613	0.8065	-6.43846153846	-0.605714285714	8.58494623656	-18.5775510204
1614	0.807	17.8846153846	-0.605714285714	14.2050179211	-15.7408163265
1615	0.8075	3.57692307692	0.84	19.8250896057	-11.4857142857
1616	0.808	5.00769230769	-0.605714285714	18.4200716846	-11.4857142857
1617	0.8085	7.86923076923	0.84	32.4702508961	-10.0673469388
1618	0.809	7.86923076923	-2.05142857143	11.3949820789	-10.0673469388
1619	0.8095	3.57692307692	3.73142857143	18.4200716846	-8.64897959184
1620	0.81	7.86923076923	-2.05142857143	19.8250896057	-7.2306122449
1621	0.8105	15.0230769231	-4.94285714286	19.8250896057	-7.2306122449
1622	0.811	-2.14615384615	-0.605714285714	19.8250896057	-5.81224489796
1623	0.8115	15.0230769231	0.84	15.6100358423	-7.2306122449
1624	0.812	5.00769230769	0.84	17.0150537634	-4.39387755102
1625	0.8125	9.3	-2.05142857143	12.8	-11.4857142857
1626	0.813	5.00769230769	2.28571428571	33.8752688172	-5.81224489796
1627	0.8135	10.7307692308	0.84	26.8501792115	-7.2306122449
1628	0.814	10.7307692308	2.28571428571	12.8	-8.64897959184
1629	0.8145	12.1615384615	16.7428571429	7.17992831541	-1.55714285714
1630	0.815	9.3	-3.49714285714	11.3949820789	-1.55714285714
1631	0.8155	12.1615384615	-0.605714285714	4.36989247312	-1.55714285714
1632	0.816	12.1615384615	-2.05142857143	8.58494623656	-4.39387755102
1633	0.8165	-2.14615384615	-0.605714285714	17.0150537634	-10.0673469388
1634	0.817	3.57692307692	-0.605714285714	15.6100358423	5.53469387755
1635	0.8175	7.86923076923	-0.605714285714	15.6100358423	-4.39387755102
1636	0.818	7.86923076923	-0.605714285714	15.6100358423	-8.64897959184
1637	0.8185	5.00769230769	-2.05142857143	15.6100358423	-8.64897959184
1638	0.819	5.00769230769	3.73142857143	25.4451612903	-10.0673469388
1639	0.8195	3.57692307692	-7.83428571429	28.2551971326	-11.4857142857
1640	0.82	5.00769230769	0.84	31.0652329749	-8.64897959184
1641	0.8205	-5.00769230769	0.84	32.4702508961	-10.0673469388
1642	0.821	7.86923076923	0.84	35.2802867384	4.11632653061
1643	0.8215	3.57692307692	0.84	39.4953405018	5.53469387755
1644	0.822	7.86923076923	-0.605714285714	25.4451612903	-4.39387755102
1645	0.8225	7.86923076923	0.84	33.8752688172	-5.81224489796
1646	0.823	9.3	-10.7257142857	35.2802867384	-2.97551020408
1647	0.8235	7.86923076923	6.62285714286	29.6602150538	-5.81224489796
1648	0.824	6.43846153846	-6.38857142857	29.6602150538	-2.97551020408
1649	0.8245	5.00769230769	-0.605714285714	28.2551971326	-5.81224489796
1650	0.825	-5.00769230769	0.84	25.4451612903	-5.81224489796
1651	0.8255	7.86923076923	-0.605714285714	28.2551971326	1.27959183673
1652	0.826	7.86923076923	0.84	25.4451612903	-12.9040816327
1653	0.8265	7.86923076923	-0.605714285714	24.0401433692	-1.55714285714
1654	0.827	9.3	0.84	36.6853046595	-1.55714285714
1655	0.8275	7.86923076923	-6.38857142857	12.8	-1.55714285714
1656	0.828	12.1615384615	21.08	15.6100358423	-1.55714285714
1657	0.8285	3.57692307692	-3.49714285714	15.6100358423	-0.138775510204
1658	0.829	12.1615384615	0.84	19.8250896057	-1.55714285714
1659	0.8295	15.0230769231	0.84	22.635125448	-11.4857142857
1660	0.83	7.86923076923	0.84	19.8250896057	-0.138775510204
1661	0.8305	10.7307692308	0.84	24.0401433692	6.95306122449
1662	0.831	7.86923076923	-0.605714285714	18.4200716846	14.0448979592
1663	0.8315	10.7307692308	2.28571428571	26.8501792115	-0.138775510204
1664	0.832	10.7307692308	0.84	15.6100358423	1.27959183673
1665	0.8325	12.1615384615	13.8514285714	19.8250896057	1.27959183673
1666	0.833	12.1615384615	-6.38857142857	21.2301075269	1.27959183673
1667	0.8335	17.8846153846	-0.605714285714	21.2301075269	6.95306122449
1668	0.834	-0.715384615385	0.84	21.2301075269	2.69795918367
1669	0.8345	6.43846153846	-0.605714285714	21.2301075269	16.8816326531
1670	0.835	9.3	-0.605714285714	25.4451612903	-2.97551020408
1671	0.8355	12.1615384615	0.84	17.0150537634	-4.39387755102
1672	0.836	10.7307692308	0.84	31.0652329749	1.27959183673
1673	0.8365	10.7307692308	-10.7257142857	28.2551971326	-0.138775510204
1674	0.837	10.7307692308	16.7428571429	28.2551971326	-1.55714285714
1675	0.8375	7.86923076923	-2.05142857143	26.8501792115	-2.97551020408
1676	0.838	26.4692307692	-0.605714285714	26.8501792115	-2.97551020408
1677	0.8385	16.4538461538	2.28571428571	29.6602150538	-7.2306122449
1678	0.839	10.7307692308	-3.49714285714	29.6602150538	16.8816326531
1679	0.8395	9.3	0.84	26.8501792115	-1.55714285714
1680	0.84	7.86923076923	0.84	26.8501792115	-7.2306122449
1681	0.8405	12.1615384615	2.28571428571	45.1154121864	1.27959183673
1682	0.841	9.3	-13.6171428571	49.3304659498	-2.97551020408
1683	0.8415	12.1615384615	10.96	50.735483871	-0.138775510204
1684	0.842	9.3	-4.94285714286	47.9254480287	-0.138775510204
1685	0.8425	-2.14615384615	0.84	43.7103942652	-1.55714285714
1686	0.843	15.0230769231	-2.05142857143	45.1154121864	-5.81224489796
1687	0.8435	12.1615384615	-0.605714285714	43.7103942652	8.37142857143
1688	0.844	12.1615384615	-2.05142857143	43.7103942652	-1.55714285714
1689	0.8445	9.3	-2.05142857143	42.3053763441	14.0448979592
1690	0.845	10.7307692308	0.84	43.7103942652	-2.97551020408
1691	0.8455	10.7307692308	0.84	43.7103942652	-1.55714285714
1692	0.846	9.3	-7.83428571429	46.5204301075	-4.39387755102
1693	0.8465	7.86923076923	-4.94285714286	47.9254480287	-5.81224489796
1694	0.847	-0.715384615385	0.84	46.5204301075	-2.97551020408
1695	0.8475	16.4538461538	-2.05142857143	49.3304659498	-2.97551020408
1696	0.848	10.7307692308	-0.605714285714	54.9505376344	-0.138775510204
1697	0.8485	10.7307692308	-0.605714285714	57.7605734767	-0.138775510204
1698	0.849	7.86923076923	2.28571428571	43.7103942652	-1.55714285714
1699	0.8495	10.7307692308	2.28571428571	47.9254480287	-1.55714285714
1700	0.85	10.7307692308	-9.28	52.1405017921	-1.55714285714
1701	0.8505	9.3	-6.38857142857	53.5455197133	-1.55714285714
1702	0.851	7.86923076923	0.84	54.9505376344	-2.97551020408
1703	0.8515	-3.57692307692	-0.605714285714	56.3555555556	-1.55714285714
1704	0.852	19.3153846154	-0.605714285714	59.1655913978	-1.55714285714
1705	0.8525	7.86923076923	-2.05142857143	60.570609319	4.11632653061
1706	0.853	12.1615384615	-0.605714285714	57.7605734767	16.8816326531
1707	0.8535	10.7307692308	0.84	66.1906810036	-0.138775510204
1708	0.854	12.1615384615	-2.05142857143	59.1655913978	1.27959183673
1709	0.8545	9.3	-0.605714285714	64.7856630824	1.27959183673
1710	0.855	10.7307692308	10.96	63.3806451613	1.27959183673
1711	0.8555	16.4538461538	19.6342857143	63.3806451613	2.69795918367
1712	0.856	5.00769230769	0.84	66.1906810036	1.27959183673
1713	0.8565	26.4692307692	-0.605714285714	66.1906810036	2.69795918367
1714	0.857	0.715384615385	0.84	69.0007168459	1.27959183673
1715	0.8575	3.57692307692	0.84	70.405734767	5.53469387755
1716	0.858	7.86923076923	-0.605714285714	67.5956989247	19.7183673469
1717	0.8585	9.3	-0.605714285714	59.1655913978	-8.64897959184
1718	0.859	10.7307692308	3.73142857143	67.5956989247	4.11632653061
1719	0.8595	10.7307692308	-2.05142857143	64.7856630824	1.27959183673
1720	0.86	12.1615384615	-4.94285714286	77.4308243728	-1.55714285714
1721	0.8605	15.0230769231	-0.605714285714	77.4308243728	2.69795918367
1722	0.861	-2.14615384615	-2.05142857143	76.0258064516	-1.55714285714
1723	0.8615	19.3153846154	-0.605714285714	74.6207885305	-1.55714285714
1724	0.862	5.00769230769	0.84	71.8107526882	-1.55714285714
1725	0.8625	10.7307692308	0.84	69.0007168459	-1.55714285714
1726	0.863	7.86923076923	2.28571428571	77.4308243728	-2.97551020408
1727	0.8635	9.3	3.73142857143	59.1655913978	-0.138775510204
1728	0.864	10.7307692308	0.84	70.405734767	-0.138775510204
1729	0.8645	12.1615384615	-3.49714285714	71.8107526882	1.27959183673
1730	0.865	9.3	-9.28	77.4308243728	-2.97551020408
1731	0.8655	5.00769230769	2.28571428571	81.6458781362	-2.97551020408
1732	0.866	5.00769230769	0.84	90.0759856631	-12.9040816327
1733	0.8665	10.7307692308	0.84	90.0759856631	8.37142857143
1734	0.867	10.7307692308	-0.605714285714	106.936200717	12.6265306122
1735	0.8675	10.7307692308	2.28571428571	109.746236559	-0.138775510204
1736	0.868	7.86923076923	-0.605714285714	120.986379928	-1.55714285714
1737	0.8685	12.1615384615	-10.7257142857	129.416487455	-1.55714285714
1738	0.869	13.5923076923	-3.49714285714	122.391397849	-2.97551020408
1739	0.8695	9.3	-4.94285714286	119.581362007	-4.39387755102
1740	0.87	13.5923076923	-0.605714285714	116.771326165	-0.138775510204
1741	0.8705	17.8846153846	-0.605714285714	119.581362007	-11.4857142857
1742	0.871	9.3	0.84	119.581362007	2.69795918367
1743	0.8715	9.3	-2.05142857143	118.176344086	-10.0673469388
1744	0.872	10.7307692308	0.84	116.771326165	-5.81224489796
1745	0.8725	5.00769230769	-3.49714285714	123.796415771	-0.138775510204
1746	0.873	10.7307692308	0.84	139.251612903	-0.138775510204
1747	0.8735	10.7307692308	-10.7257142857	128.011469534	-0.138775510204
1748	0.874	12.1615384615	18.1885714286	128.011469534	-1.55714285714
1749	0.8745	2.14615384615	2.28571428571	133.631541219	-0.138775510204
1750	0.875	23.6076923077	0.84	139.251612903	2.69795918367
1751	0.8755	0.715384615385	0.84	153.301792115	-4.39387755102
1752	0.876	0.715384615385	0.84	164.541935484	-2.97551020408
1753	0.8765	10.7307692308	0.84	203.882437276	-4.39387755102
1754	0.877	10.7307692308	0.84	244.627956989	-7.2306122449
1755	0.8775	10.7307692308	-0.605714285714	230.577777778	-2.97551020408
1756	0.878	9.3	2.28571428571	234.792831541	-1.55714285714
1757	0.8785	12.1615384615	-10.7257142857	224.957706093	-0.138775510204
1758	0.879	10.7307692308	0.84	217.932616487	-0.138775510204
1759	0.8795	7.86923076923	0.84	212.312544803	-2.97551020408
1760	0.88	26.4692307692	0.84	206.692473118	-1.55714285714
1761	0.8805	0.715384615385	2.28571428571	203.882437276	-4.39387755102
1762	0.881	3.57692307692	-0.605714285714	213.717562724	2.69795918367
1763	0.8815	10.7307692308	2.28571428571	230.577777778	-5.81224489796
1764	0.882	10.7307692308	0.84	220.74265233	-4.39387755102
1765	0.8825	9.3	3.73142857143	202.477419355	-2.97551020408
1766	0.883	12.1615384615	5.17714285714	189.832258065	-5.81224489796
1767	0.8835	12.1615384615	-6.38857142857	192.642293907	-4.39387755102
1768	0.884	13.5923076923	-0.605714285714	188.427240143	-2.97551020408
1769	0.8845	-2.14615384615	0.84	198.262365591	-2.97551020408
1770	0.885	12.1615384615	0.84	205.287455197	-7.2306122449
1771	0.8855	-2.14615384615	0.84	206.692473118	-4.39387755102
1772	0.886	10.7307692308	0.84	199.667383513	-5.81224489796
1773	0.8865	12.1615384615	0.84	202.477419355	-11.4857142857
1774	0.887	10.7307692308	0.84	194.047311828	-5.81224489796
1775	0.8875	10.7307692308	-6.38857142857	202.477419355	-5.81224489796
1776	0.888	13.5923076923	-3.49714285714	206.692473118	-7.2306122449
1777	0.8885	7.86923076923	-10.7257142857	215.122580645	-4.39387755102
1778	0.889	0.715384615385	0.84	231.982795699	-7.2306122449
1779	0.8895	0.715384615385	-0.605714285714	244.627956989	-14.3224489796
1780	0.89	10.7307692308	-0.605714285714	246.03297491	-14.3224489796
1781	0.8905	9.3	-0.605714285714	254.463082437	-14.3224489796
1782	0.891	10.7307692308	-0.605714285714	271.323297491	1.27959183673
1783	0.8915	10.7307692308	3.73142857143	306.44874552	-5.81224489796
1784	0.892	10.7307692308	-7.83428571429	316.283870968	-5.81224489796
1785	0.8925	10.7307692308	5.17714285714	316.283870968	-5.81224489796
1786	0.893	9.3	-4.94285714286	310.663799283	-7.2306122449
1787	0.8935	12.1615384615	-0.605714285714	298.018637993	-5.81224489796
1788	0.894	9.3	0.84	288.183512545	-18.5775510204
1789	0.8945	12.1615384615	0.84	276.943369176	-4.39387755102
1790	0.895	12.1615384615	-0.605714285714	272.728315412	-2.97551020408
1791	0.8955	10.7307692308	0.84	262.893189964	5.53469387755
1792	0.896	12.1615384615	0.84	251.653046595	-10.0673469388
1793	0.8965	15.0230769231	-10.7257142857	257.27311828	-10.0673469388
1794	0.897	10.7307692308	-12.1714285714	260.083154122	-7.2306122449
1795	0.8975	13.5923076923	9.51428571429	258.678136201	-7.2306122449
1796	0.898	-0.715384615385	-0.605714285714	257.27311828	-5.81224489796
1797	0.8985	29.3307692308	-0.605714285714	251.653046595	-7.2306122449
1798	0.899	3.57692307692	0.84	244.627956989	-2.97551020408
1799	0.8995	9.3	0.84	237.602867384	9.78979591837
1800	0.9	9.3	0.84	231.982795699	-15.7408163265
1801	0.9005	10.7307692308	0.84	229.172759857	-7.2306122449
1802	0.901	10.7307692308	3.73142857143	233.38781362	-4.39387755102
1803	0.9015	9.3	-4.94285714286	229.172759857	-5.81224489796
1804	0.902	13.5923076923	5.17714285714	224.957706093	-2.97551020408
1805	0.9025	7.86923076923	0.84	220.74265233	-4.39387755102
1806	0.903	-3.57692307692	3.73142857143	216.527598566	-7.2306122449
1807	0.9035	23.6076923077	0.84	216.527598566	-10.0673469388
1808	0.904	9.3	-0.605714285714	217.932616487	9.78979591837
1809	0.9045	12.1615384615	-0.605714285714	213.717562724	-11.4857142857
1810	0.905	10.7307692308	-2.05142857143	210.907526882	-8.64897959184
1811	0.9055	10.7307692308	0.84	209.502508961	-7.2306122449
1812	0.906	9.3	0.84	202.477419355	-4.39387755102
1813	0.9065	9.3	3.73142857143	201.072401434	-4.39387755102
1814	0.907	15.0230769231	-12.1714285714	195.452329749	-5.81224489796
1815	0.9075	-0.715384615385	0.84	194.047311828	-7.2306122449
1816	0.908	10.7307692308	0.84	196.85734767	-2.97551020408
1817	0.9085	3.57692307692	0.84	196.85734767	-17.1591836735
1818	0.909	13.5923076923	-2.05142857143	196.85734767	5.53469387755
1819	0.9095	12.1615384615	0.84	201.072401434	-5.81224489796
