	Time	Channel 1	Channel 2	Channel 3	Channel 4
0	0.0	0.742857142857	-2.08076923077	8.7375	1.36666666667
1	0.0005	12.3714285714	0.834615384615	-8.8125	-3.0
2	0.001	-3.61785714286	-2.08076923077	-0.0375	-1.54444444444
3	0.0015	0.742857142857	-0.623076923077	-0.0375	-0.0888888888889
4	0.002	2.19642857143	0.834615384615	1.425	-0.0888888888889
5	0.0025	0.742857142857	0.834615384615	2.8875	-8.82222222222
6	0.003	2.19642857143	16.8692307692	-0.0375	-3.0
7	0.0035	-2.16428571429	-6.45384615385	2.8875	-5.91111111111
8	0.004	-15.2464285714	0.834615384615	1.425	-0.0888888888889
9	0.0045	-3.61785714286	-3.53846153846	-0.0375	-0.0888888888889
10	0.005	3.65	-4.99615384615	-0.0375	-0.0888888888889
11	0.0055	0.742857142857	-0.623076923077	-0.0375	1.36666666667
12	0.006	10.9178571429	-3.53846153846	-0.0375	-0.0888888888889
13	0.0065	0.742857142857	0.834615384615	-1.5	-5.91111111111
14	0.007	-0.710714285714	-0.623076923077	-5.8875	2.82222222222
15	0.0075	-0.710714285714	-0.623076923077	14.5875	1.36666666667
16	0.008	0.742857142857	-2.08076923077	-8.8125	-7.36666666667
17	0.0085	0.742857142857	16.8692307692	-0.0375	-1.54444444444
18	0.009	-3.61785714286	-9.36923076923	-0.0375	2.82222222222
19	0.0095	0.742857142857	0.834615384615	1.425	-1.54444444444
20	0.01	19.6392857143	0.834615384615	1.425	4.27777777778
21	0.0105	-2.16428571429	-0.623076923077	-0.0375	-0.0888888888889
22	0.011	-0.710714285714	0.834615384615	16.05	2.82222222222
23	0.0115	0.742857142857	-0.623076923077	2.8875	2.82222222222
24	0.012	-2.16428571429	0.834615384615	1.425	1.36666666667
25	0.0125	-2.16428571429	6.66538461538	-1.5	4.27777777778
26	0.013	0.742857142857	6.66538461538	-0.0375	1.36666666667
27	0.0135	0.742857142857	0.834615384615	-1.5	4.27777777778
28	0.014	-6.525	-0.623076923077	1.425	-4.45555555556
29	0.0145	-5.07142857143	-2.08076923077	-0.0375	-5.91111111111
30	0.015	-2.16428571429	-0.623076923077	-8.8125	1.36666666667
31	0.0155	-2.16428571429	2.29230769231	14.5875	-3.0
32	0.016	0.742857142857	-2.08076923077	-1.5	4.27777777778
33	0.0165	-0.710714285714	5.20769230769	-1.5	1.36666666667
34	0.017	-0.710714285714	13.9538461538	1.425	1.36666666667
35	0.0175	-9.43214285714	2.29230769231	-0.0375	2.82222222222
36	0.018	-7.97857142857	0.834615384615	-0.0375	-8.82222222222
37	0.0185	-0.710714285714	0.834615384615	-0.0375	-4.45555555556
38	0.019	0.742857142857	-0.623076923077	-10.275	1.36666666667
39	0.0195	-3.61785714286	0.834615384615	20.4375	-0.0888888888889
40	0.02	-0.710714285714	-2.08076923077	-2.9625	1.36666666667
41	0.0205	2.19642857143	-4.99615384615	-0.0375	-0.0888888888889
42	0.021	-2.16428571429	-4.99615384615	-2.9625	1.36666666667
43	0.0215	-7.97857142857	-0.623076923077	1.425	1.36666666667
44	0.022	13.825	-2.08076923077	-1.5	2.82222222222
45	0.0225	-10.8857142857	-3.53846153846	2.8875	17.3777777778
46	0.023	0.742857142857	-0.623076923077	1.425	-10.2777777778
47	0.0235	-0.710714285714	0.834615384615	-7.35	1.36666666667
48	0.024	-0.710714285714	-2.08076923077	21.9	2.82222222222
49	0.0245	-0.710714285714	-9.36923076923	1.425	1.36666666667
50	0.025	0.742857142857	16.8692307692	-0.0375	2.82222222222
51	0.0255	2.19642857143	0.834615384615	1.425	1.36666666667
52	0.026	21.0928571429	-0.623076923077	1.425	5.73333333333
53	0.0265	-2.16428571429	-0.623076923077	2.8875	-7.36666666667
54	0.027	-0.710714285714	-2.08076923077	-8.8125	2.82222222222
55	0.0275	-0.710714285714	2.29230769231	-4.425	-0.0888888888889
56	0.028	-3.61785714286	0.834615384615	-1.5	-1.54444444444
57	0.0285	-0.710714285714	-3.53846153846	-1.5	2.82222222222
58	0.029	3.65	-6.45384615385	-0.0375	-0.0888888888889
59	0.0295	-7.97857142857	-0.623076923077	-0.0375	1.36666666667
60	0.03	8.01071428571	-0.623076923077	1.425	1.36666666667
61	0.0305	-7.97857142857	-0.623076923077	-0.0375	13.0111111111
62	0.031	-0.710714285714	-2.08076923077	-0.0375	-5.91111111111
63	0.0315	0.742857142857	-0.623076923077	1.425	15.9222222222
64	0.032	-2.16428571429	-4.99615384615	4.35	-0.0888888888889
65	0.0325	2.19642857143	11.0384615385	-0.0375	-0.0888888888889
66	0.033	-2.16428571429	-0.623076923077	1.425	1.36666666667
67	0.0335	-5.07142857143	-2.08076923077	-1.5	-0.0888888888889
68	0.034	5.10357142857	-2.08076923077	1.425	-3.0
69	0.0345	-0.710714285714	-0.623076923077	-0.0375	1.36666666667
70	0.035	-5.07142857143	-2.08076923077	2.8875	-0.0888888888889
71	0.0355	0.742857142857	-3.53846153846	-4.425	2.82222222222
72	0.036	-0.710714285714	-10.8269230769	-1.5	1.36666666667
73	0.0365	0.742857142857	8.12307692308	-1.5	-1.54444444444
74	0.037	-9.43214285714	-0.623076923077	-0.0375	-0.0888888888889
75	0.0375	9.46428571429	0.834615384615	1.425	4.27777777778
76	0.038	-2.16428571429	-0.623076923077	4.35	8.64444444444
77	0.0385	-0.710714285714	0.834615384615	4.35	2.82222222222
78	0.039	-0.710714285714	0.834615384615	-5.8875	-5.91111111111
79	0.0395	-2.16428571429	0.834615384615	-7.35	1.36666666667
80	0.04	-0.710714285714	-4.99615384615	-0.0375	-0.0888888888889
81	0.0405	0.742857142857	0.834615384615	-1.5	1.36666666667
82	0.041	3.65	-2.08076923077	1.425	-0.0888888888889
83	0.0415	13.825	-3.53846153846	-1.5	2.82222222222
84	0.042	-7.97857142857	-0.623076923077	-1.5	1.36666666667
85	0.0425	-2.16428571429	0.834615384615	-10.275	-1.54444444444
86	0.043	-3.61785714286	0.834615384615	-1.5	1.36666666667
87	0.0435	-0.710714285714	2.29230769231	-2.9625	-1.54444444444
88	0.044	-2.16428571429	-3.53846153846	1.425	1.36666666667
89	0.0445	2.19642857143	-2.08076923077	-1.5	-0.0888888888889
90	0.045	-5.07142857143	-0.623076923077	-1.5	-1.54444444444
91	0.0455	-9.43214285714	0.834615384615	-0.0375	4.27777777778
92	0.046	-2.16428571429	0.834615384615	-0.0375	-7.36666666667
93	0.0465	-2.16428571429	-0.623076923077	-5.8875	1.36666666667
94	0.047	-2.16428571429	-2.08076923077	17.5125	-1.54444444444
95	0.0475	-5.07142857143	2.29230769231	-8.8125	-3.0
96	0.048	-5.07142857143	-9.36923076923	-0.0375	-0.0888888888889
97	0.0485	-0.710714285714	-0.623076923077	-0.0375	-0.0888888888889
98	0.049	13.825	-2.08076923077	-1.5	1.36666666667
99	0.0495	-2.16428571429	0.834615384615	1.425	1.36666666667
100	0.05	-3.61785714286	-2.08076923077	-5.8875	10.1
101	0.0505	-0.710714285714	0.834615384615	4.35	1.36666666667
102	0.051	-3.61785714286	0.834615384615	-4.425	1.36666666667
103	0.0515	-2.16428571429	0.834615384615	-0.0375	1.36666666667
104	0.052	-0.710714285714	16.8692307692	-0.0375	-0.0888888888889
105	0.0525	0.742857142857	-6.45384615385	-1.5	-0.0888888888889
106	0.053	-15.2464285714	-0.623076923077	-0.0375	2.82222222222
107	0.0535	-0.710714285714	0.834615384615	-0.0375	-10.2777777778
108	0.054	-2.16428571429	-2.08076923077	-1.5	7.18888888889
109	0.0545	-0.710714285714	0.834615384615	13.125	-0.0888888888889
110	0.055	-0.710714285714	-0.623076923077	-1.5	-0.0888888888889
111	0.0555	-0.710714285714	8.12307692308	-1.5	1.36666666667
112	0.056	-3.61785714286	0.834615384615	-0.0375	1.36666666667
113	0.0565	2.19642857143	-0.623076923077	-0.0375	-0.0888888888889
114	0.057	3.65	-0.623076923077	-1.5	1.36666666667
115	0.0575	-0.710714285714	0.834615384615	2.8875	4.27777777778
116	0.058	-2.16428571429	-0.623076923077	-5.8875	1.36666666667
117	0.0585	-0.710714285714	0.834615384615	1.425	-1.54444444444
118	0.059	-2.16428571429	2.29230769231	-0.0375	1.36666666667
119	0.0595	-0.710714285714	-10.8269230769	1.425	1.36666666667
120	0.06	2.19642857143	-2.08076923077	-0.0375	1.36666666667
121	0.0605	10.9178571429	-0.623076923077	-0.0375	2.82222222222
122	0.061	3.65	0.834615384615	2.8875	7.18888888889
123	0.0615	-3.61785714286	-0.623076923077	5.8125	-3.0
124	0.062	-0.710714285714	-0.623076923077	-7.35	1.36666666667
125	0.0625	-0.710714285714	0.834615384615	-7.35	1.36666666667
126	0.063	-0.710714285714	-10.8269230769	-0.0375	1.36666666667
127	0.0635	2.19642857143	-3.53846153846	-0.0375	-0.0888888888889
128	0.064	0.742857142857	-0.623076923077	-1.5	1.36666666667
129	0.0645	-13.7928571429	-2.08076923077	-2.9625	2.82222222222
130	0.065	-5.07142857143	0.834615384615	2.8875	-10.2777777778
131	0.0655	-0.710714285714	-0.623076923077	-11.7375	-3.0
132	0.066	-0.710714285714	0.834615384615	11.6625	1.36666666667
133	0.0665	-0.710714285714	-0.623076923077	-2.9625	-0.0888888888889
134	0.067	2.19642857143	-12.2846153846	-0.0375	-3.0
135	0.0675	-3.61785714286	0.834615384615	-0.0375	-0.0888888888889
136	0.068	-13.7928571429	0.834615384615	-0.0375	-1.54444444444
137	0.0685	18.1857142857	-3.53846153846	-0.0375	2.82222222222
138	0.069	-3.61785714286	-0.623076923077	4.35	14.4666666667
139	0.0695	-3.61785714286	-3.53846153846	4.35	-1.54444444444
140	0.07	0.742857142857	2.29230769231	-1.5	-0.0888888888889
141	0.0705	-0.710714285714	3.75	-0.0375	1.36666666667
142	0.071	-2.16428571429	-2.08076923077	-1.5	-1.54444444444
143	0.0715	-5.07142857143	8.12307692308	-1.5	1.36666666667
144	0.072	3.65	0.834615384615	-1.5	2.82222222222
145	0.0725	-3.61785714286	0.834615384615	1.425	1.36666666667
146	0.073	-2.16428571429	-0.623076923077	2.8875	-1.54444444444
147	0.0735	0.742857142857	2.29230769231	-13.2	-3.0
148	0.074	-2.16428571429	0.834615384615	13.125	-0.0888888888889
149	0.0745	2.19642857143	-4.99615384615	1.425	-0.0888888888889
150	0.075	-0.710714285714	0.834615384615	-2.9625	-0.0888888888889
151	0.0755	3.65	0.834615384615	-0.0375	-0.0888888888889
152	0.076	0.742857142857	0.834615384615	2.8875	-0.0888888888889
153	0.0765	6.55714285714	-0.623076923077	2.8875	-3.0
154	0.077	-6.525	0.834615384615	-0.0375	1.36666666667
155	0.0775	-0.710714285714	-0.623076923077	18.975	-0.0888888888889
156	0.078	-2.16428571429	-4.99615384615	-7.35	1.36666666667
157	0.0785	-0.710714285714	2.29230769231	2.8875	1.36666666667
158	0.079	-0.710714285714	11.0384615385	-1.5	-0.0888888888889
159	0.0795	-2.16428571429	8.12307692308	-0.0375	-0.0888888888889
160	0.08	-7.97857142857	-0.623076923077	-0.0375	4.27777777778
161	0.0805	-9.43214285714	-2.08076923077	-0.0375	-10.2777777778
162	0.081	-2.16428571429	-2.08076923077	-1.5	-5.91111111111
163	0.0815	0.742857142857	0.834615384615	-11.7375	-0.0888888888889
164	0.082	0.742857142857	2.29230769231	13.125	-3.0
165	0.0825	-0.710714285714	-12.2846153846	1.425	1.36666666667
166	0.083	0.742857142857	13.9538461538	-2.9625	-0.0888888888889
167	0.0835	-5.07142857143	-4.99615384615	-1.5	2.82222222222
168	0.084	-9.43214285714	-3.53846153846	-0.0375	-0.0888888888889
169	0.0845	9.46428571429	-2.08076923077	1.425	-1.54444444444
170	0.085	-0.710714285714	-0.623076923077	-0.0375	-5.91111111111
171	0.0855	0.742857142857	0.834615384615	-1.5	-1.54444444444
172	0.086	0.742857142857	-0.623076923077	13.125	1.36666666667
173	0.0865	-0.710714285714	0.834615384615	1.425	-0.0888888888889
174	0.087	0.742857142857	9.58076923077	-0.0375	2.82222222222
175	0.0875	-3.61785714286	2.29230769231	1.425	1.36666666667
176	0.088	-5.07142857143	0.834615384615	-0.0375	-0.0888888888889
177	0.0885	12.3714285714	-0.623076923077	1.425	-7.36666666667
178	0.089	0.742857142857	0.834615384615	-1.5	18.8333333333
179	0.0895	-0.710714285714	-0.623076923077	17.5125	1.36666666667
180	0.09	0.742857142857	-3.53846153846	-7.35	-0.0888888888889
181	0.0905	-2.16428571429	5.20769230769	1.425	-0.0888888888889
182	0.091	0.742857142857	18.3269230769	-1.5	-0.0888888888889
183	0.0915	2.19642857143	0.834615384615	1.425	-0.0888888888889
184	0.092	-13.7928571429	-0.623076923077	-0.0375	-0.0888888888889
185	0.0925	-6.525	0.834615384615	-0.0375	-11.7333333333
186	0.093	-3.61785714286	-0.623076923077	-1.5	-7.36666666667
187	0.0935	0.742857142857	0.834615384615	11.6625	-3.0
188	0.094	-0.710714285714	-2.08076923077	-0.0375	-0.0888888888889
189	0.0945	-0.710714285714	-10.8269230769	2.8875	-0.0888888888889
190	0.095	-0.710714285714	11.0384615385	1.425	-0.0888888888889
191	0.0955	-12.3392857143	0.834615384615	-1.5	-0.0888888888889
192	0.096	3.65	-2.08076923077	-1.5	2.82222222222
193	0.0965	5.10357142857	-0.623076923077	1.425	1.36666666667
194	0.097	0.742857142857	0.834615384615	-5.8875	13.0111111111
195	0.0975	-2.16428571429	0.834615384615	11.6625	-0.0888888888889
196	0.098	0.742857142857	0.834615384615	-5.8875	-0.0888888888889
197	0.0985	-0.710714285714	-3.53846153846	1.425	2.82222222222
198	0.099	0.742857142857	11.0384615385	1.425	-0.0888888888889
199	0.0995	-6.525	-7.91153846154	1.425	-1.54444444444
200	0.1	10.9178571429	0.834615384615	1.425	-3.0
201	0.1005	-10.8857142857	-2.08076923077	2.8875	5.73333333333
202	0.101	-0.710714285714	-0.623076923077	2.8875	-8.82222222222
203	0.1015	-2.16428571429	0.834615384615	-7.35	1.36666666667
204	0.102	0.742857142857	2.29230769231	2.8875	-1.54444444444
205	0.1025	-2.16428571429	-12.2846153846	2.8875	-0.0888888888889
206	0.103	0.742857142857	-3.53846153846	-1.5	-0.0888888888889
207	0.1035	-13.7928571429	-4.99615384615	-0.0375	-0.0888888888889
208	0.104	10.9178571429	-2.08076923077	-0.0375	1.36666666667
209	0.1045	-3.61785714286	-0.623076923077	-0.0375	-1.54444444444
210	0.105	0.742857142857	-0.623076923077	-0.0375	13.0111111111
211	0.1055	-2.16428571429	0.834615384615	1.425	-5.91111111111
212	0.106	-0.710714285714	-3.53846153846	-10.275	-3.0
213	0.1065	0.742857142857	0.834615384615	1.425	-0.0888888888889
214	0.107	-3.61785714286	-10.8269230769	-1.5	-0.0888888888889
215	0.1075	-2.16428571429	0.834615384615	-1.5	1.36666666667
216	0.108	19.6392857143	0.834615384615	-0.0375	4.27777777778
217	0.1085	-0.710714285714	-0.623076923077	2.8875	-7.36666666667
218	0.109	0.742857142857	-0.623076923077	-10.275	-0.0888888888889
219	0.1095	0.742857142857	2.29230769231	-4.425	1.36666666667
220	0.11	-3.61785714286	3.75	-0.0375	-1.54444444444
221	0.1105	0.742857142857	-10.8269230769	1.425	1.36666666667
222	0.111	3.65	-0.623076923077	4.35	1.36666666667
223	0.1115	-15.2464285714	-0.623076923077	-0.0375	2.82222222222
224	0.112	-5.07142857143	-0.623076923077	2.8875	-8.82222222222
225	0.1125	-5.07142857143	-0.623076923077	1.425	4.27777777778
226	0.113	-0.710714285714	0.834615384615	4.35	-0.0888888888889
227	0.1135	-0.710714285714	2.29230769231	-2.9625	-0.0888888888889
228	0.114	0.742857142857	-6.45384615385	1.425	-0.0888888888889
229	0.1145	0.742857142857	5.20769230769	-1.5	-1.54444444444
230	0.115	-2.16428571429	-6.45384615385	-1.5	-0.0888888888889
231	0.1155	10.9178571429	-2.08076923077	-0.0375	-0.0888888888889
232	0.116	-7.97857142857	-0.623076923077	2.8875	-0.0888888888889
233	0.1165	0.742857142857	0.834615384615	-1.5	-5.91111111111
234	0.117	-0.710714285714	2.29230769231	1.425	-0.0888888888889
235	0.1175	-0.710714285714	0.834615384615	7.275	1.36666666667
236	0.118	-2.16428571429	-0.623076923077	-0.0375	1.36666666667
237	0.1185	-0.710714285714	6.66538461538	2.8875	-0.0888888888889
238	0.119	-3.61785714286	-2.08076923077	2.8875	1.36666666667
239	0.1195	-5.07142857143	0.834615384615	1.425	-0.0888888888889
240	0.12	2.19642857143	-2.08076923077	-0.0375	17.3777777778
241	0.1205	0.742857142857	0.834615384615	4.35	-0.0888888888889
242	0.121	0.742857142857	-2.08076923077	21.9	1.36666666667
243	0.1215	-3.61785714286	0.834615384615	-7.35	1.36666666667
244	0.122	-0.710714285714	16.8692307692	2.8875	1.36666666667
245	0.1225	0.742857142857	-9.36923076923	-1.5	-0.0888888888889
246	0.123	-0.710714285714	-0.623076923077	-0.0375	2.82222222222
247	0.1235	-7.97857142857	0.834615384615	-0.0375	1.36666666667
248	0.124	-0.710714285714	-0.623076923077	1.425	-11.7333333333
249	0.1245	-3.61785714286	-0.623076923077	-8.8125	-0.0888888888889
250	0.125	0.742857142857	2.29230769231	18.975	-1.54444444444
251	0.1255	-0.710714285714	-3.53846153846	-1.5	-1.54444444444
252	0.126	0.742857142857	-7.91153846154	4.35	1.36666666667
253	0.1265	-2.16428571429	-2.08076923077	-0.0375	-0.0888888888889
254	0.127	3.65	-3.53846153846	1.425	-0.0888888888889
255	0.1275	-6.525	-2.08076923077	-0.0375	14.4666666667
256	0.128	-3.61785714286	-0.623076923077	4.35	-8.82222222222
257	0.1285	-3.61785714286	0.834615384615	-10.275	1.36666666667
258	0.129	-0.710714285714	2.29230769231	-7.35	1.36666666667
259	0.1295	-2.16428571429	3.75	-1.5	-0.0888888888889
260	0.13	-0.710714285714	-7.91153846154	1.425	-0.0888888888889
261	0.1305	2.19642857143	-0.623076923077	2.8875	2.82222222222
262	0.131	-12.3392857143	-0.623076923077	1.425	1.36666666667
263	0.1315	-10.8857142857	0.834615384615	5.8125	-11.7333333333
264	0.132	-2.16428571429	-0.623076923077	-1.5	17.3777777778
265	0.1325	0.742857142857	-2.08076923077	2.8875	-3.0
266	0.133	-0.710714285714	-2.08076923077	-2.9625	-1.54444444444
267	0.1335	-5.07142857143	18.3269230769	1.425	-0.0888888888889
268	0.134	-3.61785714286	-6.45384615385	-0.0375	-0.0888888888889
269	0.1345	8.01071428571	-0.623076923077	-0.0375	-0.0888888888889
270	0.135	15.2785714286	-0.623076923077	2.8875	5.73333333333
271	0.1355	-0.710714285714	0.834615384615	2.8875	-0.0888888888889
272	0.136	-2.16428571429	-0.623076923077	17.5125	-0.0888888888889
273	0.1365	-2.16428571429	-2.08076923077	-4.425	-0.0888888888889
274	0.137	0.742857142857	2.29230769231	2.8875	-0.0888888888889
275	0.1375	0.742857142857	18.3269230769	1.425	-1.54444444444
276	0.138	-5.07142857143	-4.99615384615	-0.0375	-1.54444444444
277	0.1385	16.7321428571	-2.08076923077	-0.0375	5.73333333333
278	0.139	-5.07142857143	0.834615384615	1.425	4.27777777778
279	0.1395	-3.61785714286	0.834615384615	4.35	-1.54444444444
280	0.14	-2.16428571429	-0.623076923077	-11.7375	-1.54444444444
281	0.1405	-2.16428571429	-3.53846153846	18.975	-0.0888888888889
282	0.141	-2.16428571429	-10.8269230769	-0.0375	-1.54444444444
283	0.1415	2.19642857143	18.3269230769	1.425	-1.54444444444
284	0.142	-5.07142857143	0.834615384615	-1.5	-0.0888888888889
285	0.1425	16.7321428571	-2.08076923077	-0.0375	1.36666666667
286	0.143	-10.8857142857	2.29230769231	1.425	15.9222222222
287	0.1435	-2.16428571429	0.834615384615	1.425	-5.91111111111
288	0.144	-2.16428571429	0.834615384615	-1.5	-0.0888888888889
289	0.1445	-0.710714285714	0.834615384615	8.7375	2.82222222222
290	0.145	-0.710714285714	11.0384615385	2.8875	2.82222222222
291	0.1455	-3.61785714286	-2.08076923077	1.425	2.82222222222
292	0.146	2.19642857143	2.29230769231	1.425	2.82222222222
293	0.1465	-7.97857142857	-0.623076923077	4.35	-11.7333333333
294	0.147	-0.710714285714	0.834615384615	-2.9625	-7.36666666667
295	0.1475	0.742857142857	-0.623076923077	-10.275	-0.0888888888889
296	0.148	-2.16428571429	0.834615384615	20.4375	1.36666666667
297	0.1485	-2.16428571429	-13.7423076923	-0.0375	2.82222222222
298	0.149	0.742857142857	-4.99615384615	-0.0375	-0.0888888888889
299	0.1495	2.19642857143	-2.08076923077	-1.5	4.27777777778
300	0.15	-12.3392857143	-0.623076923077	-0.0375	4.27777777778
301	0.1505	-12.3392857143	2.29230769231	2.8875	-11.7333333333
302	0.151	-2.16428571429	-0.623076923077	-0.0375	-5.91111111111
303	0.1515	-3.61785714286	0.834615384615	17.5125	-0.0888888888889
304	0.152	-0.710714285714	-3.53846153846	1.425	-1.54444444444
305	0.1525	3.65	-10.8269230769	1.425	-3.0
306	0.153	3.65	16.8692307692	-1.5	2.82222222222
307	0.1535	-2.16428571429	-0.623076923077	2.8875	1.36666666667
308	0.154	18.1857142857	-2.08076923077	-0.0375	1.36666666667
309	0.1545	-2.16428571429	0.834615384615	-1.5	15.9222222222
310	0.155	-0.710714285714	0.834615384615	4.35	15.9222222222
311	0.1555	-0.710714285714	0.834615384615	2.8875	1.36666666667
312	0.156	-0.710714285714	3.75	-1.5	1.36666666667
313	0.1565	-0.710714285714	11.0384615385	-0.0375	2.82222222222
314	0.157	-3.61785714286	-3.53846153846	-0.0375	2.82222222222
315	0.1575	5.10357142857	-0.623076923077	-1.5	-0.0888888888889
316	0.158	3.65	-2.08076923077	-0.0375	1.36666666667
317	0.1585	-2.16428571429	-0.623076923077	1.425	-0.0888888888889
318	0.159	0.742857142857	0.834615384615	1.425	1.36666666667
319	0.1595	-2.16428571429	0.834615384615	17.5125	4.27777777778
320	0.16	-2.16428571429	-4.99615384615	-5.8875	1.36666666667
321	0.1605	-0.710714285714	0.834615384615	1.425	2.82222222222
322	0.161	2.19642857143	-10.8269230769	-0.0375	-0.0888888888889
323	0.1615	-12.3392857143	2.29230769231	-1.5	4.27777777778
324	0.162	-10.8857142857	0.834615384615	1.425	-10.2777777778
325	0.1625	-0.710714285714	0.834615384615	-0.0375	17.3777777778
326	0.163	-0.710714285714	-0.623076923077	4.35	2.82222222222
327	0.1635	-2.16428571429	0.834615384615	-7.35	-5.91111111111
328	0.164	-0.710714285714	-0.623076923077	17.5125	-1.54444444444
329	0.1645	0.742857142857	-9.36923076923	-1.5	2.82222222222
330	0.165	2.19642857143	-0.623076923077	-1.5	1.36666666667
331	0.1655	-10.8857142857	0.834615384615	-0.0375	2.82222222222
332	0.166	22.5464285714	0.834615384615	1.425	1.36666666667
333	0.1665	-0.710714285714	-0.623076923077	-1.5	17.3777777778
334	0.167	0.742857142857	-0.623076923077	20.4375	2.82222222222
335	0.1675	-0.710714285714	-2.08076923077	-5.8875	1.36666666667
336	0.168	0.742857142857	3.75	-0.0375	4.27777777778
337	0.1685	-2.16428571429	18.3269230769	-0.0375	2.82222222222
338	0.169	0.742857142857	-9.36923076923	-0.0375	4.27777777778
339	0.1695	-9.43214285714	-0.623076923077	2.8875	4.27777777778
340	0.17	-7.97857142857	0.834615384615	-1.5	-7.36666666667
341	0.1705	-3.61785714286	-0.623076923077	-5.8875	1.36666666667
342	0.171	-2.16428571429	-0.623076923077	16.05	1.36666666667
343	0.1715	2.19642857143	-3.53846153846	1.425	-0.0888888888889
344	0.172	-2.16428571429	-9.36923076923	1.425	-0.0888888888889
345	0.1725	2.19642857143	15.4115384615	1.425	-0.0888888888889
346	0.173	-6.525	-0.623076923077	2.8875	-1.54444444444
347	0.1735	16.7321428571	0.834615384615	-0.0375	-4.45555555556
348	0.174	-0.710714285714	-3.53846153846	-1.5	15.9222222222
349	0.1745	-2.16428571429	-0.623076923077	-4.425	1.36666666667
350	0.175	-0.710714285714	0.834615384615	7.275	2.82222222222
351	0.1755	-2.16428571429	6.66538461538	2.8875	1.36666666667
352	0.176	-2.16428571429	0.834615384615	-0.0375	-0.0888888888889
353	0.1765	2.19642857143	-2.08076923077	-0.0375	1.36666666667
354	0.177	9.46428571429	-2.08076923077	-0.0375	2.82222222222
355	0.1775	-9.43214285714	0.834615384615	2.8875	15.9222222222
356	0.178	-0.710714285714	-2.08076923077	4.35	-5.91111111111
357	0.1785	0.742857142857	2.29230769231	-7.35	1.36666666667
358	0.179	0.742857142857	0.834615384615	-1.5	-0.0888888888889
359	0.1795	-0.710714285714	0.834615384615	-5.8875	-0.0888888888889
360	0.18	0.742857142857	-0.623076923077	-1.5	1.36666666667
361	0.1805	12.3714285714	-0.623076923077	-0.0375	2.82222222222
362	0.181	-2.16428571429	-0.623076923077	1.425	8.64444444444
363	0.1815	-0.710714285714	0.834615384615	4.35	2.82222222222
364	0.182	-0.710714285714	-0.623076923077	-4.425	4.27777777778
365	0.1825	-2.16428571429	3.75	-1.5	1.36666666667
366	0.183	-0.710714285714	-9.36923076923	1.425	2.82222222222
367	0.1835	3.65	-4.99615384615	2.8875	-0.0888888888889
368	0.184	3.65	-3.53846153846	2.8875	1.36666666667
369	0.1845	-12.3392857143	-2.08076923077	2.8875	2.82222222222
370	0.185	-3.61785714286	-0.623076923077	2.8875	-7.36666666667
371	0.1855	-0.710714285714	-2.08076923077	-0.0375	10.1
372	0.186	2.19642857143	-0.623076923077	18.975	-1.54444444444
373	0.1865	-0.710714285714	-2.08076923077	-0.0375	1.36666666667
374	0.187	-0.710714285714	-12.2846153846	1.425	1.36666666667
375	0.1875	2.19642857143	19.7846153846	-0.0375	-1.54444444444
376	0.188	-5.07142857143	0.834615384615	-0.0375	1.36666666667
377	0.1885	8.01071428571	0.834615384615	1.425	-5.91111111111
378	0.189	-3.61785714286	-0.623076923077	-0.0375	-0.0888888888889
379	0.1895	-0.710714285714	0.834615384615	-11.7375	-0.0888888888889
380	0.19	-0.710714285714	-2.08076923077	21.9	-1.54444444444
381	0.1905	0.742857142857	-10.8269230769	1.425	-3.0
382	0.191	-0.710714285714	16.8692307692	2.8875	-0.0888888888889
383	0.1915	-0.710714285714	-9.36923076923	2.8875	-0.0888888888889
384	0.192	8.01071428571	-2.08076923077	4.35	-1.54444444444
385	0.1925	-3.61785714286	-0.623076923077	1.425	4.27777777778
386	0.193	-2.16428571429	0.834615384615	-5.8875	-1.54444444444
387	0.1935	0.742857142857	-0.623076923077	11.6625	2.82222222222
388	0.194	0.742857142857	2.29230769231	-5.8875	1.36666666667
389	0.1945	0.742857142857	18.3269230769	-0.0375	-0.0888888888889
390	0.195	-3.61785714286	-7.91153846154	-0.0375	-0.0888888888889
391	0.1955	-0.710714285714	-0.623076923077	2.8875	1.36666666667
392	0.196	-7.97857142857	0.834615384615	2.8875	-1.54444444444
393	0.1965	-0.710714285714	-0.623076923077	-0.0375	-4.45555555556
394	0.197	-0.710714285714	-0.623076923077	5.8125	-0.0888888888889
395	0.1975	-2.16428571429	-3.53846153846	2.8875	-0.0888888888889
396	0.198	-0.710714285714	3.75	-0.0375	-1.54444444444
397	0.1985	-3.61785714286	-4.99615384615	-1.5	-1.54444444444
398	0.199	3.65	-2.08076923077	-1.5	-1.54444444444
399	0.1995	-13.7928571429	0.834615384615	-0.0375	1.36666666667
400	0.2	-3.61785714286	-0.623076923077	-1.5	-3.0
401	0.2005	-0.710714285714	-0.623076923077	4.35	2.82222222222
402	0.201	-2.16428571429	-2.08076923077	-7.35	-0.0888888888889
403	0.2015	0.742857142857	-4.99615384615	1.425	1.36666666667
404	0.202	0.742857142857	6.66538461538	1.425	-0.0888888888889
405	0.2025	0.742857142857	-6.45384615385	-1.5	1.36666666667
406	0.203	-5.07142857143	-0.623076923077	-0.0375	1.36666666667
407	0.2035	0.742857142857	-2.08076923077	1.425	-7.36666666667
408	0.204	0.742857142857	0.834615384615	-7.35	-3.0
409	0.2045	0.742857142857	2.29230769231	13.125	-5.91111111111
410	0.205	-3.61785714286	-2.08076923077	-10.275	-4.45555555556
411	0.2055	0.742857142857	16.8692307692	-0.0375	-1.54444444444
412	0.206	-3.61785714286	-9.36923076923	1.425	-0.0888888888889
413	0.2065	2.19642857143	0.834615384615	1.425	-1.54444444444
414	0.207	18.1857142857	0.834615384615	-0.0375	-1.54444444444
415	0.2075	-7.97857142857	-0.623076923077	-0.0375	7.18888888889
416	0.208	2.19642857143	-0.623076923077	-1.5	-7.36666666667
417	0.2085	0.742857142857	-0.623076923077	-1.5	-1.54444444444
418	0.209	-0.710714285714	-7.91153846154	-0.0375	-0.0888888888889
419	0.2095	0.742857142857	6.66538461538	1.425	1.36666666667
420	0.21	-2.16428571429	-2.08076923077	-1.5	-0.0888888888889
421	0.2105	19.6392857143	0.834615384615	-1.5	-0.0888888888889
422	0.211	-10.8857142857	-0.623076923077	2.8875	2.82222222222
423	0.2115	-2.16428571429	0.834615384615	4.35	-7.36666666667
424	0.212	-0.710714285714	0.834615384615	-11.7375	-0.0888888888889
425	0.2125	0.742857142857	0.834615384615	-0.0375	-0.0888888888889
426	0.213	0.742857142857	-2.08076923077	-0.0375	-4.45555555556
427	0.2135	-0.710714285714	-4.99615384615	-1.5	-3.0
428	0.214	-6.525	0.834615384615	-0.0375	-3.0
429	0.2145	-3.61785714286	-0.623076923077	-1.5	4.27777777778
430	0.215	-0.710714285714	-2.08076923077	-0.0375	-1.54444444444
431	0.2155	0.742857142857	2.29230769231	17.5125	-0.0888888888889
432	0.216	-2.16428571429	-3.53846153846	-5.8875	-1.54444444444
433	0.2165	-2.16428571429	3.75	-0.0375	-0.0888888888889
434	0.217	-2.16428571429	-0.623076923077	-0.0375	2.82222222222
435	0.2175	3.65	0.834615384615	-0.0375	1.36666666667
436	0.218	21.0928571429	-3.53846153846	1.425	2.82222222222
437	0.2185	-9.43214285714	-0.623076923077	4.35	17.3777777778
438	0.219	-2.16428571429	0.834615384615	-1.5	-10.2777777778
439	0.2195	-0.710714285714	0.834615384615	4.35	13.0111111111
440	0.22	-3.61785714286	-10.8269230769	-0.0375	-0.0888888888889
441	0.2205	0.742857142857	15.4115384615	-2.9625	1.36666666667
442	0.221	-2.16428571429	13.9538461538	-0.0375	-1.54444444444
443	0.2215	3.65	-0.623076923077	2.8875	1.36666666667
444	0.222	-3.61785714286	-2.08076923077	2.8875	7.18888888889
445	0.2225	-2.16428571429	-0.623076923077	2.8875	2.82222222222
446	0.223	0.742857142857	-0.623076923077	-5.8875	7.18888888889
447	0.2235	0.742857142857	3.75	-1.5	1.36666666667
448	0.224	2.19642857143	-2.08076923077	-0.0375	1.36666666667
449	0.2245	0.742857142857	13.9538461538	-0.0375	-0.0888888888889
450	0.225	5.10357142857	-4.99615384615	-0.0375	-0.0888888888889
451	0.2255	-12.3392857143	0.834615384615	1.425	1.36666666667
452	0.226	-0.710714285714	-0.623076923077	-1.5	-11.7333333333
453	0.2265	0.742857142857	-2.08076923077	-10.275	-0.0888888888889
454	0.227	2.19642857143	2.29230769231	18.975	-0.0888888888889
455	0.2275	-2.16428571429	-2.08076923077	-0.0375	-0.0888888888889
456	0.228	-0.710714285714	-7.91153846154	-1.5	1.36666666667
457	0.2285	-2.16428571429	19.7846153846	-0.0375	-0.0888888888889
458	0.229	0.742857142857	-9.36923076923	1.425	-0.0888888888889
459	0.2295	-9.43214285714	-0.623076923077	2.8875	17.3777777778
460	0.23	-0.710714285714	2.29230769231	-0.0375	-8.82222222222
461	0.2305	0.742857142857	0.834615384615	-1.5	-0.0888888888889
462	0.231	-2.16428571429	0.834615384615	-5.8875	-0.0888888888889
463	0.2315	2.19642857143	-7.91153846154	1.425	-0.0888888888889
464	0.232	0.742857142857	2.29230769231	1.425	1.36666666667
465	0.2325	-6.525	-2.08076923077	2.8875	-1.54444444444
466	0.233	3.65	0.834615384615	-1.5	1.36666666667
467	0.2335	8.01071428571	-2.08076923077	1.425	-1.54444444444
468	0.234	-0.710714285714	-0.623076923077	-0.0375	-3.0
469	0.2345	-3.61785714286	0.834615384615	2.8875	-0.0888888888889
470	0.235	-2.16428571429	-0.623076923077	-4.425	1.36666666667
471	0.2355	-0.710714285714	-7.91153846154	1.425	-0.0888888888889
472	0.236	-2.16428571429	-4.99615384615	2.8875	-0.0888888888889
473	0.2365	2.19642857143	2.29230769231	2.8875	-0.0888888888889
474	0.237	-10.8857142857	-0.623076923077	-0.0375	-0.0888888888889
475	0.2375	-2.16428571429	-2.08076923077	-2.9625	-4.45555555556
476	0.238	-0.710714285714	0.834615384615	-8.8125	-0.0888888888889
477	0.2385	0.742857142857	0.834615384615	17.5125	2.82222222222
478	0.239	-3.61785714286	-3.53846153846	-1.5	-0.0888888888889
479	0.2395	-0.710714285714	-12.2846153846	1.425	-3.0
480	0.24	-0.710714285714	9.58076923077	-1.5	-1.54444444444
481	0.2405	3.65	0.834615384615	2.8875	-0.0888888888889
482	0.241	-12.3392857143	-2.08076923077	1.425	1.36666666667
483	0.2415	-5.07142857143	-2.08076923077	-1.5	8.64444444444
484	0.242	-3.61785714286	0.834615384615	2.8875	-3.0
485	0.2425	0.742857142857	0.834615384615	8.7375	-0.0888888888889
486	0.243	-0.710714285714	5.20769230769	1.425	-0.0888888888889
487	0.2435	-0.710714285714	12.4961538462	1.425	1.36666666667
488	0.244	-3.61785714286	-3.53846153846	2.8875	-0.0888888888889
489	0.2445	0.742857142857	-2.08076923077	1.425	-0.0888888888889
490	0.245	-10.8857142857	0.834615384615	-1.5	-3.0
491	0.2455	-0.710714285714	2.29230769231	-0.0375	5.73333333333
492	0.246	0.742857142857	2.29230769231	4.35	-3.0
493	0.2465	-0.710714285714	-0.623076923077	13.125	-0.0888888888889
494	0.247	-2.16428571429	5.20769230769	-4.425	-0.0888888888889
495	0.2475	-2.16428571429	18.3269230769	-0.0375	-0.0888888888889
496	0.248	2.19642857143	-9.36923076923	-1.5	1.36666666667
497	0.2485	0.742857142857	0.834615384615	1.425	1.36666666667
498	0.249	-12.3392857143	0.834615384615	-0.0375	-3.0
499	0.2495	0.742857142857	0.834615384615	1.425	15.9222222222
500	0.25	-2.16428571429	0.834615384615	1.425	-0.0888888888889
501	0.2505	0.742857142857	0.834615384615	17.5125	1.36666666667
502	0.251	-0.710714285714	-3.53846153846	2.8875	-0.0888888888889
503	0.2515	-2.16428571429	13.9538461538	-0.0375	1.36666666667
504	0.252	-0.710714285714	-6.45384615385	1.425	2.82222222222
505	0.2525	-0.710714285714	-0.623076923077	1.425	-0.0888888888889
506	0.253	9.46428571429	-0.623076923077	2.8875	-0.0888888888889
507	0.2535	-2.16428571429	-2.08076923077	-1.5	-0.0888888888889
508	0.254	-5.07142857143	2.29230769231	11.6625	-3.0
509	0.2545	0.742857142857	0.834615384615	-5.8875	1.36666666667
510	0.255	-2.16428571429	-4.99615384615	2.8875	-3.0
511	0.2555	-5.07142857143	-4.99615384615	-0.0375	-0.0888888888889
512	0.256	-0.710714285714	0.834615384615	-0.0375	-1.54444444444
513	0.2565	6.55714285714	-0.623076923077	-1.5	2.82222222222
514	0.257	3.65	0.834615384615	1.425	2.82222222222
515	0.2575	-0.710714285714	0.834615384615	4.35	5.73333333333
516	0.258	0.742857142857	0.834615384615	-7.35	-3.0
517	0.2585	0.742857142857	2.29230769231	-0.0375	-0.0888888888889
518	0.259	-3.61785714286	-12.2846153846	1.425	-0.0888888888889
519	0.2595	2.19642857143	16.8692307692	-0.0375	1.36666666667
520	0.26	-12.3392857143	-0.623076923077	-1.5	4.27777777778
521	0.2605	-9.43214285714	-0.623076923077	2.8875	-10.2777777778
522	0.261	-3.61785714286	0.834615384615	-1.5	15.9222222222
523	0.2615	-0.710714285714	-2.08076923077	1.425	1.36666666667
524	0.262	-0.710714285714	0.834615384615	17.5125	1.36666666667
525	0.2625	-0.710714285714	-7.91153846154	-1.5	-1.54444444444
526	0.263	-2.16428571429	8.12307692308	1.425	-1.54444444444
527	0.2635	0.742857142857	-6.45384615385	1.425	-1.54444444444
528	0.264	-2.16428571429	0.834615384615	1.425	-1.54444444444
529	0.2645	5.10357142857	-0.623076923077	-0.0375	-1.54444444444
530	0.265	-2.16428571429	0.834615384615	-5.8875	-0.0888888888889
531	0.2655	0.742857142857	2.29230769231	8.7375	-0.0888888888889
532	0.266	0.742857142857	-0.623076923077	-1.5	-0.0888888888889
533	0.2665	-0.710714285714	-10.8269230769	-0.0375	-0.0888888888889
534	0.267	2.19642857143	16.8692307692	1.425	-3.0
535	0.2675	-2.16428571429	-0.623076923077	2.8875	2.82222222222
536	0.268	21.0928571429	-0.623076923077	-0.0375	-4.45555555556
537	0.2685	0.742857142857	-0.623076923077	-0.0375	14.4666666667
538	0.269	-2.16428571429	0.834615384615	4.35	15.9222222222
539	0.2695	0.742857142857	-0.623076923077	4.35	1.36666666667
540	0.27	-2.16428571429	-0.623076923077	-2.9625	1.36666666667
541	0.2705	0.742857142857	-7.91153846154	2.8875	-3.0
542	0.271	0.742857142857	0.834615384615	2.8875	-0.0888888888889
543	0.2715	0.742857142857	-0.623076923077	-0.0375	1.36666666667
544	0.272	0.742857142857	0.834615384615	4.35	-5.91111111111
545	0.2725	-5.07142857143	-0.623076923077	-0.0375	10.1
546	0.273	-0.710714285714	-2.08076923077	-1.5	-7.36666666667
547	0.2735	0.742857142857	0.834615384615	-0.0375	-5.91111111111
548	0.274	-0.710714285714	-4.99615384615	2.8875	1.36666666667
549	0.2745	-0.710714285714	-0.623076923077	-0.0375	1.36666666667
550	0.275	-0.710714285714	8.12307692308	2.8875	-0.0888888888889
551	0.2755	3.65	0.834615384615	1.425	-0.0888888888889
552	0.276	0.742857142857	0.834615384615	2.8875	-0.0888888888889
553	0.2765	-2.16428571429	0.834615384615	-0.0375	4.27777777778
554	0.277	-0.710714285714	0.834615384615	-4.425	1.36666666667
555	0.2775	-0.710714285714	0.834615384615	-0.0375	1.36666666667
556	0.278	0.742857142857	2.29230769231	-1.5	-0.0888888888889
557	0.2785	0.742857142857	13.9538461538	-1.5	1.36666666667
558	0.279	-2.16428571429	-2.08076923077	2.8875	1.36666666667
559	0.2795	-9.43214285714	-0.623076923077	-0.0375	-1.54444444444
560	0.28	9.46428571429	0.834615384615	1.425	4.27777777778
561	0.2805	-2.16428571429	-0.623076923077	1.425	-7.36666666667
562	0.281	0.742857142857	-0.623076923077	-2.9625	1.36666666667
563	0.2815	0.742857142857	0.834615384615	8.7375	-0.0888888888889
564	0.282	-0.710714285714	0.834615384615	-4.425	-0.0888888888889
565	0.2825	-0.710714285714	6.66538461538	-0.0375	-0.0888888888889
566	0.283	0.742857142857	-6.45384615385	2.8875	-1.54444444444
567	0.2835	-5.07142857143	-2.08076923077	1.425	-0.0888888888889
568	0.284	-3.61785714286	-0.623076923077	1.425	-1.54444444444
569	0.2845	-0.710714285714	-2.08076923077	-2.9625	-5.91111111111
570	0.285	-2.16428571429	0.834615384615	2.8875	-0.0888888888889
571	0.2855	-0.710714285714	-0.623076923077	-7.35	-1.54444444444
572	0.286	-0.710714285714	-3.53846153846	-0.0375	-1.54444444444
573	0.2865	0.742857142857	-3.53846153846	2.8875	-0.0888888888889
574	0.287	0.742857142857	-6.45384615385	2.8875	1.36666666667
575	0.2875	0.742857142857	-0.623076923077	-0.0375	-1.54444444444
576	0.288	12.3714285714	0.834615384615	-0.0375	-4.45555555556
577	0.2885	2.19642857143	-2.08076923077	1.425	11.5555555556
578	0.289	-3.61785714286	-2.08076923077	-2.9625	-1.54444444444
579	0.2895	-0.710714285714	0.834615384615	4.35	-5.91111111111
580	0.29	-2.16428571429	-0.623076923077	5.8125	-0.0888888888889
581	0.2905	-0.710714285714	-2.08076923077	1.425	1.36666666667
582	0.291	3.65	0.834615384615	-0.0375	1.36666666667
583	0.2915	12.3714285714	0.834615384615	-1.5	-0.0888888888889
584	0.292	-2.16428571429	-2.08076923077	-0.0375	-0.0888888888889
585	0.2925	-2.16428571429	-2.08076923077	2.8875	14.4666666667
586	0.293	-2.16428571429	2.29230769231	2.8875	-0.0888888888889
587	0.2935	-0.710714285714	-2.08076923077	-4.425	-0.0888888888889
588	0.294	0.742857142857	3.75	-0.0375	-0.0888888888889
589	0.2945	-3.61785714286	-7.91153846154	2.8875	-0.0888888888889
590	0.295	2.19642857143	2.29230769231	-0.0375	1.36666666667
591	0.2955	-7.97857142857	-0.623076923077	-1.5	2.82222222222
592	0.296	-10.8857142857	2.29230769231	-0.0375	-11.7333333333
593	0.2965	-0.710714285714	2.29230769231	-0.0375	20.2888888889
594	0.297	-2.16428571429	2.29230769231	14.5875	-0.0888888888889
595	0.2975	-2.16428571429	0.834615384615	-8.8125	1.36666666667
596	0.298	-0.710714285714	-2.08076923077	1.425	-0.0888888888889
597	0.2985	3.65	-7.91153846154	2.8875	-0.0888888888889
598	0.299	-3.61785714286	-2.08076923077	1.425	1.36666666667
599	0.2995	3.65	-0.623076923077	1.425	-3.0
600	0.3	-6.525	-0.623076923077	-1.5	5.73333333333
601	0.3005	-0.710714285714	3.75	13.125	-0.0888888888889
602	0.301	-3.61785714286	-2.08076923077	1.425	1.36666666667
603	0.3015	-2.16428571429	2.29230769231	-1.5	-1.54444444444
604	0.302	0.742857142857	-10.8269230769	-1.5	-1.54444444444
605	0.3025	-2.16428571429	15.4115384615	-1.5	1.36666666667
606	0.303	18.1857142857	-0.623076923077	2.8875	-14.6444444444
607	0.3035	-3.61785714286	-0.623076923077	-0.0375	20.2888888889
608	0.304	-0.710714285714	-0.623076923077	1.425	1.36666666667
609	0.3045	-0.710714285714	-0.623076923077	20.4375	1.36666666667
610	0.305	-2.16428571429	0.834615384615	-8.8125	-1.54444444444
611	0.3055	-0.710714285714	5.20769230769	-1.5	-1.54444444444
612	0.306	-5.07142857143	-0.623076923077	1.425	-0.0888888888889
613	0.3065	3.65	0.834615384615	-1.5	1.36666666667
614	0.307	-12.3392857143	-2.08076923077	-1.5	-0.0888888888889
615	0.3075	0.742857142857	-0.623076923077	-0.0375	-10.2777777778
616	0.308	-0.710714285714	0.834615384615	-8.8125	-0.0888888888889
617	0.3085	-3.61785714286	-0.623076923077	18.975	-1.54444444444
618	0.309	-2.16428571429	-4.99615384615	-0.0375	1.36666666667
619	0.3095	0.742857142857	19.7846153846	2.8875	1.36666666667
620	0.31	-3.61785714286	-0.623076923077	1.425	-0.0888888888889
621	0.3105	-12.3392857143	-0.623076923077	-0.0375	-1.54444444444
622	0.311	18.1857142857	0.834615384615	-0.0375	-10.2777777778
623	0.3115	-2.16428571429	-0.623076923077	-1.5	8.64444444444
624	0.312	-0.710714285714	2.29230769231	14.5875	-0.0888888888889
625	0.3125	-2.16428571429	0.834615384615	-4.425	-0.0888888888889
626	0.313	-2.16428571429	-6.45384615385	-0.0375	-1.54444444444
627	0.3135	0.742857142857	5.20769230769	1.425	1.36666666667
628	0.314	-2.16428571429	-6.45384615385	1.425	-1.54444444444
629	0.3145	-2.16428571429	-0.623076923077	-1.5	-0.0888888888889
630	0.315	-7.97857142857	2.29230769231	-0.0375	-5.91111111111
631	0.3155	-2.16428571429	-2.08076923077	1.425	-7.36666666667
632	0.316	-2.16428571429	-0.623076923077	-5.8875	-0.0888888888889
633	0.3165	0.742857142857	-0.623076923077	20.4375	1.36666666667
634	0.317	-2.16428571429	-2.08076923077	-7.35	-0.0888888888889
635	0.3175	-2.16428571429	16.8692307692	-1.5	1.36666666667
636	0.318	0.742857142857	0.834615384615	-1.5	-0.0888888888889
637	0.3185	18.1857142857	-0.623076923077	2.8875	2.82222222222
638	0.319	-9.43214285714	-2.08076923077	2.8875	15.9222222222
639	0.3195	-0.710714285714	-0.623076923077	4.35	-8.82222222222
640	0.32	-0.710714285714	-0.623076923077	-5.8875	-0.0888888888889
641	0.3205	-0.710714285714	0.834615384615	20.4375	-0.0888888888889
642	0.321	-2.16428571429	-6.45384615385	-1.5	-0.0888888888889
643	0.3215	-2.16428571429	-0.623076923077	-0.0375	-0.0888888888889
644	0.322	-7.97857142857	0.834615384615	1.425	-0.0888888888889
645	0.3225	0.742857142857	-0.623076923077	4.35	-7.36666666667
646	0.323	-5.07142857143	-0.623076923077	1.425	5.73333333333
647	0.3235	0.742857142857	-0.623076923077	-2.9625	-8.82222222222
648	0.324	-0.710714285714	-2.08076923077	5.8125	-0.0888888888889
649	0.3245	-2.16428571429	-7.91153846154	-0.0375	2.82222222222
650	0.325	0.742857142857	-0.623076923077	1.425	2.82222222222
651	0.3255	-2.16428571429	-6.45384615385	4.35	2.82222222222
652	0.326	-6.525	0.834615384615	1.425	2.82222222222
653	0.3265	-6.525	-0.623076923077	2.8875	-0.0888888888889
654	0.327	0.742857142857	-0.623076923077	2.8875	-5.91111111111
655	0.3275	-0.710714285714	-0.623076923077	-0.0375	2.82222222222
656	0.328	-3.61785714286	0.834615384615	8.7375	1.36666666667
657	0.3285	-0.710714285714	2.29230769231	1.425	-0.0888888888889
658	0.329	-2.16428571429	5.20769230769	-1.5	-0.0888888888889
659	0.3295	2.19642857143	0.834615384615	1.425	1.36666666667
660	0.33	0.742857142857	-0.623076923077	1.425	1.36666666667
661	0.3305	9.46428571429	0.834615384615	2.8875	-1.54444444444
662	0.331	-2.16428571429	0.834615384615	-1.5	14.4666666667
663	0.3315	-2.16428571429	0.834615384615	13.125	-0.0888888888889
664	0.332	-0.710714285714	-0.623076923077	1.425	1.36666666667
665	0.3325	-0.710714285714	-2.08076923077	2.8875	1.36666666667
666	0.333	0.742857142857	15.4115384615	2.8875	-0.0888888888889
667	0.3335	-0.710714285714	-0.623076923077	2.8875	1.36666666667
668	0.334	-6.525	0.834615384615	-0.0375	2.82222222222
669	0.3345	-2.16428571429	0.834615384615	2.8875	-0.0888888888889
670	0.335	-3.61785714286	2.29230769231	-0.0375	-0.0888888888889
671	0.3355	0.742857142857	0.834615384615	17.5125	-1.54444444444
672	0.336	-0.710714285714	-3.53846153846	-7.35	-0.0888888888889
673	0.3365	-2.16428571429	-2.08076923077	-1.5	1.36666666667
674	0.337	-0.710714285714	-6.45384615385	-0.0375	1.36666666667
675	0.3375	-3.61785714286	2.29230769231	1.425	-0.0888888888889
676	0.338	-7.97857142857	-0.623076923077	1.425	-5.91111111111
677	0.3385	-2.16428571429	0.834615384615	-1.5	-7.36666666667
678	0.339	-3.61785714286	-0.623076923077	-5.8875	1.36666666667
679	0.3395	0.742857142857	0.834615384615	20.4375	1.36666666667
680	0.34	-2.16428571429	-3.53846153846	-1.5	-0.0888888888889
681	0.3405	0.742857142857	16.8692307692	1.425	2.82222222222
682	0.341	-3.61785714286	-0.623076923077	-0.0375	-0.0888888888889
683	0.3415	-10.8857142857	0.834615384615	-0.0375	-3.0
684	0.342	15.2785714286	-0.623076923077	-0.0375	-5.91111111111
685	0.3425	-0.710714285714	0.834615384615	-0.0375	15.9222222222
686	0.343	-2.16428571429	-0.623076923077	16.05	-1.54444444444
687	0.3435	-3.61785714286	0.834615384615	-8.8125	1.36666666667
688	0.344	-0.710714285714	2.29230769231	-1.5	-0.0888888888889
689	0.3445	-0.710714285714	18.3269230769	-0.0375	-0.0888888888889
690	0.345	0.742857142857	-2.08076923077	-0.0375	-0.0888888888889
691	0.3455	12.3714285714	-0.623076923077	1.425	-1.54444444444
692	0.346	-6.525	-2.08076923077	4.35	14.4666666667
693	0.3465	0.742857142857	0.834615384615	-1.5	-7.36666666667
694	0.347	-0.710714285714	2.29230769231	2.8875	-0.0888888888889
695	0.3475	-2.16428571429	0.834615384615	-5.8875	-0.0888888888889
696	0.348	0.742857142857	6.66538461538	2.8875	-0.0888888888889
697	0.3485	-2.16428571429	-4.99615384615	-0.0375	2.82222222222
698	0.349	-9.43214285714	0.834615384615	-0.0375	-0.0888888888889
699	0.3495	15.2785714286	-2.08076923077	-1.5	-10.2777777778
700	0.35	-3.61785714286	0.834615384615	-0.0375	17.3777777778
701	0.3505	-2.16428571429	0.834615384615	4.35	-4.45555555556
702	0.351	-0.710714285714	-3.53846153846	-7.35	1.36666666667
703	0.3515	-0.710714285714	0.834615384615	-1.5	1.36666666667
704	0.352	2.19642857143	19.7846153846	1.425	-0.0888888888889
705	0.3525	2.19642857143	-0.623076923077	1.425	1.36666666667
706	0.353	-3.61785714286	-2.08076923077	-1.5	-3.0
707	0.3535	-3.61785714286	-2.08076923077	-0.0375	-0.0888888888889
708	0.354	-0.710714285714	-0.623076923077	1.425	-4.45555555556
709	0.3545	-0.710714285714	-2.08076923077	7.275	-1.54444444444
710	0.355	-2.16428571429	-10.8269230769	-0.0375	1.36666666667
711	0.3555	0.742857142857	11.0384615385	2.8875	-0.0888888888889
712	0.356	-3.61785714286	-4.99615384615	-0.0375	2.82222222222
713	0.3565	2.19642857143	0.834615384615	-0.0375	1.36666666667
714	0.357	15.2785714286	-0.623076923077	1.425	4.27777777778
715	0.3575	-0.710714285714	0.834615384615	2.8875	-1.54444444444
716	0.358	0.742857142857	-0.623076923077	10.2	-0.0888888888889
717	0.3585	0.742857142857	0.834615384615	1.425	-0.0888888888889
718	0.359	-2.16428571429	2.29230769231	1.425	1.36666666667
719	0.3595	-3.61785714286	13.9538461538	-1.5	1.36666666667
720	0.36	2.19642857143	0.834615384615	1.425	-0.0888888888889
721	0.3605	10.9178571429	2.29230769231	1.425	-0.0888888888889
722	0.361	-0.710714285714	0.834615384615	1.425	4.27777777778
723	0.3615	-0.710714285714	-3.53846153846	4.35	-3.0
724	0.362	0.742857142857	0.834615384615	-11.7375	-0.0888888888889
725	0.3625	-0.710714285714	-0.623076923077	-1.5	1.36666666667
726	0.363	-0.710714285714	-12.2846153846	-0.0375	2.82222222222
727	0.3635	0.742857142857	-7.91153846154	2.8875	-0.0888888888889
728	0.364	2.19642857143	-0.623076923077	2.8875	1.36666666667
729	0.3645	-12.3392857143	-0.623076923077	1.425	4.27777777778
730	0.365	-9.43214285714	0.834615384615	1.425	-7.36666666667
731	0.3655	-2.16428571429	0.834615384615	-10.275	-0.0888888888889
732	0.366	0.742857142857	0.834615384615	16.05	-0.0888888888889
733	0.3665	-0.710714285714	-2.08076923077	1.425	-0.0888888888889
734	0.367	0.742857142857	-12.2846153846	1.425	-3.0
735	0.3675	2.19642857143	18.3269230769	1.425	1.36666666667
736	0.368	-15.2464285714	-0.623076923077	-0.0375	5.73333333333
737	0.3685	-6.525	-0.623076923077	1.425	-5.91111111111
738	0.369	-2.16428571429	-0.623076923077	1.425	-5.91111111111
739	0.3695	-0.710714285714	2.29230769231	2.8875	1.36666666667
740	0.37	0.742857142857	-4.99615384615	-1.5	-0.0888888888889
741	0.3705	-0.710714285714	2.29230769231	1.425	-0.0888888888889
742	0.371	-0.710714285714	13.9538461538	-0.0375	-0.0888888888889
743	0.3715	-3.61785714286	-2.08076923077	1.425	1.36666666667
744	0.372	2.19642857143	2.29230769231	2.8875	-0.0888888888889
745	0.3725	-2.16428571429	0.834615384615	2.8875	2.82222222222
746	0.373	-2.16428571429	2.29230769231	2.8875	-3.0
747	0.3735	-2.16428571429	0.834615384615	-0.0375	-0.0888888888889
748	0.374	-3.61785714286	-0.623076923077	1.425	1.36666666667
749	0.3745	-0.710714285714	-6.45384615385	-0.0375	1.36666666667
750	0.375	0.742857142857	0.834615384615	-0.0375	-0.0888888888889
751	0.3755	0.742857142857	-3.53846153846	-0.0375	2.82222222222
752	0.376	0.742857142857	-0.623076923077	1.425	-1.54444444444
753	0.3765	13.825	0.834615384615	2.8875	-1.54444444444
754	0.377	0.742857142857	0.834615384615	-0.0375	20.2888888889
755	0.3775	0.742857142857	0.834615384615	18.975	-0.0888888888889
756	0.378	0.742857142857	-0.623076923077	2.8875	2.82222222222
757	0.3785	-0.710714285714	-10.8269230769	1.425	1.36666666667
758	0.379	0.742857142857	21.2423076923	1.425	-0.0888888888889
759	0.3795	-3.61785714286	2.29230769231	-2.9625	5.73333333333
760	0.38	-12.3392857143	-0.623076923077	2.8875	-0.0888888888889
761	0.3805	-0.710714285714	0.834615384615	-1.5	-4.45555555556
762	0.381	0.742857142857	-0.623076923077	-11.7375	4.27777777778
763	0.3815	0.742857142857	-0.623076923077	17.5125	1.36666666667
764	0.382	-0.710714285714	-0.623076923077	1.425	2.82222222222
765	0.3825	-0.710714285714	-10.8269230769	2.8875	2.82222222222
766	0.383	0.742857142857	18.3269230769	2.8875	5.73333333333
767	0.3835	-13.7928571429	-2.08076923077	1.425	1.36666666667
768	0.384	19.6392857143	0.834615384615	-0.0375	4.27777777778
769	0.3845	-0.710714285714	-0.623076923077	2.8875	-1.54444444444
770	0.385	-0.710714285714	-2.08076923077	-13.2	1.36666666667
771	0.3855	-0.710714285714	0.834615384615	-2.9625	1.36666666667
772	0.386	0.742857142857	2.29230769231	-0.0375	4.27777777778
773	0.3865	2.19642857143	-9.36923076923	1.425	5.73333333333
774	0.387	2.19642857143	-3.53846153846	-1.5	2.82222222222
775	0.3875	-6.525	-2.08076923077	1.425	1.36666666667
776	0.388	2.19642857143	-0.623076923077	-1.5	-4.45555555556
777	0.3885	-0.710714285714	2.29230769231	2.8875	-1.54444444444
778	0.389	-2.16428571429	0.834615384615	-1.5	8.64444444444
779	0.3895	-2.16428571429	0.834615384615	11.6625	1.36666666667
780	0.39	-0.710714285714	-2.08076923077	-4.425	1.36666666667
781	0.3905	0.742857142857	9.58076923077	1.425	2.82222222222
782	0.391	-0.710714285714	-7.91153846154	1.425	-0.0888888888889
783	0.3915	-0.710714285714	0.834615384615	1.425	-3.0
784	0.392	16.7321428571	-0.623076923077	4.35	7.18888888889
785	0.3925	0.742857142857	0.834615384615	2.8875	-7.36666666667
786	0.393	-2.16428571429	0.834615384615	-10.275	-7.36666666667
787	0.3935	-2.16428571429	-0.623076923077	4.35	15.9222222222
788	0.394	-0.710714285714	-10.8269230769	-0.0375	-0.0888888888889
789	0.3945	-0.710714285714	3.75	-1.5	1.36666666667
790	0.395	-5.07142857143	-2.08076923077	-1.5	-0.0888888888889
791	0.3955	12.3714285714	0.834615384615	1.425	1.36666666667
792	0.396	0.742857142857	-0.623076923077	1.425	-1.54444444444
793	0.3965	0.742857142857	0.834615384615	1.425	17.3777777778
794	0.397	-0.710714285714	-0.623076923077	-0.0375	-8.82222222222
795	0.3975	-2.16428571429	3.75	-7.35	-0.0888888888889
796	0.398	-2.16428571429	-0.623076923077	1.425	-3.0
797	0.3985	0.742857142857	11.0384615385	2.8875	-5.91111111111
798	0.399	-2.16428571429	-4.99615384615	1.425	-1.54444444444
799	0.3995	13.825	-0.623076923077	2.8875	-1.54444444444
800	0.4	-9.43214285714	0.834615384615	1.425	15.9222222222
801	0.4005	-2.16428571429	2.29230769231	4.35	-11.7333333333
802	0.401	-3.61785714286	0.834615384615	-8.8125	-4.45555555556
803	0.4015	-2.16428571429	3.75	20.4375	-3.0
804	0.402	-0.710714285714	-0.623076923077	-2.9625	-3.0
805	0.4025	-3.61785714286	-0.623076923077	-0.0375	-1.54444444444
806	0.403	-12.3392857143	0.834615384615	1.425	-1.54444444444
807	0.4035	5.10357142857	0.834615384615	-0.0375	-3.0
808	0.404	-9.43214285714	0.834615384615	1.425	-11.7333333333
809	0.4045	-2.16428571429	-0.623076923077	-2.9625	-8.82222222222
810	0.405	-0.710714285714	2.29230769231	-13.2	-5.91111111111
811	0.4055	-3.61785714286	-0.623076923077	-2.9625	-5.91111111111
812	0.406	-3.61785714286	-9.36923076923	4.35	-4.45555555556
813	0.4065	-2.16428571429	3.75	-1.5	-5.91111111111
814	0.407	2.19642857143	0.834615384615	-0.0375	-4.45555555556
815	0.4075	16.7321428571	0.834615384615	-0.0375	-1.54444444444
816	0.408	2.19642857143	0.834615384615	2.8875	-4.45555555556
817	0.4085	-0.710714285714	0.834615384615	1.425	2.82222222222
818	0.409	-0.710714285714	2.29230769231	-2.9625	-10.2777777778
819	0.4095	-0.710714285714	0.834615384615	-2.9625	-4.45555555556
820	0.41	-2.16428571429	-4.99615384615	2.8875	-5.91111111111
821	0.4105	-0.710714285714	9.58076923077	2.8875	-7.36666666667
822	0.411	-0.710714285714	-6.45384615385	-0.0375	-4.45555555556
823	0.4115	0.742857142857	0.834615384615	2.8875	-10.2777777778
824	0.412	-5.07142857143	0.834615384615	-0.0375	2.82222222222
825	0.4125	0.742857142857	0.834615384615	-2.9625	-8.82222222222
826	0.413	-2.16428571429	0.834615384615	-8.8125	-11.7333333333
827	0.4135	-0.710714285714	2.29230769231	-8.8125	-3.0
828	0.414	-0.710714285714	0.834615384615	-8.8125	-5.91111111111
829	0.4145	-3.61785714286	3.75	-1.5	-3.0
830	0.415	2.19642857143	-0.623076923077	1.425	-7.36666666667
831	0.4155	19.6392857143	0.834615384615	1.425	-1.54444444444
832	0.416	-5.07142857143	0.834615384615	4.35	7.18888888889
833	0.4165	-2.16428571429	2.29230769231	4.35	-0.0888888888889
834	0.417	2.19642857143	0.834615384615	-2.9625	-5.91111111111
835	0.4175	-0.710714285714	2.29230769231	11.6625	-4.45555555556
836	0.418	-2.16428571429	0.834615384615	1.425	-3.0
837	0.4185	-2.16428571429	19.7846153846	1.425	-1.54444444444
838	0.419	-0.710714285714	-9.36923076923	-1.5	-1.54444444444
839	0.4195	2.19642857143	0.834615384615	2.8875	-1.54444444444
840	0.42	-10.8857142857	-0.623076923077	2.8875	-0.0888888888889
841	0.4205	0.742857142857	0.834615384615	2.8875	-1.54444444444
842	0.421	0.742857142857	-3.53846153846	-0.0375	-7.36666666667
843	0.4215	-2.16428571429	0.834615384615	-2.9625	1.36666666667
844	0.422	0.742857142857	-7.91153846154	2.8875	-0.0888888888889
845	0.4225	2.19642857143	6.66538461538	1.425	1.36666666667
846	0.423	-0.710714285714	-6.45384615385	2.8875	4.27777777778
847	0.4235	-0.710714285714	-2.08076923077	-0.0375	-0.0888888888889
848	0.424	16.7321428571	-2.08076923077	2.8875	4.27777777778
849	0.4245	-0.710714285714	0.834615384615	4.35	-8.82222222222
850	0.425	-0.710714285714	-0.623076923077	-5.8875	1.36666666667
851	0.4255	0.742857142857	-0.623076923077	-5.8875	-0.0888888888889
852	0.426	0.742857142857	-2.08076923077	4.35	1.36666666667
853	0.4265	0.742857142857	-6.45384615385	1.425	1.36666666667
854	0.427	-0.710714285714	0.834615384615	4.35	4.27777777778
855	0.4275	-6.525	0.834615384615	2.8875	4.27777777778
856	0.428	-9.43214285714	-0.623076923077	4.35	-4.45555555556
857	0.4285	2.19642857143	0.834615384615	-0.0375	-5.91111111111
858	0.429	-0.710714285714	-0.623076923077	-0.0375	20.2888888889
859	0.4295	-0.710714285714	-2.08076923077	18.975	1.36666666667
860	0.43	-0.710714285714	-12.2846153846	-1.5	2.82222222222
861	0.4305	3.65	18.3269230769	1.425	2.82222222222
862	0.431	-2.16428571429	-3.53846153846	-0.0375	2.82222222222
863	0.4315	21.0928571429	0.834615384615	1.425	1.36666666667
864	0.432	-6.525	0.834615384615	2.8875	4.27777777778
865	0.4325	0.742857142857	-0.623076923077	4.35	-0.0888888888889
866	0.433	0.742857142857	-0.623076923077	-10.275	-0.0888888888889
867	0.4335	2.19642857143	2.29230769231	-0.0375	1.36666666667
868	0.434	2.19642857143	-10.8269230769	2.8875	-0.0888888888889
869	0.4345	0.742857142857	-9.36923076923	4.35	1.36666666667
870	0.435	-15.2464285714	-0.623076923077	-1.5	1.36666666667
871	0.4355	21.0928571429	-0.623076923077	-1.5	-10.2777777778
872	0.436	0.742857142857	-2.08076923077	-1.5	18.8333333333
873	0.4365	0.742857142857	-0.623076923077	2.8875	-10.2777777778
874	0.437	-0.710714285714	0.834615384615	-7.35	-0.0888888888889
875	0.4375	-0.710714285714	-0.623076923077	1.425	-0.0888888888889
876	0.438	-3.61785714286	-7.91153846154	1.425	1.36666666667
877	0.4385	0.742857142857	15.4115384615	1.425	-0.0888888888889
878	0.439	-6.525	0.834615384615	-0.0375	1.36666666667
879	0.4395	12.3714285714	-2.08076923077	1.425	2.82222222222
880	0.44	-6.525	-0.623076923077	2.8875	14.4666666667
881	0.4405	-0.710714285714	0.834615384615	1.425	-5.91111111111
882	0.441	-0.710714285714	-0.623076923077	-7.35	2.82222222222
883	0.4415	-2.16428571429	-4.99615384615	-0.0375	2.82222222222
884	0.442	-0.710714285714	-7.91153846154	1.425	1.36666666667
885	0.4425	-2.16428571429	15.4115384615	-1.5	2.82222222222
886	0.443	-10.8857142857	0.834615384615	2.8875	-0.0888888888889
887	0.4435	16.7321428571	-2.08076923077	2.8875	4.27777777778
888	0.444	-10.8857142857	-2.08076923077	2.8875	15.9222222222
889	0.4445	-0.710714285714	0.834615384615	2.8875	-7.36666666667
890	0.445	-2.16428571429	0.834615384615	-2.9625	-0.0888888888889
891	0.4455	-2.16428571429	-0.623076923077	-1.5	1.36666666667
892	0.446	0.742857142857	6.66538461538	1.425	-1.54444444444
893	0.4465	2.19642857143	-3.53846153846	-0.0375	-0.0888888888889
894	0.447	-7.97857142857	0.834615384615	1.425	1.36666666667
895	0.4475	5.10357142857	-2.08076923077	-1.5	-1.54444444444
896	0.448	-3.61785714286	0.834615384615	1.425	1.36666666667
897	0.4485	-0.710714285714	0.834615384615	-5.8875	-0.0888888888889
898	0.449	-0.710714285714	0.834615384615	-1.5	-0.0888888888889
899	0.4495	-0.710714285714	3.75	-1.5	2.82222222222
900	0.45	2.19642857143	-10.8269230769	4.35	1.36666666667
901	0.4505	-2.16428571429	11.0384615385	-1.5	1.36666666667
902	0.451	-12.3392857143	-2.08076923077	-0.0375	-0.0888888888889
903	0.4515	-3.61785714286	-0.623076923077	-0.0375	13.0111111111
904	0.452	-3.61785714286	-0.623076923077	4.35	-4.45555555556
905	0.4525	0.742857142857	0.834615384615	14.5875	-1.54444444444
906	0.453	-2.16428571429	-0.623076923077	-1.5	-0.0888888888889
907	0.4535	-0.710714285714	0.834615384615	4.35	1.36666666667
908	0.454	-0.710714285714	13.9538461538	-0.0375	-0.0888888888889
909	0.4545	8.01071428571	-7.91153846154	2.8875	1.36666666667
910	0.455	-9.43214285714	-0.623076923077	-0.0375	1.36666666667
911	0.4555	18.1857142857	-0.623076923077	1.425	-0.0888888888889
912	0.456	-2.16428571429	-2.08076923077	2.8875	2.82222222222
913	0.4565	-0.710714285714	-0.623076923077	17.5125	-0.0888888888889
914	0.457	-0.710714285714	-2.08076923077	-7.35	1.36666666667
915	0.4575	-0.710714285714	-0.623076923077	-1.5	1.36666666667
916	0.458	-0.710714285714	-4.99615384615	1.425	-0.0888888888889
917	0.4585	-5.07142857143	-0.623076923077	-0.0375	-0.0888888888889
918	0.459	5.10357142857	0.834615384615	1.425	-4.45555555556
919	0.4595	-5.07142857143	-0.623076923077	-1.5	2.82222222222
920	0.46	-2.16428571429	-0.623076923077	-8.8125	-3.0
921	0.4605	0.742857142857	-3.53846153846	11.6625	-0.0888888888889
922	0.461	-2.16428571429	-10.8269230769	1.425	-0.0888888888889
923	0.4615	-2.16428571429	16.8692307692	-2.9625	2.82222222222
924	0.462	5.10357142857	-2.08076923077	1.425	2.82222222222
925	0.4625	-12.3392857143	-2.08076923077	-0.0375	4.27777777778
926	0.463	-9.43214285714	0.834615384615	1.425	-11.7333333333
927	0.4635	-3.61785714286	-0.623076923077	-0.0375	2.82222222222
928	0.464	0.742857142857	-2.08076923077	5.8125	-7.36666666667
929	0.4645	-0.710714285714	-3.53846153846	-5.8875	-0.0888888888889
930	0.465	-0.710714285714	-2.08076923077	-0.0375	1.36666666667
931	0.4655	-0.710714285714	-7.91153846154	-0.0375	-0.0888888888889
932	0.466	-0.710714285714	-0.623076923077	1.425	1.36666666667
933	0.4665	-3.61785714286	0.834615384615	-0.0375	-4.45555555556
934	0.467	-9.43214285714	0.834615384615	1.425	-3.0
935	0.4675	-0.710714285714	-0.623076923077	-0.0375	-1.54444444444
936	0.468	0.742857142857	0.834615384615	-2.9625	-7.36666666667
937	0.4685	0.742857142857	2.29230769231	-2.9625	-0.0888888888889
938	0.469	0.742857142857	-7.91153846154	-0.0375	-0.0888888888889
939	0.4695	-0.710714285714	0.834615384615	2.8875	-0.0888888888889
940	0.47	-5.07142857143	-0.623076923077	2.8875	-0.0888888888889
941	0.4705	3.65	-2.08076923077	1.425	1.36666666667
942	0.471	-2.16428571429	0.834615384615	1.425	8.64444444444
943	0.4715	0.742857142857	0.834615384615	5.8125	-0.0888888888889
944	0.472	-0.710714285714	0.834615384615	-8.8125	-1.54444444444
945	0.4725	-0.710714285714	-3.53846153846	18.975	-0.0888888888889
946	0.473	0.742857142857	-12.2846153846	2.8875	2.82222222222
947	0.4735	-2.16428571429	-9.36923076923	1.425	1.36666666667
948	0.474	-0.710714285714	0.834615384615	2.8875	-1.54444444444
949	0.4745	-5.07142857143	2.29230769231	-1.5	1.36666666667
950	0.475	-0.710714285714	-0.623076923077	1.425	8.64444444444
951	0.4755	0.742857142857	-0.623076923077	-7.35	-1.54444444444
952	0.476	0.742857142857	-0.623076923077	1.425	4.27777777778
953	0.4765	-3.61785714286	0.834615384615	-1.5	-0.0888888888889
954	0.477	0.742857142857	16.8692307692	1.425	-0.0888888888889
955	0.4775	0.742857142857	-2.08076923077	1.425	1.36666666667
956	0.478	5.10357142857	0.834615384615	-0.0375	-1.54444444444
957	0.4785	16.7321428571	-0.623076923077	-1.5	2.82222222222
958	0.479	0.742857142857	-0.623076923077	1.425	-11.7333333333
959	0.4795	-2.16428571429	-0.623076923077	-10.275	-1.54444444444
960	0.48	0.742857142857	-0.623076923077	18.975	-1.54444444444
961	0.4805	-2.16428571429	-3.53846153846	-1.5	-0.0888888888889
962	0.481	2.19642857143	18.3269230769	-0.0375	-0.0888888888889
963	0.4815	-3.61785714286	0.834615384615	1.425	4.27777777778
964	0.482	-13.7928571429	2.29230769231	-0.0375	-1.54444444444
965	0.4825	21.0928571429	-0.623076923077	-1.5	4.27777777778
966	0.483	-2.16428571429	-0.623076923077	1.425	-11.7333333333
967	0.4835	-2.16428571429	0.834615384615	-8.8125	1.36666666667
968	0.484	-0.710714285714	-0.623076923077	-8.8125	1.36666666667
969	0.4845	-2.16428571429	2.29230769231	-1.5	-1.54444444444
970	0.485	-3.61785714286	-10.8269230769	1.425	1.36666666667
971	0.4855	2.19642857143	0.834615384615	-1.5	1.36666666667
972	0.486	-15.2464285714	-0.623076923077	-1.5	5.73333333333
973	0.4865	-9.43214285714	-0.623076923077	2.8875	-10.2777777778
974	0.487	-3.61785714286	-2.08076923077	-0.0375	-10.2777777778
975	0.4875	0.742857142857	0.834615384615	-8.8125	1.36666666667
976	0.488	0.742857142857	-2.08076923077	18.975	-1.54444444444
977	0.4885	-0.710714285714	0.834615384615	-7.35	1.36666666667
978	0.489	-0.710714285714	18.3269230769	1.425	-0.0888888888889
979	0.4895	-0.710714285714	-9.36923076923	2.8875	-3.0
980	0.49	16.7321428571	0.834615384615	-0.0375	4.27777777778
981	0.4905	-10.8857142857	2.29230769231	4.35	20.2888888889
982	0.491	0.742857142857	-0.623076923077	2.8875	-5.91111111111
983	0.4915	-0.710714285714	0.834615384615	-8.8125	-0.0888888888889
984	0.492	-0.710714285714	0.834615384615	-8.8125	2.82222222222
985	0.4925	0.742857142857	-10.8269230769	-0.0375	1.36666666667
986	0.493	-0.710714285714	-7.91153846154	-0.0375	-1.54444444444
987	0.4935	-3.61785714286	-2.08076923077	1.425	1.36666666667
988	0.494	-9.43214285714	2.29230769231	1.425	-0.0888888888889
989	0.4945	-2.16428571429	-2.08076923077	-0.0375	14.4666666667
990	0.495	-0.710714285714	-0.623076923077	2.8875	-0.0888888888889
991	0.4955	0.742857142857	0.834615384615	14.5875	-1.54444444444
992	0.496	-0.710714285714	-2.08076923077	-7.35	1.36666666667
993	0.4965	0.742857142857	-2.08076923077	-0.0375	1.36666666667
994	0.497	2.19642857143	11.0384615385	-1.5	-0.0888888888889
995	0.4975	-5.07142857143	-4.99615384615	-1.5	1.36666666667
996	0.498	3.65	0.834615384615	1.425	-1.54444444444
997	0.4985	2.19642857143	3.75	-0.0375	-0.0888888888889
998	0.499	-2.16428571429	0.834615384615	-0.0375	-3.0
999	0.4995	0.742857142857	-0.623076923077	4.35	-1.54444444444
1000	0.5	-0.710714285714	-7.91153846154	2.8875	-0.0888888888889
1001	0.5005	3.65	2.29230769231	-1.5	1.36666666667
1002	0.501	0.742857142857	-4.99615384615	2.8875	1.36666666667
1003	0.5015	0.742857142857	0.834615384615	-1.5	4.27777777778
1004	0.502	8.01071428571	-3.53846153846	-0.0375	1.36666666667
1005	0.5025	-5.07142857143	-3.53846153846	1.425	-0.0888888888889
1006	0.503	-0.710714285714	-0.623076923077	-0.0375	-5.91111111111
1007	0.5035	-0.710714285714	2.29230769231	-8.8125	1.36666666667
1008	0.504	-0.710714285714	-0.623076923077	-1.5	2.82222222222
1009	0.5045	0.742857142857	-7.91153846154	-0.0375	-0.0888888888889
1010	0.505	-0.710714285714	16.8692307692	1.425	1.36666666667
1011	0.5055	-12.3392857143	0.834615384615	1.425	-0.0888888888889
1012	0.506	21.0928571429	-0.623076923077	-0.0375	-10.2777777778
1013	0.5065	0.742857142857	0.834615384615	2.8875	10.1
1014	0.507	0.742857142857	-0.623076923077	4.35	-0.0888888888889
1015	0.5075	0.742857142857	-2.08076923077	13.125	-0.0888888888889
1016	0.508	-2.16428571429	0.834615384615	2.8875	-0.0888888888889
1017	0.5085	-0.710714285714	9.58076923077	-0.0375	-0.0888888888889
1018	0.509	0.742857142857	0.834615384615	-1.5	-0.0888888888889
1019	0.5095	2.19642857143	-4.99615384615	1.425	1.36666666667
1020	0.51	5.10357142857	0.834615384615	2.8875	-1.54444444444
1021	0.5105	-6.525	-0.623076923077	-0.0375	1.36666666667
1022	0.511	-2.16428571429	-0.623076923077	-0.0375	-7.36666666667
1023	0.5115	0.742857142857	0.834615384615	-7.35	-0.0888888888889
1024	0.512	2.19642857143	0.834615384615	1.425	1.36666666667
1025	0.5125	-0.710714285714	-12.2846153846	-1.5	-0.0888888888889
1026	0.513	2.19642857143	-4.99615384615	1.425	1.36666666667
1027	0.5135	2.19642857143	-4.99615384615	1.425	1.36666666667
1028	0.514	-10.8857142857	-0.623076923077	2.8875	2.82222222222
1029	0.5145	-3.61785714286	0.834615384615	1.425	4.27777777778
1030	0.515	-2.16428571429	0.834615384615	4.35	-3.0
1031	0.5155	-0.710714285714	-0.623076923077	10.2	-0.0888888888889
1032	0.516	0.742857142857	-0.623076923077	-0.0375	-0.0888888888889
1033	0.5165	-0.710714285714	-4.99615384615	2.8875	-0.0888888888889
1034	0.517	0.742857142857	16.8692307692	1.425	1.36666666667
1035	0.5175	-2.16428571429	-0.623076923077	-0.0375	-0.0888888888889
1036	0.518	19.6392857143	-0.623076923077	-1.5	-1.54444444444
1037	0.5185	-0.710714285714	-0.623076923077	1.425	8.64444444444
1038	0.519	-0.710714285714	-2.08076923077	1.425	4.27777777778
1039	0.5195	2.19642857143	-2.08076923077	2.8875	1.36666666667
1040	0.52	0.742857142857	0.834615384615	2.8875	-0.0888888888889
1041	0.5205	-2.16428571429	3.75	-0.0375	-0.0888888888889
1042	0.521	-3.61785714286	6.66538461538	-0.0375	-0.0888888888889
1043	0.5215	10.9178571429	0.834615384615	-0.0375	-1.54444444444
1044	0.522	10.9178571429	-0.623076923077	1.425	1.36666666667
1045	0.5225	0.742857142857	-0.623076923077	2.8875	7.18888888889
1046	0.523	0.742857142857	0.834615384615	-4.425	1.36666666667
1047	0.5235	0.742857142857	0.834615384615	5.8125	1.36666666667
1048	0.524	0.742857142857	-7.91153846154	-5.8875	-0.0888888888889
1049	0.5245	0.742857142857	3.75	-0.0375	2.82222222222
1050	0.525	2.19642857143	-4.99615384615	1.425	-0.0888888888889
1051	0.5255	-7.97857142857	0.834615384615	2.8875	-0.0888888888889
1052	0.526	5.10357142857	0.834615384615	1.425	-3.0
1053	0.5265	0.742857142857	-0.623076923077	-0.0375	5.73333333333
1054	0.527	-3.61785714286	0.834615384615	14.5875	-0.0888888888889
1055	0.5275	-0.710714285714	-2.08076923077	-1.5	1.36666666667
1056	0.528	0.742857142857	-10.8269230769	1.425	-0.0888888888889
1057	0.5285	0.742857142857	16.8692307692	-1.5	1.36666666667
1058	0.529	-13.7928571429	-2.08076923077	2.8875	-0.0888888888889
1059	0.5295	18.1857142857	-2.08076923077	-0.0375	-11.7333333333
1060	0.53	-0.710714285714	0.834615384615	-2.9625	23.2
1061	0.5305	0.742857142857	-0.623076923077	4.35	-5.91111111111
1062	0.531	2.19642857143	0.834615384615	-7.35	-1.54444444444
1063	0.5315	2.19642857143	-3.53846153846	-0.0375	-0.0888888888889
1064	0.532	0.742857142857	-2.08076923077	-1.5	-0.0888888888889
1065	0.5325	-3.61785714286	6.66538461538	1.425	-0.0888888888889
1066	0.533	16.7321428571	-2.08076923077	1.425	2.82222222222
1067	0.5335	-7.97857142857	-0.623076923077	1.425	18.8333333333
1068	0.534	0.742857142857	0.834615384615	2.8875	-7.36666666667
1069	0.5345	-0.710714285714	-0.623076923077	-0.0375	18.8333333333
1070	0.535	-0.710714285714	-2.08076923077	18.975	-0.0888888888889
1071	0.5355	0.742857142857	-2.08076923077	-0.0375	-0.0888888888889
1072	0.536	0.742857142857	-4.99615384615	-0.0375	-0.0888888888889
1073	0.5365	-0.710714285714	-3.53846153846	1.425	1.36666666667
1074	0.537	12.3714285714	0.834615384615	-0.0375	1.36666666667
1075	0.5375	-9.43214285714	-2.08076923077	2.8875	17.3777777778
1076	0.538	-0.710714285714	-2.08076923077	-0.0375	-10.2777777778
1077	0.5385	-0.710714285714	0.834615384615	-4.425	1.36666666667
1078	0.539	0.742857142857	-6.45384615385	1.425	-0.0888888888889
1079	0.5395	0.742857142857	2.29230769231	2.8875	-0.0888888888889
1080	0.54	-0.710714285714	0.834615384615	-0.0375	1.36666666667
1081	0.5405	2.19642857143	0.834615384615	2.8875	1.36666666667
1082	0.541	-3.61785714286	0.834615384615	-0.0375	1.36666666667
1083	0.5415	-0.710714285714	-0.623076923077	-0.0375	-3.0
1084	0.542	-0.710714285714	0.834615384615	-10.275	-3.0
1085	0.5425	-0.710714285714	2.29230769231	17.5125	-4.45555555556
1086	0.543	0.742857142857	-12.2846153846	4.35	-1.54444444444
1087	0.5435	0.742857142857	18.3269230769	-0.0375	-0.0888888888889
1088	0.544	-0.710714285714	-2.08076923077	2.8875	-0.0888888888889
1089	0.5445	-12.3392857143	2.29230769231	-0.0375	-3.0
1090	0.545	21.0928571429	0.834615384615	-1.5	-10.2777777778
1091	0.5455	-0.710714285714	0.834615384615	-1.5	15.9222222222
1092	0.546	-2.16428571429	-0.623076923077	17.5125	1.36666666667
1093	0.5465	-0.710714285714	-3.53846153846	-5.8875	-0.0888888888889
1094	0.547	0.742857142857	2.29230769231	-0.0375	-1.54444444444
1095	0.5475	2.19642857143	18.3269230769	2.8875	1.36666666667
1096	0.548	5.10357142857	-7.91153846154	1.425	-1.54444444444
1097	0.5485	-15.2464285714	-2.08076923077	-0.0375	-0.0888888888889
1098	0.549	-0.710714285714	-0.623076923077	-0.0375	-4.45555555556
1099	0.5495	0.742857142857	-0.623076923077	-8.8125	-4.45555555556
1100	0.55	2.19642857143	2.29230769231	18.975	-0.0888888888889
1101	0.5505	0.742857142857	-2.08076923077	1.425	-0.0888888888889
1102	0.551	-0.710714285714	-10.8269230769	-0.0375	-1.54444444444
1103	0.5515	3.65	9.58076923077	1.425	-0.0888888888889
1104	0.552	-12.3392857143	-2.08076923077	4.35	-0.0888888888889
1105	0.5525	18.1857142857	-3.53846153846	2.8875	4.27777777778
1106	0.553	-5.07142857143	-0.623076923077	4.35	13.0111111111
1107	0.5535	-0.710714285714	0.834615384615	5.8125	-0.0888888888889
1108	0.554	-0.710714285714	-4.99615384615	-2.9625	-0.0888888888889
1109	0.5545	2.19642857143	0.834615384615	1.425	-1.54444444444
1110	0.555	-0.710714285714	13.9538461538	-0.0375	2.82222222222
1111	0.5555	3.65	-3.53846153846	2.8875	-1.54444444444
1112	0.556	-15.2464285714	0.834615384615	2.8875	2.82222222222
1113	0.5565	15.2785714286	-2.08076923077	2.8875	-0.0888888888889
1114	0.557	-2.16428571429	-0.623076923077	1.425	8.64444444444
1115	0.5575	-0.710714285714	0.834615384615	2.8875	-0.0888888888889
1116	0.558	0.742857142857	-0.623076923077	-1.5	14.4666666667
1117	0.5585	-2.16428571429	2.29230769231	-4.425	-7.36666666667
1118	0.559	-0.710714285714	12.4961538462	-0.0375	-1.54444444444
1119	0.5595	0.742857142857	-4.99615384615	1.425	1.36666666667
1120	0.56	-6.525	-0.623076923077	-0.0375	2.82222222222
1121	0.5605	2.19642857143	0.834615384615	-0.0375	-4.45555555556
1122	0.561	0.742857142857	-0.623076923077	1.425	-0.0888888888889
1123	0.5615	-2.16428571429	-0.623076923077	-5.8875	4.27777777778
1124	0.562	0.742857142857	0.834615384615	1.425	5.73333333333
1125	0.5625	3.65	-10.8269230769	-0.0375	-1.54444444444
1126	0.563	-0.710714285714	18.3269230769	-0.0375	-0.0888888888889
1127	0.5635	-2.16428571429	-10.8269230769	-1.5	-0.0888888888889
1128	0.564	19.6392857143	-0.623076923077	-1.5	-1.54444444444
1129	0.5645	-7.97857142857	0.834615384615	-1.5	-1.54444444444
1130	0.565	0.742857142857	-0.623076923077	-0.0375	-5.91111111111
1131	0.5655	0.742857142857	-0.623076923077	8.7375	-0.0888888888889
1132	0.566	0.742857142857	2.29230769231	-2.9625	-0.0888888888889
1133	0.5665	-0.710714285714	15.4115384615	-1.5	2.82222222222
1134	0.567	2.19642857143	-9.36923076923	1.425	1.36666666667
1135	0.5675	-0.710714285714	-2.08076923077	-0.0375	1.36666666667
1136	0.568	-10.8857142857	-0.623076923077	-0.0375	-0.0888888888889
1137	0.5685	-3.61785714286	0.834615384615	1.425	17.3777777778
1138	0.569	-3.61785714286	0.834615384615	-0.0375	1.36666666667
1139	0.5695	0.742857142857	-0.623076923077	13.125	-0.0888888888889
1140	0.57	-0.710714285714	-7.91153846154	-0.0375	-1.54444444444
1141	0.5705	-0.710714285714	0.834615384615	-1.5	-1.54444444444
1142	0.571	5.10357142857	-2.08076923077	-1.5	-0.0888888888889
1143	0.5715	-13.7928571429	-0.623076923077	-0.0375	-0.0888888888889
1144	0.572	15.2785714286	-0.623076923077	1.425	-13.1888888889
1145	0.5725	-2.16428571429	-0.623076923077	4.35	1.36666666667
1146	0.573	2.19642857143	0.834615384615	-1.5	-5.91111111111
1147	0.5735	0.742857142857	3.75	-0.0375	2.82222222222
1148	0.574	0.742857142857	-7.91153846154	1.425	-0.0888888888889
1149	0.5745	-0.710714285714	16.8692307692	1.425	2.82222222222
1150	0.575	-2.16428571429	-2.08076923077	1.425	4.27777777778
1151	0.5755	-15.2464285714	-0.623076923077	1.425	1.36666666667
1152	0.576	0.742857142857	-0.623076923077	-0.0375	20.2888888889
1153	0.5765	-0.710714285714	0.834615384615	4.35	-3.0
1154	0.577	0.742857142857	-3.53846153846	17.5125	1.36666666667
1155	0.5775	0.742857142857	-4.99615384615	-8.8125	1.36666666667
1156	0.578	0.742857142857	0.834615384615	-0.0375	2.82222222222
1157	0.5785	2.19642857143	-6.45384615385	-0.0375	-0.0888888888889
1158	0.579	0.742857142857	13.9538461538	-0.0375	-1.54444444444
1159	0.5795	0.742857142857	-6.45384615385	1.425	-0.0888888888889
1160	0.58	-9.43214285714	-2.08076923077	-0.0375	-8.82222222222
1161	0.5805	0.742857142857	0.834615384615	-0.0375	-10.2777777778
1162	0.581	-0.710714285714	-2.08076923077	-5.8875	-3.0
1163	0.5815	-0.710714285714	0.834615384615	1.425	-1.54444444444
1164	0.582	-0.710714285714	0.834615384615	-0.0375	-1.54444444444
1165	0.5825	-0.710714285714	3.75	1.425	1.36666666667
1166	0.583	0.742857142857	-3.53846153846	-1.5	1.36666666667
1167	0.5835	-12.3392857143	0.834615384615	-1.5	-1.54444444444
1168	0.584	-0.710714285714	-0.623076923077	-0.0375	2.82222222222
1169	0.5845	-0.710714285714	0.834615384615	2.8875	-10.2777777778
1170	0.585	0.742857142857	-0.623076923077	-7.35	2.82222222222
1171	0.5855	0.742857142857	0.834615384615	-1.5	-1.54444444444
1172	0.586	0.742857142857	0.834615384615	-8.8125	-0.0888888888889
1173	0.5865	0.742857142857	-2.08076923077	-0.0375	2.82222222222
1174	0.587	-0.710714285714	-0.623076923077	-0.0375	1.36666666667
1175	0.5875	10.9178571429	-0.623076923077	1.425	4.27777777778
1176	0.588	-0.710714285714	0.834615384615	2.8875	10.1
1177	0.5885	0.742857142857	-0.623076923077	-4.425	2.82222222222
1178	0.589	-0.710714285714	0.834615384615	4.35	1.36666666667
1179	0.5895	-3.61785714286	-10.8269230769	-1.5	-0.0888888888889
1180	0.59	-0.710714285714	6.66538461538	1.425	-0.0888888888889
1181	0.5905	-2.16428571429	-4.99615384615	2.8875	1.36666666667
1182	0.591	10.9178571429	-0.623076923077	-0.0375	-0.0888888888889
1183	0.5915	0.742857142857	-0.623076923077	2.8875	2.82222222222
1184	0.592	0.742857142857	0.834615384615	-5.8875	-0.0888888888889
1185	0.5925	-0.710714285714	0.834615384615	-0.0375	1.36666666667
1186	0.593	0.742857142857	0.834615384615	-5.8875	4.27777777778
1187	0.5935	-2.16428571429	-0.623076923077	-5.8875	-0.0888888888889
1188	0.594	-0.710714285714	11.0384615385	2.8875	-0.0888888888889
1189	0.5945	-2.16428571429	-10.8269230769	-1.5	-1.54444444444
1190	0.595	-6.525	-0.623076923077	-1.5	1.36666666667
1191	0.5955	-10.8857142857	-0.623076923077	-1.5	-7.36666666667
1192	0.596	-2.16428571429	-0.623076923077	1.425	20.2888888889
1193	0.5965	-0.710714285714	-0.623076923077	17.5125	1.36666666667
1194	0.597	-2.16428571429	-2.08076923077	-0.0375	1.36666666667
1195	0.5975	-2.16428571429	-10.8269230769	2.8875	-1.54444444444
1196	0.598	-2.16428571429	-0.623076923077	-1.5	-0.0888888888889
1197	0.5985	-13.7928571429	-0.623076923077	-1.5	-0.0888888888889
1198	0.599	21.0928571429	-0.623076923077	-0.0375	-10.2777777778
1199	0.5995	2.19642857143	0.834615384615	-0.0375	20.2888888889
1200	0.6	-3.61785714286	-0.623076923077	2.8875	-3.0
1201	0.6005	-0.710714285714	-0.623076923077	-8.8125	-8.82222222222
1202	0.601	0.742857142857	0.834615384615	1.425	-3.0
1203	0.6015	-0.710714285714	-9.36923076923	-0.0375	-0.0888888888889
1204	0.602	-2.16428571429	0.834615384615	4.35	-0.0888888888889
1205	0.6025	0.742857142857	0.834615384615	1.425	1.36666666667
1206	0.603	8.01071428571	-2.08076923077	1.425	-3.0
1207	0.6035	-0.710714285714	-2.08076923077	1.425	8.64444444444
1208	0.604	2.19642857143	-0.623076923077	2.8875	2.82222222222
1209	0.6045	0.742857142857	2.29230769231	-2.9625	-0.0888888888889
1210	0.605	2.19642857143	-0.623076923077	-2.9625	1.36666666667
1211	0.6055	3.65	-0.623076923077	-0.0375	2.82222222222
1212	0.606	-12.3392857143	0.834615384615	-1.5	2.82222222222
1213	0.6065	-10.8857142857	-2.08076923077	2.8875	-11.7333333333
1214	0.607	-0.710714285714	-2.08076923077	-1.5	-7.36666666667
1215	0.6075	0.742857142857	0.834615384615	-10.275	-1.54444444444
1216	0.608	0.742857142857	0.834615384615	20.4375	-1.54444444444
1217	0.6085	-0.710714285714	-0.623076923077	-7.35	-0.0888888888889
1218	0.609	2.19642857143	16.8692307692	2.8875	2.82222222222
1219	0.6095	-0.710714285714	-6.45384615385	-0.0375	-0.0888888888889
1220	0.61	2.19642857143	-2.08076923077	1.425	-1.54444444444
1221	0.6105	-5.07142857143	0.834615384615	1.425	2.82222222222
1222	0.611	-0.710714285714	-0.623076923077	4.35	-1.54444444444
1223	0.6115	-0.710714285714	0.834615384615	10.2	-1.54444444444
1224	0.612	-0.710714285714	-6.45384615385	4.35	1.36666666667
1225	0.6125	3.65	3.75	1.425	-0.0888888888889
1226	0.613	0.742857142857	-4.99615384615	2.8875	-0.0888888888889
1227	0.6135	-5.07142857143	0.834615384615	2.8875	-1.54444444444
1228	0.614	2.19642857143	2.29230769231	-2.9625	-4.45555555556
1229	0.6145	-5.07142857143	-2.08076923077	-1.5	-0.0888888888889
1230	0.615	2.19642857143	0.834615384615	7.275	-1.54444444444
1231	0.6155	0.742857142857	-3.53846153846	4.35	-1.54444444444
1232	0.616	-2.16428571429	2.29230769231	-0.0375	-0.0888888888889
1233	0.6165	0.742857142857	18.3269230769	1.425	2.82222222222
1234	0.617	-3.61785714286	-12.2846153846	1.425	1.36666666667
1235	0.6175	19.6392857143	-0.623076923077	1.425	1.36666666667
1236	0.618	-7.97857142857	-2.08076923077	2.8875	15.9222222222
1237	0.6185	-0.710714285714	-0.623076923077	-0.0375	-7.36666666667
1238	0.619	2.19642857143	-0.623076923077	-1.5	-0.0888888888889
1239	0.6195	-0.710714285714	0.834615384615	-7.35	-0.0888888888889
1240	0.62	-0.710714285714	3.75	-0.0375	-0.0888888888889
1241	0.6205	-3.61785714286	-2.08076923077	4.35	-0.0888888888889
1242	0.621	-6.525	-2.08076923077	1.425	1.36666666667
1243	0.6215	8.01071428571	0.834615384615	-1.5	-0.0888888888889
1244	0.622	0.742857142857	-3.53846153846	2.8875	1.36666666667
1245	0.6225	0.742857142857	-3.53846153846	-5.8875	1.36666666667
1246	0.623	-0.710714285714	-2.08076923077	4.35	4.27777777778
1247	0.6235	-3.61785714286	-12.2846153846	-2.9625	1.36666666667
1248	0.624	0.742857142857	5.20769230769	-1.5	-1.54444444444
1249	0.6245	-2.16428571429	-6.45384615385	-1.5	-0.0888888888889
1250	0.625	-7.97857142857	2.29230769231	2.8875	-0.0888888888889
1251	0.6255	-6.525	-2.08076923077	-0.0375	-0.0888888888889
1252	0.626	-0.710714285714	0.834615384615	-0.0375	-5.91111111111
1253	0.6265	-0.710714285714	-0.623076923077	-0.0375	2.82222222222
1254	0.627	-0.710714285714	0.834615384615	7.275	-0.0888888888889
1255	0.6275	0.742857142857	0.834615384615	1.425	2.82222222222
1256	0.628	-0.710714285714	-4.99615384615	1.425	-0.0888888888889
1257	0.6285	-3.61785714286	0.834615384615	1.425	1.36666666667
1258	0.629	-6.525	-2.08076923077	2.8875	-1.54444444444
1259	0.6295	-5.07142857143	-2.08076923077	1.425	1.36666666667
1260	0.63	0.742857142857	-2.08076923077	2.8875	-3.0
1261	0.6305	2.19642857143	-0.623076923077	11.6625	-0.0888888888889
1262	0.631	0.742857142857	2.29230769231	-5.8875	-1.54444444444
1263	0.6315	-0.710714285714	18.3269230769	-1.5	2.82222222222
1264	0.632	-0.710714285714	-9.36923076923	-1.5	2.82222222222
1265	0.6325	-3.61785714286	-0.623076923077	1.425	-0.0888888888889
1266	0.633	-2.16428571429	-0.623076923077	-1.5	1.36666666667
1267	0.6335	-2.16428571429	0.834615384615	2.8875	-10.2777777778
1268	0.634	-2.16428571429	-2.08076923077	-10.275	-0.0888888888889
1269	0.6345	-2.16428571429	3.75	-7.35	-0.0888888888889
1270	0.635	-0.710714285714	-7.91153846154	2.8875	-0.0888888888889
1271	0.6355	0.742857142857	-9.36923076923	2.8875	-0.0888888888889
1272	0.636	-2.16428571429	0.834615384615	1.425	-0.0888888888889
1273	0.6365	-6.525	0.834615384615	2.8875	-3.0
1274	0.637	0.742857142857	-0.623076923077	-0.0375	18.8333333333
1275	0.6375	0.742857142857	-0.623076923077	-1.5	-0.0888888888889
1276	0.638	0.742857142857	0.834615384615	7.275	2.82222222222
1277	0.6385	-0.710714285714	0.834615384615	-5.8875	1.36666666667
1278	0.639	-2.16428571429	-12.2846153846	1.425	-0.0888888888889
1279	0.6395	3.65	-3.53846153846	-0.0375	-0.0888888888889
1280	0.64	-10.8857142857	-3.53846153846	-0.0375	4.27777777778
1281	0.6405	-5.07142857143	0.834615384615	1.425	-7.36666666667
1282	0.641	-2.16428571429	0.834615384615	-2.9625	-1.54444444444
1283	0.6415	-0.710714285714	-0.623076923077	-13.2	-4.45555555556
1284	0.642	-0.710714285714	2.29230769231	-0.0375	2.82222222222
1285	0.6425	0.742857142857	-13.7423076923	1.425	1.36666666667
1286	0.643	2.19642857143	19.7846153846	1.425	1.36666666667
1287	0.6435	-0.710714285714	-3.53846153846	1.425	-0.0888888888889
1288	0.644	-10.8857142857	-2.08076923077	4.35	1.36666666667
1289	0.6445	2.19642857143	-2.08076923077	-0.0375	2.82222222222
1290	0.645	-2.16428571429	0.834615384615	2.8875	1.36666666667
1291	0.6455	-0.710714285714	0.834615384615	17.5125	-3.0
1292	0.646	0.742857142857	-3.53846153846	-4.425	-0.0888888888889
1293	0.6465	-2.16428571429	6.66538461538	1.425	-3.0
1294	0.647	-2.16428571429	-7.91153846154	-0.0375	-0.0888888888889
1295	0.6475	-7.97857142857	-0.623076923077	-1.5	-1.54444444444
1296	0.648	13.825	-0.623076923077	-0.0375	-5.91111111111
1297	0.6485	-2.16428571429	2.29230769231	1.425	5.73333333333
1298	0.649	0.742857142857	-2.08076923077	2.8875	-0.0888888888889
1299	0.6495	-2.16428571429	-2.08076923077	-1.5	1.36666666667
1300	0.65	0.742857142857	3.75	-1.5	-1.54444444444
1301	0.6505	-0.710714285714	22.7	1.425	-0.0888888888889
1302	0.651	5.10357142857	0.834615384615	1.425	1.36666666667
1303	0.6515	-13.7928571429	0.834615384615	-0.0375	5.73333333333
1304	0.652	-10.8857142857	-0.623076923077	4.35	-10.2777777778
1305	0.6525	0.742857142857	-0.623076923077	-1.5	-7.36666666667
1306	0.653	3.65	0.834615384615	-11.7375	-0.0888888888889
1307	0.6535	2.19642857143	-0.623076923077	2.8875	-0.0888888888889
1308	0.654	-0.710714285714	-6.45384615385	-1.5	-0.0888888888889
1309	0.6545	0.742857142857	16.8692307692	1.425	1.36666666667
1310	0.655	0.742857142857	0.834615384615	1.425	2.82222222222
1311	0.6555	-7.97857142857	0.834615384615	1.425	1.36666666667
1312	0.656	18.1857142857	-0.623076923077	-1.5	-10.2777777778
1313	0.6565	0.742857142857	-0.623076923077	1.425	1.36666666667
1314	0.657	-0.710714285714	-0.623076923077	-2.9625	-8.82222222222
1315	0.6575	-0.710714285714	-3.53846153846	-1.5	-0.0888888888889
1316	0.658	-0.710714285714	5.20769230769	-0.0375	4.27777777778
1317	0.6585	-3.61785714286	8.12307692308	-0.0375	-1.54444444444
1318	0.659	3.65	-0.623076923077	-0.0375	2.82222222222
1319	0.6595	-6.525	-2.08076923077	2.8875	-1.54444444444
1320	0.66	-0.710714285714	0.834615384615	-1.5	18.8333333333
1321	0.6605	-2.16428571429	0.834615384615	1.425	-1.54444444444
1322	0.661	0.742857142857	-0.623076923077	17.5125	-0.0888888888889
1323	0.6615	-0.710714285714	-7.91153846154	1.425	-0.0888888888889
1324	0.662	-2.16428571429	18.3269230769	-0.0375	-1.54444444444
1325	0.6625	-3.61785714286	-10.8269230769	2.8875	1.36666666667
1326	0.663	0.742857142857	-2.08076923077	-1.5	-0.0888888888889
1327	0.6635	-7.97857142857	2.29230769231	1.425	2.82222222222
1328	0.664	0.742857142857	-0.623076923077	2.8875	-10.2777777778
1329	0.6645	-0.710714285714	-0.623076923077	-8.8125	-1.54444444444
1330	0.665	0.742857142857	2.29230769231	-5.8875	-0.0888888888889
1331	0.6655	0.742857142857	0.834615384615	2.8875	-0.0888888888889
1332	0.666	3.65	-9.36923076923	1.425	-0.0888888888889
1333	0.6665	0.742857142857	18.3269230769	-0.0375	-0.0888888888889
1334	0.667	-7.97857142857	-2.08076923077	-0.0375	-3.0
1335	0.6675	-0.710714285714	0.834615384615	1.425	-7.36666666667
1336	0.668	0.742857142857	0.834615384615	-4.425	4.27777777778
1337	0.6685	-0.710714285714	2.29230769231	11.6625	-1.54444444444
1338	0.669	-0.710714285714	-2.08076923077	1.425	-0.0888888888889
1339	0.6695	-0.710714285714	-7.91153846154	-0.0375	-0.0888888888889
1340	0.67	-5.07142857143	-2.08076923077	2.8875	-0.0888888888889
1341	0.6705	2.19642857143	-9.36923076923	-1.5	2.82222222222
1342	0.671	-10.8857142857	-0.623076923077	-0.0375	-0.0888888888889
1343	0.6715	2.19642857143	-0.623076923077	-0.0375	-8.82222222222
1344	0.672	-0.710714285714	-0.623076923077	2.8875	1.36666666667
1345	0.6725	0.742857142857	0.834615384615	-7.35	-0.0888888888889
1346	0.673	-2.16428571429	-2.08076923077	4.35	-1.54444444444
1347	0.6735	-0.710714285714	2.29230769231	-0.0375	-1.54444444444
1348	0.674	3.65	-3.53846153846	2.8875	1.36666666667
1349	0.6745	-15.2464285714	0.834615384615	2.8875	-0.0888888888889
1350	0.675	-2.16428571429	-0.623076923077	-1.5	4.27777777778
1351	0.6755	-0.710714285714	-0.623076923077	4.35	2.82222222222
1352	0.676	0.742857142857	0.834615384615	20.4375	-0.0888888888889
1353	0.6765	2.19642857143	-2.08076923077	-8.8125	-1.54444444444
1354	0.677	0.742857142857	-7.91153846154	2.8875	1.36666666667
1355	0.6775	-0.710714285714	13.9538461538	2.8875	-0.0888888888889
1356	0.678	-2.16428571429	0.834615384615	1.425	2.82222222222
1357	0.6785	18.1857142857	-2.08076923077	-1.5	1.36666666667
1358	0.679	-7.97857142857	-2.08076923077	4.35	2.82222222222
1359	0.6795	2.19642857143	0.834615384615	2.8875	-11.7333333333
1360	0.68	-0.710714285714	2.29230769231	-7.35	1.36666666667
1361	0.6805	0.742857142857	0.834615384615	-0.0375	1.36666666667
1362	0.681	0.742857142857	-10.8269230769	-0.0375	-0.0888888888889
1363	0.6815	0.742857142857	18.3269230769	2.8875	-0.0888888888889
1364	0.682	-12.3392857143	0.834615384615	-0.0375	5.73333333333
1365	0.6825	-9.43214285714	-2.08076923077	5.8125	-8.82222222222
1366	0.683	-0.710714285714	-0.623076923077	-0.0375	-5.91111111111
1367	0.6835	-0.710714285714	0.834615384615	-8.8125	-3.0
1368	0.684	-0.710714285714	0.834615384615	14.5875	-3.0
1369	0.6845	-0.710714285714	-9.36923076923	-0.0375	2.82222222222
1370	0.685	-0.710714285714	8.12307692308	2.8875	1.36666666667
1371	0.6855	-2.16428571429	-2.08076923077	1.425	2.82222222222
1372	0.686	-10.8857142857	0.834615384615	2.8875	1.36666666667
1373	0.6865	12.3714285714	0.834615384615	-1.5	-4.45555555556
1374	0.687	2.19642857143	0.834615384615	2.8875	2.82222222222
1375	0.6875	-0.710714285714	0.834615384615	-7.35	1.36666666667
1376	0.688	0.742857142857	3.75	-1.5	1.36666666667
1377	0.6885	-0.710714285714	-10.8269230769	-2.9625	2.82222222222
1378	0.689	0.742857142857	-6.45384615385	-1.5	2.82222222222
1379	0.6895	3.65	-2.08076923077	-0.0375	2.82222222222
1380	0.69	-12.3392857143	-0.623076923077	1.425	5.73333333333
1381	0.6905	-7.97857142857	-0.623076923077	1.425	-11.7333333333
1382	0.691	-2.16428571429	-0.623076923077	-11.7375	-0.0888888888889
1383	0.6915	0.742857142857	3.75	21.9	-1.54444444444
1384	0.692	0.742857142857	-2.08076923077	-1.5	-0.0888888888889
1385	0.6925	-0.710714285714	-10.8269230769	1.425	-0.0888888888889
1386	0.693	-2.16428571429	0.834615384615	2.8875	2.82222222222
1387	0.6935	-6.525	-0.623076923077	-0.0375	-0.0888888888889
1388	0.694	9.46428571429	-0.623076923077	1.425	8.64444444444
1389	0.6945	0.742857142857	0.834615384615	5.8125	-4.45555555556
1390	0.695	-0.710714285714	2.29230769231	-13.2	-0.0888888888889
1391	0.6955	-2.16428571429	2.29230769231	2.8875	1.36666666667
1392	0.696	-0.710714285714	-10.8269230769	1.425	1.36666666667
1393	0.6965	-0.710714285714	15.4115384615	-1.5	1.36666666667
1394	0.697	-2.16428571429	2.29230769231	-0.0375	1.36666666667
1395	0.6975	5.10357142857	-3.53846153846	-1.5	1.36666666667
1396	0.698	-3.61785714286	-0.623076923077	-1.5	4.27777777778
1397	0.6985	0.742857142857	0.834615384615	-0.0375	-5.91111111111
1398	0.699	-0.710714285714	0.834615384615	13.125	1.36666666667
1399	0.6995	0.742857142857	2.29230769231	-1.5	-0.0888888888889
1400	0.7	-3.61785714286	16.8692307692	-1.5	-0.0888888888889
1401	0.7005	-0.710714285714	-10.8269230769	1.425	-0.0888888888889
1402	0.701	-0.710714285714	2.29230769231	2.8875	2.82222222222
1403	0.7015	-5.07142857143	0.834615384615	-0.0375	-3.0
1404	0.702	-0.710714285714	0.834615384615	1.425	-4.45555555556
1405	0.7025	-0.710714285714	0.834615384615	-4.425	1.36666666667
1406	0.703	5.10357142857	2.29230769231	14.5875	2.82222222222
1407	0.7035	0.742857142857	-0.623076923077	2.8875	4.27777777778
1408	0.704	0.742857142857	6.66538461538	1.425	1.36666666667
1409	0.7045	2.19642857143	-0.623076923077	-0.0375	1.36666666667
1410	0.705	8.01071428571	-0.623076923077	-0.0375	2.82222222222
1411	0.7055	0.742857142857	0.834615384615	1.425	7.18888888889
1412	0.706	-0.710714285714	0.834615384615	4.35	-0.0888888888889
1413	0.7065	-2.16428571429	-0.623076923077	-7.35	5.73333333333
1414	0.707	-0.710714285714	0.834615384615	-4.425	-0.0888888888889
1415	0.7075	-3.61785714286	2.29230769231	4.35	-0.0888888888889
1416	0.708	-2.16428571429	-2.08076923077	-0.0375	-0.0888888888889
1417	0.7085	-12.3392857143	-0.623076923077	-1.5	-3.0
1418	0.709	18.1857142857	-0.623076923077	-0.0375	-7.36666666667
1419	0.7095	-5.07142857143	0.834615384615	-0.0375	10.1
1420	0.71	0.742857142857	-2.08076923077	4.35	-3.0
1421	0.7105	-0.710714285714	-0.623076923077	13.125	-1.54444444444
1422	0.711	-2.16428571429	-7.91153846154	2.8875	-0.0888888888889
1423	0.7115	-0.710714285714	5.20769230769	-0.0375	-0.0888888888889
1424	0.712	-0.710714285714	8.12307692308	1.425	-0.0888888888889
1425	0.7125	0.742857142857	-0.623076923077	1.425	-0.0888888888889
1426	0.713	3.65	0.834615384615	-0.0375	1.36666666667
1427	0.7135	-7.97857142857	-2.08076923077	-1.5	1.36666666667
1428	0.714	0.742857142857	0.834615384615	1.425	-0.0888888888889
1429	0.7145	-2.16428571429	-2.08076923077	2.8875	1.36666666667
1430	0.715	2.19642857143	3.75	-2.9625	1.36666666667
1431	0.7155	2.19642857143	-3.53846153846	-0.0375	-1.54444444444
1432	0.716	-2.16428571429	9.58076923077	1.425	2.82222222222
1433	0.7165	3.65	0.834615384615	-1.5	-1.54444444444
1434	0.717	-6.525	-0.623076923077	-0.0375	2.82222222222
1435	0.7175	-3.61785714286	0.834615384615	-2.9625	-11.7333333333
1436	0.718	-0.710714285714	0.834615384615	2.8875	-0.0888888888889
1437	0.7185	-2.16428571429	-0.623076923077	-2.9625	1.36666666667
1438	0.719	-0.710714285714	2.29230769231	-1.5	1.36666666667
1439	0.7195	-0.710714285714	16.8692307692	-0.0375	1.36666666667
1440	0.72	-3.61785714286	-4.99615384615	-0.0375	1.36666666667
1441	0.7205	10.9178571429	-0.623076923077	-0.0375	4.27777777778
1442	0.721	-5.07142857143	-0.623076923077	2.8875	-0.0888888888889
1443	0.7215	-5.07142857143	-0.623076923077	2.8875	-4.45555555556
1444	0.722	-2.16428571429	-0.623076923077	-5.8875	-3.0
1445	0.7225	-3.61785714286	-2.08076923077	-1.5	2.82222222222
1446	0.723	0.742857142857	-9.36923076923	1.425	1.36666666667
1447	0.7235	-0.710714285714	3.75	-0.0375	-1.54444444444
1448	0.724	-2.16428571429	-6.45384615385	-0.0375	1.36666666667
1449	0.7245	-0.710714285714	-0.623076923077	2.8875	1.36666666667
1450	0.725	10.9178571429	0.834615384615	-0.0375	1.36666666667
1451	0.7255	-10.8857142857	-0.623076923077	-1.5	1.36666666667
1452	0.726	-0.710714285714	-0.623076923077	-1.5	-7.36666666667
1453	0.7265	-2.16428571429	0.834615384615	-1.5	14.4666666667
1454	0.727	-3.61785714286	-0.623076923077	-1.5	-0.0888888888889
1455	0.7275	-0.710714285714	6.66538461538	-0.0375	-0.0888888888889
1456	0.728	-0.710714285714	-6.45384615385	2.8875	-0.0888888888889
1457	0.7285	-5.07142857143	-2.08076923077	4.35	-0.0888888888889
1458	0.729	13.825	-2.08076923077	2.8875	1.36666666667
1459	0.7295	0.742857142857	-2.08076923077	-1.5	-7.36666666667
1460	0.73	-0.710714285714	0.834615384615	-4.425	-0.0888888888889
1461	0.7305	-2.16428571429	0.834615384615	-7.35	-0.0888888888889
1462	0.731	-0.710714285714	-0.623076923077	1.425	-0.0888888888889
1463	0.7315	0.742857142857	-7.91153846154	-0.0375	1.36666666667
1464	0.732	-0.710714285714	-0.623076923077	2.8875	2.82222222222
1465	0.7325	-9.43214285714	0.834615384615	-0.0375	-0.0888888888889
1466	0.733	16.7321428571	-0.623076923077	1.425	-7.36666666667
1467	0.7335	-0.710714285714	-0.623076923077	-0.0375	14.4666666667
1468	0.734	0.742857142857	-3.53846153846	1.425	-7.36666666667
1469	0.7345	0.742857142857	-0.623076923077	-4.425	-0.0888888888889
1470	0.735	-2.16428571429	-2.08076923077	2.8875	-1.54444444444
1471	0.7355	-0.710714285714	-3.53846153846	1.425	-0.0888888888889
1472	0.736	-0.710714285714	-0.623076923077	2.8875	-0.0888888888889
1473	0.7365	-6.525	0.834615384615	4.35	-0.0888888888889
1474	0.737	-9.43214285714	0.834615384615	1.425	-8.82222222222
1475	0.7375	0.742857142857	-0.623076923077	-4.425	-7.36666666667
1476	0.738	-0.710714285714	-0.623076923077	-8.8125	-0.0888888888889
1477	0.7385	-0.710714285714	-3.53846153846	18.975	-0.0888888888889
1478	0.739	-0.710714285714	-15.2	-0.0375	-0.0888888888889
1479	0.7395	2.19642857143	19.7846153846	-1.5	-0.0888888888889
1480	0.74	-3.61785714286	-0.623076923077	-1.5	5.73333333333
1481	0.7405	-7.97857142857	-0.623076923077	1.425	-0.0888888888889
1482	0.741	-0.710714285714	0.834615384615	2.8875	1.36666666667
1483	0.7415	-3.61785714286	0.834615384615	2.8875	-8.82222222222
1484	0.742	-2.16428571429	0.834615384615	-1.5	1.36666666667
1485	0.7425	0.742857142857	-0.623076923077	-4.425	1.36666666667
1486	0.743	2.19642857143	2.29230769231	1.425	1.36666666667
1487	0.7435	-0.710714285714	-4.99615384615	2.8875	1.36666666667
1488	0.744	0.742857142857	0.834615384615	-1.5	-1.54444444444
1489	0.7445	2.19642857143	-0.623076923077	-1.5	-0.0888888888889
1490	0.745	-2.16428571429	0.834615384615	-1.5	13.0111111111
1491	0.7455	-2.16428571429	0.834615384615	1.425	17.3777777778
1492	0.746	-2.16428571429	0.834615384615	2.8875	-10.2777777778
1493	0.7465	-0.710714285714	0.834615384615	17.5125	-0.0888888888889
1494	0.747	-3.61785714286	-2.08076923077	-10.275	-1.54444444444
1495	0.7475	-5.07142857143	0.834615384615	-1.5	1.36666666667
1496	0.748	0.742857142857	0.834615384615	-0.0375	1.36666666667
1497	0.7485	-12.3392857143	-2.08076923077	1.425	2.82222222222
1498	0.749	-2.16428571429	-2.08076923077	-2.9625	-5.91111111111
1499	0.7495	-2.16428571429	-2.08076923077	-11.7375	-0.0888888888889
1500	0.75	2.19642857143	0.834615384615	16.05	1.36666666667
1501	0.7505	-0.710714285714	0.834615384615	-1.5	1.36666666667
1502	0.751	-0.710714285714	-13.7423076923	-0.0375	-0.0888888888889
1503	0.7515	-5.07142857143	18.3269230769	-0.0375	-0.0888888888889
1504	0.752	5.10357142857	0.834615384615	-0.0375	1.36666666667
1505	0.7525	-12.3392857143	0.834615384615	2.8875	1.36666666667
1506	0.753	0.742857142857	0.834615384615	-1.5	-4.45555555556
1507	0.7535	-0.710714285714	0.834615384615	-10.275	-0.0888888888889
1508	0.754	0.742857142857	0.834615384615	17.5125	4.27777777778
1509	0.7545	0.742857142857	-2.08076923077	-1.5	1.36666666667
1510	0.755	-0.710714285714	-3.53846153846	-1.5	-0.0888888888889
1511	0.7555	-5.07142857143	-0.623076923077	1.425	2.82222222222
1512	0.756	-13.7928571429	-0.623076923077	-0.0375	-1.54444444444
1513	0.7565	21.0928571429	0.834615384615	1.425	2.82222222222
1514	0.757	-2.16428571429	-0.623076923077	2.8875	-11.7333333333
1515	0.7575	-2.16428571429	0.834615384615	-8.8125	-0.0888888888889
1516	0.758	-2.16428571429	0.834615384615	-4.425	-0.0888888888889
1517	0.7585	0.742857142857	-0.623076923077	1.425	-0.0888888888889
1518	0.759	0.742857142857	-7.91153846154	1.425	-0.0888888888889
1519	0.7595	-3.61785714286	2.29230769231	1.425	-0.0888888888889
1520	0.76	0.742857142857	-0.623076923077	1.425	-1.54444444444
1521	0.7605	5.10357142857	-0.623076923077	2.8875	-1.54444444444
1522	0.761	-0.710714285714	0.834615384615	-4.425	-3.0
1523	0.7615	2.19642857143	0.834615384615	1.425	1.36666666667
1524	0.762	-2.16428571429	0.834615384615	-1.5	-0.0888888888889
1525	0.7625	-2.16428571429	-10.8269230769	1.425	-0.0888888888889
1526	0.763	2.19642857143	18.3269230769	-0.0375	1.36666666667
1527	0.7635	-12.3392857143	2.29230769231	-0.0375	-0.0888888888889
1528	0.764	21.0928571429	0.834615384615	1.425	-11.7333333333
1529	0.7645	-3.61785714286	0.834615384615	-0.0375	13.0111111111
1530	0.765	-2.16428571429	-0.623076923077	5.8125	-1.54444444444
1531	0.7655	-0.710714285714	0.834615384615	14.5875	-0.0888888888889
1532	0.766	0.742857142857	3.75	-1.5	-0.0888888888889
1533	0.7665	0.742857142857	15.4115384615	-1.5	-0.0888888888889
1534	0.767	-0.710714285714	-3.53846153846	1.425	-0.0888888888889
1535	0.7675	3.65	0.834615384615	1.425	1.36666666667
1536	0.768	15.2785714286	-2.08076923077	2.8875	5.73333333333
1537	0.7685	0.742857142857	-2.08076923077	2.8875	-8.82222222222
1538	0.769	0.742857142857	-0.623076923077	1.425	5.73333333333
1539	0.7695	0.742857142857	-0.623076923077	8.7375	1.36666666667
1540	0.77	0.742857142857	-2.08076923077	-1.5	1.36666666667
1541	0.7705	0.742857142857	11.0384615385	1.425	-1.54444444444
1542	0.771	-3.61785714286	-4.99615384615	1.425	-0.0888888888889
1543	0.7715	3.65	-2.08076923077	1.425	-0.0888888888889
1544	0.772	13.825	0.834615384615	2.8875	1.36666666667
1545	0.7725	0.742857142857	0.834615384615	4.35	-8.82222222222
1546	0.773	-2.16428571429	0.834615384615	-10.275	-0.0888888888889
1547	0.7735	2.19642857143	3.75	17.5125	-0.0888888888889
1548	0.774	-0.710714285714	-2.08076923077	1.425	1.36666666667
1549	0.7745	0.742857142857	13.9538461538	-1.5	-0.0888888888889
1550	0.775	-2.16428571429	-7.91153846154	-0.0375	2.82222222222
1551	0.7755	-0.710714285714	-2.08076923077	-0.0375	-3.0
1552	0.776	-7.97857142857	-2.08076923077	-0.0375	1.36666666667
1553	0.7765	-0.710714285714	0.834615384615	-2.9625	-11.7333333333
1554	0.777	-0.710714285714	-0.623076923077	-2.9625	15.9222222222
1555	0.7775	-0.710714285714	0.834615384615	18.975	-1.54444444444
1556	0.778	-0.710714285714	2.29230769231	1.425	1.36666666667
1557	0.7785	-0.710714285714	16.8692307692	-0.0375	-0.0888888888889
1558	0.779	2.19642857143	-0.623076923077	-0.0375	-0.0888888888889
1559	0.7795	-13.7928571429	-4.99615384615	-0.0375	2.82222222222
1560	0.78	-5.07142857143	0.834615384615	1.425	-10.2777777778
1561	0.7805	-5.07142857143	-0.623076923077	-2.9625	-5.91111111111
1562	0.781	-3.61785714286	2.29230769231	11.6625	-4.45555555556
1563	0.7815	0.742857142857	0.834615384615	-4.425	1.36666666667
1564	0.782	0.742857142857	-6.45384615385	-1.5	1.36666666667
1565	0.7825	0.742857142857	0.834615384615	-0.0375	1.36666666667
1566	0.783	-3.61785714286	0.834615384615	-0.0375	1.36666666667
1567	0.7835	8.01071428571	0.834615384615	1.425	-1.54444444444
1568	0.784	-6.525	0.834615384615	1.425	7.18888888889
1569	0.7845	-2.16428571429	0.834615384615	-2.9625	-5.91111111111
1570	0.785	-2.16428571429	0.834615384615	2.8875	-0.0888888888889
1571	0.7855	-0.710714285714	-2.08076923077	-2.9625	-0.0888888888889
1572	0.786	0.742857142857	13.9538461538	-0.0375	-0.0888888888889
1573	0.7865	-5.07142857143	0.834615384615	-0.0375	-0.0888888888889
1574	0.787	5.10357142857	0.834615384615	2.8875	-4.45555555556
1575	0.7875	15.2785714286	0.834615384615	1.425	-0.0888888888889
1576	0.788	-2.16428571429	-0.623076923077	-2.9625	-4.45555555556
1577	0.7885	-0.710714285714	0.834615384615	5.8125	1.36666666667
1578	0.789	-0.710714285714	-0.623076923077	-1.5	-0.0888888888889
1579	0.7895	0.742857142857	-12.2846153846	1.425	-0.0888888888889
1580	0.79	-2.16428571429	18.3269230769	1.425	-0.0888888888889
1581	0.7905	3.65	-9.36923076923	-0.0375	1.36666666667
1582	0.791	-10.8857142857	2.29230769231	1.425	1.36666666667
1583	0.7915	-7.97857142857	2.29230769231	1.425	-3.0
1584	0.792	-0.710714285714	0.834615384615	-0.0375	-5.91111111111
1585	0.7925	0.742857142857	-3.53846153846	-2.9625	8.64444444444
1586	0.793	0.742857142857	0.834615384615	1.425	-5.91111111111
1587	0.7935	2.19642857143	6.66538461538	2.8875	-0.0888888888889
1588	0.794	2.19642857143	-6.45384615385	1.425	1.36666666667
1589	0.7945	-5.07142857143	-0.623076923077	-1.5	-0.0888888888889
1590	0.795	12.3714285714	-0.623076923077	-0.0375	1.36666666667
1591	0.7955	-9.43214285714	0.834615384615	1.425	2.82222222222
1592	0.796	2.19642857143	-0.623076923077	-7.35	-5.91111111111
1593	0.7965	0.742857142857	0.834615384615	-10.275	2.82222222222
1594	0.797	-0.710714285714	-3.53846153846	1.425	-0.0888888888889
1595	0.7975	3.65	-6.45384615385	4.35	-0.0888888888889
1596	0.798	3.65	-2.08076923077	1.425	-0.0888888888889
1597	0.7985	-10.8857142857	-0.623076923077	-1.5	1.36666666667
1598	0.799	-7.97857142857	-2.08076923077	4.35	-10.2777777778
1599	0.7995	-2.16428571429	0.834615384615	-1.5	-8.82222222222
1600	0.8	0.742857142857	0.834615384615	2.8875	4.27777777778
1601	0.8005	-0.710714285714	0.834615384615	-1.5	10.1
1602	0.801	2.19642857143	0.834615384615	1.425	-0.0888888888889
1603	0.8015	3.65	13.9538461538	1.425	-0.0888888888889
1604	0.802	-3.61785714286	-2.08076923077	-0.0375	1.36666666667
1605	0.8025	-7.97857142857	-0.623076923077	2.8875	1.36666666667
1606	0.803	0.742857142857	-0.623076923077	-1.5	2.82222222222
1607	0.8035	-0.710714285714	-0.623076923077	2.8875	-5.91111111111
1608	0.804	0.742857142857	0.834615384615	-2.9625	2.82222222222
1609	0.8045	0.742857142857	3.75	-0.0375	2.82222222222
1610	0.805	0.742857142857	13.9538461538	1.425	2.82222222222
1611	0.8055	-0.710714285714	-12.2846153846	-1.5	1.36666666667
1612	0.806	-12.3392857143	-0.623076923077	1.425	1.36666666667
1613	0.8065	-9.43214285714	-0.623076923077	1.425	-5.91111111111
1614	0.807	-0.710714285714	-2.08076923077	2.8875	-0.0888888888889
1615	0.8075	0.742857142857	2.29230769231	-2.9625	-4.45555555556
1616	0.808	-0.710714285714	0.834615384615	11.6625	-0.0888888888889
1617	0.8085	-0.710714285714	-10.8269230769	-1.5	-1.54444444444
1618	0.809	-3.61785714286	16.8692307692	-0.0375	-1.54444444444
1619	0.8095	2.19642857143	-6.45384615385	2.8875	1.36666666667
1620	0.81	-13.7928571429	-0.623076923077	-0.0375	-0.0888888888889
1621	0.8105	-0.710714285714	-0.623076923077	-1.5	-5.91111111111
1622	0.811	3.65	0.834615384615	-8.8125	1.36666666667
1623	0.8115	-0.710714285714	-0.623076923077	20.4375	-0.0888888888889
1624	0.812	-0.710714285714	-3.53846153846	-7.35	-0.0888888888889
1625	0.8125	0.742857142857	0.834615384615	-1.5	1.36666666667
1626	0.813	-2.16428571429	-9.36923076923	1.425	-0.0888888888889
1627	0.8135	-2.16428571429	0.834615384615	-0.0375	1.36666666667
1628	0.814	-3.61785714286	-0.623076923077	-0.0375	-0.0888888888889
1629	0.8145	-6.525	0.834615384615	-4.425	10.1
1630	0.815	-0.710714285714	-0.623076923077	13.125	2.82222222222
1631	0.8155	-3.61785714286	-2.08076923077	-7.35	2.82222222222
1632	0.816	-0.710714285714	3.75	1.425	-1.54444444444
1633	0.8165	-0.710714285714	13.9538461538	-0.0375	-0.0888888888889
1634	0.817	-3.61785714286	-6.45384615385	-0.0375	2.82222222222
1635	0.8175	-2.16428571429	-2.08076923077	-0.0375	2.82222222222
1636	0.818	-6.525	-2.08076923077	2.8875	2.82222222222
1637	0.8185	-0.710714285714	-0.623076923077	4.35	1.36666666667
1638	0.819	0.742857142857	0.834615384615	2.8875	4.27777777778
1639	0.8195	0.742857142857	-2.08076923077	2.8875	-0.0888888888889
1640	0.82	-2.16428571429	-10.8269230769	-0.0375	-3.0
1641	0.8205	3.65	-6.45384615385	-0.0375	-0.0888888888889
1642	0.821	5.10357142857	0.834615384615	2.8875	4.27777777778
1643	0.8215	-10.8857142857	-2.08076923077	2.8875	-4.45555555556
1644	0.822	-2.16428571429	-2.08076923077	-0.0375	17.3777777778
1645	0.8225	0.742857142857	0.834615384615	4.35	-0.0888888888889
1646	0.823	0.742857142857	0.834615384615	20.4375	-0.0888888888889
1647	0.8235	-0.710714285714	3.75	-5.8875	-0.0888888888889
1648	0.824	-0.710714285714	19.7846153846	-0.0375	-0.0888888888889
1649	0.8245	-0.710714285714	-10.8269230769	-0.0375	-1.54444444444
1650	0.825	-3.61785714286	0.834615384615	1.425	-0.0888888888889
1651	0.8255	-2.16428571429	-0.623076923077	4.35	-0.0888888888889
1652	0.826	-0.710714285714	0.834615384615	4.35	-3.0
1653	0.8265	-3.61785714286	0.834615384615	-8.8125	4.27777777778
1654	0.827	0.742857142857	0.834615384615	-7.35	-0.0888888888889
1655	0.8275	-3.61785714286	-10.8269230769	1.425	-1.54444444444
1656	0.828	-0.710714285714	-9.36923076923	1.425	1.36666666667
1657	0.8285	0.742857142857	0.834615384615	1.425	1.36666666667
1658	0.829	13.825	-0.623076923077	2.8875	-4.45555555556
1659	0.8295	0.742857142857	-2.08076923077	1.425	15.9222222222
1660	0.83	0.742857142857	0.834615384615	-2.9625	-0.0888888888889
1661	0.8305	-0.710714285714	-2.08076923077	11.6625	-0.0888888888889
1662	0.831	-0.710714285714	-2.08076923077	-4.425	-0.0888888888889
1663	0.8315	0.742857142857	2.29230769231	-0.0375	-0.0888888888889
1664	0.832	0.742857142857	-4.99615384615	2.8875	-0.0888888888889
1665	0.8325	-6.525	0.834615384615	1.425	1.36666666667
1666	0.833	0.742857142857	-2.08076923077	2.8875	-5.91111111111
1667	0.8335	-6.525	-0.623076923077	1.425	-4.45555555556
1668	0.834	-3.61785714286	0.834615384615	8.7375	-5.91111111111
1669	0.8345	0.742857142857	-2.08076923077	-2.9625	2.82222222222
1670	0.835	-0.710714285714	-7.91153846154	1.425	1.36666666667
1671	0.8355	0.742857142857	13.9538461538	-1.5	2.82222222222
1672	0.836	8.01071428571	-9.36923076923	1.425	-1.54444444444
1673	0.8365	-12.3392857143	0.834615384615	-0.0375	-0.0888888888889
1674	0.837	-7.97857142857	-2.08076923077	4.35	-11.7333333333
1675	0.8375	0.742857142857	-0.623076923077	-0.0375	18.8333333333
1676	0.838	-2.16428571429	-0.623076923077	17.5125	1.36666666667
1677	0.8385	-2.16428571429	-0.623076923077	-8.8125	1.36666666667
1678	0.839	-2.16428571429	2.29230769231	2.8875	-0.0888888888889
1679	0.8395	-3.61785714286	-0.623076923077	1.425	-0.0888888888889
1680	0.84	-2.16428571429	-0.623076923077	1.425	-1.54444444444
1681	0.8405	15.2785714286	-0.623076923077	1.425	1.36666666667
1682	0.841	-10.8857142857	0.834615384615	-0.0375	-0.0888888888889
1683	0.8415	-2.16428571429	-3.53846153846	-0.0375	10.1
1684	0.842	-2.16428571429	0.834615384615	-7.35	-0.0888888888889
1685	0.8425	-3.61785714286	-3.53846153846	14.5875	-0.0888888888889
1686	0.843	0.742857142857	18.3269230769	-0.0375	-0.0888888888889
1687	0.8435	-5.07142857143	-7.91153846154	-0.0375	1.36666666667
1688	0.844	-3.61785714286	-0.623076923077	1.425	1.36666666667
1689	0.8445	-6.525	0.834615384615	4.35	-1.54444444444
1690	0.845	0.742857142857	-0.623076923077	-0.0375	-3.0
1691	0.8455	-2.16428571429	-0.623076923077	13.125	1.36666666667
1692	0.846	0.742857142857	2.29230769231	-11.7375	1.36666666667
1693	0.8465	0.742857142857	-12.2846153846	-0.0375	-0.0888888888889
1694	0.847	0.742857142857	-9.36923076923	-0.0375	-0.0888888888889
1695	0.8475	-5.07142857143	0.834615384615	-0.0375	2.82222222222
1696	0.848	10.9178571429	-3.53846153846	-0.0375	1.36666666667
1697	0.8485	-5.07142857143	-0.623076923077	-0.0375	17.3777777778
1698	0.849	-0.710714285714	-0.623076923077	-11.7375	-0.0888888888889
1699	0.8495	-2.16428571429	0.834615384615	-4.425	-0.0888888888889
1700	0.85	0.742857142857	2.29230769231	2.8875	-0.0888888888889
1701	0.8505	-0.710714285714	16.8692307692	-0.0375	-1.54444444444
1702	0.851	2.19642857143	-2.08076923077	-0.0375	-1.54444444444
1703	0.8515	-12.3392857143	2.29230769231	1.425	1.36666666667
1704	0.852	-9.43214285714	-2.08076923077	-0.0375	-7.36666666667
1705	0.8525	-0.710714285714	0.834615384615	-2.9625	-7.36666666667
1706	0.853	-2.16428571429	0.834615384615	-4.425	2.82222222222
1707	0.8535	-2.16428571429	-0.623076923077	11.6625	-0.0888888888889
1708	0.854	0.742857142857	-4.99615384615	-4.425	-0.0888888888889
1709	0.8545	2.19642857143	3.75	2.8875	1.36666666667
1710	0.855	-9.43214285714	0.834615384615	-0.0375	-0.0888888888889
1711	0.8555	5.10357142857	-0.623076923077	1.425	-5.91111111111
1712	0.856	-5.07142857143	-2.08076923077	1.425	5.73333333333
1713	0.8565	-2.16428571429	-2.08076923077	2.8875	-3.0
1714	0.857	0.742857142857	0.834615384615	-8.8125	-0.0888888888889
1715	0.8575	-0.710714285714	3.75	1.425	2.82222222222
1716	0.858	-0.710714285714	-2.08076923077	-5.8875	2.82222222222
1717	0.8585	-2.16428571429	0.834615384615	2.8875	1.36666666667
1718	0.859	-9.43214285714	-0.623076923077	1.425	-1.54444444444
1719	0.8595	15.2785714286	-0.623076923077	2.8875	-0.0888888888889
1720	0.86	0.742857142857	-0.623076923077	-0.0375	-1.54444444444
1721	0.8605	2.19642857143	0.834615384615	8.7375	-0.0888888888889
1722	0.861	2.19642857143	-2.08076923077	1.425	-0.0888888888889
1723	0.8615	0.742857142857	3.75	-0.0375	1.36666666667
1724	0.862	-2.16428571429	-4.99615384615	1.425	2.82222222222
1725	0.8625	3.65	2.29230769231	1.425	-0.0888888888889
1726	0.863	-9.43214285714	-6.45384615385	-0.0375	2.82222222222
1727	0.8635	-5.07142857143	-0.623076923077	1.425	-3.0
1728	0.864	0.742857142857	2.29230769231	-4.425	-4.45555555556
1729	0.8645	-0.710714285714	0.834615384615	-1.5	-5.91111111111
1730	0.865	-0.710714285714	-0.623076923077	-2.9625	8.64444444444
1731	0.8655	-0.710714285714	2.29230769231	-0.0375	1.36666666667
1732	0.866	-3.61785714286	5.20769230769	1.425	1.36666666667
1733	0.8665	2.19642857143	-2.08076923077	1.425	-3.0
1734	0.867	3.65	-0.623076923077	2.8875	-0.0888888888889
1735	0.8675	-7.97857142857	-2.08076923077	4.35	-0.0888888888889
1736	0.868	-3.61785714286	0.834615384615	-0.0375	-1.54444444444
1737	0.8685	0.742857142857	0.834615384615	20.4375	1.36666666667
1738	0.869	-0.710714285714	-2.08076923077	1.425	1.36666666667
1739	0.8695	0.742857142857	-7.91153846154	-0.0375	-0.0888888888889
1740	0.87	0.742857142857	15.4115384615	-1.5	1.36666666667
1741	0.8705	-0.710714285714	-2.08076923077	1.425	-0.0888888888889
1742	0.871	16.7321428571	-0.623076923077	-0.0375	1.36666666667
1743	0.8715	-12.3392857143	-2.08076923077	1.425	2.82222222222
1744	0.872	-3.61785714286	-2.08076923077	-0.0375	-3.0
1745	0.8725	-0.710714285714	2.29230769231	17.5125	-0.0888888888889
1746	0.873	-0.710714285714	-0.623076923077	-0.0375	-0.0888888888889
1747	0.8735	-2.16428571429	-9.36923076923	1.425	-0.0888888888889
1748	0.874	-0.710714285714	-10.8269230769	1.425	1.36666666667
1749	0.8745	-3.61785714286	-0.623076923077	1.425	1.36666666667
1750	0.875	-2.16428571429	-0.623076923077	1.425	-0.0888888888889
1751	0.8755	-5.07142857143	0.834615384615	2.8875	-7.36666666667
1752	0.876	-0.710714285714	-0.623076923077	-2.9625	1.36666666667
1753	0.8765	2.19642857143	0.834615384615	16.05	-1.54444444444
1754	0.877	0.742857142857	0.834615384615	2.8875	1.36666666667
1755	0.8775	0.742857142857	-4.99615384615	-0.0375	-0.0888888888889
1756	0.878	0.742857142857	11.0384615385	-0.0375	-0.0888888888889
1757	0.8785	-0.710714285714	-0.623076923077	-0.0375	-0.0888888888889
1758	0.879	15.2785714286	-0.623076923077	1.425	2.82222222222
1759	0.8795	-6.525	-0.623076923077	1.425	14.4666666667
1760	0.88	-2.16428571429	2.29230769231	2.8875	-7.36666666667
1761	0.8805	-0.710714285714	-0.623076923077	-0.0375	17.3777777778
1762	0.881	-0.710714285714	0.834615384615	13.125	-0.0888888888889
1763	0.8815	-2.16428571429	2.29230769231	2.8875	-1.54444444444
1764	0.882	-0.710714285714	2.29230769231	1.425	1.36666666667
1765	0.8825	0.742857142857	-3.53846153846	-0.0375	2.82222222222
1766	0.883	-0.710714285714	-3.53846153846	1.425	-8.82222222222
1767	0.8835	-0.710714285714	0.834615384615	1.425	5.73333333333
1768	0.884	-2.16428571429	-2.08076923077	-2.9625	-1.54444444444
1769	0.8845	0.742857142857	-0.623076923077	4.35	-0.0888888888889
1770	0.885	0.742857142857	0.834615384615	8.7375	-0.0888888888889
1771	0.8855	-0.710714285714	-3.53846153846	-2.9625	-0.0888888888889
1772	0.886	-0.710714285714	-6.45384615385	1.425	2.82222222222
1773	0.8865	-6.525	0.834615384615	-0.0375	-1.54444444444
1774	0.887	9.46428571429	-0.623076923077	-1.5	-4.45555555556
1775	0.8875	-5.07142857143	-0.623076923077	-0.0375	7.18888888889
1776	0.888	-0.710714285714	0.834615384615	-4.425	-5.91111111111
1777	0.8885	-3.61785714286	-2.08076923077	5.8125	-0.0888888888889
1778	0.889	0.742857142857	-9.36923076923	2.8875	-0.0888888888889
1779	0.8895	-2.16428571429	6.66538461538	2.8875	-0.0888888888889
1780	0.89	0.742857142857	-0.623076923077	2.8875	-1.54444444444
1781	0.8905	12.3714285714	-0.623076923077	1.425	2.82222222222
1782	0.891	-0.710714285714	0.834615384615	2.8875	7.18888888889
1783	0.8915	-0.710714285714	-0.623076923077	2.8875	4.27777777778
1784	0.892	-0.710714285714	0.834615384615	-5.8875	4.27777777778
1785	0.8925	0.742857142857	0.834615384615	4.35	1.36666666667
1786	0.893	-3.61785714286	9.58076923077	-0.0375	-0.0888888888889
1787	0.8935	0.742857142857	5.20769230769	-0.0375	-0.0888888888889
1788	0.894	-0.710714285714	-6.45384615385	-1.5	-0.0888888888889
1789	0.8945	-3.61785714286	0.834615384615	-1.5	1.36666666667
1790	0.895	10.9178571429	-2.08076923077	4.35	-3.0
1791	0.8955	0.742857142857	0.834615384615	-5.8875	1.36666666667
1792	0.896	-2.16428571429	-0.623076923077	4.35	-0.0888888888889
1793	0.8965	-0.710714285714	3.75	-1.5	-0.0888888888889
1794	0.897	-0.710714285714	-12.2846153846	2.8875	1.36666666667
1795	0.8975	2.19642857143	-3.53846153846	-1.5	-0.0888888888889
1796	0.898	2.19642857143	-2.08076923077	1.425	1.36666666667
1797	0.8985	-5.07142857143	-2.08076923077	-0.0375	-1.54444444444
1798	0.899	-3.61785714286	-0.623076923077	-4.425	-0.0888888888889
1799	0.8995	-2.16428571429	-2.08076923077	-7.35	-4.45555555556
1800	0.9	-3.61785714286	0.834615384615	14.5875	-0.0888888888889
1801	0.9005	0.742857142857	-0.623076923077	-1.5	-0.0888888888889
1802	0.901	2.19642857143	13.9538461538	-0.0375	-0.0888888888889
1803	0.9015	-0.710714285714	-4.99615384615	1.425	2.82222222222
1804	0.902	-10.8857142857	2.29230769231	2.8875	-1.54444444444
1805	0.9025	12.3714285714	-0.623076923077	-0.0375	-7.36666666667
1806	0.903	-5.07142857143	0.834615384615	2.8875	8.64444444444
1807	0.9035	-3.61785714286	2.29230769231	13.125	-0.0888888888889
1808	0.904	-0.710714285714	-0.623076923077	-2.9625	-1.54444444444
1809	0.9045	-0.710714285714	-9.36923076923	1.425	1.36666666667
1810	0.905	-0.710714285714	13.9538461538	1.425	-0.0888888888889
1811	0.9055	-0.710714285714	-2.08076923077	-0.0375	2.82222222222
1812	0.906	-10.8857142857	-0.623076923077	1.425	-1.54444444444
1813	0.9065	-5.07142857143	-2.08076923077	-0.0375	7.18888888889
1814	0.907	0.742857142857	-0.623076923077	-1.5	-10.2777777778
1815	0.9075	-0.710714285714	0.834615384615	-2.9625	-0.0888888888889
1816	0.908	-0.710714285714	-0.623076923077	-5.8875	-0.0888888888889
1817	0.9085	0.742857142857	0.834615384615	1.425	-0.0888888888889
1818	0.909	-0.710714285714	11.0384615385	-0.0375	-1.54444444444
1819	0.9095	0.742857142857	-0.623076923077	-0.0375	1.36666666667
1820	0.91	5.10357142857	-0.623076923077	1.425	2.82222222222
1821	0.9105	5.10357142857	0.834615384615	-1.5	-7.36666666667
1822	0.911	3.65	-0.623076923077	1.425	-0.0888888888889
1823	0.9115	0.742857142857	0.834615384615	7.275	-0.0888888888889
1824	0.912	-0.710714285714	0.834615384615	-2.9625	1.36666666667
1825	0.9125	0.742857142857	-7.91153846154	-1.5	-0.0888888888889
1826	0.913	-3.61785714286	-3.53846153846	-1.5	1.36666666667
1827	0.9135	3.65	-0.623076923077	-0.0375	-1.54444444444
1828	0.914	13.825	-2.08076923077	-0.0375	4.27777777778
1829	0.9145	-10.8857142857	-0.623076923077	-0.0375	-10.2777777778
1830	0.915	-0.710714285714	-0.623076923077	-2.9625	17.3777777778
1831	0.9155	2.19642857143	-0.623076923077	16.05	-0.0888888888889
1832	0.916	-0.710714285714	-3.53846153846	1.425	1.36666666667
1833	0.9165	-0.710714285714	-3.53846153846	-0.0375	-0.0888888888889
1834	0.917	2.19642857143	-6.45384615385	-1.5	-0.0888888888889
1835	0.9175	-7.97857142857	-0.623076923077	1.425	1.36666666667
1836	0.918	3.65	-2.08076923077	2.8875	-8.82222222222
1837	0.9185	-2.16428571429	-2.08076923077	-1.5	2.82222222222
1838	0.919	0.742857142857	-2.08076923077	20.4375	-0.0888888888889
1839	0.9195	0.742857142857	0.834615384615	-7.35	-0.0888888888889
1840	0.92	-0.710714285714	-6.45384615385	1.425	1.36666666667
1841	0.9205	0.742857142857	-0.623076923077	-1.5	-0.0888888888889
1842	0.921	-2.16428571429	-3.53846153846	1.425	2.82222222222
1843	0.9215	21.0928571429	-0.623076923077	2.8875	-0.0888888888889
1844	0.922	-7.97857142857	0.834615384615	-0.0375	4.27777777778
1845	0.9225	-3.61785714286	-0.623076923077	-1.5	-8.82222222222
1846	0.923	0.742857142857	-2.08076923077	1.425	17.3777777778
1847	0.9235	0.742857142857	0.834615384615	-5.8875	-0.0888888888889
1848	0.924	0.742857142857	-2.08076923077	8.7375	-1.54444444444
1849	0.9245	0.742857142857	-2.08076923077	-1.5	1.36666666667
1850	0.925	-10.8857142857	-0.623076923077	1.425	-0.0888888888889
1851	0.9255	19.6392857143	-4.99615384615	-0.0375	2.82222222222
1852	0.926	-0.710714285714	0.834615384615	-0.0375	-10.2777777778
1853	0.9265	0.742857142857	-2.08076923077	-13.2	-0.0888888888889
1854	0.927	0.742857142857	0.834615384615	-10.275	-0.0888888888889
1855	0.9275	2.19642857143	2.29230769231	-0.0375	1.36666666667
1856	0.928	-0.710714285714	-6.45384615385	1.425	1.36666666667
1857	0.9285	-5.07142857143	-0.623076923077	-0.0375	-0.0888888888889
1858	0.929	-10.8857142857	-0.623076923077	-0.0375	-1.54444444444
1859	0.9295	12.3714285714	-0.623076923077	-1.5	-3.0
1860	0.93	0.742857142857	-0.623076923077	-7.35	-5.91111111111
1861	0.9305	0.742857142857	0.834615384615	8.7375	-0.0888888888889
1862	0.931	0.742857142857	-2.08076923077	-2.9625	1.36666666667
1863	0.9315	-0.710714285714	-12.2846153846	-1.5	1.36666666667
1864	0.932	0.742857142857	18.3269230769	-0.0375	-0.0888888888889
1865	0.9325	-9.43214285714	-0.623076923077	1.425	-0.0888888888889
1866	0.933	16.7321428571	-2.08076923077	1.425	-1.54444444444
1867	0.9335	-9.43214285714	-0.623076923077	-0.0375	4.27777777778
1868	0.934	-0.710714285714	2.29230769231	-2.9625	-0.0888888888889
1869	0.9345	-0.710714285714	-0.623076923077	-4.425	-1.54444444444
1870	0.935	-2.16428571429	-6.45384615385	-0.0375	2.82222222222
1871	0.9355	-3.61785714286	11.0384615385	-0.0375	-0.0888888888889
1872	0.936	-3.61785714286	-0.623076923077	-1.5	1.36666666667
1873	0.9365	21.0928571429	-0.623076923077	-0.0375	1.36666666667
1874	0.937	-9.43214285714	-0.623076923077	2.8875	15.9222222222
1875	0.9375	-2.16428571429	-2.08076923077	1.425	-7.36666666667
1876	0.938	0.742857142857	-2.08076923077	-10.275	1.36666666667
1877	0.9385	-0.710714285714	-0.623076923077	-0.0375	2.82222222222
1878	0.939	0.742857142857	-7.91153846154	1.425	-0.0888888888889
1879	0.9395	-0.710714285714	11.0384615385	-0.0375	-0.0888888888889
1880	0.94	0.742857142857	-2.08076923077	-0.0375	1.36666666667
1881	0.9405	-0.710714285714	-0.623076923077	2.8875	-0.0888888888889
1882	0.941	-0.710714285714	0.834615384615	-1.5	-1.54444444444
1883	0.9415	-2.16428571429	0.834615384615	-5.8875	1.36666666667
1884	0.942	-0.710714285714	0.834615384615	4.35	-1.54444444444
1885	0.9425	-2.16428571429	3.75	-1.5	1.36666666667
1886	0.943	5.10357142857	-4.99615384615	-0.0375	1.36666666667
1887	0.9435	-3.61785714286	-3.53846153846	1.425	2.82222222222
1888	0.944	-12.3392857143	-0.623076923077	-0.0375	-0.0888888888889
1889	0.9445	16.7321428571	-0.623076923077	-0.0375	4.27777777778
1890	0.945	-0.710714285714	-2.08076923077	-1.5	-0.0888888888889
1891	0.9455	0.742857142857	2.29230769231	7.275	1.36666666667
1892	0.946	-3.61785714286	-2.08076923077	2.8875	-0.0888888888889
1893	0.9465	0.742857142857	3.75	-7.35	-0.0888888888889
1894	0.947	-2.16428571429	-9.36923076923	-0.0375	1.36666666667
1895	0.9475	-2.16428571429	-0.623076923077	-1.5	1.36666666667
1896	0.948	0.742857142857	-0.623076923077	2.8875	-5.91111111111
1897	0.9485	-0.710714285714	-0.623076923077	-0.0375	-0.0888888888889
1898	0.949	0.742857142857	-0.623076923077	-11.7375	1.36666666667
1899	0.9495	-2.16428571429	2.29230769231	20.4375	-0.0888888888889
1900	0.95	-3.61785714286	-0.623076923077	1.425	-1.54444444444
1901	0.9505	0.742857142857	11.0384615385	-1.5	2.82222222222
1902	0.951	-0.710714285714	-2.08076923077	-0.0375	-0.0888888888889
1903	0.9515	-7.97857142857	0.834615384615	1.425	1.36666666667
1904	0.952	-0.710714285714	-0.623076923077	-0.0375	-7.36666666667
1905	0.9525	-0.710714285714	-0.623076923077	-10.275	-1.54444444444
1906	0.953	0.742857142857	0.834615384615	20.4375	1.36666666667
1907	0.9535	0.742857142857	-2.08076923077	2.8875	1.36666666667
1908	0.954	-0.710714285714	-10.8269230769	1.425	1.36666666667
1909	0.9545	0.742857142857	19.7846153846	-0.0375	1.36666666667
1910	0.955	-0.710714285714	2.29230769231	-0.0375	4.27777777778
1911	0.9555	10.9178571429	-2.08076923077	-1.5	1.36666666667
1912	0.956	-5.07142857143	-4.99615384615	-0.0375	-4.45555555556
1913	0.9565	0.742857142857	-3.53846153846	2.8875	-0.0888888888889
1914	0.957	-0.710714285714	-2.08076923077	-1.5	-1.54444444444
1915	0.9575	-2.16428571429	2.29230769231	-1.5	-1.54444444444
1916	0.958	-2.16428571429	-13.7423076923	1.425	-3.0
1917	0.9585	3.65	-2.08076923077	-1.5	1.36666666667
1918	0.959	-13.7928571429	-3.53846153846	-1.5	2.82222222222
1919	0.9595	-10.8857142857	-0.623076923077	4.35	-11.7333333333
1920	0.96	-0.710714285714	0.834615384615	1.425	-7.36666666667
1921	0.9605	0.742857142857	-2.08076923077	-7.35	1.36666666667
1922	0.961	0.742857142857	-0.623076923077	-0.0375	-8.82222222222
1923	0.9615	-2.16428571429	-6.45384615385	-8.8125	-0.0888888888889
1924	0.962	0.742857142857	-0.623076923077	1.425	-0.0888888888889
1925	0.9625	-0.710714285714	-4.99615384615	-0.0375	-0.0888888888889
1926	0.963	2.19642857143	-0.623076923077	1.425	2.82222222222
1927	0.9635	0.742857142857	-0.623076923077	2.8875	2.82222222222
1928	0.964	-2.16428571429	-0.623076923077	2.8875	10.1
1929	0.9645	0.742857142857	-0.623076923077	-7.35	-4.45555555556
1930	0.965	0.742857142857	0.834615384615	-4.425	2.82222222222
1931	0.9655	-2.16428571429	-9.36923076923	1.425	-0.0888888888889
1932	0.966	-0.710714285714	11.0384615385	1.425	-1.54444444444
1933	0.9665	-5.07142857143	-3.53846153846	1.425	1.36666666667
1934	0.967	18.1857142857	0.834615384615	-1.5	-0.0888888888889
1935	0.9675	-9.43214285714	0.834615384615	1.425	14.4666666667
1936	0.968	-3.61785714286	-2.08076923077	1.425	-10.2777777778
1937	0.9685	-0.710714285714	-2.08076923077	-7.35	-1.54444444444
1938	0.969	-2.16428571429	-0.623076923077	14.5875	-0.0888888888889
1939	0.9695	0.742857142857	-6.45384615385	-0.0375	-3.0
1940	0.97	-2.16428571429	9.58076923077	-0.0375	-3.0
