	Time	Channel 1	Channel 2	Channel 3	Channel 4
0	0.0	-0.75	-6.45384615385	3.04897959184	1.5
1	0.0005	-0.75	0.834615384615	0.183673469388	0.0555555555556
2	0.001	-0.75	-2.08076923077	3.04897959184	-2.83333333333
3	0.0015	-0.75	-9.36923076923	0.183673469388	-2.83333333333
4	0.002	0.7	3.75	-4.11428571429	0.0555555555556
5	0.0025	21.0	0.834615384615	3.04897959184	0.0555555555556
6	0.003	2.15	-2.08076923077	-4.11428571429	2.94444444444
7	0.0035	-0.75	0.834615384615	18.8081632653	1.5
8	0.004	-0.75	-2.08076923077	1.61632653061	1.5
9	0.0045	-9.45	-0.623076923077	3.04897959184	17.3888888889
10	0.005	-0.75	0.834615384615	-2.68163265306	-5.72222222222
11	0.0055	-0.75	-2.08076923077	18.8081632653	0.0555555555556
12	0.006	-0.75	-0.623076923077	15.9428571429	-1.38888888889
13	0.0065	-0.75	-0.623076923077	-6.97959183673	-7.16666666667
14	0.007	-0.75	0.834615384615	-1.24897959184	1.5
15	0.0075	0.7	-10.8269230769	3.04897959184	0.0555555555556
16	0.008	-3.65	16.8692307692	1.61632653061	2.94444444444
17	0.0085	21.0	-0.623076923077	-1.24897959184	-12.9444444444
18	0.009	-0.75	-2.08076923077	-1.24897959184	13.0555555556
19	0.0095	-0.75	3.75	4.48163265306	8.72222222222
20	0.01	-3.65	0.834615384615	7.34693877551	1.5
21	0.0105	-0.75	-7.91153846154	1.61632653061	1.5
22	0.011	0.7	8.12307692308	-1.24897959184	1.5
23	0.0115	-0.75	-6.45384615385	0.183673469388	1.5
24	0.012	-15.25	-0.623076923077	0.183673469388	-1.38888888889
25	0.0125	15.2	-0.623076923077	1.61632653061	-12.9444444444
26	0.013	0.7	-0.623076923077	-8.41224489796	-1.38888888889
27	0.0135	0.7	0.834615384615	17.3755102041	0.0555555555556
28	0.014	-2.2	0.834615384615	-1.24897959184	0.0555555555556
29	0.0145	-0.75	-10.8269230769	0.183673469388	0.0555555555556
30	0.015	2.15	18.3269230769	3.04897959184	-1.38888888889
31	0.0155	-8.0	-0.623076923077	1.61632653061	-1.38888888889
32	0.016	21.0	0.834615384615	1.61632653061	0.0555555555556
33	0.0165	-0.75	0.834615384615	3.04897959184	-8.61111111111
34	0.017	-2.2	-0.623076923077	-6.97959183673	1.5
35	0.0175	-0.75	0.834615384615	-5.54693877551	0.0555555555556
36	0.018	2.15	-3.53846153846	1.61632653061	0.0555555555556
37	0.0185	0.7	2.29230769231	1.61632653061	1.5
38	0.019	0.7	-3.53846153846	1.61632653061	0.0555555555556
39	0.0195	0.7	0.834615384615	1.61632653061	-1.38888888889
40	0.02	9.4	-0.623076923077	0.183673469388	1.5
41	0.0205	3.6	-0.623076923077	-4.11428571429	-1.38888888889
42	0.021	0.7	-0.623076923077	3.04897959184	0.0555555555556
43	0.0215	2.15	2.29230769231	-5.54693877551	-1.38888888889
44	0.022	-0.75	-9.36923076923	-2.68163265306	-2.83333333333
45	0.0225	0.7	-4.99615384615	1.61632653061	0.0555555555556
46	0.023	-12.35	0.834615384615	-1.24897959184	0.0555555555556
47	0.0235	-2.2	-2.08076923077	3.04897959184	-8.61111111111
48	0.024	-0.75	-0.623076923077	0.183673469388	-1.38888888889
49	0.0245	-3.65	0.834615384615	14.5102040816	0.0555555555556
50	0.025	-0.75	-2.08076923077	1.61632653061	0.0555555555556
51	0.0255	-0.75	-7.91153846154	1.61632653061	1.5
52	0.026	0.7	13.9538461538	0.183673469388	0.0555555555556
53	0.0265	0.7	0.834615384615	1.61632653061	-1.38888888889
54	0.027	-0.75	-0.623076923077	0.183673469388	1.5
55	0.0275	-5.1	-0.623076923077	-1.24897959184	-11.5
56	0.028	-0.75	-0.623076923077	3.04897959184	2.94444444444
57	0.0285	0.7	-0.623076923077	-5.54693877551	0.0555555555556
58	0.029	-2.2	-2.08076923077	1.61632653061	0.0555555555556
59	0.0295	-2.2	6.66538461538	0.183673469388	0.0555555555556
60	0.03	-0.75	-4.99615384615	1.61632653061	0.0555555555556
61	0.0305	-6.55	-0.623076923077	0.183673469388	0.0555555555556
62	0.031	-0.75	-0.623076923077	-1.24897959184	-7.16666666667
63	0.0315	0.7	-2.08076923077	-4.11428571429	0.0555555555556
64	0.032	0.7	-0.623076923077	7.34693877551	1.5
65	0.0325	-2.2	0.834615384615	3.04897959184	1.5
66	0.033	-3.65	-4.99615384615	1.61632653061	0.0555555555556
67	0.0335	7.95	-0.623076923077	1.61632653061	-1.38888888889
68	0.034	21.0	-2.08076923077	-1.24897959184	2.94444444444
69	0.0345	-9.45	-0.623076923077	4.48163265306	2.94444444444
70	0.035	0.7	-0.623076923077	-8.41224489796	-5.72222222222
71	0.0355	-0.75	-0.623076923077	-5.54693877551	2.94444444444
72	0.036	-2.2	0.834615384615	1.61632653061	1.5
73	0.0365	-0.75	-9.36923076923	1.61632653061	-1.38888888889
74	0.037	-5.1	2.29230769231	1.61632653061	1.5
75	0.0375	0.7	-3.53846153846	-1.24897959184	0.0555555555556
76	0.038	2.15	-2.08076923077	1.61632653061	2.94444444444
77	0.0385	-0.75	0.834615384615	3.04897959184	4.38888888889
78	0.039	-0.75	-3.53846153846	4.48163265306	0.0555555555556
79	0.0395	-0.75	0.834615384615	1.61632653061	0.0555555555556
80	0.04	-0.75	9.58076923077	1.61632653061	0.0555555555556
81	0.0405	-2.2	-0.623076923077	1.61632653061	0.0555555555556
82	0.041	0.7	-0.623076923077	3.04897959184	-1.38888888889
83	0.0415	-8.0	-0.623076923077	1.61632653061	2.94444444444
84	0.042	-2.2	-2.08076923077	7.34693877551	-1.38888888889
85	0.0425	-2.2	-2.08076923077	0.183673469388	-7.16666666667
86	0.043	-0.75	2.29230769231	0.183673469388	-1.38888888889
87	0.0435	-2.2	-10.8269230769	-1.24897959184	0.0555555555556
88	0.044	2.15	-2.08076923077	1.61632653061	1.5
89	0.0445	3.6	-3.53846153846	3.04897959184	0.0555555555556
90	0.045	-8.0	0.834615384615	3.04897959184	1.5
91	0.0455	-8.0	-0.623076923077	3.04897959184	-4.27777777778
92	0.046	-3.65	-2.08076923077	0.183673469388	8.72222222222
93	0.0465	0.7	0.834615384615	11.6448979592	0.0555555555556
94	0.047	-0.75	-2.08076923077	-1.24897959184	0.0555555555556
95	0.0475	-0.75	-9.36923076923	-1.24897959184	0.0555555555556
96	0.048	-5.1	-2.08076923077	0.183673469388	1.5
97	0.0485	0.7	-6.45384615385	0.183673469388	-1.38888888889
98	0.049	-0.75	-0.623076923077	-1.24897959184	15.9444444444
99	0.0495	-0.75	-0.623076923077	-2.68163265306	1.5
100	0.05	0.7	-2.08076923077	4.48163265306	1.5
101	0.0505	-0.75	0.834615384615	-5.54693877551	0.0555555555556
102	0.051	-3.65	-2.08076923077	0.183673469388	2.94444444444
103	0.0515	-0.75	-4.99615384615	0.183673469388	1.5
104	0.052	-8.0	-2.08076923077	3.04897959184	0.0555555555556
105	0.0525	12.3	-0.623076923077	1.61632653061	1.5
106	0.053	-6.55	0.834615384615	0.183673469388	0.0555555555556
107	0.0535	-2.2	-0.623076923077	-11.2775510204	-7.16666666667
108	0.054	-0.75	2.29230769231	-5.54693877551	1.5
109	0.0545	0.7	2.29230769231	0.183673469388	1.5
110	0.055	2.15	-9.36923076923	0.183673469388	1.5
111	0.0555	-3.65	5.20769230769	0.183673469388	0.0555555555556
112	0.056	-9.45	-2.08076923077	-1.24897959184	0.0555555555556
113	0.0565	-3.65	-0.623076923077	1.61632653061	7.27777777778
114	0.057	-0.75	-0.623076923077	0.183673469388	-5.72222222222
115	0.0575	-0.75	0.834615384615	3.04897959184	-5.72222222222
116	0.058	0.7	0.834615384615	-4.11428571429	2.94444444444
117	0.0585	-0.75	2.29230769231	1.61632653061	0.0555555555556
118	0.059	0.7	-3.53846153846	-1.24897959184	2.94444444444
119	0.0595	-10.9	0.834615384615	-1.24897959184	4.38888888889
120	0.06	-3.65	-0.623076923077	3.04897959184	-5.72222222222
121	0.0605	-5.1	-0.623076923077	3.04897959184	0.0555555555556
122	0.061	0.7	2.29230769231	5.91428571429	-1.38888888889
123	0.0615	-2.2	-2.08076923077	-1.24897959184	0.0555555555556
124	0.062	0.7	-0.623076923077	3.04897959184	-1.38888888889
125	0.0625	-5.1	-3.53846153846	0.183673469388	1.5
126	0.063	-15.25	-0.623076923077	0.183673469388	-1.38888888889
127	0.0635	16.65	-0.623076923077	3.04897959184	-1.38888888889
128	0.064	-2.2	-0.623076923077	0.183673469388	13.0555555556
129	0.0645	-2.2	-0.623076923077	4.48163265306	8.72222222222
130	0.065	-0.75	-0.623076923077	-5.54693877551	-1.38888888889
131	0.0655	-0.75	2.29230769231	-6.97959183673	0.0555555555556
132	0.066	-0.75	-10.8269230769	3.04897959184	0.0555555555556
133	0.0665	2.15	-0.623076923077	1.61632653061	0.0555555555556
134	0.067	12.3	0.834615384615	0.183673469388	1.5
135	0.0675	-8.0	-0.623076923077	1.61632653061	1.5
136	0.068	0.7	-2.08076923077	-2.68163265306	-7.16666666667
137	0.0685	0.7	-0.623076923077	-4.11428571429	0.0555555555556
138	0.069	-0.75	-2.08076923077	4.48163265306	0.0555555555556
139	0.0695	-0.75	5.20769230769	0.183673469388	0.0555555555556
140	0.07	-2.2	0.834615384615	-1.24897959184	0.0555555555556
141	0.0705	16.65	-0.623076923077	-4.11428571429	1.5
142	0.071	-8.0	0.834615384615	0.183673469388	8.72222222222
143	0.0715	-3.65	-0.623076923077	1.61632653061	-5.72222222222
144	0.072	-2.2	2.29230769231	-8.41224489796	1.5
145	0.0725	-0.75	0.834615384615	-2.68163265306	1.5
146	0.073	-2.2	3.75	0.183673469388	0.0555555555556
147	0.0735	0.7	-10.8269230769	-1.24897959184	1.5
148	0.074	-3.65	19.7846153846	1.61632653061	1.5
149	0.0745	18.1	0.834615384615	1.61632653061	-8.61111111111
150	0.075	-0.75	-0.623076923077	-1.24897959184	18.8333333333
151	0.0755	-0.75	-0.623076923077	0.183673469388	-8.61111111111
152	0.076	-2.2	-0.623076923077	-4.11428571429	1.5
153	0.0765	-2.2	0.834615384615	-8.41224489796	1.5
154	0.077	0.7	6.66538461538	1.61632653061	0.0555555555556
155	0.0775	0.7	-3.53846153846	0.183673469388	0.0555555555556
156	0.078	-9.45	-0.623076923077	1.61632653061	-1.38888888889
157	0.0785	13.75	0.834615384615	-1.24897959184	0.0555555555556
158	0.079	-0.75	-2.08076923077	1.61632653061	-10.0555555556
159	0.0795	-2.2	-0.623076923077	-9.84489795918	0.0555555555556
160	0.08	-0.75	-2.08076923077	20.2408163265	1.5
161	0.0805	-0.75	-3.53846153846	0.183673469388	-1.38888888889
162	0.081	-0.75	13.9538461538	0.183673469388	0.0555555555556
163	0.0815	-0.75	0.834615384615	0.183673469388	0.0555555555556
164	0.082	-6.55	0.834615384615	0.183673469388	0.0555555555556
165	0.0825	-2.2	0.834615384615	4.48163265306	-5.72222222222
166	0.083	0.7	0.834615384615	0.183673469388	14.5
167	0.0835	-0.75	2.29230769231	15.9428571429	0.0555555555556
168	0.084	0.7	-2.08076923077	-6.97959183673	0.0555555555556
169	0.0845	0.7	0.834615384615	0.183673469388	1.5
170	0.085	-2.2	-7.91153846154	0.183673469388	0.0555555555556
171	0.0855	-6.55	-0.623076923077	-1.24897959184	0.0555555555556
172	0.086	5.05	-2.08076923077	0.183673469388	-7.16666666667
173	0.0865	0.7	-2.08076923077	4.48163265306	14.5
174	0.087	-0.75	0.834615384615	-1.24897959184	-10.0555555556
175	0.0875	-2.2	0.834615384615	14.5102040816	0.0555555555556
176	0.088	-0.75	2.29230769231	-1.24897959184	1.5
177	0.0885	0.7	-7.91153846154	-1.24897959184	0.0555555555556
178	0.089	0.7	-3.53846153846	0.183673469388	0.0555555555556
179	0.0895	-2.2	-2.08076923077	1.61632653061	-1.38888888889
180	0.09	-2.2	-0.623076923077	0.183673469388	-2.83333333333
181	0.0905	0.7	-0.623076923077	-12.7102040816	0.0555555555556
182	0.091	-0.75	0.834615384615	18.8081632653	1.5
183	0.0915	-2.2	-0.623076923077	-6.97959183673	0.0555555555556
184	0.092	0.7	-2.08076923077	0.183673469388	-1.38888888889
185	0.0925	-5.1	0.834615384615	-1.24897959184	0.0555555555556
186	0.093	-0.75	-3.53846153846	1.61632653061	-2.83333333333
187	0.0935	-5.1	-2.08076923077	3.04897959184	-2.83333333333
188	0.094	-2.2	-0.623076923077	-5.54693877551	-5.72222222222
189	0.0945	-3.65	0.834615384615	5.91428571429	-1.38888888889
190	0.095	-3.65	-2.08076923077	5.91428571429	0.0555555555556
191	0.0955	-0.75	2.29230769231	-4.11428571429	1.5
192	0.096	2.15	-0.623076923077	0.183673469388	-1.38888888889
193	0.0965	18.1	-0.623076923077	1.61632653061	5.83333333333
194	0.097	-5.1	-2.08076923077	3.04897959184	4.38888888889
195	0.0975	-0.75	-0.623076923077	4.48163265306	-2.83333333333
196	0.098	-0.75	-0.623076923077	-8.41224489796	-1.38888888889
197	0.0985	-5.1	0.834615384615	-1.24897959184	-1.38888888889
198	0.099	-2.2	-12.2846153846	0.183673469388	1.5
199	0.0995	-0.75	-10.8269230769	3.04897959184	1.5
200	0.1	-12.35	-0.623076923077	1.61632653061	5.83333333333
201	0.1005	-8.0	0.834615384615	3.04897959184	-11.5
202	0.101	-2.2	-2.08076923077	-1.24897959184	-7.16666666667
203	0.1015	0.7	-2.08076923077	-4.11428571429	-1.38888888889
204	0.102	0.7	-3.53846153846	8.77959183673	1.5
205	0.1025	-2.2	8.12307692308	0.183673469388	-1.38888888889
206	0.103	-3.65	0.834615384615	3.04897959184	0.0555555555556
207	0.1035	-0.75	0.834615384615	0.183673469388	0.0555555555556
208	0.104	12.3	-0.623076923077	0.183673469388	1.5
209	0.1045	0.7	-0.623076923077	3.04897959184	-7.16666666667
210	0.105	0.7	0.834615384615	-8.41224489796	-1.38888888889
211	0.1055	-0.75	0.834615384615	-8.41224489796	1.5
212	0.106	0.7	-0.623076923077	17.3755102041	0.0555555555556
213	0.1065	0.7	-7.91153846154	3.04897959184	0.0555555555556
214	0.107	0.7	0.834615384615	1.61632653061	1.5
215	0.1075	-9.45	0.834615384615	3.04897959184	0.0555555555556
216	0.108	-10.9	-0.623076923077	3.04897959184	-11.5
217	0.1085	-0.75	-2.08076923077	-4.11428571429	2.94444444444
218	0.109	-0.75	-0.623076923077	11.6448979592	1.5
219	0.1095	-0.75	-2.08076923077	8.77959183673	0.0555555555556
220	0.11	-0.75	-2.08076923077	-1.24897959184	1.5
221	0.1105	-2.2	-12.2846153846	1.61632653061	0.0555555555556
222	0.111	2.15	-4.99615384615	3.04897959184	0.0555555555556
223	0.1115	22.45	-0.623076923077	0.183673469388	1.5
224	0.112	-0.75	0.834615384615	0.183673469388	-10.0555555556
225	0.1125	-0.75	0.834615384615	-5.54693877551	1.5
226	0.113	-2.2	0.834615384615	-6.97959183673	1.5
227	0.1135	-0.75	-4.99615384615	1.61632653061	0.0555555555556
228	0.114	-2.2	-2.08076923077	0.183673469388	1.5
229	0.1145	-8.0	0.834615384615	1.61632653061	1.5
230	0.115	7.95	0.834615384615	0.183673469388	0.0555555555556
231	0.1155	-3.65	-0.623076923077	1.61632653061	1.5
232	0.116	-0.75	-0.623076923077	14.5102040816	0.0555555555556
233	0.1165	-0.75	-4.99615384615	-6.97959183673	0.0555555555556
234	0.117	-2.2	3.75	-1.24897959184	2.94444444444
235	0.1175	-2.2	15.4115384615	1.61632653061	-2.83333333333
236	0.118	3.6	0.834615384615	0.183673469388	1.5
237	0.1185	21.0	0.834615384615	1.61632653061	2.94444444444
238	0.119	-9.45	-0.623076923077	0.183673469388	20.2777777778
239	0.1195	-2.2	0.834615384615	0.183673469388	-5.72222222222
240	0.12	0.7	0.834615384615	4.48163265306	-1.38888888889
241	0.1205	-2.2	-0.623076923077	0.183673469388	-1.38888888889
242	0.121	0.7	2.29230769231	3.04897959184	0.0555555555556
243	0.1215	-0.75	-4.99615384615	3.04897959184	0.0555555555556
244	0.122	19.55	-0.623076923077	0.183673469388	4.38888888889
245	0.1225	-10.9	-0.623076923077	0.183673469388	1.5
246	0.123	-0.75	0.834615384615	-4.11428571429	-4.27777777778
247	0.1235	-2.2	0.834615384615	-1.24897959184	0.0555555555556
248	0.124	0.7	-3.53846153846	-1.24897959184	-1.38888888889
249	0.1245	0.7	-2.08076923077	3.04897959184	0.0555555555556
250	0.125	3.6	-2.08076923077	0.183673469388	1.5
251	0.1255	-15.25	-2.08076923077	1.61632653061	4.38888888889
252	0.126	-10.9	-0.623076923077	-1.24897959184	-10.0555555556
253	0.1265	-2.2	0.834615384615	-1.24897959184	-10.0555555556
254	0.127	-0.75	0.834615384615	0.183673469388	18.8333333333
255	0.1275	0.7	-0.623076923077	-6.97959183673	-8.61111111111
256	0.128	-0.75	16.8692307692	3.04897959184	0.0555555555556
257	0.1285	-0.75	-9.36923076923	0.183673469388	0.0555555555556
258	0.129	-5.1	-2.08076923077	1.61632653061	0.0555555555556
259	0.1295	2.15	-0.623076923077	0.183673469388	-7.16666666667
260	0.13	0.7	-3.53846153846	-2.68163265306	10.1666666667
261	0.1305	-0.75	2.29230769231	17.3755102041	-1.38888888889
262	0.131	-3.65	-3.53846153846	0.183673469388	0.0555555555556
263	0.1315	-0.75	-13.7423076923	-1.24897959184	0.0555555555556
264	0.132	-2.2	16.8692307692	0.183673469388	0.0555555555556
265	0.1325	0.7	-2.08076923077	-1.24897959184	0.0555555555556
266	0.133	12.3	-2.08076923077	1.61632653061	0.0555555555556
267	0.1335	0.7	0.834615384615	0.183673469388	2.94444444444
268	0.134	-0.75	0.834615384615	11.6448979592	0.0555555555556
269	0.1345	0.7	-3.53846153846	-1.24897959184	1.5
270	0.135	-0.75	-12.2846153846	-1.24897959184	1.5
271	0.1355	-2.2	11.0384615385	1.61632653061	0.0555555555556
272	0.136	-12.35	-0.623076923077	1.61632653061	-2.83333333333
273	0.1365	19.55	-0.623076923077	0.183673469388	-1.38888888889
274	0.137	-10.9	0.834615384615	1.61632653061	0.0555555555556
275	0.1375	0.7	-2.08076923077	-2.68163265306	0.0555555555556
276	0.138	-2.2	-0.623076923077	-2.68163265306	0.0555555555556
277	0.1385	-0.75	-9.36923076923	0.183673469388	-1.38888888889
278	0.139	2.15	11.0384615385	-1.24897959184	0.0555555555556
279	0.1395	-12.35	0.834615384615	3.04897959184	-1.38888888889
280	0.14	19.55	0.834615384615	-1.24897959184	-1.38888888889
281	0.1405	-8.0	-2.08076923077	1.61632653061	2.94444444444
282	0.141	-2.2	-0.623076923077	15.9428571429	0.0555555555556
283	0.1415	-0.75	-0.623076923077	-8.41224489796	-1.38888888889
284	0.142	2.15	-6.45384615385	0.183673469388	1.5
285	0.1425	3.6	-0.623076923077	-1.24897959184	1.5
286	0.143	3.6	-3.53846153846	0.183673469388	1.5
287	0.1435	-15.25	0.834615384615	1.61632653061	4.38888888889
288	0.144	0.7	-0.623076923077	-1.24897959184	-10.0555555556
289	0.1445	0.7	0.834615384615	-5.54693877551	-2.83333333333
290	0.145	-0.75	0.834615384615	13.0775510204	0.0555555555556
291	0.1455	-0.75	3.75	0.183673469388	2.94444444444
292	0.146	0.7	8.12307692308	3.04897959184	0.0555555555556
293	0.1465	2.15	0.834615384615	3.04897959184	0.0555555555556
294	0.147	22.45	-0.623076923077	3.04897959184	4.38888888889
295	0.1475	-8.0	-0.623076923077	0.183673469388	-2.83333333333
296	0.148	0.7	-0.623076923077	0.183673469388	-4.27777777778
297	0.1485	0.7	0.834615384615	-9.84489795918	-4.27777777778
298	0.149	-0.75	2.29230769231	17.3755102041	-1.38888888889
299	0.1495	0.7	-9.36923076923	0.183673469388	0.0555555555556
300	0.15	-2.2	0.834615384615	1.61632653061	0.0555555555556
301	0.1505	0.7	-2.08076923077	0.183673469388	0.0555555555556
302	0.151	-2.2	-0.623076923077	-1.24897959184	8.72222222222
303	0.1515	0.7	-0.623076923077	3.04897959184	0.0555555555556
304	0.152	-0.75	0.834615384615	-8.41224489796	-7.16666666667
305	0.1525	0.7	-0.623076923077	3.04897959184	2.94444444444
306	0.153	-0.75	-0.623076923077	0.183673469388	2.94444444444
307	0.1535	-5.1	-2.08076923077	4.48163265306	0.0555555555556
308	0.154	5.05	0.834615384615	1.61632653061	-4.27777777778
309	0.1545	-6.55	0.834615384615	0.183673469388	1.5
310	0.155	-0.75	0.834615384615	4.48163265306	-1.38888888889
311	0.1555	-0.75	-2.08076923077	14.5102040816	0.0555555555556
312	0.156	-2.2	-12.2846153846	0.183673469388	0.0555555555556
313	0.1565	-0.75	15.4115384615	1.61632653061	0.0555555555556
314	0.157	2.15	-6.45384615385	-1.24897959184	0.0555555555556
315	0.1575	2.15	0.834615384615	0.183673469388	1.5
316	0.158	-5.1	0.834615384615	0.183673469388	8.72222222222
317	0.1585	-0.75	-0.623076923077	1.61632653061	1.5
318	0.159	0.7	-0.623076923077	-4.11428571429	0.0555555555556
319	0.1595	-0.75	5.20769230769	0.183673469388	0.0555555555556
320	0.16	-0.75	-0.623076923077	0.183673469388	0.0555555555556
321	0.1605	-0.75	-6.45384615385	0.183673469388	0.0555555555556
322	0.161	-3.65	-0.623076923077	0.183673469388	-2.83333333333
323	0.1615	-5.1	-0.623076923077	0.183673469388	0.0555555555556
324	0.162	0.7	-2.08076923077	-2.68163265306	-4.27777777778
325	0.1625	0.7	0.834615384615	13.0775510204	0.0555555555556
326	0.163	-0.75	-12.2846153846	0.183673469388	1.5
327	0.1635	-0.75	18.3269230769	1.61632653061	-1.38888888889
328	0.164	-0.75	-6.45384615385	-1.24897959184	1.5
329	0.1645	-9.45	0.834615384615	-1.24897959184	1.5
330	0.165	-0.75	-0.623076923077	4.48163265306	-5.72222222222
331	0.1655	-0.75	-2.08076923077	-9.84489795918	0.0555555555556
332	0.166	-0.75	0.834615384615	-5.54693877551	1.5
333	0.1665	0.7	-4.99615384615	0.183673469388	2.94444444444
334	0.167	-0.75	11.0384615385	-1.24897959184	1.5
335	0.1675	3.6	-10.8269230769	1.61632653061	0.0555555555556
336	0.168	15.2	-0.623076923077	-1.24897959184	-1.38888888889
337	0.1685	-5.1	-2.08076923077	1.61632653061	4.38888888889
338	0.169	-0.75	-2.08076923077	-9.84489795918	0.0555555555556
339	0.1695	-0.75	2.29230769231	15.9428571429	0.0555555555556
340	0.17	-2.2	-6.45384615385	1.61632653061	0.0555555555556
341	0.1705	0.7	13.9538461538	-1.24897959184	1.5
342	0.171	-2.2	-2.08076923077	0.183673469388	4.38888888889
343	0.1715	-5.1	-0.623076923077	0.183673469388	0.0555555555556
344	0.172	0.7	0.834615384615	3.04897959184	-2.83333333333
345	0.1725	0.7	-0.623076923077	-8.41224489796	2.94444444444
346	0.173	2.15	2.29230769231	-6.97959183673	1.5
347	0.1735	0.7	3.75	4.48163265306	1.5
348	0.174	0.7	-6.45384615385	1.61632653061	0.0555555555556
349	0.1745	-0.75	0.834615384615	0.183673469388	0.0555555555556
350	0.175	3.6	-0.623076923077	0.183673469388	-5.72222222222
351	0.1755	-3.65	-0.623076923077	0.183673469388	13.0555555556
352	0.176	0.7	0.834615384615	4.48163265306	15.9444444444
353	0.1765	2.15	-2.08076923077	-5.54693877551	0.0555555555556
354	0.177	-2.2	3.75	0.183673469388	1.5
355	0.1775	0.7	19.7846153846	1.61632653061	1.5
356	0.178	3.6	-10.8269230769	-1.24897959184	1.5
357	0.1785	-12.35	-0.623076923077	-1.24897959184	1.5
358	0.179	21.0	0.834615384615	0.183673469388	-1.38888888889
359	0.1795	2.15	-0.623076923077	-4.11428571429	1.5
360	0.18	-0.75	0.834615384615	7.34693877551	0.0555555555556
361	0.1805	-2.2	0.834615384615	1.61632653061	1.5
362	0.181	-0.75	3.75	1.61632653061	1.5
363	0.1815	2.15	2.29230769231	1.61632653061	0.0555555555556
364	0.182	-10.9	0.834615384615	0.183673469388	1.5
365	0.1825	-3.65	3.75	3.04897959184	-8.61111111111
366	0.183	2.15	-0.623076923077	-1.24897959184	15.9444444444
367	0.1835	2.15	0.834615384615	1.61632653061	-5.72222222222
368	0.184	-0.75	0.834615384615	-1.24897959184	1.5
369	0.1845	0.7	11.0384615385	1.61632653061	0.0555555555556
370	0.185	0.7	-10.8269230769	-1.24897959184	1.5
371	0.1855	-3.65	0.834615384615	1.61632653061	0.0555555555556
372	0.186	0.7	0.834615384615	1.61632653061	4.38888888889
373	0.1865	0.7	0.834615384615	-8.41224489796	0.0555555555556
374	0.187	-2.2	2.29230769231	15.9428571429	1.5
375	0.1875	-0.75	-2.08076923077	0.183673469388	0.0555555555556
376	0.188	0.7	-10.8269230769	-1.24897959184	0.0555555555556
377	0.1885	0.7	16.8692307692	-1.24897959184	1.5
378	0.189	-5.1	-2.08076923077	1.61632653061	-4.27777777778
379	0.1895	13.75	0.834615384615	-1.24897959184	-2.83333333333
380	0.19	-0.75	-3.53846153846	1.61632653061	13.0555555556
381	0.1905	-3.65	0.834615384615	0.183673469388	2.94444444444
382	0.191	0.7	-0.623076923077	5.91428571429	0.0555555555556
383	0.1915	0.7	6.66538461538	1.61632653061	-1.38888888889
384	0.192	-3.65	0.834615384615	4.48163265306	-2.83333333333
385	0.1925	-0.75	-2.08076923077	3.04897959184	-1.38888888889
386	0.193	13.75	-0.623076923077	-1.24897959184	2.94444444444
387	0.1935	-3.65	-0.623076923077	3.04897959184	-1.38888888889
388	0.194	-0.75	-2.08076923077	-8.41224489796	-7.16666666667
389	0.1945	0.7	-2.08076923077	1.61632653061	15.9444444444
390	0.195	0.7	0.834615384615	-4.11428571429	-1.38888888889
391	0.1955	2.15	-6.45384615385	3.04897959184	0.0555555555556
392	0.196	0.7	0.834615384615	1.61632653061	2.94444444444
393	0.1965	-9.45	-0.623076923077	1.61632653061	0.0555555555556
394	0.197	-6.55	2.29230769231	0.183673469388	7.27777777778
395	0.1975	-0.75	0.834615384615	4.48163265306	-1.38888888889
396	0.198	-0.75	-0.623076923077	-9.84489795918	-7.16666666667
397	0.1985	-0.75	2.29230769231	0.183673469388	0.0555555555556
398	0.199	0.7	-7.91153846154	0.183673469388	-2.83333333333
399	0.1995	-5.1	0.834615384615	1.61632653061	-1.38888888889
400	0.2	9.4	-2.08076923077	0.183673469388	2.94444444444
401	0.2005	-2.2	0.834615384615	3.04897959184	15.9444444444
402	0.201	-0.75	-0.623076923077	4.48163265306	-8.61111111111
403	0.2015	-0.75	-2.08076923077	-9.84489795918	1.5
404	0.202	0.7	0.834615384615	1.61632653061	2.94444444444
405	0.2025	0.7	0.834615384615	3.04897959184	0.0555555555556
406	0.203	0.7	0.834615384615	3.04897959184	1.5
407	0.2035	16.65	-0.623076923077	3.04897959184	4.38888888889
408	0.204	-10.9	0.834615384615	4.48163265306	17.3888888889
409	0.2045	0.7	0.834615384615	1.61632653061	-7.16666666667
410	0.205	0.7	2.29230769231	1.61632653061	1.5
411	0.2055	-2.2	0.834615384615	4.48163265306	0.0555555555556
412	0.206	-0.75	-7.91153846154	-2.68163265306	1.5
413	0.2065	-0.75	-3.53846153846	1.61632653061	0.0555555555556
414	0.207	-13.8	-0.623076923077	4.48163265306	0.0555555555556
415	0.2075	21.0	-3.53846153846	1.61632653061	-8.61111111111
416	0.208	-0.75	-2.08076923077	0.183673469388	15.9444444444
417	0.2085	-0.75	0.834615384615	0.183673469388	2.94444444444
418	0.209	-0.75	0.834615384615	0.183673469388	-5.72222222222
419	0.2095	-3.65	-0.623076923077	7.34693877551	1.5
420	0.21	-0.75	-3.53846153846	0.183673469388	1.5
421	0.2105	-10.9	-2.08076923077	4.48163265306	0.0555555555556
422	0.211	13.75	0.834615384615	-1.24897959184	-1.38888888889
423	0.2115	-3.65	0.834615384615	-2.68163265306	10.1666666667
424	0.212	0.7	0.834615384615	5.91428571429	-1.38888888889
425	0.2125	-0.75	-2.08076923077	-9.84489795918	0.0555555555556
426	0.213	-2.2	0.834615384615	13.0775510204	-4.27777777778
427	0.2135	0.7	-4.99615384615	0.183673469388	0.0555555555556
428	0.214	3.6	-0.623076923077	1.61632653061	2.94444444444
429	0.2145	-13.8	0.834615384615	1.61632653061	1.5
430	0.215	19.55	0.834615384615	1.61632653061	0.0555555555556
431	0.2155	-2.2	-0.623076923077	-4.11428571429	0.0555555555556
432	0.216	-2.2	-2.08076923077	5.91428571429	1.5
433	0.2165	-3.65	2.29230769231	0.183673469388	1.5
434	0.217	-2.2	6.66538461538	1.61632653061	0.0555555555556
435	0.2175	-0.75	-0.623076923077	0.183673469388	-1.38888888889
436	0.218	3.6	-2.08076923077	4.48163265306	0.0555555555556
437	0.2185	-9.45	-2.08076923077	3.04897959184	1.5
438	0.219	2.15	-3.53846153846	-1.24897959184	-10.0555555556
439	0.2195	0.7	-0.623076923077	-6.97959183673	-1.38888888889
440	0.22	-5.1	-0.623076923077	-1.24897959184	1.5
441	0.2205	-2.2	9.58076923077	0.183673469388	1.5
442	0.221	-0.75	-4.99615384615	0.183673469388	0.0555555555556
443	0.2215	7.95	-0.623076923077	1.61632653061	0.0555555555556
444	0.222	19.55	2.29230769231	3.04897959184	1.5
445	0.2225	-9.45	0.834615384615	3.04897959184	15.9444444444
446	0.223	-2.2	-0.623076923077	-1.24897959184	-4.27777777778
447	0.2235	-0.75	0.834615384615	13.0775510204	0.0555555555556
448	0.224	-0.75	0.834615384615	0.183673469388	0.0555555555556
449	0.2245	0.7	13.9538461538	1.61632653061	1.5
450	0.225	-2.2	0.834615384615	1.61632653061	0.0555555555556
451	0.2255	-5.1	0.834615384615	0.183673469388	-1.38888888889
452	0.226	15.2	-3.53846153846	1.61632653061	0.0555555555556
453	0.2265	-0.75	-2.08076923077	-1.24897959184	13.0555555556
454	0.227	-0.75	-0.623076923077	11.6448979592	1.5
455	0.2275	0.7	2.29230769231	-2.68163265306	0.0555555555556
456	0.228	0.7	-9.36923076923	4.48163265306	-1.38888888889
457	0.2285	0.7	-9.36923076923	4.48163265306	1.5
458	0.229	-13.8	2.29230769231	1.61632653061	1.5
459	0.2295	13.75	0.834615384615	1.61632653061	-1.38888888889
460	0.23	0.7	0.834615384615	0.183673469388	15.9444444444
461	0.2305	0.7	-0.623076923077	-1.24897959184	-7.16666666667
462	0.231	-0.75	-0.623076923077	-1.24897959184	-1.38888888889
463	0.2315	-2.2	-10.8269230769	3.04897959184	1.5
464	0.232	0.7	-2.08076923077	1.61632653061	0.0555555555556
465	0.2325	3.6	-0.623076923077	0.183673469388	1.5
466	0.233	-10.9	-0.623076923077	3.04897959184	21.7222222222
467	0.2335	-0.75	0.834615384615	1.61632653061	-8.61111111111
468	0.234	-2.2	-0.623076923077	-1.24897959184	0.0555555555556
469	0.2345	0.7	-0.623076923077	-2.68163265306	2.94444444444
470	0.235	-0.75	-10.8269230769	0.183673469388	1.5
471	0.2355	0.7	18.3269230769	3.04897959184	0.0555555555556
472	0.236	-12.35	-0.623076923077	0.183673469388	0.0555555555556
473	0.2365	18.1	-2.08076923077	1.61632653061	1.5
474	0.237	-10.9	-0.623076923077	1.61632653061	15.9444444444
475	0.2375	-0.75	-2.08076923077	1.61632653061	-7.16666666667
476	0.238	-2.2	0.834615384615	-4.11428571429	2.94444444444
477	0.2385	-0.75	-2.08076923077	14.5102040816	-2.83333333333
478	0.239	-2.2	11.0384615385	0.183673469388	0.0555555555556
479	0.2395	-0.75	-2.08076923077	0.183673469388	0.0555555555556
480	0.24	-5.1	-0.623076923077	1.61632653061	0.0555555555556
481	0.2405	5.05	0.834615384615	1.61632653061	-2.83333333333
482	0.241	-2.2	-0.623076923077	1.61632653061	-4.27777777778
483	0.2415	0.7	-0.623076923077	3.04897959184	0.0555555555556
484	0.242	0.7	-9.36923076923	1.61632653061	1.5
485	0.2425	0.7	6.66538461538	1.61632653061	0.0555555555556
486	0.243	-2.2	-6.45384615385	0.183673469388	-2.83333333333
487	0.2435	-12.35	-0.623076923077	3.04897959184	0.0555555555556
488	0.244	-5.1	0.834615384615	-1.24897959184	10.1666666667
489	0.2445	-2.2	0.834615384615	4.48163265306	11.6111111111
490	0.245	-2.2	-0.623076923077	17.3755102041	0.0555555555556
491	0.2455	-2.2	-3.53846153846	-2.68163265306	0.0555555555556
492	0.246	2.15	22.7	4.48163265306	4.38888888889
493	0.2465	-5.1	-2.08076923077	3.04897959184	1.5
494	0.247	-13.8	-0.623076923077	1.61632653061	0.0555555555556
495	0.2475	16.65	0.834615384615	1.61632653061	1.5
496	0.248	-0.75	-0.623076923077	5.91428571429	17.3888888889
497	0.2485	-2.2	0.834615384615	20.2408163265	-1.38888888889
498	0.249	0.7	-3.53846153846	-4.11428571429	0.0555555555556
499	0.2495	0.7	0.834615384615	4.48163265306	0.0555555555556
500	0.25	-0.75	19.7846153846	0.183673469388	0.0555555555556
501	0.2505	2.15	-2.08076923077	-1.24897959184	0.0555555555556
502	0.251	18.1	-0.623076923077	4.48163265306	2.94444444444
503	0.2515	-12.35	-2.08076923077	1.61632653061	2.94444444444
504	0.252	-0.75	-0.623076923077	-2.68163265306	-7.16666666667
505	0.2525	-2.2	2.29230769231	-5.54693877551	1.5
506	0.253	-2.2	-7.91153846154	3.04897959184	0.0555555555556
507	0.2535	0.7	6.66538461538	1.61632653061	0.0555555555556
508	0.254	0.7	-3.53846153846	3.04897959184	1.5
509	0.2545	10.85	0.834615384615	1.61632653061	0.0555555555556
510	0.255	-3.65	-0.623076923077	1.61632653061	4.38888888889
511	0.2555	0.7	-0.623076923077	4.48163265306	0.0555555555556
512	0.256	-2.2	-2.08076923077	13.0775510204	1.5
513	0.2565	-2.2	0.834615384615	4.48163265306	0.0555555555556
514	0.257	-0.75	-4.99615384615	1.61632653061	0.0555555555556
515	0.2575	0.7	18.3269230769	3.04897959184	0.0555555555556
516	0.258	-12.35	0.834615384615	3.04897959184	1.5
517	0.2585	19.55	-2.08076923077	4.48163265306	2.94444444444
518	0.259	-10.9	-0.623076923077	4.48163265306	4.38888888889
519	0.2595	-3.65	-2.08076923077	-6.97959183673	-8.61111111111
520	0.26	-2.2	0.834615384615	-9.84489795918	0.0555555555556
521	0.2605	-2.2	-2.08076923077	14.5102040816	-1.38888888889
522	0.261	0.7	16.8692307692	1.61632653061	2.94444444444
523	0.2615	-2.2	2.29230769231	1.61632653061	0.0555555555556
524	0.262	9.4	-0.623076923077	1.61632653061	0.0555555555556
525	0.2625	7.95	-0.623076923077	0.183673469388	0.0555555555556
526	0.263	-3.65	-0.623076923077	0.183673469388	14.5
527	0.2635	-2.2	-0.623076923077	-2.68163265306	17.3888888889
528	0.264	-2.2	2.29230769231	-5.54693877551	0.0555555555556
529	0.2645	-0.75	-2.08076923077	1.61632653061	1.5
530	0.265	0.7	11.0384615385	0.183673469388	-1.38888888889
531	0.2655	-0.75	-9.36923076923	1.61632653061	0.0555555555556
532	0.266	9.4	-0.623076923077	3.04897959184	0.0555555555556
533	0.2665	-2.2	-0.623076923077	1.61632653061	8.72222222222
534	0.267	-0.75	-0.623076923077	-2.68163265306	0.0555555555556
535	0.2675	2.15	2.29230769231	5.91428571429	-1.38888888889
536	0.268	-0.75	0.834615384615	-2.68163265306	1.5
537	0.2685	-2.2	-6.45384615385	1.61632653061	4.38888888889
538	0.269	-0.75	2.29230769231	0.183673469388	4.38888888889
539	0.2695	10.85	-2.08076923077	-1.24897959184	-8.61111111111
540	0.27	-2.2	-0.623076923077	-1.24897959184	14.5
541	0.2705	-0.75	0.834615384615	4.48163265306	-1.38888888889
542	0.271	0.7	2.29230769231	20.2408163265	0.0555555555556
543	0.2715	-0.75	-3.53846153846	-5.54693877551	1.5
544	0.272	-0.75	0.834615384615	3.04897959184	0.0555555555556
545	0.2725	0.7	-6.45384615385	1.61632653061	-1.38888888889
546	0.273	-0.75	0.834615384615	1.61632653061	1.5
547	0.2735	10.85	-0.623076923077	0.183673469388	0.0555555555556
548	0.274	-6.55	-0.623076923077	0.183673469388	8.72222222222
549	0.2745	-3.65	-0.623076923077	-4.11428571429	-5.72222222222
550	0.275	-0.75	-0.623076923077	-6.97959183673	2.94444444444
551	0.2755	-0.75	-2.08076923077	0.183673469388	-1.38888888889
552	0.276	0.7	15.4115384615	1.61632653061	0.0555555555556
553	0.2765	-3.65	-7.91153846154	0.183673469388	0.0555555555556
554	0.277	-3.65	0.834615384615	3.04897959184	0.0555555555556
555	0.2775	15.2	-0.623076923077	1.61632653061	0.0555555555556
556	0.278	0.7	-0.623076923077	0.183673469388	0.0555555555556
557	0.2785	0.7	0.834615384615	13.0775510204	-2.83333333333
558	0.279	-3.65	-0.623076923077	-9.84489795918	0.0555555555556
559	0.2795	-0.75	-2.08076923077	0.183673469388	1.5
560	0.28	-3.65	16.8692307692	0.183673469388	2.94444444444
561	0.2805	-2.2	-9.36923076923	0.183673469388	0.0555555555556
562	0.281	12.3	-0.623076923077	1.61632653061	1.5
563	0.2815	-9.45	2.29230769231	-1.24897959184	0.0555555555556
564	0.282	-0.75	-0.623076923077	-4.11428571429	0.0555555555556
565	0.2825	-0.75	0.834615384615	-2.68163265306	0.0555555555556
566	0.283	0.7	0.834615384615	0.183673469388	0.0555555555556
567	0.2835	2.15	-6.45384615385	0.183673469388	1.5
568	0.284	-0.75	-4.99615384615	3.04897959184	1.5
569	0.2845	-0.75	-0.623076923077	0.183673469388	1.5
570	0.285	-5.1	-0.623076923077	0.183673469388	-7.16666666667
571	0.2855	0.7	0.834615384615	0.183673469388	-5.72222222222
572	0.286	2.15	-2.08076923077	-5.54693877551	0.0555555555556
573	0.2865	0.7	0.834615384615	0.183673469388	0.0555555555556
574	0.287	-0.75	-12.2846153846	1.61632653061	0.0555555555556
575	0.2875	0.7	-10.8269230769	0.183673469388	0.0555555555556
576	0.288	0.7	0.834615384615	-1.24897959184	1.5
577	0.2885	-9.45	0.834615384615	-1.24897959184	4.38888888889
578	0.289	2.15	0.834615384615	3.04897959184	-7.16666666667
579	0.2895	0.7	-0.623076923077	-8.41224489796	0.0555555555556
580	0.29	-0.75	0.834615384615	-6.97959183673	1.5
581	0.2905	-0.75	0.834615384615	1.61632653061	-1.38888888889
582	0.291	-0.75	-9.36923076923	3.04897959184	0.0555555555556
583	0.2915	0.7	-7.91153846154	-1.24897959184	2.94444444444
584	0.292	-5.1	0.834615384615	0.183673469388	2.94444444444
585	0.2925	-10.9	-0.623076923077	1.61632653061	-5.72222222222
586	0.293	0.7	0.834615384615	0.183673469388	-8.61111111111
587	0.2935	0.7	0.834615384615	-8.41224489796	0.0555555555556
588	0.294	0.7	0.834615384615	0.183673469388	0.0555555555556
589	0.2945	0.7	-10.8269230769	1.61632653061	2.94444444444
590	0.295	0.7	-10.8269230769	0.183673469388	-1.38888888889
591	0.2955	-0.75	-0.623076923077	0.183673469388	1.5
592	0.296	-5.1	0.834615384615	4.48163265306	0.0555555555556
593	0.2965	-6.55	0.834615384615	0.183673469388	-2.83333333333
594	0.297	-0.75	0.834615384615	-2.68163265306	1.5
595	0.2975	0.7	0.834615384615	-4.11428571429	1.5
596	0.298	0.7	-2.08076923077	1.61632653061	1.5
597	0.2985	-2.2	-3.53846153846	0.183673469388	0.0555555555556
598	0.299	-2.2	-6.45384615385	1.61632653061	-1.38888888889
599	0.2995	-5.1	-0.623076923077	-1.24897959184	0.0555555555556
600	0.3	-3.65	-0.623076923077	-1.24897959184	4.38888888889
601	0.3005	2.15	-0.623076923077	4.48163265306	1.5
602	0.301	2.15	0.834615384615	-9.84489795918	0.0555555555556
603	0.3015	0.7	3.75	0.183673469388	0.0555555555556
604	0.302	0.7	-4.99615384615	0.183673469388	0.0555555555556
605	0.3025	0.7	18.3269230769	1.61632653061	-1.38888888889
606	0.303	-0.75	2.29230769231	0.183673469388	-1.38888888889
607	0.3035	10.85	2.29230769231	3.04897959184	0.0555555555556
608	0.304	-8.0	2.29230769231	0.183673469388	-5.72222222222
609	0.3045	-0.75	-0.623076923077	-8.41224489796	-2.83333333333
610	0.305	-0.75	-0.623076923077	14.5102040816	0.0555555555556
611	0.3055	0.7	-10.8269230769	1.61632653061	0.0555555555556
612	0.306	-0.75	21.2423076923	1.61632653061	0.0555555555556
613	0.3065	-2.2	0.834615384615	-1.24897959184	0.0555555555556
614	0.307	-12.35	-0.623076923077	3.04897959184	-1.38888888889
615	0.3075	-0.75	0.834615384615	1.61632653061	-1.38888888889
616	0.308	0.7	-0.623076923077	-2.68163265306	-4.27777777778
617	0.3085	0.7	2.29230769231	8.77959183673	0.0555555555556
618	0.309	-0.75	-0.623076923077	-2.68163265306	0.0555555555556
619	0.3095	2.15	8.12307692308	3.04897959184	0.0555555555556
620	0.31	-2.2	-2.08076923077	4.48163265306	1.5
621	0.3105	-12.35	-2.08076923077	0.183673469388	0.0555555555556
622	0.311	13.75	0.834615384615	1.61632653061	-7.16666666667
623	0.3115	-2.2	-0.623076923077	0.183673469388	15.9444444444
624	0.312	-0.75	2.29230769231	18.8081632653	-1.38888888889
625	0.3125	0.7	-3.53846153846	-8.41224489796	2.94444444444
626	0.313	0.7	2.29230769231	20.2408163265	0.0555555555556
627	0.3135	2.15	-9.36923076923	1.61632653061	0.0555555555556
628	0.314	2.15	0.834615384615	1.61632653061	2.94444444444
629	0.3145	-9.45	-0.623076923077	1.61632653061	2.94444444444
630	0.315	-8.0	0.834615384615	4.48163265306	-8.61111111111
631	0.3155	-0.75	0.834615384615	1.61632653061	-8.61111111111
632	0.316	0.7	0.834615384615	-1.24897959184	15.9444444444
633	0.3165	-0.75	0.834615384615	-6.97959183673	1.5
634	0.317	0.7	-9.36923076923	0.183673469388	0.0555555555556
635	0.3175	3.6	-2.08076923077	0.183673469388	0.0555555555556
636	0.318	-16.7	-0.623076923077	0.183673469388	5.83333333333
637	0.3185	-8.0	-2.08076923077	3.04897959184	-10.0555555556
638	0.319	0.7	0.834615384615	-2.68163265306	-7.16666666667
639	0.3195	-0.75	-0.623076923077	-1.24897959184	0.0555555555556
640	0.32	0.7	-2.08076923077	7.34693877551	1.5
641	0.3205	0.7	-7.91153846154	-4.11428571429	-1.38888888889
642	0.321	2.15	8.12307692308	0.183673469388	-2.83333333333
643	0.3215	-8.0	-0.623076923077	-1.24897959184	1.5
644	0.322	16.65	0.834615384615	1.61632653061	-12.9444444444
645	0.3225	-0.75	-0.623076923077	0.183673469388	18.8333333333
646	0.323	0.7	0.834615384615	1.61632653061	-1.38888888889
647	0.3235	-2.2	-0.623076923077	18.8081632653	1.5
648	0.324	0.7	-10.8269230769	1.61632653061	1.5
649	0.3245	-0.75	16.8692307692	3.04897959184	1.5
650	0.325	-0.75	-7.91153846154	0.183673469388	0.0555555555556
651	0.3255	-2.2	-0.623076923077	0.183673469388	2.94444444444
652	0.326	-6.55	-0.623076923077	3.04897959184	0.0555555555556
653	0.3265	-0.75	-0.623076923077	-1.24897959184	-5.72222222222
654	0.327	-3.65	0.834615384615	-2.68163265306	0.0555555555556
655	0.3275	2.15	0.834615384615	8.77959183673	0.0555555555556
656	0.328	-0.75	3.75	-2.68163265306	0.0555555555556
657	0.3285	-0.75	-10.8269230769	4.48163265306	1.5
658	0.329	-10.9	-0.623076923077	1.61632653061	1.5
659	0.3295	15.2	-2.08076923077	0.183673469388	-11.5
660	0.33	-2.2	-0.623076923077	0.183673469388	15.9444444444
661	0.3305	0.7	-2.08076923077	4.48163265306	0.0555555555556
662	0.331	0.7	-2.08076923077	18.8081632653	1.5
663	0.3315	-2.2	-12.2846153846	0.183673469388	1.5
664	0.332	2.15	16.8692307692	3.04897959184	0.0555555555556
665	0.3325	-2.2	-0.623076923077	1.61632653061	0.0555555555556
666	0.333	-10.9	-0.623076923077	1.61632653061	0.0555555555556
667	0.3335	19.55	-2.08076923077	0.183673469388	-8.61111111111
668	0.334	0.7	-3.53846153846	-2.68163265306	18.8333333333
669	0.3345	0.7	-2.08076923077	3.04897959184	-7.16666666667
670	0.335	-0.75	-0.623076923077	-6.97959183673	2.94444444444
671	0.3355	0.7	-4.99615384615	0.183673469388	0.0555555555556
672	0.336	2.15	2.29230769231	0.183673469388	0.0555555555556
673	0.3365	-9.45	-3.53846153846	0.183673469388	1.5
674	0.337	-0.75	-0.623076923077	1.61632653061	-10.0555555556
675	0.3375	-2.2	0.834615384615	0.183673469388	10.1666666667
676	0.338	2.15	0.834615384615	7.34693877551	14.5
677	0.3385	-0.75	-4.99615384615	-8.41224489796	1.5
678	0.339	-0.75	5.20769230769	-1.24897959184	0.0555555555556
679	0.3395	-0.75	16.8692307692	0.183673469388	1.5
680	0.34	-3.65	-6.45384615385	1.61632653061	0.0555555555556
681	0.3405	2.15	-2.08076923077	-1.24897959184	0.0555555555556
682	0.341	18.1	0.834615384615	0.183673469388	2.94444444444
683	0.3415	-2.2	0.834615384615	3.04897959184	0.0555555555556
684	0.342	-2.2	0.834615384615	17.3755102041	-1.38888888889
685	0.3425	-2.2	-2.08076923077	-8.41224489796	0.0555555555556
686	0.343	2.15	0.834615384615	0.183673469388	-2.83333333333
687	0.3435	-2.2	-4.99615384615	-1.24897959184	0.0555555555556
688	0.344	-0.75	0.834615384615	1.61632653061	0.0555555555556
689	0.3445	-10.9	0.834615384615	1.61632653061	1.5
690	0.345	18.1	0.834615384615	-1.24897959184	-4.27777777778
691	0.3455	0.7	-0.623076923077	-1.24897959184	13.0555555556
692	0.346	-2.2	-0.623076923077	4.48163265306	-1.38888888889
693	0.3465	-0.75	5.20769230769	0.183673469388	0.0555555555556
694	0.347	0.7	0.834615384615	-4.11428571429	0.0555555555556
695	0.3475	-2.2	13.9538461538	1.61632653061	0.0555555555556
696	0.348	-10.9	-0.623076923077	3.04897959184	-1.38888888889
697	0.3485	16.65	0.834615384615	-1.24897959184	-1.38888888889
698	0.349	-2.2	-0.623076923077	3.04897959184	0.0555555555556
699	0.3495	-2.2	-0.623076923077	-8.41224489796	-1.38888888889
700	0.35	-0.75	0.834615384615	-1.24897959184	-1.38888888889
701	0.3505	-2.2	-9.36923076923	-1.24897959184	-1.38888888889
702	0.351	2.15	12.4961538462	1.61632653061	-1.38888888889
703	0.3515	-0.75	-3.53846153846	1.61632653061	-1.38888888889
704	0.352	3.6	0.834615384615	3.04897959184	-4.27777777778
705	0.3525	-9.45	-4.99615384615	3.04897959184	7.27777777778
706	0.353	-3.65	0.834615384615	-1.24897959184	-11.5
707	0.3535	-0.75	0.834615384615	-1.24897959184	-14.3888888889
708	0.354	-2.2	0.834615384615	3.04897959184	-1.38888888889
709	0.3545	-0.75	-10.8269230769	1.61632653061	-2.83333333333
710	0.355	0.7	-9.36923076923	3.04897959184	-5.72222222222
711	0.3555	-2.2	0.834615384615	1.61632653061	-2.83333333333
712	0.356	15.2	-0.623076923077	3.04897959184	-7.16666666667
713	0.3565	-2.2	3.75	0.183673469388	13.0555555556
714	0.357	-3.65	0.834615384615	1.61632653061	15.9444444444
715	0.3575	-2.2	-0.623076923077	17.3755102041	-2.83333333333
716	0.358	-2.2	-0.623076923077	-6.97959183673	-2.83333333333
717	0.3585	-2.2	-7.91153846154	1.61632653061	-4.27777777778
718	0.359	0.7	2.29230769231	0.183673469388	-1.38888888889
719	0.3595	-12.35	-0.623076923077	3.04897959184	1.5
720	0.36	19.55	-0.623076923077	1.61632653061	-7.16666666667
721	0.3605	-0.75	0.834615384615	3.04897959184	2.94444444444
722	0.361	-0.75	-2.08076923077	4.48163265306	-7.16666666667
723	0.3615	-2.2	2.29230769231	-8.41224489796	-1.38888888889
724	0.362	0.7	-12.2846153846	1.61632653061	-2.83333333333
725	0.3625	0.7	18.3269230769	3.04897959184	-1.38888888889
726	0.363	-2.2	-0.623076923077	0.183673469388	-1.38888888889
727	0.3635	18.1	-0.623076923077	3.04897959184	-5.72222222222
728	0.364	-0.75	-0.623076923077	0.183673469388	15.9444444444
729	0.3645	-0.75	0.834615384615	4.48163265306	0.0555555555556
730	0.365	-0.75	-2.08076923077	18.8081632653	-2.83333333333
731	0.3655	-2.2	-3.53846153846	-4.11428571429	-1.38888888889
732	0.366	-0.75	13.9538461538	1.61632653061	2.94444444444
733	0.3665	-3.65	-6.45384615385	1.61632653061	0.0555555555556
734	0.367	-5.1	-2.08076923077	0.183673469388	0.0555555555556
735	0.3675	7.95	-0.623076923077	3.04897959184	-8.61111111111
736	0.368	-0.75	0.834615384615	1.61632653061	2.94444444444
737	0.3685	-2.2	-0.623076923077	3.04897959184	2.94444444444
738	0.369	0.7	-0.623076923077	-1.24897959184	1.5
739	0.3695	2.15	2.29230769231	0.183673469388	0.0555555555556
740	0.37	2.15	-10.8269230769	1.61632653061	-1.38888888889
741	0.3705	7.95	-4.99615384615	3.04897959184	5.83333333333
742	0.371	-8.0	-3.53846153846	3.04897959184	20.2777777778
743	0.3715	0.7	-4.99615384615	4.48163265306	-4.27777777778
744	0.372	0.7	-0.623076923077	-8.41224489796	2.94444444444
745	0.3725	0.7	-0.623076923077	-8.41224489796	2.94444444444
746	0.373	0.7	-3.53846153846	3.04897959184	4.38888888889
747	0.3735	2.15	-6.45384615385	3.04897959184	4.38888888889
748	0.374	-8.0	0.834615384615	3.04897959184	2.94444444444
749	0.3745	5.05	-0.623076923077	-1.24897959184	1.5
750	0.375	2.15	0.834615384615	0.183673469388	1.5
751	0.3755	-2.2	-2.08076923077	0.183673469388	-8.61111111111
752	0.376	0.7	-0.623076923077	3.04897959184	15.9444444444
753	0.3765	2.15	-7.91153846154	3.04897959184	1.5
754	0.377	0.7	11.0384615385	1.61632653061	2.94444444444
755	0.3775	3.6	-0.623076923077	3.04897959184	0.0555555555556
756	0.378	7.95	0.834615384615	0.183673469388	2.94444444444
757	0.3785	2.15	0.834615384615	0.183673469388	7.27777777778
758	0.379	-0.75	-3.53846153846	3.04897959184	4.38888888889
759	0.3795	-0.75	-3.53846153846	-1.24897959184	1.5
760	0.38	2.15	2.29230769231	1.61632653061	1.5
761	0.3805	0.7	16.8692307692	1.61632653061	2.94444444444
762	0.381	-3.65	-7.91153846154	3.04897959184	0.0555555555556
763	0.3815	3.6	-3.53846153846	-1.24897959184	2.94444444444
764	0.382	-8.0	-2.08076923077	3.04897959184	15.9444444444
765	0.3825	-0.75	0.834615384615	1.61632653061	-7.16666666667
766	0.383	-0.75	2.29230769231	4.48163265306	-4.27777777778
767	0.3835	-0.75	-0.623076923077	-2.68163265306	1.5
768	0.384	0.7	13.9538461538	0.183673469388	1.5
769	0.3845	-2.2	0.834615384615	0.183673469388	1.5
770	0.385	-13.8	-2.08076923077	3.04897959184	-1.38888888889
771	0.3855	19.55	-0.623076923077	0.183673469388	0.0555555555556
772	0.386	0.7	-0.623076923077	4.48163265306	17.3888888889
773	0.3865	-0.75	0.834615384615	20.2408163265	0.0555555555556
774	0.387	0.7	-0.623076923077	-6.97959183673	0.0555555555556
775	0.3875	0.7	0.834615384615	0.183673469388	1.5
776	0.388	0.7	13.9538461538	0.183673469388	2.94444444444
777	0.3885	-0.75	-6.45384615385	3.04897959184	2.94444444444
778	0.389	-2.2	0.834615384615	1.61632653061	2.94444444444
779	0.3895	-6.55	2.29230769231	0.183673469388	0.0555555555556
780	0.39	-2.2	-0.623076923077	3.04897959184	8.72222222222
781	0.3905	-0.75	0.834615384615	-5.54693877551	-1.38888888889
782	0.391	-3.65	2.29230769231	-2.68163265306	0.0555555555556
783	0.3915	2.15	-13.7423076923	0.183673469388	1.5
784	0.392	5.05	-2.08076923077	0.183673469388	5.83333333333
785	0.3925	-12.35	-2.08076923077	-1.24897959184	2.94444444444
786	0.393	-10.9	2.29230769231	0.183673469388	-10.0555555556
787	0.3935	-0.75	0.834615384615	-1.24897959184	14.5
788	0.394	-3.65	-2.08076923077	0.183673469388	-2.83333333333
789	0.3945	-0.75	-0.623076923077	-1.24897959184	1.5
790	0.395	5.05	-7.91153846154	1.61632653061	0.0555555555556
791	0.3955	-2.2	9.58076923077	1.61632653061	1.5
792	0.396	13.75	-2.08076923077	-1.24897959184	-7.16666666667
793	0.3965	-3.65	-0.623076923077	0.183673469388	14.5
794	0.397	-3.65	0.834615384615	4.48163265306	0.0555555555556
795	0.3975	-2.2	0.834615384615	15.9428571429	0.0555555555556
796	0.398	-0.75	0.834615384615	-5.54693877551	1.5
797	0.3985	0.7	-9.36923076923	1.61632653061	1.5
798	0.399	2.15	0.834615384615	1.61632653061	0.0555555555556
799	0.3995	-15.25	-0.623076923077	1.61632653061	4.38888888889
800	0.4	-12.35	-0.623076923077	0.183673469388	-8.61111111111
801	0.4005	-3.65	-0.623076923077	-1.24897959184	-4.27777777778
802	0.401	0.7	-2.08076923077	-2.68163265306	1.5
803	0.4015	-0.75	-4.99615384615	-1.24897959184	0.0555555555556
804	0.402	0.7	2.29230769231	3.04897959184	0.0555555555556
805	0.4025	-3.65	-4.99615384615	0.183673469388	0.0555555555556
806	0.403	-13.8	0.834615384615	0.183673469388	0.0555555555556
807	0.4035	18.1	2.29230769231	-1.24897959184	-10.0555555556
808	0.404	0.7	0.834615384615	-1.24897959184	17.3888888889
809	0.4045	-2.2	-0.623076923077	17.3755102041	0.0555555555556
810	0.405	-0.75	-2.08076923077	-6.97959183673	-1.38888888889
811	0.4055	0.7	-2.08076923077	0.183673469388	0.0555555555556
812	0.406	2.15	-2.08076923077	0.183673469388	1.5
813	0.4065	-10.9	-0.623076923077	3.04897959184	1.5
814	0.407	-0.75	-2.08076923077	-1.24897959184	17.3888888889
815	0.4075	-0.75	-2.08076923077	7.34693877551	15.9444444444
816	0.408	-0.75	-2.08076923077	18.8081632653	0.0555555555556
817	0.4085	0.7	-3.53846153846	-6.97959183673	0.0555555555556
818	0.409	-0.75	3.75	-1.24897959184	0.0555555555556
819	0.4095	-2.2	-0.623076923077	-1.24897959184	2.94444444444
820	0.41	-6.55	0.834615384615	0.183673469388	0.0555555555556
821	0.4105	12.3	0.834615384615	1.61632653061	1.5
822	0.411	-5.1	0.834615384615	0.183673469388	1.5
823	0.4115	-0.75	-0.623076923077	5.91428571429	0.0555555555556
824	0.412	-0.75	-0.623076923077	-1.24897959184	1.5
825	0.4125	0.7	-2.08076923077	7.34693877551	4.38888888889
826	0.413	-0.75	-4.99615384615	0.183673469388	2.94444444444
827	0.4135	-6.55	-0.623076923077	1.61632653061	1.5
828	0.414	10.85	-2.08076923077	1.61632653061	-2.83333333333
829	0.4145	-3.65	-0.623076923077	-1.24897959184	5.83333333333
830	0.415	0.7	2.29230769231	14.5102040816	0.0555555555556
831	0.4155	0.7	-2.08076923077	-5.54693877551	2.94444444444
832	0.416	-2.2	3.75	1.61632653061	1.5
833	0.4165	-0.75	19.7846153846	-1.24897959184	1.5
834	0.417	2.15	-0.623076923077	0.183673469388	0.0555555555556
835	0.4175	21.0	-0.623076923077	1.61632653061	1.5
836	0.418	-6.55	-0.623076923077	4.48163265306	4.38888888889
837	0.4185	-5.1	-2.08076923077	3.04897959184	-10.0555555556
838	0.419	-0.75	-0.623076923077	-5.54693877551	-1.38888888889
839	0.4195	-0.75	3.75	0.183673469388	0.0555555555556
840	0.42	-0.75	-13.7423076923	1.61632653061	1.5
841	0.4205	-0.75	-3.53846153846	1.61632653061	0.0555555555556
842	0.421	-13.8	0.834615384615	4.48163265306	1.5
843	0.4215	-12.35	-2.08076923077	3.04897959184	-8.61111111111
844	0.422	0.7	-0.623076923077	-1.24897959184	-5.72222222222
845	0.4225	0.7	-0.623076923077	-9.84489795918	0.0555555555556
846	0.423	-2.2	-0.623076923077	20.2408163265	-1.38888888889
847	0.4235	0.7	-3.53846153846	-9.84489795918	0.0555555555556
848	0.424	-3.65	5.20769230769	0.183673469388	0.0555555555556
849	0.4245	-13.8	-0.623076923077	-1.24897959184	-1.38888888889
850	0.425	22.45	-2.08076923077	0.183673469388	-2.83333333333
851	0.4255	0.7	-0.623076923077	0.183673469388	17.3888888889
852	0.426	0.7	-2.08076923077	4.48163265306	-1.38888888889
853	0.4265	0.7	-0.623076923077	23.106122449	-1.38888888889
854	0.427	-0.75	-10.8269230769	3.04897959184	0.0555555555556
855	0.4275	2.15	15.4115384615	3.04897959184	0.0555555555556
856	0.428	-0.75	-0.623076923077	0.183673469388	1.5
857	0.4285	-5.1	0.834615384615	0.183673469388	-1.38888888889
858	0.429	21.0	-0.623076923077	1.61632653061	2.94444444444
859	0.4295	0.7	-0.623076923077	1.61632653061	1.5
860	0.43	2.15	0.834615384615	15.9428571429	-1.38888888889
861	0.4305	-0.75	-2.08076923077	-6.97959183673	1.5
862	0.431	-0.75	2.29230769231	-8.41224489796	0.0555555555556
863	0.4315	-2.2	-9.36923076923	-1.24897959184	0.0555555555556
864	0.432	2.15	0.834615384615	1.61632653061	2.94444444444
865	0.4325	-10.9	-3.53846153846	1.61632653061	1.5
866	0.433	0.7	0.834615384615	3.04897959184	-1.38888888889
867	0.4335	-0.75	-0.623076923077	-2.68163265306	17.3888888889
868	0.434	-0.75	-2.08076923077	3.04897959184	-1.38888888889
869	0.4345	0.7	-7.91153846154	0.183673469388	-1.38888888889
870	0.435	2.15	18.3269230769	0.183673469388	0.0555555555556
871	0.4355	-3.65	0.834615384615	0.183673469388	1.5
872	0.436	18.1	-0.623076923077	0.183673469388	0.0555555555556
873	0.4365	-10.9	-0.623076923077	-1.24897959184	1.5
874	0.437	-3.65	-0.623076923077	0.183673469388	-8.61111111111
875	0.4375	-5.1	0.834615384615	-8.41224489796	0.0555555555556
876	0.438	-0.75	-0.623076923077	15.9428571429	-1.38888888889
877	0.4385	-0.75	11.0384615385	-1.24897959184	0.0555555555556
878	0.439	-0.75	-2.08076923077	0.183673469388	0.0555555555556
879	0.4395	-2.2	0.834615384615	1.61632653061	-2.83333333333
880	0.44	13.75	0.834615384615	1.61632653061	0.0555555555556
881	0.4405	-0.75	-0.623076923077	0.183673469388	14.5
882	0.441	0.7	-0.623076923077	15.9428571429	0.0555555555556
883	0.4415	-0.75	-2.08076923077	-6.97959183673	0.0555555555556
884	0.442	0.7	15.4115384615	0.183673469388	0.0555555555556
885	0.4425	0.7	2.29230769231	1.61632653061	0.0555555555556
886	0.443	-8.0	-2.08076923077	3.04897959184	-1.38888888889
887	0.4435	19.55	0.834615384615	-1.24897959184	-11.5
888	0.444	0.7	0.834615384615	-2.68163265306	4.38888888889
889	0.4445	-0.75	0.834615384615	18.8081632653	0.0555555555556
890	0.445	0.7	-0.623076923077	-6.97959183673	0.0555555555556
891	0.4455	0.7	5.20769230769	1.61632653061	-1.38888888889
892	0.446	-0.75	-0.623076923077	0.183673469388	2.94444444444
893	0.4465	-12.35	-0.623076923077	3.04897959184	0.0555555555556
894	0.447	19.55	-0.623076923077	1.61632653061	0.0555555555556
895	0.4475	-5.1	0.834615384615	3.04897959184	0.0555555555556
896	0.448	-0.75	0.834615384615	-6.97959183673	-2.83333333333
897	0.4485	-0.75	2.29230769231	-1.24897959184	0.0555555555556
898	0.449	0.7	0.834615384615	-5.54693877551	0.0555555555556
899	0.4495	0.7	6.66538461538	1.61632653061	-1.38888888889
900	0.45	2.15	-2.08076923077	0.183673469388	0.0555555555556
901	0.4505	5.05	0.834615384615	-1.24897959184	0.0555555555556
902	0.451	5.05	0.834615384615	1.61632653061	0.0555555555556
903	0.4515	0.7	0.834615384615	-1.24897959184	13.0555555556
904	0.452	-0.75	0.834615384615	14.5102040816	0.0555555555556
905	0.4525	-0.75	0.834615384615	-2.68163265306	1.5
906	0.453	0.7	-0.623076923077	-6.97959183673	1.5
907	0.4535	-0.75	-6.45384615385	3.04897959184	1.5
908	0.454	-2.2	0.834615384615	3.04897959184	0.0555555555556
909	0.4545	19.55	0.834615384615	1.61632653061	1.5
910	0.455	-8.0	-2.08076923077	1.61632653061	8.72222222222
911	0.4555	0.7	-0.623076923077	3.04897959184	-5.72222222222
912	0.456	0.7	0.834615384615	-2.68163265306	1.5
913	0.4565	0.7	0.834615384615	1.61632653061	1.5
914	0.457	0.7	-10.8269230769	-1.24897959184	0.0555555555556
915	0.4575	2.15	-0.623076923077	1.61632653061	-1.38888888889
916	0.458	16.65	0.834615384615	0.183673469388	1.5
917	0.4585	-9.45	-0.623076923077	1.61632653061	4.38888888889
918	0.459	-0.75	2.29230769231	0.183673469388	-5.72222222222
919	0.4595	-2.2	-0.623076923077	1.61632653061	-1.38888888889
920	0.46	0.7	2.29230769231	7.34693877551	0.0555555555556
921	0.4605	-0.75	5.20769230769	0.183673469388	0.0555555555556
922	0.461	-0.75	5.20769230769	1.61632653061	-1.38888888889
923	0.4615	-0.75	-2.08076923077	0.183673469388	0.0555555555556
924	0.462	12.3	-2.08076923077	0.183673469388	2.94444444444
925	0.4625	-0.75	-0.623076923077	-1.24897959184	-7.16666666667
926	0.463	-3.65	0.834615384615	13.0775510204	0.0555555555556
927	0.4635	-0.75	0.834615384615	-8.41224489796	0.0555555555556
928	0.464	0.7	-0.623076923077	1.61632653061	-1.38888888889
929	0.4645	-0.75	16.8692307692	0.183673469388	-1.38888888889
930	0.465	6.5	-7.91153846154	-1.24897959184	1.5
931	0.4655	16.65	0.834615384615	-1.24897959184	0.0555555555556
932	0.466	-2.2	-0.623076923077	0.183673469388	0.0555555555556
933	0.4665	-2.2	-2.08076923077	0.183673469388	-5.72222222222
934	0.467	0.7	0.834615384615	-2.68163265306	-5.72222222222
935	0.4675	-0.75	-3.53846153846	3.04897959184	1.5
936	0.468	0.7	-0.623076923077	0.183673469388	-1.38888888889
937	0.4685	2.15	-10.8269230769	0.183673469388	1.5
938	0.469	23.9	-2.08076923077	1.61632653061	5.83333333333
939	0.4695	-6.55	-0.623076923077	3.04897959184	4.38888888889
940	0.47	-0.75	0.834615384615	3.04897959184	4.38888888889
941	0.4705	-2.2	0.834615384615	0.183673469388	10.1666666667
942	0.471	-0.75	0.834615384615	0.183673469388	1.5
943	0.4715	-0.75	-4.99615384615	-1.24897959184	-1.38888888889
944	0.472	0.7	19.7846153846	1.61632653061	0.0555555555556
945	0.4725	-3.65	18.3269230769	1.61632653061	1.5
946	0.473	-2.2	0.834615384615	1.61632653061	-2.83333333333
947	0.4735	-5.1	0.834615384615	-2.68163265306	0.0555555555556
948	0.474	-2.2	0.834615384615	1.61632653061	-10.0555555556
949	0.4745	-3.65	-0.623076923077	-9.84489795918	0.0555555555556
950	0.475	-2.2	-0.623076923077	-1.24897959184	0.0555555555556
951	0.4755	-3.65	-10.8269230769	-4.11428571429	0.0555555555556
952	0.476	-0.75	2.29230769231	0.183673469388	0.0555555555556
953	0.4765	7.95	-0.623076923077	-2.68163265306	2.94444444444
954	0.477	5.05	0.834615384615	4.48163265306	0.0555555555556
955	0.4775	-0.75	2.29230769231	0.183673469388	8.72222222222
956	0.478	-0.75	-2.08076923077	-2.68163265306	14.5
957	0.4785	-0.75	-2.08076923077	3.04897959184	-7.16666666667
958	0.479	-0.75	0.834615384615	3.04897959184	0.0555555555556
959	0.4795	-2.2	16.8692307692	1.61632653061	0.0555555555556
960	0.48	0.7	-12.2846153846	1.61632653061	1.5
961	0.4805	-12.35	0.834615384615	1.61632653061	2.94444444444
962	0.481	-8.0	0.834615384615	-1.24897959184	-1.38888888889
963	0.4815	0.7	-2.08076923077	-1.24897959184	-7.16666666667
964	0.482	-2.2	0.834615384615	-9.84489795918	1.5
965	0.4825	-0.75	2.29230769231	-1.24897959184	0.0555555555556
966	0.483	-0.75	-12.2846153846	0.183673469388	-1.38888888889
967	0.4835	0.7	-6.45384615385	-1.24897959184	1.5
968	0.484	2.15	-3.53846153846	1.61632653061	0.0555555555556
969	0.4845	-6.55	0.834615384615	1.61632653061	1.5
970	0.485	-2.2	-0.623076923077	0.183673469388	7.27777777778
971	0.4855	-0.75	-0.623076923077	-5.54693877551	0.0555555555556
972	0.486	-2.2	-2.08076923077	1.61632653061	1.5
973	0.4865	-0.75	0.834615384615	-4.11428571429	1.5
974	0.487	-2.2	-2.08076923077	-6.97959183673	0.0555555555556
975	0.4875	-2.2	-7.91153846154	0.183673469388	0.0555555555556
976	0.488	2.15	-0.623076923077	-1.24897959184	-1.38888888889
977	0.4885	18.1	-0.623076923077	0.183673469388	5.83333333333
978	0.489	-8.0	-0.623076923077	0.183673469388	4.38888888889
979	0.4895	-0.75	0.834615384615	-1.24897959184	-5.72222222222
980	0.49	-0.75	0.834615384615	3.04897959184	0.0555555555556
981	0.4905	0.7	-6.45384615385	0.183673469388	0.0555555555556
982	0.491	0.7	9.58076923077	1.61632653061	1.5
983	0.4915	-3.65	-3.53846153846	1.61632653061	0.0555555555556
984	0.492	-8.0	0.834615384615	0.183673469388	0.0555555555556
985	0.4925	5.05	-0.623076923077	1.61632653061	-7.16666666667
986	0.493	-0.75	2.29230769231	4.48163265306	8.72222222222
987	0.4935	-3.65	-0.623076923077	13.0775510204	1.5
988	0.494	2.15	-2.08076923077	-4.11428571429	-1.38888888889
989	0.4945	0.7	2.29230769231	-1.24897959184	1.5
990	0.495	-0.75	0.834615384615	-5.54693877551	-1.38888888889
991	0.4955	3.6	0.834615384615	1.61632653061	1.5
992	0.496	-0.75	-3.53846153846	0.183673469388	1.5
993	0.4965	10.85	-3.53846153846	0.183673469388	1.5
994	0.497	-2.2	-2.08076923077	-4.11428571429	10.1666666667
995	0.4975	-3.65	0.834615384615	5.91428571429	1.5
996	0.498	-0.75	0.834615384615	-4.11428571429	1.5
997	0.4985	0.7	-6.45384615385	0.183673469388	0.0555555555556
998	0.499	2.15	5.20769230769	-1.24897959184	0.0555555555556
999	0.4995	10.85	-2.08076923077	3.04897959184	1.5
1000	0.5	13.75	0.834615384615	0.183673469388	-5.72222222222
1001	0.5005	-3.65	-2.08076923077	1.61632653061	1.5
1002	0.501	-0.75	0.834615384615	1.61632653061	0.0555555555556
1003	0.5015	3.6	3.75	15.9428571429	0.0555555555556
1004	0.502	0.7	-9.36923076923	1.61632653061	-1.38888888889
1005	0.5025	0.7	16.8692307692	0.183673469388	0.0555555555556
1006	0.503	-0.75	13.9538461538	0.183673469388	-1.38888888889
1007	0.5035	-9.45	0.834615384615	-1.24897959184	-1.38888888889
1008	0.504	-5.1	-0.623076923077	-2.68163265306	1.5
1009	0.5045	-2.2	-0.623076923077	1.61632653061	-1.38888888889
1010	0.505	0.7	-0.623076923077	1.61632653061	1.5
1011	0.5055	0.7	0.834615384615	8.77959183673	0.0555555555556
1012	0.506	0.7	0.834615384615	-8.41224489796	1.5
1013	0.5065	0.7	-2.08076923077	1.61632653061	0.0555555555556
1014	0.507	-5.1	0.834615384615	3.04897959184	0.0555555555556
1015	0.5075	7.95	-2.08076923077	0.183673469388	2.94444444444
1016	0.508	-9.45	0.834615384615	0.183673469388	10.1666666667
1017	0.5085	-3.65	0.834615384615	-1.24897959184	-4.27777777778
1018	0.509	-0.75	-2.08076923077	-2.68163265306	0.0555555555556
1019	0.5095	-2.2	-3.53846153846	1.61632653061	0.0555555555556
1020	0.51	-0.75	0.834615384615	-1.24897959184	1.5
1021	0.5105	0.7	-10.8269230769	0.183673469388	0.0555555555556
1022	0.511	-10.9	0.834615384615	-1.24897959184	4.38888888889
1023	0.5115	-9.45	0.834615384615	-1.24897959184	0.0555555555556
1024	0.512	-2.2	0.834615384615	-1.24897959184	-5.72222222222
1025	0.5125	-0.75	-2.08076923077	-9.84489795918	-1.38888888889
1026	0.513	0.7	-2.08076923077	17.3755102041	0.0555555555556
1027	0.5135	0.7	-12.2846153846	0.183673469388	1.5
1028	0.514	-0.75	8.12307692308	0.183673469388	-1.38888888889
1029	0.5145	-10.9	-0.623076923077	1.61632653061	0.0555555555556
1030	0.515	2.15	-0.623076923077	1.61632653061	0.0555555555556
1031	0.5155	-3.65	-0.623076923077	0.183673469388	8.72222222222
1032	0.516	-0.75	-0.623076923077	-4.11428571429	5.83333333333
1033	0.5165	-2.2	0.834615384615	5.91428571429	0.0555555555556
1034	0.517	0.7	-0.623076923077	-4.11428571429	0.0555555555556
1035	0.5175	-0.75	8.12307692308	0.183673469388	0.0555555555556
1036	0.518	-3.65	-0.623076923077	0.183673469388	0.0555555555556
1037	0.5185	-10.9	-0.623076923077	-1.24897959184	-4.27777777778
1038	0.519	16.65	-0.623076923077	4.48163265306	-1.38888888889
1039	0.5195	0.7	0.834615384615	5.91428571429	-2.83333333333
1040	0.52	-0.75	-0.623076923077	7.34693877551	-1.38888888889
1041	0.5205	0.7	0.834615384615	-2.68163265306	8.72222222222
1042	0.521	-0.75	0.834615384615	-1.24897959184	-7.16666666667
1043	0.5215	-0.75	6.66538461538	0.183673469388	0.0555555555556
1044	0.522	0.7	-2.08076923077	0.183673469388	1.5
1045	0.5225	9.4	-0.623076923077	0.183673469388	-1.38888888889
1046	0.523	-5.1	0.834615384615	1.61632653061	8.72222222222
1047	0.5235	-2.2	-2.08076923077	-6.97959183673	-2.83333333333
1048	0.524	-2.2	-0.623076923077	0.183673469388	-8.61111111111
1049	0.5245	-0.75	2.29230769231	-8.41224489796	1.5
1050	0.525	-0.75	15.4115384615	-1.24897959184	1.5
1051	0.5255	-5.1	-7.91153846154	-1.24897959184	1.5
1052	0.526	3.6	-0.623076923077	0.183673469388	1.5
1053	0.5265	15.2	-2.08076923077	0.183673469388	7.27777777778
1054	0.527	-6.55	-0.623076923077	3.04897959184	8.72222222222
1055	0.5275	-3.65	0.834615384615	14.5102040816	1.5
1056	0.528	0.7	0.834615384615	3.04897959184	1.5
1057	0.5285	-2.2	2.29230769231	1.61632653061	0.0555555555556
1058	0.529	-0.75	-4.99615384615	-4.11428571429	0.0555555555556
1059	0.5295	2.15	0.834615384615	-1.24897959184	1.5
1060	0.53	-8.0	2.29230769231	-1.24897959184	0.0555555555556
1061	0.5305	5.05	0.834615384615	1.61632653061	-1.38888888889
1062	0.531	-0.75	-0.623076923077	3.04897959184	-7.16666666667
1063	0.5315	2.15	0.834615384615	0.183673469388	18.8333333333
1064	0.532	-0.75	-0.623076923077	0.183673469388	2.94444444444
1065	0.5325	2.15	0.834615384615	1.61632653061	1.5
1066	0.533	-5.1	5.20769230769	0.183673469388	-1.38888888889
1067	0.5335	0.7	2.29230769231	-1.24897959184	1.5
1068	0.534	2.15	-0.623076923077	0.183673469388	1.5
1069	0.5345	0.7	-3.53846153846	0.183673469388	-1.38888888889
1070	0.535	-0.75	0.834615384615	-1.24897959184	7.27777777778
1071	0.5355	0.7	-3.53846153846	-1.24897959184	0.0555555555556
1072	0.536	-2.2	-10.8269230769	1.61632653061	0.0555555555556
1073	0.5365	2.15	18.3269230769	0.183673469388	0.0555555555556
1074	0.537	-3.65	-0.623076923077	-1.24897959184	0.0555555555556
1075	0.5375	18.1	-0.623076923077	0.183673469388	-1.38888888889
1076	0.538	0.7	-0.623076923077	-1.24897959184	15.9444444444
1077	0.5385	0.7	-0.623076923077	3.04897959184	17.3888888889
1078	0.539	0.7	0.834615384615	3.04897959184	-5.72222222222
1079	0.5395	-0.75	0.834615384615	14.5102040816	0.0555555555556
1080	0.54	-3.65	-2.08076923077	-6.97959183673	0.0555555555556
1081	0.5405	-2.2	-2.08076923077	-2.68163265306	0.0555555555556
1082	0.541	-0.75	-0.623076923077	0.183673469388	0.0555555555556
1083	0.5415	13.75	0.834615384615	-1.24897959184	-2.83333333333
1084	0.542	0.7	0.834615384615	0.183673469388	7.27777777778
1085	0.5425	-0.75	-0.623076923077	-2.68163265306	11.6111111111
1086	0.543	0.7	-3.53846153846	-1.24897959184	-5.72222222222
1087	0.5435	0.7	-4.99615384615	0.183673469388	-1.38888888889
1088	0.544	0.7	-0.623076923077	-2.68163265306	0.0555555555556
1089	0.5445	2.15	16.8692307692	-1.24897959184	0.0555555555556
1090	0.545	18.1	-0.623076923077	1.61632653061	-10.0555555556
1091	0.5455	-0.75	-2.08076923077	-1.24897959184	18.8333333333
1092	0.546	-0.75	-0.623076923077	3.04897959184	21.7222222222
1093	0.5465	0.7	0.834615384615	17.3755102041	0.0555555555556
1094	0.547	-0.75	-2.08076923077	-6.97959183673	1.5
1095	0.5475	0.7	13.9538461538	0.183673469388	0.0555555555556
1096	0.548	-2.2	-6.45384615385	1.61632653061	0.0555555555556
1097	0.5485	-3.65	0.834615384615	-1.24897959184	1.5
1098	0.549	10.85	0.834615384615	-1.24897959184	0.0555555555556
1099	0.5495	-2.2	-3.53846153846	0.183673469388	1.5
1100	0.55	0.7	2.29230769231	15.9428571429	0.0555555555556
1101	0.5505	0.7	-0.623076923077	-8.41224489796	-1.38888888889
1102	0.551	-2.2	-2.08076923077	-1.24897959184	0.0555555555556
1103	0.5515	-0.75	-0.623076923077	-1.24897959184	0.0555555555556
1104	0.552	0.7	-2.08076923077	0.183673469388	0.0555555555556
1105	0.5525	18.1	-2.08076923077	1.61632653061	1.5
1106	0.553	-8.0	0.834615384615	3.04897959184	17.3888888889
1107	0.5535	-0.75	-0.623076923077	1.61632653061	-11.5
1108	0.554	0.7	0.834615384615	-8.41224489796	0.0555555555556
1109	0.5545	-2.2	-0.623076923077	-1.24897959184	0.0555555555556
1110	0.555	-0.75	-6.45384615385	0.183673469388	0.0555555555556
1111	0.5555	-0.75	0.834615384615	-2.68163265306	0.0555555555556
1112	0.556	-6.55	-0.623076923077	0.183673469388	-1.38888888889
1113	0.5565	16.65	0.834615384615	3.04897959184	-10.0555555556
1114	0.557	-2.2	-2.08076923077	-2.68163265306	17.3888888889
1115	0.5575	2.15	0.834615384615	3.04897959184	13.0555555556
1116	0.558	-3.65	0.834615384615	-9.84489795918	-1.38888888889
1117	0.5585	-2.2	2.29230769231	15.9428571429	-2.83333333333
1118	0.559	0.7	-9.36923076923	0.183673469388	0.0555555555556
1119	0.5595	2.15	0.834615384615	-1.24897959184	2.94444444444
1120	0.56	-12.35	-0.623076923077	0.183673469388	1.5
1121	0.5605	-10.9	0.834615384615	0.183673469388	-10.0555555556
1122	0.561	0.7	-0.623076923077	0.183673469388	-7.16666666667
1123	0.5615	-0.75	-2.08076923077	8.77959183673	0.0555555555556
1124	0.562	-0.75	2.29230769231	0.183673469388	1.5
1125	0.5625	-0.75	6.66538461538	0.183673469388	2.94444444444
1126	0.563	-2.2	-2.08076923077	0.183673469388	-1.38888888889
1127	0.5635	18.1	-2.08076923077	0.183673469388	2.94444444444
1128	0.564	-9.45	-2.08076923077	1.61632653061	15.9444444444
1129	0.5645	0.7	-3.53846153846	-1.24897959184	-7.16666666667
1130	0.565	0.7	0.834615384615	-2.68163265306	-1.38888888889
1131	0.5655	-0.75	-0.623076923077	-4.11428571429	-1.38888888889
1132	0.566	3.6	9.58076923077	-1.24897959184	0.0555555555556
1133	0.5665	0.7	-4.99615384615	3.04897959184	0.0555555555556
1134	0.567	-5.1	0.834615384615	0.183673469388	0.0555555555556
1135	0.5675	3.6	-2.08076923077	1.61632653061	-1.38888888889
1136	0.568	-5.1	0.834615384615	0.183673469388	-2.83333333333
1137	0.5685	0.7	0.834615384615	8.77959183673	-4.27777777778
1138	0.569	-0.75	-2.08076923077	-2.68163265306	1.5
1139	0.5695	0.7	-9.36923076923	0.183673469388	1.5
1140	0.57	-2.2	0.834615384615	1.61632653061	-2.83333333333
1141	0.5705	-13.8	0.834615384615	0.183673469388	0.0555555555556
1142	0.571	16.65	-2.08076923077	0.183673469388	-11.5
1143	0.5715	-3.65	-3.53846153846	-2.68163265306	13.0555555556
1144	0.572	-2.2	2.29230769231	5.91428571429	8.72222222222
1145	0.5725	0.7	-2.08076923077	-6.97959183673	0.0555555555556
1146	0.573	-3.65	3.75	-1.24897959184	0.0555555555556
1147	0.5735	-2.2	-10.8269230769	-1.24897959184	0.0555555555556
1148	0.574	0.7	-2.08076923077	-1.24897959184	0.0555555555556
1149	0.5745	5.05	-0.623076923077	0.183673469388	0.0555555555556
1150	0.575	9.4	0.834615384615	0.183673469388	0.0555555555556
1151	0.5755	-0.75	-0.623076923077	-1.24897959184	14.5
1152	0.576	-0.75	-0.623076923077	0.183673469388	15.9444444444
1153	0.5765	0.7	-2.08076923077	-8.41224489796	-10.0555555556
1154	0.577	0.7	2.29230769231	15.9428571429	-1.38888888889
1155	0.5775	0.7	-7.91153846154	-1.24897959184	0.0555555555556
1156	0.578	-2.2	18.3269230769	-1.24897959184	0.0555555555556
1157	0.5785	-12.35	0.834615384615	0.183673469388	-1.38888888889
1158	0.579	-0.75	0.834615384615	0.183673469388	1.5
1159	0.5795	-2.2	0.834615384615	0.183673469388	0.0555555555556
1160	0.58	-0.75	0.834615384615	11.6448979592	0.0555555555556
1161	0.5805	-3.65	0.834615384615	-5.54693877551	-7.16666666667
1162	0.581	-0.75	6.66538461538	0.183673469388	-1.38888888889
1163	0.5815	-0.75	-9.36923076923	0.183673469388	1.5
1164	0.582	-0.75	0.834615384615	-1.24897959184	-2.83333333333
1165	0.5825	-0.75	0.834615384615	-1.24897959184	18.8333333333
1166	0.583	-0.75	-3.53846153846	1.61632653061	1.5
1167	0.5835	0.7	-0.623076923077	15.9428571429	0.0555555555556
1168	0.584	0.7	-4.99615384615	-5.54693877551	0.0555555555556
1169	0.5845	0.7	2.29230769231	4.48163265306	1.5
1170	0.585	-5.1	0.834615384615	1.61632653061	0.0555555555556
1171	0.5855	-15.25	0.834615384615	1.61632653061	0.0555555555556
1172	0.586	13.75	-0.623076923077	-1.24897959184	-4.27777777778
1173	0.5865	-6.55	0.834615384615	1.61632653061	5.83333333333
1174	0.587	-2.2	0.834615384615	4.48163265306	1.5
1175	0.5875	-2.2	0.834615384615	-8.41224489796	0.0555555555556
1176	0.588	-2.2	2.29230769231	11.6448979592	-4.27777777778
1177	0.5885	0.7	-9.36923076923	-1.24897959184	-1.38888888889
1178	0.589	5.05	-0.623076923077	0.183673469388	-1.38888888889
1179	0.5895	-12.35	-0.623076923077	1.61632653061	4.38888888889
1180	0.59	-0.75	-0.623076923077	0.183673469388	-7.16666666667
1181	0.5905	-0.75	-2.08076923077	-8.41224489796	0.0555555555556
1182	0.591	-0.75	0.834615384615	0.183673469388	-1.38888888889
1183	0.5915	0.7	2.29230769231	-2.68163265306	1.5
1184	0.592	-0.75	-10.8269230769	0.183673469388	1.5
1185	0.5925	0.7	-4.99615384615	0.183673469388	-1.38888888889
1186	0.593	-12.35	-0.623076923077	1.61632653061	-1.38888888889
1187	0.5935	21.0	-0.623076923077	1.61632653061	0.0555555555556
1188	0.594	-9.45	-0.623076923077	0.183673469388	4.38888888889
1189	0.5945	-2.2	0.834615384615	17.3755102041	0.0555555555556
1190	0.595	-2.2	-2.08076923077	-6.97959183673	0.0555555555556
1191	0.5955	-0.75	2.29230769231	-6.97959183673	0.0555555555556
1192	0.596	2.15	-12.2846153846	1.61632653061	0.0555555555556
1193	0.5965	5.05	-0.623076923077	-1.24897959184	1.5
1194	0.597	-13.8	-2.08076923077	1.61632653061	0.0555555555556
1195	0.5975	-6.55	-0.623076923077	3.04897959184	-11.5
1196	0.598	-0.75	-0.623076923077	-9.84489795918	0.0555555555556
1197	0.5985	-0.75	2.29230769231	-6.97959183673	0.0555555555556
1198	0.599	-3.65	2.29230769231	-2.68163265306	-2.83333333333
1199	0.5995	-2.2	-0.623076923077	-5.54693877551	0.0555555555556
1200	0.6	3.6	-3.53846153846	0.183673469388	0.0555555555556
1201	0.6005	-12.35	0.834615384615	-1.24897959184	2.94444444444
1202	0.601	-3.65	2.29230769231	1.61632653061	-11.5
1203	0.6015	-3.65	-0.623076923077	-1.24897959184	-4.27777777778
1204	0.602	0.7	0.834615384615	-8.41224489796	0.0555555555556
1205	0.6025	-3.65	0.834615384615	8.77959183673	-1.38888888889
1206	0.603	-0.75	-0.623076923077	-1.24897959184	0.0555555555556
1207	0.6035	-0.75	8.12307692308	0.183673469388	-2.83333333333
1208	0.604	-2.2	-6.45384615385	1.61632653061	1.5
1209	0.6045	-9.45	0.834615384615	4.48163265306	-1.38888888889
1210	0.605	-2.2	0.834615384615	0.183673469388	2.94444444444
1211	0.6055	-0.75	0.834615384615	1.61632653061	-5.72222222222
1212	0.606	-3.65	-2.08076923077	-5.54693877551	0.0555555555556
1213	0.6065	-0.75	0.834615384615	1.61632653061	-1.38888888889
1214	0.607	-0.75	-9.36923076923	0.183673469388	0.0555555555556
1215	0.6075	-2.2	-7.91153846154	0.183673469388	2.94444444444
1216	0.608	-10.9	-0.623076923077	3.04897959184	2.94444444444
1217	0.6085	0.7	-3.53846153846	4.48163265306	-7.16666666667
1218	0.609	-6.55	-0.623076923077	3.04897959184	1.5
1219	0.6095	-2.2	0.834615384615	0.183673469388	0.0555555555556
1220	0.61	-0.75	0.834615384615	8.77959183673	0.0555555555556
1221	0.6105	0.7	3.75	1.61632653061	0.0555555555556
1222	0.611	0.7	8.12307692308	0.183673469388	0.0555555555556
1223	0.6115	3.6	-0.623076923077	3.04897959184	1.5
1224	0.612	16.65	-0.623076923077	-1.24897959184	1.5
1225	0.6125	-6.55	0.834615384615	1.61632653061	13.0555555556
1226	0.613	-0.75	2.29230769231	7.34693877551	-5.72222222222
1227	0.6135	0.7	2.29230769231	-9.84489795918	-7.16666666667
1228	0.614	-0.75	-2.08076923077	1.61632653061	0.0555555555556
1229	0.6145	0.7	-2.08076923077	1.61632653061	0.0555555555556
1230	0.615	-3.65	-6.45384615385	1.61632653061	1.5
1231	0.6155	-6.55	-0.623076923077	1.61632653061	0.0555555555556
1232	0.616	-6.55	-0.623076923077	0.183673469388	-2.83333333333
1233	0.6165	-3.65	-3.53846153846	3.04897959184	-2.83333333333
1234	0.617	-0.75	0.834615384615	-2.68163265306	2.94444444444
1235	0.6175	-0.75	0.834615384615	0.183673469388	0.0555555555556
1236	0.618	-2.2	0.834615384615	0.183673469388	1.5
1237	0.6185	-0.75	13.9538461538	-2.68163265306	0.0555555555556
1238	0.619	-0.75	16.8692307692	-1.24897959184	0.0555555555556
1239	0.6195	13.75	-0.623076923077	3.04897959184	-5.72222222222
1240	0.62	-0.75	0.834615384615	-2.68163265306	17.3888888889
1241	0.6205	-3.65	-0.623076923077	-1.24897959184	20.2777777778
1242	0.621	-0.75	-0.623076923077	20.2408163265	0.0555555555556
1243	0.6215	-0.75	-2.08076923077	-5.54693877551	0.0555555555556
1244	0.622	-0.75	16.8692307692	-2.68163265306	-1.38888888889
1245	0.6225	-3.65	-9.36923076923	0.183673469388	-1.38888888889
1246	0.623	0.7	-0.623076923077	-1.24897959184	0.0555555555556
1247	0.6235	-8.0	-2.08076923077	3.04897959184	4.38888888889
1248	0.624	0.7	0.834615384615	4.48163265306	-5.72222222222
1249	0.6245	-0.75	-0.623076923077	-11.2775510204	2.94444444444
1250	0.625	-0.75	2.29230769231	-6.97959183673	-2.83333333333
1251	0.6255	-2.2	-12.2846153846	-1.24897959184	1.5
1252	0.626	0.7	-4.99615384615	1.61632653061	0.0555555555556
1253	0.6265	5.05	-2.08076923077	1.61632653061	1.5
1254	0.627	-13.8	-0.623076923077	0.183673469388	2.94444444444
1255	0.6275	-5.1	-2.08076923077	1.61632653061	-5.72222222222
1256	0.628	-0.75	-2.08076923077	-1.24897959184	1.5
1257	0.6285	0.7	-0.623076923077	3.04897959184	0.0555555555556
1258	0.629	0.7	-0.623076923077	-6.97959183673	0.0555555555556
1259	0.6295	0.7	6.66538461538	0.183673469388	1.5
1260	0.63	0.7	-4.99615384615	1.61632653061	0.0555555555556
1261	0.6305	-8.0	-2.08076923077	1.61632653061	0.0555555555556
1262	0.631	2.15	0.834615384615	1.61632653061	1.5
1263	0.6315	-2.2	-0.623076923077	-8.41224489796	-2.83333333333
1264	0.632	-3.65	3.75	7.34693877551	-1.38888888889
1265	0.6325	-2.2	-2.08076923077	-4.11428571429	1.5
1266	0.633	-0.75	-9.36923076923	3.04897959184	0.0555555555556
1267	0.6335	-0.75	-0.623076923077	0.183673469388	2.94444444444
1268	0.634	-5.1	-0.623076923077	0.183673469388	0.0555555555556
1269	0.6345	12.3	0.834615384615	1.61632653061	2.94444444444
1270	0.635	-8.0	0.834615384615	-1.24897959184	0.0555555555556
1271	0.6355	-2.2	-0.623076923077	0.183673469388	-10.0555555556
1272	0.636	-3.65	0.834615384615	-4.11428571429	1.5
1273	0.6365	-3.65	2.29230769231	15.9428571429	-1.38888888889
1274	0.637	-2.2	0.834615384615	1.61632653061	0.0555555555556
1275	0.6375	-3.65	5.20769230769	-1.24897959184	0.0555555555556
1276	0.638	0.7	-0.623076923077	0.183673469388	0.0555555555556
1277	0.6385	-9.45	-0.623076923077	1.61632653061	1.5
1278	0.639	-3.65	-2.08076923077	-1.24897959184	-12.9444444444
1279	0.6395	-0.75	0.834615384615	1.61632653061	1.5
1280	0.64	-0.75	-2.08076923077	-8.41224489796	1.5
1281	0.6405	-2.2	3.75	-1.24897959184	1.5
1282	0.641	-2.2	18.3269230769	3.04897959184	1.5
1283	0.6415	-0.75	-9.36923076923	3.04897959184	1.5
1284	0.642	10.85	-2.08076923077	3.04897959184	2.94444444444
1285	0.6425	-10.9	-0.623076923077	1.61632653061	14.5
1286	0.643	-2.2	-2.08076923077	-2.68163265306	-5.72222222222
1287	0.6435	-2.2	-0.623076923077	7.34693877551	0.0555555555556
1288	0.644	-2.2	-2.08076923077	1.61632653061	-1.38888888889
1289	0.6445	-3.65	16.8692307692	1.61632653061	0.0555555555556
1290	0.645	-2.2	-2.08076923077	1.61632653061	-1.38888888889
1291	0.6455	2.15	-0.623076923077	0.183673469388	-1.38888888889
1292	0.646	18.1	-0.623076923077	0.183673469388	4.38888888889
1293	0.6465	-2.2	-0.623076923077	3.04897959184	2.94444444444
1294	0.647	-2.2	2.29230769231	20.2408163265	0.0555555555556
1295	0.6475	-2.2	-2.08076923077	-5.54693877551	0.0555555555556
1296	0.648	-2.2	2.29230769231	-4.11428571429	1.5
1297	0.6485	-2.2	11.0384615385	0.183673469388	0.0555555555556
1298	0.649	3.6	-6.45384615385	0.183673469388	0.0555555555556
1299	0.6495	-12.35	0.834615384615	0.183673469388	1.5
1300	0.65	-0.75	-0.623076923077	3.04897959184	-5.72222222222
1301	0.6505	0.7	-0.623076923077	-1.24897959184	0.0555555555556
1302	0.651	0.7	2.29230769231	-1.24897959184	1.5
1303	0.6515	-2.2	0.834615384615	-4.11428571429	1.5
1304	0.652	-2.2	-2.08076923077	0.183673469388	2.94444444444
1305	0.6525	-0.75	-6.45384615385	-1.24897959184	0.0555555555556
1306	0.653	0.7	8.12307692308	0.183673469388	0.0555555555556
1307	0.6535	-5.1	-0.623076923077	-1.24897959184	2.94444444444
1308	0.654	-3.65	0.834615384615	-1.24897959184	1.5
1309	0.6545	-3.65	0.834615384615	-1.24897959184	1.5
1310	0.655	-0.75	-2.08076923077	8.77959183673	0.0555555555556
1311	0.6555	-2.2	-0.623076923077	-8.41224489796	0.0555555555556
1312	0.656	-3.65	-4.99615384615	0.183673469388	0.0555555555556
1313	0.6565	-0.75	0.834615384615	0.183673469388	0.0555555555556
1314	0.657	-0.75	-0.623076923077	-1.24897959184	0.0555555555556
1315	0.6575	12.3	0.834615384615	4.48163265306	-1.38888888889
1316	0.658	2.15	-3.53846153846	0.183673469388	18.8333333333
1317	0.6585	-0.75	0.834615384615	4.48163265306	0.0555555555556
1318	0.659	-2.2	0.834615384615	17.3755102041	1.5
1319	0.6595	-0.75	3.75	-4.11428571429	1.5
1320	0.66	0.7	19.7846153846	1.61632653061	0.0555555555556
1321	0.6605	-3.65	-7.91153846154	0.183673469388	0.0555555555556
1322	0.661	19.55	-0.623076923077	1.61632653061	-11.5
1323	0.6615	-3.65	-0.623076923077	0.183673469388	7.27777777778
1324	0.662	0.7	-2.08076923077	5.91428571429	4.38888888889
1325	0.6625	0.7	-0.623076923077	8.77959183673	-1.38888888889
1326	0.663	0.7	0.834615384615	7.34693877551	2.94444444444
1327	0.6635	-0.75	-3.53846153846	1.61632653061	-2.83333333333
1328	0.664	-2.2	-7.91153846154	-1.24897959184	1.5
1329	0.6645	-2.2	0.834615384615	0.183673469388	0.0555555555556
1330	0.665	-10.9	-2.08076923077	0.183673469388	1.5
1331	0.6655	-12.35	-0.623076923077	1.61632653061	-11.5
1332	0.666	-2.2	-0.623076923077	-1.24897959184	20.2777777778
1333	0.6665	-3.65	-2.08076923077	5.91428571429	-2.83333333333
1334	0.667	-2.2	2.29230769231	-1.24897959184	0.0555555555556
1335	0.6675	-2.2	16.8692307692	0.183673469388	0.0555555555556
1336	0.668	-3.65	-4.99615384615	1.61632653061	1.5
1337	0.6685	3.6	-0.623076923077	0.183673469388	-2.83333333333
1338	0.669	-3.65	0.834615384615	1.61632653061	-1.38888888889
1339	0.6695	-2.2	-0.623076923077	1.61632653061	11.6111111111
1340	0.67	-3.65	0.834615384615	-1.24897959184	13.0555555556
1341	0.6705	0.7	0.834615384615	14.5102040816	-1.38888888889
1342	0.671	-2.2	-2.08076923077	-4.11428571429	0.0555555555556
1343	0.6715	-0.75	-7.91153846154	4.48163265306	1.5
1344	0.672	-0.75	-7.91153846154	0.183673469388	-1.38888888889
1345	0.6725	-8.0	0.834615384615	1.61632653061	1.5
1346	0.673	-9.45	0.834615384615	1.61632653061	-7.16666666667
1347	0.6735	0.7	-0.623076923077	-1.24897959184	-10.0555555556
1348	0.674	0.7	-0.623076923077	-5.54693877551	2.94444444444
1349	0.6745	-2.2	-0.623076923077	18.8081632653	-1.38888888889
1350	0.675	-0.75	-4.99615384615	0.183673469388	0.0555555555556
1351	0.6755	-0.75	16.8692307692	0.183673469388	0.0555555555556
1352	0.676	-2.2	-0.623076923077	0.183673469388	0.0555555555556
1353	0.6765	18.1	-2.08076923077	0.183673469388	0.0555555555556
1354	0.677	-6.55	-0.623076923077	3.04897959184	5.83333333333
1355	0.6775	-0.75	-0.623076923077	4.48163265306	-10.0555555556
1356	0.678	-2.2	0.834615384615	-5.54693877551	-1.38888888889
1357	0.6785	-0.75	3.75	1.61632653061	-1.38888888889
1358	0.679	-0.75	-10.8269230769	0.183673469388	0.0555555555556
1359	0.6795	-0.75	-2.08076923077	0.183673469388	1.5
1360	0.68	5.05	-4.99615384615	3.04897959184	0.0555555555556
1361	0.6805	-2.2	-0.623076923077	0.183673469388	10.1666666667
1362	0.681	-0.75	0.834615384615	3.04897959184	1.5
1363	0.6815	0.7	-2.08076923077	-6.97959183673	0.0555555555556
1364	0.682	-0.75	0.834615384615	3.04897959184	0.0555555555556
1365	0.6825	-0.75	2.29230769231	-2.68163265306	0.0555555555556
1366	0.683	-2.2	-10.8269230769	0.183673469388	0.0555555555556
1367	0.6835	2.15	0.834615384615	3.04897959184	-2.83333333333
1368	0.684	-8.0	-0.623076923077	1.61632653061	2.94444444444
1369	0.6845	0.7	0.834615384615	4.48163265306	-5.72222222222
1370	0.685	-5.1	-0.623076923077	1.61632653061	0.0555555555556
1371	0.6855	0.7	0.834615384615	1.61632653061	-8.61111111111
1372	0.686	-2.2	-0.623076923077	-1.24897959184	0.0555555555556
1373	0.6865	-0.75	-3.53846153846	1.61632653061	0.0555555555556
1374	0.687	2.15	-0.623076923077	0.183673469388	0.0555555555556
1375	0.6875	-2.2	-6.45384615385	3.04897959184	0.0555555555556
1376	0.688	-6.55	0.834615384615	0.183673469388	1.5
1377	0.6885	-8.0	0.834615384615	1.61632653061	-4.27777777778
1378	0.689	-3.65	0.834615384615	-1.24897959184	0.0555555555556
1379	0.6895	0.7	-2.08076923077	0.183673469388	14.5
1380	0.69	0.7	0.834615384615	-1.24897959184	-7.16666666667
1381	0.6905	-0.75	-2.08076923077	14.5102040816	-2.83333333333
1382	0.691	-0.75	-4.99615384615	-1.24897959184	1.5
1383	0.6915	0.7	2.29230769231	0.183673469388	0.0555555555556
1384	0.692	12.3	-2.08076923077	0.183673469388	1.5
1385	0.6925	0.7	-0.623076923077	3.04897959184	0.0555555555556
1386	0.693	-0.75	0.834615384615	1.61632653061	-1.38888888889
1387	0.6935	-0.75	-0.623076923077	3.04897959184	-2.83333333333
1388	0.694	-0.75	-6.45384615385	0.183673469388	0.0555555555556
1389	0.6945	-0.75	3.75	0.183673469388	0.0555555555556
1390	0.695	-3.65	-4.99615384615	1.61632653061	0.0555555555556
1391	0.6955	-8.0	-0.623076923077	3.04897959184	1.5
1392	0.696	-2.2	-0.623076923077	3.04897959184	-2.83333333333
1393	0.6965	-0.75	0.834615384615	-1.24897959184	-10.0555555556
1394	0.697	-0.75	0.834615384615	-2.68163265306	0.0555555555556
1395	0.6975	-2.2	-0.623076923077	-4.11428571429	-2.83333333333
1396	0.698	-2.2	-6.45384615385	3.04897959184	0.0555555555556
1397	0.6985	-2.2	2.29230769231	1.61632653061	1.5
1398	0.699	-2.2	0.834615384615	1.61632653061	0.0555555555556
1399	0.6995	9.4	0.834615384615	0.183673469388	1.5
1400	0.7	-3.65	0.834615384615	3.04897959184	5.83333333333
1401	0.7005	0.7	0.834615384615	3.04897959184	5.83333333333
1402	0.701	0.7	-0.623076923077	-9.84489795918	0.0555555555556
1403	0.7015	-0.75	2.29230769231	11.6448979592	-2.83333333333
1404	0.702	-2.2	-2.08076923077	0.183673469388	0.0555555555556
1405	0.7025	-3.65	-2.08076923077	0.183673469388	2.94444444444
1406	0.703	-12.35	-2.08076923077	0.183673469388	0.0555555555556
1407	0.7035	18.1	0.834615384615	3.04897959184	-8.61111111111
1408	0.704	0.7	-0.623076923077	-1.24897959184	10.1666666667
1409	0.7045	-2.2	-0.623076923077	4.48163265306	-2.83333333333
1410	0.705	-0.75	0.834615384615	15.9428571429	0.0555555555556
1411	0.7055	0.7	-10.8269230769	0.183673469388	1.5
1412	0.706	0.7	19.7846153846	-1.24897959184	0.0555555555556
1413	0.7065	-5.1	-7.91153846154	-1.24897959184	1.5
1414	0.707	-0.75	0.834615384615	0.183673469388	2.94444444444
1415	0.7075	-6.55	-0.623076923077	-2.68163265306	8.72222222222
1416	0.708	0.7	-2.08076923077	-2.68163265306	-7.16666666667
1417	0.7085	-0.75	-0.623076923077	5.91428571429	0.0555555555556
1418	0.709	-0.75	-0.623076923077	-1.24897959184	0.0555555555556
1419	0.7095	-3.65	-9.36923076923	1.61632653061	2.94444444444
1420	0.71	-0.75	11.0384615385	3.04897959184	-2.83333333333
1421	0.7105	-15.25	0.834615384615	1.61632653061	0.0555555555556
1422	0.711	18.1	-0.623076923077	1.61632653061	4.38888888889
1423	0.7115	-15.25	-2.08076923077	3.04897959184	20.2777777778
1424	0.712	-2.2	-0.623076923077	3.04897959184	-8.61111111111
1425	0.7125	-0.75	-2.08076923077	-9.84489795918	-1.38888888889
1426	0.713	-0.75	2.29230769231	1.61632653061	4.38888888889
1427	0.7135	0.7	18.3269230769	0.183673469388	0.0555555555556
1428	0.714	-5.1	-9.36923076923	-1.24897959184	4.38888888889
1429	0.7145	0.7	2.29230769231	-1.24897959184	-2.83333333333
1430	0.715	16.65	0.834615384615	0.183673469388	2.94444444444
1431	0.7155	-3.65	-0.623076923077	3.04897959184	-11.5
1432	0.716	0.7	-0.623076923077	-9.84489795918	0.0555555555556
1433	0.7165	-2.2	0.834615384615	-9.84489795918	0.0555555555556
1434	0.717	-0.75	-0.623076923077	15.9428571429	0.0555555555556
1435	0.7175	-0.75	8.12307692308	0.183673469388	0.0555555555556
1436	0.718	-2.2	-2.08076923077	3.04897959184	0.0555555555556
1437	0.7185	-5.1	-0.623076923077	0.183673469388	2.94444444444
1438	0.719	2.15	0.834615384615	0.183673469388	-5.72222222222
1439	0.7195	-0.75	0.834615384615	-1.24897959184	10.1666666667
1440	0.72	-2.2	0.834615384615	14.5102040816	-1.38888888889
1441	0.7205	-0.75	-2.08076923077	-1.24897959184	0.0555555555556
1442	0.721	-2.2	0.834615384615	0.183673469388	0.0555555555556
1443	0.7215	-3.65	-7.91153846154	-1.24897959184	0.0555555555556
1444	0.722	0.7	-0.623076923077	1.61632653061	0.0555555555556
1445	0.7225	-9.45	-0.623076923077	0.183673469388	0.0555555555556
1446	0.723	-2.2	-2.08076923077	1.61632653061	0.0555555555556
1447	0.7235	-3.65	0.834615384615	-1.24897959184	2.94444444444
1448	0.724	-2.2	0.834615384615	5.91428571429	0.0555555555556
1449	0.7245	-0.75	0.834615384615	-1.24897959184	0.0555555555556
1450	0.725	-0.75	-0.623076923077	-1.24897959184	0.0555555555556
1451	0.7255	-0.75	-4.99615384615	0.183673469388	0.0555555555556
1452	0.726	-5.1	-0.623076923077	0.183673469388	1.5
1453	0.7265	-3.65	-0.623076923077	0.183673469388	0.0555555555556
1454	0.727	0.7	0.834615384615	3.04897959184	1.5
1455	0.7275	-0.75	-0.623076923077	-1.24897959184	-7.16666666667
1456	0.728	0.7	-0.623076923077	3.04897959184	4.38888888889
1457	0.7285	0.7	-6.45384615385	1.61632653061	0.0555555555556
1458	0.729	2.15	6.66538461538	1.61632653061	1.5
1459	0.7295	0.7	-4.99615384615	1.61632653061	0.0555555555556
1460	0.73	0.7	-0.623076923077	0.183673469388	0.0555555555556
1461	0.7305	16.65	-0.623076923077	1.61632653061	0.0555555555556
1462	0.731	0.7	0.834615384615	1.61632653061	18.8333333333
1463	0.7315	-0.75	0.834615384615	3.04897959184	-10.0555555556
1464	0.732	2.15	2.29230769231	-9.84489795918	-1.38888888889
1465	0.7325	-3.65	-12.2846153846	0.183673469388	0.0555555555556
1466	0.733	0.7	-10.8269230769	4.48163265306	1.5
1467	0.7335	-3.65	-3.53846153846	1.61632653061	0.0555555555556
1468	0.734	-13.8	-0.623076923077	1.61632653061	-1.38888888889
1469	0.7345	-2.2	0.834615384615	-1.24897959184	-4.27777777778
1470	0.735	-3.65	0.834615384615	-9.84489795918	-1.38888888889
1471	0.7355	-0.75	2.29230769231	18.8081632653	0.0555555555556
1472	0.736	-5.1	-0.623076923077	-6.97959183673	0.0555555555556
1473	0.7365	2.15	3.75	3.04897959184	0.0555555555556
1474	0.737	-3.65	-7.91153846154	1.61632653061	0.0555555555556
1475	0.7375	-2.2	0.834615384615	-1.24897959184	1.5
1476	0.738	0.7	0.834615384615	0.183673469388	-1.38888888889
1477	0.7385	-5.1	-0.623076923077	-2.68163265306	5.83333333333
1478	0.739	-2.2	-2.08076923077	4.48163265306	0.0555555555556
1479	0.7395	-0.75	-3.53846153846	-5.54693877551	0.0555555555556
1480	0.74	-0.75	2.29230769231	-1.24897959184	-1.38888888889
1481	0.7405	-2.2	13.9538461538	0.183673469388	-1.38888888889
1482	0.741	-2.2	-6.45384615385	-1.24897959184	-1.38888888889
1483	0.7415	19.55	0.834615384615	0.183673469388	0.0555555555556
1484	0.742	-8.0	0.834615384615	0.183673469388	10.1666666667
1485	0.7425	-0.75	0.834615384615	-6.97959183673	-2.83333333333
1486	0.743	-2.2	0.834615384615	11.6448979592	0.0555555555556
1487	0.7435	-0.75	6.66538461538	-6.97959183673	1.5
1488	0.744	2.15	18.3269230769	-2.68163265306	-1.38888888889
1489	0.7445	-0.75	-7.91153846154	-1.24897959184	-1.38888888889
1490	0.745	-3.65	-0.623076923077	0.183673469388	1.5
1491	0.7455	-3.65	-2.08076923077	0.183673469388	5.83333333333
1492	0.746	0.7	0.834615384615	0.183673469388	-10.0555555556
1493	0.7465	-0.75	-2.08076923077	-2.68163265306	17.3888888889
1494	0.747	-0.75	-0.623076923077	1.61632653061	1.5
1495	0.7475	0.7	-6.45384615385	0.183673469388	0.0555555555556
1496	0.748	-0.75	13.9538461538	-1.24897959184	-1.38888888889
1497	0.7485	-0.75	0.834615384615	0.183673469388	1.5
1498	0.749	-6.55	-0.623076923077	1.61632653061	0.0555555555556
1499	0.7495	-0.75	-2.08076923077	0.183673469388	-2.83333333333
1500	0.75	-0.75	-2.08076923077	-4.11428571429	-4.27777777778
1501	0.7505	-3.65	0.834615384615	8.77959183673	0.0555555555556
1502	0.751	-2.2	-2.08076923077	-1.24897959184	0.0555555555556
1503	0.7515	0.7	15.4115384615	-1.24897959184	1.5
1504	0.752	-2.2	-0.623076923077	0.183673469388	1.5
1505	0.7525	-16.7	0.834615384615	-1.24897959184	1.5
1506	0.753	18.1	-0.623076923077	-1.24897959184	-7.16666666667
1507	0.7535	-2.2	0.834615384615	1.61632653061	8.72222222222
1508	0.754	-0.75	0.834615384615	-2.68163265306	-5.72222222222
1509	0.7545	0.7	-0.623076923077	-4.11428571429	2.94444444444
1510	0.755	0.7	-2.08076923077	3.04897959184	0.0555555555556
1511	0.7555	-0.75	0.834615384615	-1.24897959184	0.0555555555556
1512	0.756	-0.75	-3.53846153846	3.04897959184	0.0555555555556
1513	0.7565	3.6	0.834615384615	-1.24897959184	2.94444444444
1514	0.757	-3.65	-0.623076923077	0.183673469388	1.5
1515	0.7575	0.7	-3.53846153846	1.61632653061	-4.27777777778
1516	0.758	0.7	-2.08076923077	-6.97959183673	8.72222222222
1517	0.7585	-2.2	-0.623076923077	3.04897959184	-8.61111111111
1518	0.759	0.7	6.66538461538	0.183673469388	0.0555555555556
1519	0.7595	0.7	-4.99615384615	4.48163265306	0.0555555555556
1520	0.76	-9.45	-0.623076923077	0.183673469388	2.94444444444
1521	0.7605	-2.2	0.834615384615	3.04897959184	-7.16666666667
1522	0.761	-5.1	-0.623076923077	0.183673469388	-1.38888888889
1523	0.7615	-2.2	-2.08076923077	4.48163265306	15.9444444444
1524	0.762	-2.2	0.834615384615	-6.97959183673	0.0555555555556
1525	0.7625	-3.65	0.834615384615	-6.97959183673	2.94444444444
1526	0.763	0.7	-10.8269230769	1.61632653061	0.0555555555556
1527	0.7635	-2.2	16.8692307692	0.183673469388	-1.38888888889
1528	0.764	16.65	-2.08076923077	0.183673469388	0.0555555555556
1529	0.7645	-8.0	-2.08076923077	0.183673469388	5.83333333333
1530	0.765	0.7	0.834615384615	-4.11428571429	-5.72222222222
1531	0.7655	0.7	-0.623076923077	11.6448979592	-2.83333333333
1532	0.766	0.7	-3.53846153846	0.183673469388	0.0555555555556
1533	0.7665	0.7	2.29230769231	-1.24897959184	-1.38888888889
1534	0.767	5.05	0.834615384615	0.183673469388	-2.83333333333
1535	0.7675	16.65	0.834615384615	1.61632653061	2.94444444444
1536	0.768	-9.45	-2.08076923077	3.04897959184	13.0555555556
1537	0.7685	0.7	-0.623076923077	4.48163265306	-7.16666666667
1538	0.769	-0.75	-2.08076923077	-12.7102040816	0.0555555555556
1539	0.7695	0.7	0.834615384615	-6.97959183673	0.0555555555556
1540	0.77	0.7	-4.99615384615	0.183673469388	-2.83333333333
1541	0.7705	0.7	-6.45384615385	4.48163265306	-1.38888888889
1542	0.771	0.7	-3.53846153846	3.04897959184	0.0555555555556
1543	0.7715	-0.75	-0.623076923077	-1.24897959184	0.0555555555556
1544	0.772	-0.75	0.834615384615	0.183673469388	14.5
1545	0.7725	-0.75	0.834615384615	-2.68163265306	-1.38888888889
1546	0.773	-0.75	-0.623076923077	7.34693877551	0.0555555555556
1547	0.7735	-0.75	0.834615384615	-5.54693877551	1.5
1548	0.774	0.7	-3.53846153846	0.183673469388	1.5
1549	0.7745	0.7	-6.45384615385	1.61632653061	1.5
1550	0.775	-5.1	0.834615384615	0.183673469388	-2.83333333333
1551	0.7755	5.05	0.834615384615	1.61632653061	-1.38888888889
1552	0.776	-10.9	2.29230769231	3.04897959184	17.3888888889
1553	0.7765	2.15	-0.623076923077	3.04897959184	-10.0555555556
1554	0.777	-0.75	-2.08076923077	-5.54693877551	1.5
1555	0.7775	0.7	0.834615384615	1.61632653061	0.0555555555556
1556	0.778	0.7	13.9538461538	0.183673469388	1.5
1557	0.7785	-0.75	-7.91153846154	3.04897959184	0.0555555555556
1558	0.779	-3.65	-0.623076923077	1.61632653061	0.0555555555556
1559	0.7795	16.65	-0.623076923077	0.183673469388	1.5
1560	0.78	-2.2	0.834615384615	4.48163265306	0.0555555555556
1561	0.7805	0.7	0.834615384615	17.3755102041	0.0555555555556
1562	0.781	-5.1	-0.623076923077	-8.41224489796	-1.38888888889
1563	0.7815	-2.2	0.834615384615	1.61632653061	0.0555555555556
1564	0.782	-0.75	-2.08076923077	-1.24897959184	0.0555555555556
1565	0.7825	-9.45	2.29230769231	0.183673469388	0.0555555555556
1566	0.783	3.6	-2.08076923077	1.61632653061	2.94444444444
1567	0.7835	-5.1	-2.08076923077	3.04897959184	-11.5
1568	0.784	-0.75	0.834615384615	-9.84489795918	0.0555555555556
1569	0.7845	-0.75	-0.623076923077	14.5102040816	-2.83333333333
1570	0.785	0.7	-0.623076923077	0.183673469388	0.0555555555556
1571	0.7855	0.7	-6.45384615385	0.183673469388	-1.38888888889
1572	0.786	0.7	11.0384615385	3.04897959184	1.5
1573	0.7865	-2.2	-0.623076923077	0.183673469388	-1.38888888889
1574	0.787	-6.55	0.834615384615	3.04897959184	0.0555555555556
1575	0.7875	-2.2	0.834615384615	0.183673469388	-4.27777777778
1576	0.788	-2.2	-0.623076923077	0.183673469388	0.0555555555556
1577	0.7885	-0.75	-0.623076923077	3.04897959184	0.0555555555556
1578	0.789	0.7	2.29230769231	0.183673469388	1.5
1579	0.7895	-2.2	-3.53846153846	1.61632653061	1.5
1580	0.79	5.05	-2.08076923077	1.61632653061	1.5
1581	0.7905	-13.8	0.834615384615	1.61632653061	2.94444444444
1582	0.791	-8.0	-0.623076923077	3.04897959184	-8.61111111111
1583	0.7915	-2.2	0.834615384615	-2.68163265306	13.0555555556
1584	0.792	-2.2	3.75	13.0775510204	0.0555555555556
1585	0.7925	-2.2	-3.53846153846	-1.24897959184	1.5
1586	0.793	-0.75	-15.2	3.04897959184	0.0555555555556
1587	0.7935	0.7	11.0384615385	0.183673469388	0.0555555555556
1588	0.794	-13.8	0.834615384615	-1.24897959184	1.5
1589	0.7945	0.7	-0.623076923077	1.61632653061	-7.16666666667
1590	0.795	-5.1	-0.623076923077	0.183673469388	4.38888888889
1591	0.7955	-0.75	-0.623076923077	-5.54693877551	-5.72222222222
1592	0.796	-0.75	2.29230769231	3.04897959184	-5.72222222222
1593	0.7965	-0.75	-10.8269230769	1.61632653061	-1.38888888889
1594	0.797	2.15	9.58076923077	1.61632653061	0.0555555555556
1595	0.7975	-5.1	-2.08076923077	1.61632653061	1.5
1596	0.798	-13.8	-2.08076923077	3.04897959184	-4.27777777778
1597	0.7985	12.3	0.834615384615	1.61632653061	-7.16666666667
1598	0.799	0.7	0.834615384615	0.183673469388	2.94444444444
1599	0.7995	0.7	-2.08076923077	-9.84489795918	5.83333333333
1600	0.8	-0.75	2.29230769231	3.04897959184	0.0555555555556
1601	0.8005	0.7	-7.91153846154	-2.68163265306	-1.38888888889
1602	0.801	0.7	6.66538461538	1.61632653061	0.0555555555556
1603	0.8015	-0.75	-9.36923076923	0.183673469388	1.5
1604	0.802	-0.75	-0.623076923077	0.183673469388	2.94444444444
1605	0.8025	-8.0	-0.623076923077	0.183673469388	1.5
1606	0.803	-2.2	-2.08076923077	4.48163265306	-10.0555555556
1607	0.8035	-0.75	-0.623076923077	-8.41224489796	-1.38888888889
1608	0.804	-0.75	0.834615384615	-6.97959183673	0.0555555555556
1609	0.8045	-0.75	2.29230769231	-1.24897959184	0.0555555555556
1610	0.805	2.15	-10.8269230769	0.183673469388	-1.38888888889
1611	0.8055	-0.75	19.7846153846	0.183673469388	-1.38888888889
1612	0.806	-10.9	-2.08076923077	0.183673469388	-1.38888888889
1613	0.8065	-0.75	-2.08076923077	-2.68163265306	-1.38888888889
1614	0.807	-2.2	-0.623076923077	-6.97959183673	-5.72222222222
1615	0.8075	-2.2	0.834615384615	11.6448979592	0.0555555555556
1616	0.808	-0.75	-2.08076923077	-1.24897959184	0.0555555555556
1617	0.8085	-2.2	-6.45384615385	0.183673469388	2.94444444444
1618	0.809	0.7	6.66538461538	4.48163265306	0.0555555555556
1619	0.8095	-9.45	-0.623076923077	-1.24897959184	0.0555555555556
1620	0.81	5.05	-3.53846153846	0.183673469388	-4.27777777778
1621	0.8105	-5.1	0.834615384615	-1.24897959184	0.0555555555556
1622	0.811	-2.2	-2.08076923077	3.04897959184	-2.83333333333
1623	0.8115	-0.75	0.834615384615	11.6448979592	0.0555555555556
1624	0.812	2.15	3.75	3.04897959184	0.0555555555556
1625	0.8125	-0.75	13.9538461538	-1.24897959184	-2.83333333333
1626	0.813	-5.1	-3.53846153846	0.183673469388	0.0555555555556
1627	0.8135	2.15	-0.623076923077	1.61632653061	-1.38888888889
1628	0.814	16.65	-0.623076923077	1.61632653061	2.94444444444
1629	0.8145	-5.1	0.834615384615	4.48163265306	1.5
1630	0.815	0.7	-3.53846153846	-8.41224489796	0.0555555555556
1631	0.8155	0.7	0.834615384615	7.34693877551	13.0555555556
1632	0.816	-0.75	-10.8269230769	1.61632653061	0.0555555555556
1633	0.8165	-2.2	21.2423076923	1.61632653061	1.5
1634	0.817	-0.75	-0.623076923077	1.61632653061	-1.38888888889
1635	0.8175	-2.2	-0.623076923077	0.183673469388	0.0555555555556
1636	0.818	10.85	0.834615384615	3.04897959184	-4.27777777778
1637	0.8185	0.7	0.834615384615	3.04897959184	0.0555555555556
1638	0.819	-0.75	-0.623076923077	5.91428571429	2.94444444444
1639	0.8195	-2.2	-2.08076923077	3.04897959184	0.0555555555556
1640	0.82	-2.2	-10.8269230769	-4.11428571429	0.0555555555556
1641	0.8205	3.6	-3.53846153846	-1.24897959184	1.5
1642	0.821	3.6	-2.08076923077	4.48163265306	2.94444444444
1643	0.8215	-15.25	0.834615384615	3.04897959184	1.5
1644	0.822	-5.1	-2.08076923077	3.04897959184	-8.61111111111
1645	0.8225	-0.75	0.834615384615	-1.24897959184	13.0555555556
1646	0.823	-0.75	0.834615384615	18.8081632653	0.0555555555556
1647	0.8235	-0.75	-2.08076923077	0.183673469388	0.0555555555556
1648	0.824	0.7	-12.2846153846	0.183673469388	0.0555555555556
1649	0.8245	0.7	13.9538461538	3.04897959184	0.0555555555556
1650	0.825	-13.8	-0.623076923077	1.61632653061	5.83333333333
1651	0.8255	-5.1	-0.623076923077	4.48163265306	-10.0555555556
1652	0.826	-5.1	-2.08076923077	0.183673469388	1.5
1653	0.8265	0.7	0.834615384615	-8.41224489796	-1.38888888889
1654	0.827	-0.75	0.834615384615	17.3755102041	0.0555555555556
1655	0.8275	0.7	-3.53846153846	-1.24897959184	0.0555555555556
1656	0.828	0.7	-7.91153846154	1.61632653061	2.94444444444
1657	0.8285	3.6	-0.623076923077	-1.24897959184	1.5
1658	0.829	-12.35	-0.623076923077	-1.24897959184	-4.27777777778
1659	0.8295	19.55	-0.623076923077	0.183673469388	-10.0555555556
1660	0.83	-3.65	0.834615384615	-1.24897959184	17.3888888889
1661	0.8305	-2.2	-0.623076923077	3.04897959184	-4.27777777778
1662	0.831	-0.75	-2.08076923077	-6.97959183673	1.5
1663	0.8315	-0.75	-2.08076923077	0.183673469388	2.94444444444
1664	0.832	-0.75	16.8692307692	1.61632653061	1.5
1665	0.8325	-2.2	-9.36923076923	-1.24897959184	1.5
1666	0.833	10.85	-0.623076923077	0.183673469388	2.94444444444
1667	0.8335	-6.55	0.834615384615	0.183673469388	-5.72222222222
1668	0.834	-0.75	-0.623076923077	3.04897959184	-5.72222222222
1669	0.8345	-2.2	0.834615384615	-1.24897959184	-1.38888888889
1670	0.835	-5.1	-7.91153846154	0.183673469388	0.0555555555556
1671	0.8355	-0.75	8.12307692308	1.61632653061	0.0555555555556
1672	0.836	-3.65	-0.623076923077	0.183673469388	1.5
1673	0.8365	3.6	0.834615384615	0.183673469388	-1.38888888889
1674	0.837	18.1	0.834615384615	1.61632653061	5.83333333333
1675	0.8375	0.7	-0.623076923077	5.91428571429	-5.72222222222
1676	0.838	0.7	0.834615384615	-9.84489795918	-1.38888888889
1677	0.8385	-0.75	0.834615384615	-9.84489795918	-1.38888888889
1678	0.839	0.7	-12.2846153846	0.183673469388	2.94444444444
1679	0.8395	-0.75	-6.45384615385	0.183673469388	0.0555555555556
1680	0.84	3.6	-0.623076923077	0.183673469388	0.0555555555556
1681	0.8405	-13.8	0.834615384615	0.183673469388	1.5
1682	0.841	-8.0	-0.623076923077	1.61632653061	-11.5
1683	0.8415	0.7	0.834615384615	-2.68163265306	-8.61111111111
1684	0.842	0.7	0.834615384615	-5.54693877551	0.0555555555556
1685	0.8425	-0.75	-0.623076923077	0.183673469388	0.0555555555556
1686	0.843	-2.2	3.75	1.61632653061	1.5
1687	0.8435	-2.2	0.834615384615	0.183673469388	-1.38888888889
1688	0.844	0.7	-2.08076923077	1.61632653061	-2.83333333333
1689	0.8445	2.15	0.834615384615	0.183673469388	1.5
1690	0.845	-5.1	2.29230769231	-2.68163265306	-5.72222222222
1691	0.8455	-0.75	2.29230769231	13.0775510204	-2.83333333333
1692	0.846	-2.2	-3.53846153846	0.183673469388	0.0555555555556
1693	0.8465	0.7	-10.8269230769	-2.68163265306	0.0555555555556
1694	0.847	-0.75	18.3269230769	-1.24897959184	0.0555555555556
1695	0.8475	-3.65	-2.08076923077	0.183673469388	0.0555555555556
1696	0.848	16.65	-0.623076923077	1.61632653061	0.0555555555556
1697	0.8485	-9.45	0.834615384615	1.61632653061	0.0555555555556
1698	0.849	-0.75	-2.08076923077	1.61632653061	-1.38888888889
1699	0.8495	-2.2	-0.623076923077	3.04897959184	-1.38888888889
1700	0.85	-0.75	2.29230769231	1.61632653061	0.0555555555556
1701	0.8505	-3.65	9.58076923077	4.48163265306	0.0555555555556
1702	0.851	-3.65	-3.53846153846	1.61632653061	-1.38888888889
1703	0.8515	18.1	2.29230769231	1.61632653061	1.5
1704	0.852	-10.9	-0.623076923077	3.04897959184	-11.5
1705	0.8525	-2.2	-0.623076923077	0.183673469388	-7.16666666667
1706	0.853	0.7	-0.623076923077	-8.41224489796	1.5
1707	0.8535	-2.2	-0.623076923077	-1.24897959184	0.0555555555556
1708	0.854	-2.2	-6.45384615385	0.183673469388	0.0555555555556
1709	0.8545	-2.2	11.0384615385	3.04897959184	0.0555555555556
1710	0.855	0.7	0.834615384615	1.61632653061	1.5
1711	0.8555	3.6	-0.623076923077	1.61632653061	0.0555555555556
1712	0.856	-3.65	-0.623076923077	5.91428571429	-4.27777777778
1713	0.8565	-2.2	-2.08076923077	-9.84489795918	0.0555555555556
1714	0.857	-3.65	0.834615384615	-5.54693877551	-1.38888888889
1715	0.8575	-2.2	0.834615384615	0.183673469388	-1.38888888889
1716	0.858	0.7	-3.53846153846	0.183673469388	0.0555555555556
1717	0.8585	-0.75	-4.99615384615	0.183673469388	1.5
1718	0.859	10.85	-2.08076923077	1.61632653061	0.0555555555556
1719	0.8595	-2.2	0.834615384615	3.04897959184	1.5
1720	0.86	-3.65	-2.08076923077	-1.24897959184	0.0555555555556
1721	0.8605	-3.65	0.834615384615	14.5102040816	0.0555555555556
1722	0.861	-0.75	-3.53846153846	0.183673469388	0.0555555555556
1723	0.8615	0.7	-10.8269230769	3.04897959184	-1.38888888889
1724	0.862	0.7	-7.91153846154	4.48163265306	1.5
1725	0.8625	3.6	-2.08076923077	0.183673469388	-1.38888888889
1726	0.863	-10.9	-2.08076923077	1.61632653061	1.5
1727	0.8635	-0.75	0.834615384615	0.183673469388	-1.38888888889
1728	0.864	-0.75	-0.623076923077	4.48163265306	17.3888888889
1729	0.8645	-0.75	-2.08076923077	15.9428571429	-1.38888888889
1730	0.865	-0.75	0.834615384615	-6.97959183673	1.5
1731	0.8655	-2.2	-10.8269230769	-1.24897959184	0.0555555555556
1732	0.866	-2.2	-10.8269230769	3.04897959184	0.0555555555556
1733	0.8665	-10.9	0.834615384615	1.61632653061	0.0555555555556
1734	0.867	-9.45	0.834615384615	3.04897959184	-11.5
1735	0.8675	-3.65	-0.623076923077	0.183673469388	-8.61111111111
1736	0.868	-3.65	0.834615384615	-6.97959183673	-1.38888888889
1737	0.8685	-0.75	3.75	17.3755102041	0.0555555555556
1738	0.869	-3.65	-13.7423076923	0.183673469388	0.0555555555556
1739	0.8695	2.15	-4.99615384615	0.183673469388	1.5
1740	0.87	2.15	-2.08076923077	0.183673469388	2.94444444444
1741	0.8705	-13.8	-0.623076923077	1.61632653061	4.38888888889
1742	0.871	-9.45	-0.623076923077	0.183673469388	-10.0555555556
1743	0.8715	-0.75	-2.08076923077	0.183673469388	-2.83333333333
1744	0.872	-2.2	0.834615384615	-2.68163265306	0.0555555555556
1745	0.8725	-3.65	5.20769230769	-1.24897959184	0.0555555555556
1746	0.873	-5.1	-10.8269230769	-1.24897959184	0.0555555555556
1747	0.8735	-2.2	-9.36923076923	3.04897959184	-1.38888888889
1748	0.874	-2.2	-3.53846153846	0.183673469388	1.5
1749	0.8745	16.65	2.29230769231	0.183673469388	-2.83333333333
1750	0.875	-8.0	-2.08076923077	-1.24897959184	2.94444444444
1751	0.8755	-2.2	-0.623076923077	5.91428571429	-5.72222222222
1752	0.876	-0.75	-4.99615384615	-6.97959183673	-1.38888888889
1753	0.8765	-3.65	0.834615384615	0.183673469388	1.5
1754	0.877	-0.75	-3.53846153846	0.183673469388	0.0555555555556
1755	0.8775	-3.65	-2.08076923077	-2.68163265306	1.5
1756	0.878	-13.8	-2.08076923077	-1.24897959184	-1.38888888889
1757	0.8785	16.65	-2.08076923077	0.183673469388	-10.0555555556
1758	0.879	-3.65	2.29230769231	-1.24897959184	18.8333333333
1759	0.8795	-2.2	0.834615384615	4.48163265306	0.0555555555556
1760	0.88	-0.75	0.834615384615	18.8081632653	0.0555555555556
1761	0.8805	-0.75	0.834615384615	0.183673469388	0.0555555555556
1762	0.881	-3.65	18.3269230769	0.183673469388	1.5
1763	0.8815	-0.75	-13.7423076923	0.183673469388	0.0555555555556
1764	0.882	-15.25	-0.623076923077	0.183673469388	1.5
1765	0.8825	-10.9	-0.623076923077	3.04897959184	-8.61111111111
1766	0.883	-2.2	-2.08076923077	0.183673469388	-10.0555555556
1767	0.8835	-3.65	2.29230769231	13.0775510204	-2.83333333333
1768	0.884	-3.65	-2.08076923077	-2.68163265306	0.0555555555556
1769	0.8845	-0.75	-10.8269230769	3.04897959184	0.0555555555556
1770	0.885	-2.2	8.12307692308	0.183673469388	1.5
1771	0.8855	-0.75	-0.623076923077	1.61632653061	-1.38888888889
1772	0.886	16.65	0.834615384615	0.183673469388	0.0555555555556
1773	0.8865	-8.0	-0.623076923077	3.04897959184	4.38888888889
1774	0.887	-3.65	0.834615384615	5.91428571429	-5.72222222222
1775	0.8875	-0.75	-0.623076923077	-4.11428571429	0.0555555555556
1776	0.888	-0.75	2.29230769231	-1.24897959184	-1.38888888889
1777	0.8885	-2.2	-10.8269230769	3.04897959184	-1.38888888889
1778	0.889	0.7	-3.53846153846	0.183673469388	0.0555555555556
1779	0.8895	-12.35	-0.623076923077	1.61632653061	1.5
1780	0.89	7.95	0.834615384615	0.183673469388	-1.38888888889
1781	0.8905	-5.1	0.834615384615	-2.68163265306	2.94444444444
1782	0.891	0.7	-0.623076923077	0.183673469388	-1.38888888889
1783	0.8915	0.7	-0.623076923077	7.34693877551	0.0555555555556
1784	0.892	0.7	0.834615384615	1.61632653061	-1.38888888889
1785	0.8925	-2.2	-6.45384615385	-1.24897959184	-1.38888888889
1786	0.893	0.7	16.8692307692	0.183673469388	0.0555555555556
1787	0.8935	-10.9	-0.623076923077	0.183673469388	0.0555555555556
1788	0.894	19.55	0.834615384615	0.183673469388	-1.38888888889
1789	0.8945	-10.9	-2.08076923077	1.61632653061	1.5
1790	0.895	0.7	-2.08076923077	3.04897959184	-2.83333333333
1791	0.8955	-2.2	0.834615384615	-1.24897959184	0.0555555555556
1792	0.896	-0.75	2.29230769231	-2.68163265306	-2.83333333333
1793	0.8965	-0.75	-9.36923076923	1.61632653061	1.5
1794	0.897	-0.75	2.29230769231	0.183673469388	0.0555555555556
1795	0.8975	-10.9	0.834615384615	0.183673469388	1.5
1796	0.898	12.3	0.834615384615	0.183673469388	1.5
1797	0.8985	-2.2	-0.623076923077	1.61632653061	-4.27777777778
1798	0.899	-0.75	0.834615384615	14.5102040816	-1.38888888889
1799	0.8995	-2.2	-2.08076923077	-1.24897959184	0.0555555555556
1800	0.9	-3.65	2.29230769231	-1.24897959184	1.5
1801	0.9005	-0.75	-9.36923076923	4.48163265306	-1.38888888889
1802	0.901	5.05	0.834615384615	1.61632653061	-2.83333333333
1803	0.9015	10.85	0.834615384615	0.183673469388	1.5
1804	0.902	-2.2	0.834615384615	1.61632653061	8.72222222222
1805	0.9025	-2.2	2.29230769231	5.91428571429	0.0555555555556
1806	0.903	-3.65	-2.08076923077	-6.97959183673	0.0555555555556
1807	0.9035	0.7	0.834615384615	7.34693877551	0.0555555555556
1808	0.904	-3.65	-4.99615384615	-5.54693877551	0.0555555555556
1809	0.9045	0.7	-2.08076923077	0.183673469388	0.0555555555556
1810	0.905	-2.2	-7.91153846154	3.04897959184	-2.83333333333
1811	0.9055	-13.8	0.834615384615	0.183673469388	1.5
1812	0.906	19.55	-0.623076923077	-1.24897959184	0.0555555555556
1813	0.9065	-2.2	-0.623076923077	4.48163265306	-2.83333333333
1814	0.907	-0.75	-0.623076923077	14.5102040816	2.94444444444
1815	0.9075	0.7	-0.623076923077	5.91428571429	0.0555555555556
1816	0.908	-0.75	-0.623076923077	13.0775510204	0.0555555555556
1817	0.9085	0.7	-3.53846153846	1.61632653061	0.0555555555556
1818	0.909	-0.75	-6.45384615385	-1.24897959184	0.0555555555556
1819	0.9095	-0.75	16.8692307692	0.183673469388	1.5
1820	0.91	12.3	2.29230769231	1.61632653061	1.5
1821	0.9105	-10.9	0.834615384615	4.48163265306	5.83333333333
1822	0.911	-3.65	0.834615384615	-9.84489795918	-2.83333333333
1823	0.9115	0.7	2.29230769231	-2.68163265306	0.0555555555556
1824	0.912	0.7	0.834615384615	-6.97959183673	0.0555555555556
1825	0.9125	0.7	-2.08076923077	1.61632653061	0.0555555555556
1826	0.913	-2.2	11.0384615385	-1.24897959184	1.5
1827	0.9135	-0.75	-9.36923076923	1.61632653061	0.0555555555556
1828	0.914	18.1	0.834615384615	0.183673469388	2.94444444444
1829	0.9145	-8.0	-0.623076923077	3.04897959184	1.5
1830	0.915	-0.75	-0.623076923077	4.48163265306	-4.27777777778
1831	0.9155	0.7	-0.623076923077	-11.2775510204	-4.27777777778
1832	0.916	0.7	2.29230769231	0.183673469388	1.5
1833	0.9165	-2.2	-10.8269230769	-1.24897959184	1.5
1834	0.917	0.7	-2.08076923077	0.183673469388	1.5
1835	0.9175	2.15	-0.623076923077	-1.24897959184	1.5
1836	0.918	-2.2	-0.623076923077	3.04897959184	8.72222222222
1837	0.9185	0.7	0.834615384615	4.48163265306	4.38888888889
1838	0.919	-2.2	-2.08076923077	-8.41224489796	5.83333333333
1839	0.9195	2.15	-0.623076923077	7.34693877551	1.5
1840	0.92	-0.75	-0.623076923077	-4.11428571429	0.0555555555556
1841	0.9205	2.15	-6.45384615385	0.183673469388	0.0555555555556
1842	0.921	-0.75	-0.623076923077	1.61632653061	0.0555555555556
1843	0.9215	2.15	0.834615384615	1.61632653061	-1.38888888889
1844	0.922	-5.1	0.834615384615	0.183673469388	-5.72222222222
1845	0.9225	2.15	-0.623076923077	0.183673469388	-10.0555555556
1846	0.923	-0.75	-0.623076923077	-8.41224489796	0.0555555555556
1847	0.9235	-0.75	0.834615384615	18.8081632653	0.0555555555556
1848	0.924	-0.75	-2.08076923077	-1.24897959184	0.0555555555556
1849	0.9245	2.15	16.8692307692	1.61632653061	0.0555555555556
1850	0.925	-0.75	-0.623076923077	1.61632653061	0.0555555555556
1851	0.9255	-9.45	0.834615384615	1.61632653061	1.5
1852	0.926	-6.55	-2.08076923077	3.04897959184	-7.16666666667
1853	0.9265	-0.75	-0.623076923077	-1.24897959184	-8.61111111111
1854	0.927	0.7	-2.08076923077	-8.41224489796	1.5
1855	0.9275	-2.2	2.29230769231	20.2408163265	-4.27777777778
1856	0.928	0.7	-0.623076923077	-6.97959183673	-2.83333333333
1857	0.9285	0.7	3.75	1.61632653061	1.5
1858	0.929	2.15	-0.623076923077	1.61632653061	-1.38888888889
1859	0.9295	18.1	-0.623076923077	0.183673469388	2.94444444444
1860	0.93	-5.1	0.834615384615	3.04897959184	14.5
1861	0.9305	-0.75	0.834615384615	3.04897959184	-2.83333333333
1862	0.931	0.7	-2.08076923077	-11.2775510204	0.0555555555556
1863	0.9315	-3.65	2.29230769231	-2.68163265306	1.5
1864	0.932	-0.75	-3.53846153846	1.61632653061	0.0555555555556
1865	0.9325	0.7	8.12307692308	1.61632653061	0.0555555555556
1866	0.933	-0.75	-10.8269230769	0.183673469388	0.0555555555556
1867	0.9335	-2.2	0.834615384615	1.61632653061	0.0555555555556
1868	0.934	-8.0	0.834615384615	1.61632653061	0.0555555555556
1869	0.9345	-0.75	-0.623076923077	1.61632653061	0.0555555555556
1870	0.935	0.7	0.834615384615	14.5102040816	4.38888888889
1871	0.9355	-0.75	2.29230769231	1.61632653061	0.0555555555556
1872	0.936	-0.75	-2.08076923077	0.183673469388	1.5
1873	0.9365	-0.75	16.8692307692	-1.24897959184	-1.38888888889
1874	0.937	-2.2	0.834615384615	-2.68163265306	-1.38888888889
1875	0.9375	13.75	0.834615384615	1.61632653061	-1.38888888889
1876	0.938	-0.75	0.834615384615	-1.24897959184	18.8333333333
1877	0.9385	0.7	-2.08076923077	0.183673469388	15.9444444444
1878	0.939	-0.75	0.834615384615	4.48163265306	-5.72222222222
1879	0.9395	-0.75	0.834615384615	-8.41224489796	5.83333333333
1880	0.94	-2.2	-10.8269230769	-1.24897959184	0.0555555555556
1881	0.9405	2.15	-10.8269230769	3.04897959184	0.0555555555556
1882	0.941	-15.25	-2.08076923077	3.04897959184	-1.38888888889
1883	0.9415	18.1	-3.53846153846	1.61632653061	0.0555555555556
1884	0.942	-5.1	2.29230769231	-1.24897959184	8.72222222222
1885	0.9425	0.7	2.29230769231	13.0775510204	0.0555555555556
1886	0.943	0.7	-2.08076923077	1.61632653061	1.5
1887	0.9435	-2.2	0.834615384615	1.61632653061	1.5
1888	0.944	-2.2	6.66538461538	-1.24897959184	0.0555555555556
1889	0.9445	2.15	2.29230769231	0.183673469388	0.0555555555556
1890	0.945	7.95	-2.08076923077	-1.24897959184	1.5
1891	0.9455	3.6	-0.623076923077	1.61632653061	-2.83333333333
1892	0.946	-0.75	-0.623076923077	1.61632653061	15.9444444444
1893	0.9465	-0.75	0.834615384615	14.5102040816	0.0555555555556
1894	0.947	-0.75	0.834615384615	0.183673469388	0.0555555555556
1895	0.9475	-0.75	-7.91153846154	3.04897959184	1.5
1896	0.948	0.7	18.3269230769	0.183673469388	1.5
1897	0.9485	-3.65	-0.623076923077	3.04897959184	0.0555555555556
1898	0.949	18.1	-0.623076923077	3.04897959184	0.0555555555556
1899	0.9495	2.15	0.834615384615	-1.24897959184	18.8333333333
1900	0.95	-3.65	0.834615384615	4.48163265306	17.3888888889
1901	0.9505	-2.2	-0.623076923077	20.2408163265	0.0555555555556
1902	0.951	-0.75	2.29230769231	-4.11428571429	0.0555555555556
1903	0.9515	-0.75	-12.2846153846	-1.24897959184	0.0555555555556
1904	0.952	2.15	-3.53846153846	0.183673469388	0.0555555555556
1905	0.9525	-13.8	-2.08076923077	1.61632653061	-1.38888888889
1906	0.953	10.85	-0.623076923077	4.48163265306	2.94444444444
1907	0.9535	-0.75	-0.623076923077	3.04897959184	-5.72222222222
1908	0.954	-2.2	0.834615384615	-1.24897959184	-1.38888888889
1909	0.9545	0.7	0.834615384615	11.6448979592	0.0555555555556
1910	0.955	-3.65	2.29230769231	0.183673469388	-1.38888888889
1911	0.9555	-0.75	5.20769230769	-1.24897959184	1.5
1912	0.956	0.7	8.12307692308	0.183673469388	-1.38888888889
1913	0.9565	-8.0	-6.45384615385	0.183673469388	0.0555555555556
1914	0.957	-8.0	-0.623076923077	0.183673469388	8.72222222222
1915	0.9575	-0.75	0.834615384615	-1.24897959184	-7.16666666667
1916	0.958	-0.75	2.29230769231	3.04897959184	-1.38888888889
1917	0.9585	-0.75	-0.623076923077	-5.54693877551	0.0555555555556
1918	0.959	0.7	-9.36923076923	0.183673469388	0.0555555555556
1919	0.9595	-3.65	-3.53846153846	1.61632653061	1.5
1920	0.96	-12.35	0.834615384615	1.61632653061	0.0555555555556
1921	0.9605	16.65	-4.99615384615	1.61632653061	-7.16666666667
1922	0.961	-5.1	0.834615384615	0.183673469388	14.5
1923	0.9615	-0.75	-0.623076923077	4.48163265306	0.0555555555556
1924	0.962	-0.75	0.834615384615	11.6448979592	0.0555555555556
1925	0.9625	-0.75	0.834615384615	1.61632653061	1.5
1926	0.963	-2.2	15.4115384615	0.183673469388	-1.38888888889
1927	0.9635	-2.2	-4.99615384615	1.61632653061	1.5
1928	0.964	15.2	-0.623076923077	-1.24897959184	2.94444444444
1929	0.9645	-6.55	-2.08076923077	1.61632653061	15.9444444444
1930	0.965	-2.2	-2.08076923077	5.91428571429	-5.72222222222
1931	0.9655	-2.2	-2.08076923077	-8.41224489796	0.0555555555556
1932	0.966	-0.75	2.29230769231	-4.11428571429	1.5
1933	0.9665	-3.65	16.8692307692	3.04897959184	0.0555555555556
1934	0.967	-2.2	-2.08076923077	3.04897959184	0.0555555555556
1935	0.9675	0.7	0.834615384615	0.183673469388	-1.38888888889
1936	0.968	10.85	-2.08076923077	1.61632653061	0.0555555555556
1937	0.9685	7.95	-2.08076923077	0.183673469388	0.0555555555556
1938	0.969	0.7	2.29230769231	0.183673469388	17.3888888889
1939	0.9695	-0.75	-0.623076923077	15.9428571429	0.0555555555556
1940	0.97	-0.75	-0.623076923077	-6.97959183673	1.5
1941	0.9705	0.7	0.834615384615	0.183673469388	2.94444444444
1942	0.971	-3.65	-9.36923076923	1.61632653061	0.0555555555556
1943	0.9715	2.15	0.834615384615	1.61632653061	0.0555555555556
1944	0.972	-12.35	0.834615384615	0.183673469388	1.5
1945	0.9725	0.7	0.834615384615	3.04897959184	0.0555555555556
1946	0.973	-2.2	-0.623076923077	3.04897959184	2.94444444444
1947	0.9735	-3.65	-3.53846153846	-5.54693877551	0.0555555555556
1948	0.974	-0.75	6.66538461538	0.183673469388	0.0555555555556
1949	0.9745	-0.75	13.9538461538	0.183673469388	0.0555555555556
1950	0.975	2.15	2.29230769231	3.04897959184	1.5
1951	0.9755	-6.55	-6.45384615385	0.183673469388	0.0555555555556
1952	0.976	-6.55	-0.623076923077	1.61632653061	0.0555555555556
1953	0.9765	-0.75	0.834615384615	1.61632653061	-10.0555555556
1954	0.977	0.7	-0.623076923077	-11.2775510204	1.5
1955	0.9775	-3.65	-0.623076923077	-6.97959183673	1.5
1956	0.978	-0.75	2.29230769231	4.48163265306	0.0555555555556
1957	0.9785	0.7	-15.2	0.183673469388	1.5
1958	0.979	-3.65	8.12307692308	1.61632653061	0.0555555555556
1959	0.9795	-0.75	-0.623076923077	3.04897959184	-7.16666666667
1960	0.98	-5.1	-2.08076923077	1.61632653061	5.83333333333
1961	0.9805	-0.75	-2.08076923077	-6.97959183673	-4.27777777778
1962	0.981	-0.75	0.834615384615	5.91428571429	-2.83333333333
1963	0.9815	-0.75	0.834615384615	-4.11428571429	0.0555555555556
1964	0.982	2.15	3.75	1.61632653061	-1.38888888889
1965	0.9825	3.6	-6.45384615385	3.04897959184	-1.38888888889
1966	0.983	-3.65	0.834615384615	3.04897959184	1.5
1967	0.9835	15.2	-2.08076923077	0.183673469388	4.38888888889
1968	0.984	-9.45	-0.623076923077	0.183673469388	4.38888888889
1969	0.9845	-0.75	0.834615384615	-8.41224489796	-1.38888888889
1970	0.985	-0.75	0.834615384615	-8.41224489796	-2.83333333333
1971	0.9855	0.7	0.834615384615	17.3755102041	-2.83333333333
1972	0.986	0.7	-7.91153846154	1.61632653061	0.0555555555556
1973	0.9865	3.6	-0.623076923077	-1.24897959184	0.0555555555556
1974	0.987	-12.35	-2.08076923077	3.04897959184	0.0555555555556
1975	0.9875	-0.75	-0.623076923077	3.04897959184	-7.16666666667
1976	0.988	0.7	-0.623076923077	1.61632653061	1.5
1977	0.9885	-0.75	-2.08076923077	1.61632653061	10.1666666667
1978	0.989	-0.75	-0.623076923077	4.48163265306	-1.38888888889
1979	0.9895	-2.2	0.834615384615	-1.24897959184	-1.38888888889
1980	0.99	-2.2	5.20769230769	1.61632653061	0.0555555555556
1981	0.9905	2.15	0.834615384615	1.61632653061	1.5
1982	0.991	12.3	-0.623076923077	0.183673469388	0.0555555555556
1983	0.9915	-0.75	0.834615384615	3.04897959184	1.5
1984	0.992	-0.75	-0.623076923077	-5.54693877551	7.27777777778
1985	0.9925	0.7	-2.08076923077	3.04897959184	2.94444444444
1986	0.993	-2.2	0.834615384615	-6.97959183673	1.5
1987	0.9935	-0.75	-3.53846153846	-6.97959183673	-1.38888888889
1988	0.994	-0.75	-6.45384615385	0.183673469388	0.0555555555556
1989	0.9945	-0.75	-0.623076923077	-1.24897959184	0.0555555555556
1990	0.995	13.75	-0.623076923077	0.183673469388	1.5
1991	0.9955	-8.0	0.834615384615	1.61632653061	15.9444444444
1992	0.996	-3.65	-0.623076923077	14.5102040816	0.0555555555556
1993	0.9965	0.7	-0.623076923077	-6.97959183673	1.5
1994	0.997	-2.2	2.29230769231	1.61632653061	-1.38888888889
1995	0.9975	0.7	16.8692307692	0.183673469388	0.0555555555556
1996	0.998	-2.2	-10.8269230769	-1.24897959184	0.0555555555556
1997	0.9985	2.15	-0.623076923077	0.183673469388	0.0555555555556
1998	0.999	-10.9	0.834615384615	3.04897959184	7.27777777778
1999	0.9995	0.7	-0.623076923077	5.91428571429	-8.61111111111
2000	1.0	0.7	0.834615384615	-8.41224489796	1.5
2001	1.0005	-0.75	0.834615384615	-6.97959183673	1.5
2002	1.001	-3.65	-12.2846153846	-1.24897959184	-1.38888888889
2003	1.0015	3.6	-7.91153846154	3.04897959184	-2.83333333333
2004	1.002	-2.2	-0.623076923077	0.183673469388	1.5
2005	1.0025	-12.35	-0.623076923077	3.04897959184	0.0555555555556
2006	1.003	-0.75	0.834615384615	-1.24897959184	-4.27777777778
2007	1.0035	0.7	-2.08076923077	-5.54693877551	-4.27777777778
2008	1.004	0.7	-0.623076923077	1.61632653061	-5.72222222222
2009	1.0045	3.6	0.834615384615	-1.24897959184	15.9444444444
2010	1.005	-0.75	-6.45384615385	-1.24897959184	0.0555555555556
2011	1.0055	-0.75	18.3269230769	-1.24897959184	1.5
2012	1.006	-2.2	0.834615384615	-1.24897959184	1.5
2013	1.0065	21.0	-0.623076923077	1.61632653061	0.0555555555556
2014	1.007	-8.0	-0.623076923077	0.183673469388	2.94444444444
2015	1.0075	-0.75	2.29230769231	5.91428571429	-5.72222222222
2016	1.008	-0.75	0.834615384615	-12.7102040816	-1.38888888889
2017	1.0085	0.7	0.834615384615	-1.24897959184	1.5
2018	1.009	-2.2	-9.36923076923	-1.24897959184	1.5
2019	1.0095	0.7	-6.45384615385	-1.24897959184	0.0555555555556
2020	1.01	3.6	2.29230769231	0.183673469388	1.5
2021	1.0105	-10.9	-0.623076923077	1.61632653061	-11.5
2022	1.011	0.7	-0.623076923077	-1.24897959184	-10.0555555556
2023	1.0115	-0.75	-2.08076923077	-11.2775510204	-1.38888888889
2024	1.012	-2.2	0.834615384615	15.9428571429	1.5
2025	1.0125	0.7	-3.53846153846	-4.11428571429	2.94444444444
2026	1.013	-0.75	3.75	-2.68163265306	-1.38888888889
2027	1.0135	2.15	0.834615384615	0.183673469388	1.5
2028	1.014	-13.8	-2.08076923077	1.61632653061	1.5
2029	1.0145	-5.1	0.834615384615	4.48163265306	-5.72222222222
2030	1.015	-3.65	0.834615384615	0.183673469388	1.5
2031	1.0155	-0.75	0.834615384615	5.91428571429	0.0555555555556
2032	1.016	-0.75	-0.623076923077	-1.24897959184	0.0555555555556
2033	1.0165	0.7	-6.45384615385	-1.24897959184	2.94444444444
2034	1.017	2.15	0.834615384615	1.61632653061	1.5
2035	1.0175	-0.75	-6.45384615385	0.183673469388	2.94444444444
2036	1.018	0.7	0.834615384615	1.61632653061	-1.38888888889
2037	1.0185	-6.55	0.834615384615	1.61632653061	-5.72222222222
2038	1.019	0.7	0.834615384615	0.183673469388	-10.0555555556
2039	1.0195	0.7	0.834615384615	-4.11428571429	0.0555555555556
2040	1.02	2.15	-0.623076923077	18.8081632653	-1.38888888889
2041	1.0205	-0.75	-2.08076923077	1.61632653061	1.5
2042	1.021	0.7	16.8692307692	1.61632653061	0.0555555555556
2043	1.0215	0.7	0.834615384615	0.183673469388	0.0555555555556
2044	1.022	3.6	-7.91153846154	0.183673469388	-1.38888888889
2045	1.0225	-9.45	-0.623076923077	1.61632653061	0.0555555555556
2046	1.023	2.15	-0.623076923077	0.183673469388	-8.61111111111
2047	1.0235	-3.65	0.834615384615	-8.41224489796	-2.83333333333
