	Time	Channel 1	Channel 2	Channel 3	Channel 4
0	0.0	-1.70987654321	-13.1056	2.8	1.4
1	0.0005	5.33950617284	-7.4672	2.8	-5.85
2	0.001	1.10987654321	-10.2864	18.6714285714	1.4
3	0.0015	8.15925925926	-8.8768	-4.41428571429	-0.05
4	0.002	8.15925925926	-8.8768	1.35714285714	1.4
5	0.0025	10.9790123457	-7.4672	1.35714285714	1.4
6	0.003	8.15925925926	-3.2384	-4.41428571429	2.85
7	0.0035	5.33950617284	-6.0576	20.1142857143	1.4
8	0.004	9.56913580247	9.448	4.24285714286	1.4
9	0.0045	9.56913580247	-7.4672	4.24285714286	-2.95
10	0.005	8.15925925926	-10.2864	-7.3	-1.5
11	0.0055	9.56913580247	-10.2864	-5.85714285714	-0.05
12	0.006	9.56913580247	0.9904	1.35714285714	-0.05
13	0.0065	1.10987654321	-10.2864	-0.0857142857143	-0.05
14	0.007	3.92962962963	-8.8768	1.35714285714	4.3
15	0.0075	5.33950617284	-6.0576	-0.0857142857143	-8.75
16	0.008	5.33950617284	-6.0576	-7.3	-2.95
17	0.0085	3.92962962963	-8.8768	14.3428571429	-1.5
18	0.009	3.92962962963	-15.9248	-0.0857142857143	1.4
19	0.0095	5.33950617284	9.448	1.35714285714	-0.05
20	0.01	12.3888888889	-6.0576	-1.52857142857	1.4
21	0.0105	-4.52962962963	-6.0576	-0.0857142857143	1.4
22	0.011	-1.70987654321	-10.2864	2.8	-11.65
23	0.0115	2.51975308642	-7.4672	-1.52857142857	5.75
24	0.012	2.51975308642	-7.4672	17.2285714286	-0.05
25	0.0125	2.51975308642	-10.2864	-10.1857142857	1.4
26	0.013	3.92962962963	-4.648	-0.0857142857143	1.4
27	0.0135	3.92962962963	-18.744	2.8	2.85
28	0.014	3.92962962963	-7.4672	1.35714285714	-0.05
29	0.0145	3.92962962963	-7.4672	-0.0857142857143	4.3
30	0.015	15.2086419753	-8.8768	-1.52857142857	-0.05
31	0.0155	3.92962962963	-8.8768	-1.52857142857	2.85
32	0.016	8.15925925926	-11.696	2.8	7.2
33	0.0165	9.56913580247	-11.696	8.57142857143	-0.05
34	0.017	8.15925925926	-20.1536	-1.52857142857	1.4
35	0.0175	3.92962962963	-11.696	-1.52857142857	-0.05
36	0.018	-0.3	-14.5152	1.35714285714	1.4
37	0.0185	-8.75925925926	-10.2864	1.35714285714	-2.95
38	0.019	-0.3	-11.696	-1.52857142857	7.2
39	0.0195	1.10987654321	-10.2864	5.68571428571	2.85
40	0.02	1.10987654321	-8.8768	-10.1857142857	-2.95
41	0.0205	-0.3	-10.2864	18.6714285714	-1.5
42	0.021	2.51975308642	-8.8768	-4.41428571429	4.3
43	0.0215	1.10987654321	-0.4192	1.35714285714	-0.05
44	0.022	9.56913580247	-10.2864	-1.52857142857	-0.05
45	0.0225	-5.93950617284	-4.648	1.35714285714	-0.05
46	0.023	26.487654321	-1.8288	-0.0857142857143	-10.2
47	0.0235	5.33950617284	-6.0576	2.8	15.9
48	0.024	9.56913580247	-4.648	4.24285714286	-10.2
49	0.0245	10.9790123457	-3.2384	-7.3	2.85
50	0.025	8.15925925926	-3.2384	2.8	-0.05
51	0.0255	8.15925925926	-14.5152	-0.0857142857143	1.4
52	0.026	6.74938271605	-15.9248	1.35714285714	-1.5
53	0.0265	-5.93950617284	-6.0576	2.8	1.4
54	0.027	29.3074074074	-6.0576	1.35714285714	4.3
55	0.0275	-0.3	-6.0576	4.24285714286	-7.3
56	0.028	12.3888888889	-4.648	-1.52857142857	18.8
57	0.0285	16.6185185185	-1.8288	15.7857142857	1.4
58	0.029	12.3888888889	2.4	-7.3	1.4
59	0.0295	15.2086419753	-0.4192	-0.0857142857143	-1.5
60	0.03	16.6185185185	-3.2384	1.35714285714	-0.05
61	0.0305	8.15925925926	2.4	2.8	-0.05
62	0.031	20.8481481481	0.9904	-0.0857142857143	-4.4
63	0.0315	8.15925925926	0.9904	4.24285714286	1.4
64	0.032	12.3888888889	-3.2384	4.24285714286	-1.5
65	0.0325	13.7987654321	-7.4672	-2.97142857143	13.0
66	0.033	10.9790123457	-1.8288	4.24285714286	-2.95
67	0.0335	15.2086419753	0.9904	1.35714285714	-0.05
68	0.034	13.7987654321	-3.2384	1.35714285714	4.3
69	0.0345	2.51975308642	0.9904	1.35714285714	-0.05
70	0.035	30.7172839506	0.9904	-0.0857142857143	-5.85
71	0.0355	10.9790123457	-3.2384	1.35714285714	15.9
72	0.036	12.3888888889	-1.8288	4.24285714286	-0.05
73	0.0365	18.0283950617	2.4	-7.3	-2.95
74	0.037	16.6185185185	2.4	-1.52857142857	-0.05
75	0.0375	15.2086419753	-10.2864	2.8	-0.05
76	0.038	20.8481481481	-1.8288	1.35714285714	1.4
77	0.0385	2.51975308642	-1.8288	1.35714285714	4.3
78	0.039	8.15925925926	-0.4192	1.35714285714	-11.65
79	0.0395	12.3888888889	-0.4192	-0.0857142857143	10.1
80	0.04	12.3888888889	-1.8288	5.68571428571	-0.05
81	0.0405	15.2086419753	-0.4192	-11.6285714286	-4.4
82	0.041	13.7987654321	3.8096	-0.0857142857143	1.4
83	0.0415	16.6185185185	-1.8288	-2.97142857143	-0.05
84	0.042	13.7987654321	0.9904	-1.52857142857	-0.05
85	0.0425	22.2580246914	0.9904	-0.0857142857143	-0.05
86	0.043	37.7666666667	2.4	-1.52857142857	2.85
87	0.0435	16.6185185185	2.4	1.35714285714	-10.2
88	0.044	16.6185185185	0.9904	-8.74285714286	-0.05
89	0.0445	16.6185185185	2.4	21.5571428571	-1.5
90	0.045	10.9790123457	-4.648	-1.52857142857	1.4
91	0.0455	10.9790123457	13.6768	1.35714285714	-0.05
92	0.046	8.15925925926	-6.0576	-0.0857142857143	-0.05
93	0.0465	1.10987654321	-1.8288	4.24285714286	-0.05
94	0.047	23.6679012346	-3.2384	1.35714285714	2.85
95	0.0475	-1.70987654321	-1.8288	4.24285714286	15.9
96	0.048	8.15925925926	-3.2384	-1.52857142857	-8.75
97	0.0485	3.92962962963	-1.8288	17.2285714286	1.4
98	0.049	9.56913580247	-6.0576	2.8	-1.5
99	0.0495	3.92962962963	-10.2864	-1.52857142857	-1.5
100	0.05	9.56913580247	-1.8288	-4.41428571429	-2.95
101	0.0505	2.51975308642	-8.8768	2.8	-0.05
102	0.051	5.33950617284	-1.8288	-1.52857142857	-5.85
103	0.0515	9.56913580247	-0.4192	1.35714285714	-0.05
104	0.052	10.9790123457	-3.2384	-1.52857142857	-0.05
105	0.0525	8.15925925926	-4.648	12.9	-0.05
106	0.053	8.15925925926	-6.0576	-5.85714285714	-0.05
107	0.0535	6.74938271605	5.2192	1.35714285714	-1.5
108	0.054	3.92962962963	-8.8768	1.35714285714	1.4
109	0.0545	3.92962962963	-4.648	-1.52857142857	-0.05
110	0.055	9.56913580247	-4.648	1.35714285714	-0.05
111	0.0555	-0.3	-6.0576	-1.52857142857	1.4
112	0.056	2.51975308642	-8.8768	-8.74285714286	-1.5
113	0.0565	2.51975308642	-6.0576	14.3428571429	-0.05
114	0.057	5.33950617284	-1.8288	-7.3	-1.5
115	0.0575	9.56913580247	-13.1056	1.35714285714	-0.05
116	0.058	13.7987654321	9.448	1.35714285714	-0.05
117	0.0585	8.15925925926	-7.4672	1.35714285714	-1.5
118	0.059	12.3888888889	-3.2384	1.35714285714	-7.3
119	0.0595	5.33950617284	-4.648	-0.0857142857143	-1.5
120	0.06	9.56913580247	-1.8288	-10.1857142857	-1.5
121	0.0605	10.9790123457	-3.2384	-0.0857142857143	-0.05
122	0.061	10.9790123457	-13.1056	-1.52857142857	-1.5
123	0.0615	15.2086419753	16.496	-0.0857142857143	-2.95
124	0.062	8.15925925926	-10.2864	1.35714285714	-0.05
125	0.0625	10.9790123457	0.9904	4.24285714286	-0.05
126	0.063	-4.52962962963	-1.8288	-2.97142857143	-1.5
127	0.0635	2.51975308642	-1.8288	-1.52857142857	14.45
128	0.064	-0.3	-3.2384	-2.97142857143	-2.95
129	0.0645	2.51975308642	-1.8288	-0.0857142857143	-0.05
130	0.065	3.92962962963	-7.4672	-0.0857142857143	-0.05
131	0.0655	5.33950617284	9.448	1.35714285714	-1.5
132	0.066	10.9790123457	-0.4192	1.35714285714	-0.05
133	0.0665	-7.34938271605	0.9904	1.35714285714	-0.05
134	0.067	18.0283950617	-0.4192	-1.52857142857	-0.05
135	0.0675	1.10987654321	-1.8288	4.24285714286	-5.85
136	0.068	3.92962962963	-1.8288	-7.3	1.4
137	0.0685	2.51975308642	0.9904	-2.97142857143	-1.5
138	0.069	1.10987654321	-0.4192	4.24285714286	-0.05
139	0.0695	3.92962962963	13.6768	2.8	1.4
140	0.07	3.92962962963	-4.648	1.35714285714	1.4
141	0.0705	10.9790123457	-1.8288	-1.52857142857	-0.05
142	0.071	12.3888888889	-0.4192	1.35714285714	-0.05
143	0.0715	9.56913580247	-0.4192	-1.52857142857	13.0
144	0.072	3.92962962963	-0.4192	4.24285714286	-2.95
145	0.0725	8.15925925926	0.9904	-10.1857142857	1.4
146	0.073	3.92962962963	-10.2864	-0.0857142857143	-0.05
147	0.0735	1.10987654321	6.6288	2.8	-0.05
148	0.074	1.10987654321	-4.648	-0.0857142857143	-1.5
149	0.0745	15.2086419753	-4.648	-0.0857142857143	-0.05
150	0.075	-4.52962962963	-7.4672	-0.0857142857143	-4.4
151	0.0755	2.51975308642	-3.2384	-1.52857142857	-4.4
152	0.076	5.33950617284	-7.4672	-0.0857142857143	-1.5
153	0.0765	2.51975308642	-6.0576	-0.0857142857143	-2.95
154	0.077	3.92962962963	-1.8288	-0.0857142857143	-1.5
155	0.0775	6.74938271605	-4.648	-1.52857142857	-0.05
156	0.078	10.9790123457	-8.8768	-1.52857142857	2.85
157	0.0785	15.2086419753	-8.8768	4.24285714286	-0.05
158	0.079	5.33950617284	-6.0576	1.35714285714	-1.5
159	0.0795	5.33950617284	-6.0576	-1.52857142857	15.9
160	0.08	3.92962962963	-7.4672	1.35714285714	-7.3
161	0.0805	3.92962962963	-7.4672	-5.85714285714	1.4
162	0.081	3.92962962963	-4.648	-0.0857142857143	-1.5
163	0.0815	5.33950617284	-11.696	2.8	1.4
164	0.082	8.15925925926	-7.4672	2.8	1.4
165	0.0825	-4.52962962963	-6.0576	-0.0857142857143	-0.05
166	0.083	5.33950617284	-6.0576	4.24285714286	-0.05
167	0.0835	3.92962962963	-4.648	-1.52857142857	-4.4
168	0.084	6.74938271605	-11.696	15.7857142857	-0.05
169	0.0845	5.33950617284	-7.4672	-7.3	-0.05
170	0.085	1.10987654321	-18.744	-0.0857142857143	1.4
171	0.0855	-3.11975308642	-7.4672	2.8	1.4
172	0.086	10.9790123457	-7.4672	2.8	1.4
173	0.0865	1.10987654321	-3.2384	-0.0857142857143	10.1
174	0.087	2.51975308642	-1.8288	2.8	-2.95
175	0.0875	-0.3	-1.8288	-11.6285714286	1.4
176	0.088	-0.3	-4.648	20.1142857143	-0.05
177	0.0885	-3.11975308642	-0.4192	-7.3	1.4
178	0.089	-3.11975308642	15.0864	1.35714285714	1.4
179	0.0895	-4.52962962963	2.4	-0.0857142857143	1.4
180	0.09	-0.3	5.2192	2.8	-2.95
181	0.0905	13.7987654321	5.2192	1.35714285714	-1.5
182	0.091	1.10987654321	5.2192	-2.97142857143	13.0
183	0.0915	1.10987654321	2.4	1.35714285714	-5.85
184	0.092	1.10987654321	2.4	-2.97142857143	8.65
185	0.0925	-3.11975308642	10.8576	1.35714285714	-2.95
186	0.093	1.10987654321	-4.648	1.35714285714	-0.05
187	0.0935	8.15925925926	0.9904	2.8	1.4
188	0.094	-10.1691358025	0.9904	1.35714285714	-0.05
189	0.0945	2.51975308642	3.8096	-2.97142857143	17.35
190	0.095	2.51975308642	-0.4192	-2.97142857143	-4.4
191	0.0955	2.51975308642	0.9904	-0.0857142857143	-1.5
192	0.096	3.92962962963	-8.8768	1.35714285714	-0.05
193	0.0965	8.15925925926	16.496	1.35714285714	1.4
194	0.097	2.51975308642	-4.648	-0.0857142857143	-1.5
195	0.0975	10.9790123457	-3.2384	2.8	-0.05
196	0.098	-3.11975308642	0.9904	4.24285714286	-10.2
197	0.0985	5.33950617284	2.4	-0.0857142857143	15.9
198	0.099	3.92962962963	0.9904	4.24285714286	-0.05
199	0.0995	3.92962962963	-0.4192	15.7857142857	2.85
200	0.1	2.51975308642	0.9904	-8.74285714286	-1.5
201	0.1005	3.92962962963	-13.1056	-0.0857142857143	-0.05
202	0.101	5.33950617284	-7.4672	-0.0857142857143	-0.05
203	0.1015	3.92962962963	-0.4192	1.35714285714	1.4
204	0.102	-11.5790123457	0.9904	-0.0857142857143	-1.5
205	0.1025	-1.70987654321	-1.8288	-1.52857142857	4.3
206	0.103	-0.3	-1.8288	1.35714285714	-5.85
207	0.1035	-4.52962962963	0.9904	-10.1857142857	2.85
208	0.104	-1.70987654321	2.4	-7.3	1.4
209	0.1045	-0.3	2.4	-0.0857142857143	1.4
210	0.105	-1.70987654321	-3.2384	2.8	-0.05
211	0.1055	-11.5790123457	0.9904	-0.0857142857143	-0.05
212	0.106	10.9790123457	-0.4192	-1.52857142857	1.4
213	0.1065	-1.70987654321	0.9904	4.24285714286	13.0
214	0.107	-0.3	-0.4192	-8.74285714286	-7.3
215	0.1075	-4.52962962963	-0.4192	2.8	18.8
216	0.108	-1.70987654321	-4.648	-8.74285714286	1.4
217	0.1085	-3.11975308642	-3.2384	1.35714285714	-0.05
218	0.109	-3.11975308642	-10.2864	1.35714285714	1.4
219	0.1095	-4.52962962963	-4.648	4.24285714286	-0.05
220	0.11	-10.1691358025	-1.8288	-0.0857142857143	-1.5
221	0.1105	-3.11975308642	-1.8288	1.35714285714	-5.85
222	0.111	-4.52962962963	-3.2384	1.35714285714	-1.5
223	0.1115	-4.52962962963	-3.2384	2.8	-2.95
224	0.112	-4.52962962963	-10.2864	-0.0857142857143	-0.05
225	0.1125	-4.52962962963	2.4	2.8	2.85
226	0.113	-4.52962962963	-7.4672	2.8	-0.05
227	0.1135	-0.3	-4.648	2.8	-1.5
228	0.114	-4.52962962963	-3.2384	-0.0857142857143	15.9
229	0.1145	-1.70987654321	-4.648	5.68571428571	-2.95
230	0.115	-3.11975308642	-6.0576	-10.1857142857	-0.05
231	0.1155	-1.70987654321	-4.648	20.1142857143	-0.05
232	0.116	-1.70987654321	-1.8288	-7.3	1.4
233	0.1165	1.10987654321	8.0384	-0.0857142857143	2.85
234	0.117	1.10987654321	-7.4672	1.35714285714	1.4
235	0.1175	-4.52962962963	-3.2384	2.8	-0.05
236	0.118	-0.3	-1.8288	-0.0857142857143	5.75
237	0.1185	2.51975308642	-4.648	2.8	-0.05
238	0.119	-0.3	-4.648	14.3428571429	1.4
239	0.1195	1.10987654321	-1.8288	-5.85714285714	-2.95
240	0.12	2.51975308642	-6.0576	14.3428571429	1.4
241	0.1205	1.10987654321	17.9056	2.8	1.4
242	0.121	-1.70987654321	-0.4192	1.35714285714	-0.05
243	0.1215	-5.93950617284	-0.4192	-0.0857142857143	-2.95
244	0.122	12.3888888889	2.4	1.35714285714	-4.4
245	0.1225	-1.70987654321	2.4	-0.0857142857143	-4.4
246	0.123	-1.70987654321	3.8096	-2.97142857143	-0.05
247	0.1235	-0.3	3.8096	14.3428571429	1.4
248	0.124	-0.3	5.2192	-0.0857142857143	-0.05
249	0.1245	1.10987654321	9.448	-0.0857142857143	1.4
250	0.125	3.92962962963	3.8096	-0.0857142857143	2.85
251	0.1255	3.92962962963	5.2192	-0.0857142857143	-0.05
252	0.126	15.2086419753	3.8096	-0.0857142857143	-1.5
253	0.1265	-4.52962962963	2.4	1.35714285714	10.1
254	0.127	1.10987654321	5.2192	2.8	-4.4
255	0.1275	2.51975308642	2.4	-1.52857142857	15.9
256	0.128	-1.70987654321	0.9904	-4.41428571429	1.4
257	0.1285	1.10987654321	-0.4192	-1.52857142857	2.85
258	0.129	-3.11975308642	-6.0576	-0.0857142857143	-0.05
259	0.1295	-4.52962962963	16.496	1.35714285714	-1.5
260	0.13	9.56913580247	0.9904	-1.52857142857	1.4
261	0.1305	-11.5790123457	2.4	2.8	15.9
262	0.131	-0.3	0.9904	-0.0857142857143	-5.85
263	0.1315	-3.11975308642	0.9904	-1.52857142857	1.4
264	0.132	-1.70987654321	0.9904	14.3428571429	-0.05
265	0.1325	1.10987654321	-1.8288	2.8	1.4
266	0.133	-1.70987654321	8.0384	2.8	1.4
267	0.1335	-0.3	-4.648	-1.52857142857	-0.05
268	0.134	-0.3	-4.648	1.35714285714	-4.4
269	0.1345	-7.34938271605	-4.648	-0.0857142857143	5.75
270	0.135	-5.93950617284	-4.648	-8.74285714286	-0.05
271	0.1355	-7.34938271605	-4.648	2.8	-1.5
272	0.136	-4.52962962963	0.9904	1.35714285714	1.4
273	0.1365	-5.93950617284	13.6768	-1.52857142857	1.4
274	0.137	-5.93950617284	-11.696	-0.0857142857143	-0.05
275	0.1375	-11.5790123457	-6.0576	1.35714285714	2.85
276	0.138	-11.5790123457	-4.648	1.35714285714	8.65
277	0.1385	-4.52962962963	-4.648	1.35714285714	-5.85
278	0.139	-4.52962962963	-6.0576	-8.74285714286	1.4
279	0.1395	-5.93950617284	-8.8768	-5.85714285714	-0.05
280	0.14	-4.52962962963	-8.8768	18.6714285714	1.4
281	0.1405	-5.93950617284	5.2192	1.35714285714	-0.05
282	0.141	-1.70987654321	-8.8768	2.8	-0.05
283	0.1415	-11.5790123457	-4.648	1.35714285714	-0.05
284	0.142	-5.93950617284	-3.2384	-0.0857142857143	2.85
285	0.1425	-0.3	-1.8288	2.8	-8.75
286	0.143	-0.3	-1.8288	-1.52857142857	14.45
287	0.1435	-0.3	-1.8288	-1.52857142857	2.85
288	0.144	-3.11975308642	-7.4672	1.35714285714	-0.05
289	0.1445	-0.3	6.6288	1.35714285714	-0.05
290	0.145	-0.3	-10.2864	-0.0857142857143	2.85
291	0.1455	-12.9888888889	-1.8288	-0.0857142857143	-1.5
292	0.146	-1.70987654321	-4.648	-0.0857142857143	4.3
293	0.1465	1.10987654321	-1.8288	4.24285714286	-1.5
294	0.147	2.51975308642	-1.8288	-11.6285714286	-0.05
295	0.1475	-0.3	-6.0576	15.7857142857	-0.05
296	0.148	2.51975308642	-11.696	1.35714285714	-1.5
297	0.1485	2.51975308642	8.0384	-1.52857142857	-0.05
298	0.149	1.10987654321	-6.0576	-0.0857142857143	-0.05
299	0.1495	3.92962962963	-6.0576	-0.0857142857143	-2.95
300	0.15	-1.70987654321	-3.2384	-0.0857142857143	5.75
301	0.1505	2.51975308642	-3.2384	2.8	-10.2
302	0.151	2.51975308642	-6.0576	-1.52857142857	20.25
303	0.1515	2.51975308642	-8.8768	1.35714285714	-0.05
304	0.152	1.10987654321	-11.696	1.35714285714	-1.5
305	0.1525	-0.3	-0.4192	2.8	-0.05
306	0.153	3.92962962963	-13.1056	-0.0857142857143	1.4
307	0.1535	-3.11975308642	-6.0576	2.8	-10.2
308	0.154	3.92962962963	-4.648	-2.97142857143	17.35
309	0.1545	1.10987654321	-3.2384	2.8	-0.05
310	0.155	3.92962962963	-0.4192	20.1142857143	-0.05
311	0.1555	1.10987654321	-1.8288	-10.1857142857	-0.05
312	0.156	2.51975308642	-13.1056	-0.0857142857143	-0.05
313	0.1565	5.33950617284	-11.696	-0.0857142857143	-1.5
314	0.157	1.10987654321	-4.648	1.35714285714	2.85
315	0.1575	-10.1691358025	-7.4672	1.35714285714	1.4
316	0.158	-3.11975308642	-6.0576	1.35714285714	13.0
317	0.1585	-0.3	-4.648	2.8	-0.05
318	0.159	1.10987654321	-4.648	12.9	1.4
319	0.1595	-0.3	-3.2384	-4.41428571429	-0.05
320	0.16	-0.3	-1.8288	2.8	-0.05
321	0.1605	2.51975308642	9.448	2.8	1.4
322	0.161	2.51975308642	-1.8288	-0.0857142857143	1.4
323	0.1615	-8.75925925926	-0.4192	1.35714285714	1.4
324	0.162	-3.11975308642	-3.2384	-1.52857142857	-0.05
325	0.1625	-4.52962962963	-0.4192	-13.0714285714	1.4
326	0.163	-3.11975308642	0.9904	15.7857142857	-0.05
327	0.1635	-3.11975308642	-1.8288	-5.85714285714	2.85
328	0.164	-4.52962962963	-10.2864	-0.0857142857143	2.85
329	0.1645	-4.52962962963	-13.1056	1.35714285714	5.75
330	0.165	-4.52962962963	-3.2384	1.35714285714	4.3
331	0.1655	-1.70987654321	-0.4192	-1.52857142857	5.75
332	0.166	-8.75925925926	-0.4192	1.35714285714	4.3
333	0.1665	-3.11975308642	0.9904	2.8	-5.85
334	0.167	-3.11975308642	-0.4192	-7.3	2.85
335	0.1675	-0.3	6.6288	-1.52857142857	1.4
336	0.168	-0.3	-10.2864	-0.0857142857143	7.2
337	0.1685	1.10987654321	-8.8768	1.35714285714	2.85
338	0.169	-3.11975308642	0.9904	1.35714285714	5.75
339	0.1695	19.4382716049	-0.4192	1.35714285714	-0.05
340	0.17	-8.75925925926	0.9904	1.35714285714	5.75
341	0.1705	3.92962962963	-1.8288	1.35714285714	-4.4
342	0.171	-0.3	-0.4192	-1.52857142857	18.8
343	0.1715	1.10987654321	2.4	-2.97142857143	2.85
344	0.172	-1.70987654321	-8.8768	1.35714285714	2.85
345	0.1725	3.92962962963	-3.2384	1.35714285714	4.3
346	0.173	-11.5790123457	0.9904	1.35714285714	4.3
347	0.1735	19.4382716049	0.9904	-1.52857142857	5.75
348	0.174	-7.34938271605	2.4	1.35714285714	-4.4
349	0.1745	5.33950617284	0.9904	-4.41428571429	4.3
350	0.175	3.92962962963	-0.4192	7.12857142857	5.75
351	0.1755	2.51975308642	0.9904	-2.97142857143	4.3
352	0.176	2.51975308642	-0.4192	-1.52857142857	4.3
353	0.1765	-1.70987654321	-3.2384	-0.0857142857143	-0.05
354	0.177	1.10987654321	-1.8288	1.35714285714	2.85
355	0.1775	16.6185185185	-1.8288	1.35714285714	8.65
356	0.178	-0.3	-0.4192	4.24285714286	-2.95
357	0.1785	-1.70987654321	-3.2384	-11.6285714286	-2.95
358	0.179	3.92962962963	-0.4192	5.68571428571	17.35
359	0.1795	5.33950617284	-10.2864	2.8	4.3
360	0.18	3.92962962963	10.8576	1.35714285714	1.4
361	0.1805	2.51975308642	-7.4672	-0.0857142857143	5.75
362	0.181	3.92962962963	0.9904	2.8	4.3
363	0.1815	-1.70987654321	-3.2384	1.35714285714	-4.4
364	0.182	-1.70987654321	-3.2384	-1.52857142857	-0.05
365	0.1825	-0.3	0.9904	-10.1857142857	2.85
366	0.183	2.51975308642	-1.8288	2.8	2.85
367	0.1835	1.10987654321	-4.648	-5.85714285714	1.4
368	0.184	2.51975308642	5.2192	2.8	1.4
369	0.1845	-0.3	-1.8288	2.8	4.3
370	0.185	16.6185185185	-1.8288	1.35714285714	4.3
371	0.1855	-5.93950617284	2.4	1.35714285714	-1.5
372	0.186	1.10987654321	0.9904	2.8	5.75
373	0.1865	1.10987654321	-0.4192	18.6714285714	1.4
374	0.187	1.10987654321	-0.4192	-8.74285714286	4.3
375	0.1875	-0.3	-0.4192	1.35714285714	2.85
376	0.188	-0.3	19.3152	1.35714285714	-0.05
377	0.1885	2.51975308642	-1.8288	-0.0857142857143	1.4
378	0.189	-10.1691358025	-1.8288	2.8	-0.05
379	0.1895	18.0283950617	-1.8288	2.8	5.75
380	0.19	-3.11975308642	0.9904	1.35714285714	-8.75
381	0.1905	-1.70987654321	0.9904	-8.74285714286	1.4
382	0.191	-3.11975308642	-0.4192	17.2285714286	1.4
383	0.1915	-4.52962962963	-3.2384	-4.41428571429	-7.3
384	0.192	-1.70987654321	6.6288	-0.0857142857143	-0.05
385	0.1925	-4.52962962963	-7.4672	4.24285714286	-0.05
386	0.193	-0.3	2.4	1.35714285714	1.4
387	0.1935	-0.3	-0.4192	-0.0857142857143	-0.05
388	0.194	-3.11975308642	-3.2384	-0.0857142857143	17.35
389	0.1945	-1.70987654321	0.9904	4.24285714286	-1.5
390	0.195	-1.70987654321	0.9904	-7.3	-1.5
391	0.1955	-3.11975308642	-1.8288	-1.52857142857	2.85
392	0.196	1.10987654321	13.6768	-1.52857142857	-0.05
393	0.1965	-4.52962962963	-4.648	2.8	2.85
394	0.197	-15.8086419753	-4.648	-1.52857142857	-0.05
395	0.1975	15.2086419753	-4.648	-1.52857142857	5.75
396	0.198	-3.11975308642	-1.8288	4.24285714286	-10.2
397	0.1985	-1.70987654321	-0.4192	-10.1857142857	2.85
398	0.199	-1.70987654321	0.9904	-5.85714285714	1.4
399	0.1995	1.10987654321	-6.0576	18.6714285714	1.4
400	0.2	1.10987654321	10.8576	1.35714285714	-0.05
401	0.2005	1.10987654321	-3.2384	2.8	-1.5
402	0.201	-0.3	-1.8288	1.35714285714	-2.95
403	0.2015	9.56913580247	-3.2384	1.35714285714	-2.95
404	0.202	-0.3	-1.8288	-0.0857142857143	5.75
405	0.2025	3.92962962963	-3.2384	4.24285714286	-4.4
406	0.203	-1.70987654321	-4.648	-4.41428571429	5.75
407	0.2035	1.10987654321	-1.8288	4.24285714286	-4.4
408	0.204	5.33950617284	0.9904	1.35714285714	-0.05
409	0.2045	3.92962962963	-1.8288	2.8	1.4
410	0.205	-7.34938271605	2.4	4.24285714286	-1.5
411	0.2055	3.92962962963	3.8096	-0.0857142857143	13.0
412	0.206	2.51975308642	0.9904	-0.0857142857143	-1.5
413	0.2065	3.92962962963	-1.8288	14.3428571429	-0.05
414	0.207	2.51975308642	-0.4192	-11.6285714286	-1.5
415	0.2075	3.92962962963	0.9904	1.35714285714	-0.05
416	0.208	6.74938271605	16.496	1.35714285714	-1.5
417	0.2085	1.10987654321	-8.8768	-0.0857142857143	-1.5
418	0.209	8.15925925926	0.9904	1.35714285714	-0.05
419	0.2095	-4.52962962963	0.9904	2.8	-0.05
420	0.21	3.92962962963	-0.4192	2.8	10.1
421	0.2105	5.33950617284	0.9904	-2.97142857143	1.4
422	0.211	5.33950617284	2.4	-1.52857142857	-0.05
423	0.2115	5.33950617284	0.9904	5.68571428571	-0.05
424	0.212	3.92962962963	12.2672	1.35714285714	-0.05
425	0.2125	10.9790123457	0.9904	1.35714285714	-2.95
426	0.213	16.6185185185	2.4	1.35714285714	4.3
427	0.2135	-11.5790123457	3.8096	2.8	-11.65
428	0.214	-4.52962962963	5.2192	-1.52857142857	-5.85
429	0.2145	-3.11975308642	3.8096	4.24285714286	20.25
430	0.215	-4.52962962963	3.8096	-8.74285714286	-1.5
431	0.2155	-4.52962962963	6.6288	-0.0857142857143	-0.05
432	0.216	-4.52962962963	15.0864	2.8	-0.05
433	0.2165	-10.1691358025	5.2192	-0.0857142857143	4.3
434	0.217	8.15925925926	0.9904	1.35714285714	2.85
435	0.2175	-4.52962962963	3.8096	4.24285714286	8.65
436	0.218	-1.70987654321	2.4	-0.0857142857143	-7.3
437	0.2185	-4.52962962963	2.4	15.7857142857	1.4
438	0.219	-7.34938271605	3.8096	-0.0857142857143	1.4
439	0.2195	-3.11975308642	-1.8288	-0.0857142857143	-2.95
440	0.22	-4.52962962963	8.0384	1.35714285714	1.4
441	0.2205	-3.11975308642	-0.4192	1.35714285714	1.4
442	0.221	-8.75925925926	6.6288	1.35714285714	-0.05
443	0.2215	-0.3	6.6288	4.24285714286	-0.05
444	0.222	-3.11975308642	5.2192	-2.97142857143	-4.4
445	0.2225	-1.70987654321	6.6288	5.68571428571	-2.95
446	0.223	-3.11975308642	-0.4192	-1.52857142857	1.4
447	0.2235	-7.34938271605	9.448	-1.52857142857	1.4
448	0.224	-0.3	-3.2384	1.35714285714	-0.05
449	0.2245	-11.5790123457	2.4	1.35714285714	-2.95
450	0.225	19.4382716049	3.8096	-0.0857142857143	-11.65
451	0.2255	1.10987654321	2.4	-1.52857142857	18.8
452	0.226	2.51975308642	5.2192	4.24285714286	-5.85
453	0.2265	-1.70987654321	5.2192	-7.3	-0.05
454	0.227	-1.70987654321	-1.8288	-1.52857142857	1.4
455	0.2275	-3.11975308642	-6.0576	1.35714285714	1.4
456	0.228	-0.3	-8.8768	2.8	1.4
457	0.2285	-7.34938271605	-3.2384	1.35714285714	-1.5
458	0.229	6.74938271605	-1.8288	-0.0857142857143	4.3
459	0.2295	-1.70987654321	0.9904	2.8	-7.3
460	0.23	1.10987654321	0.9904	-0.0857142857143	13.0
461	0.2305	2.51975308642	3.8096	20.1142857143	-0.05
462	0.231	1.10987654321	3.8096	-7.3	-2.95
463	0.2315	1.10987654321	-10.2864	-0.0857142857143	-0.05
464	0.232	1.10987654321	-3.2384	1.35714285714	1.4
465	0.2325	-11.5790123457	3.8096	-0.0857142857143	1.4
466	0.233	19.4382716049	5.2192	1.35714285714	1.4
467	0.2335	-10.1691358025	0.9904	2.8	-8.75
468	0.234	-3.11975308642	0.9904	-0.0857142857143	8.65
469	0.2345	-3.11975308642	2.4	-5.85714285714	-4.4
470	0.235	-4.52962962963	0.9904	7.12857142857	-1.5
471	0.2355	-3.11975308642	16.496	-0.0857142857143	-0.05
472	0.236	-3.11975308642	0.9904	2.8	-0.05
473	0.2365	1.10987654321	2.4	-1.52857142857	-4.4
474	0.237	16.6185185185	5.2192	-2.97142857143	-0.05
475	0.2375	1.10987654321	5.2192	2.8	-0.05
476	0.238	1.10987654321	5.2192	-8.74285714286	-1.5
477	0.2385	-1.70987654321	3.8096	1.35714285714	1.4
478	0.239	-1.70987654321	-0.4192	12.9	-1.5
479	0.2395	-0.3	3.8096	2.8	-0.05
480	0.24	-0.3	-1.8288	1.35714285714	-0.05
481	0.2405	3.92962962963	3.8096	4.24285714286	2.85
482	0.241	-10.1691358025	-0.4192	1.35714285714	-1.5
483	0.2415	2.51975308642	-0.4192	-1.52857142857	14.45
484	0.242	2.51975308642	-0.4192	-0.0857142857143	-0.05
485	0.2425	1.10987654321	-0.4192	7.12857142857	-1.5
486	0.243	-0.3	0.9904	-2.97142857143	-0.05
487	0.2435	1.10987654321	-10.2864	-1.52857142857	-1.5
488	0.244	-1.70987654321	3.8096	-0.0857142857143	-0.05
489	0.2445	3.92962962963	-7.4672	-0.0857142857143	-0.05
490	0.245	13.7987654321	-6.0576	1.35714285714	1.4
491	0.2455	-3.11975308642	-6.0576	4.24285714286	-11.65
492	0.246	1.10987654321	-7.4672	-8.74285714286	-0.05
493	0.2465	1.10987654321	-6.0576	18.6714285714	-0.05
494	0.247	2.51975308642	-10.2864	-5.85714285714	-0.05
495	0.2475	5.33950617284	-3.2384	-0.0857142857143	-0.05
496	0.248	2.51975308642	-14.5152	2.8	-0.05
497	0.2485	-0.3	-7.4672	-1.52857142857	-0.05
498	0.249	10.9790123457	-7.4672	-0.0857142857143	-0.05
499	0.2495	3.92962962963	-4.648	7.12857142857	-4.4
500	0.25	5.33950617284	-7.4672	-8.74285714286	-4.4
501	0.2505	5.33950617284	-1.8288	17.2285714286	2.85
502	0.251	8.15925925926	-10.2864	-0.0857142857143	-0.05
503	0.2515	5.33950617284	13.6768	-0.0857142857143	-0.05
504	0.252	2.51975308642	-7.4672	-1.52857142857	-0.05
505	0.2525	2.51975308642	-6.0576	-0.0857142857143	-0.05
506	0.253	-3.11975308642	-6.0576	-0.0857142857143	-2.95
507	0.2535	1.10987654321	-6.0576	2.8	-2.95
508	0.254	3.92962962963	-6.0576	-4.41428571429	-5.85
509	0.2545	3.92962962963	-0.4192	14.3428571429	-0.05
510	0.255	1.10987654321	-11.696	4.24285714286	-0.05
511	0.2555	1.10987654321	19.3152	-0.0857142857143	1.4
512	0.256	-4.52962962963	-10.2864	-1.52857142857	-0.05
513	0.2565	1.10987654321	0.9904	2.8	-1.5
514	0.257	-7.34938271605	-0.4192	2.8	-0.05
515	0.2575	1.10987654321	-0.4192	4.24285714286	-2.95
516	0.258	-1.70987654321	0.9904	15.7857142857	-2.95
517	0.2585	-0.3	2.4	-13.0714285714	-1.5
518	0.259	-0.3	-3.2384	1.35714285714	-0.05
519	0.2595	2.51975308642	15.0864	-0.0857142857143	-0.05
520	0.26	2.51975308642	3.8096	2.8	1.4
521	0.2605	-12.9888888889	6.6288	1.35714285714	-0.05
522	0.261	-0.3	5.2192	-1.52857142857	15.9
523	0.2615	-0.3	0.9904	-1.52857142857	-1.5
524	0.262	-0.3	0.9904	-0.0857142857143	-0.05
525	0.2625	-3.11975308642	-1.8288	15.7857142857	-1.5
526	0.263	1.10987654321	19.3152	1.35714285714	1.4
527	0.2635	-0.3	-1.8288	1.35714285714	-0.05
528	0.264	-3.11975308642	0.9904	-0.0857142857143	-0.05
529	0.2645	5.33950617284	0.9904	4.24285714286	-5.85
530	0.265	-1.70987654321	-0.4192	-1.52857142857	8.65
531	0.2655	2.51975308642	0.9904	4.24285714286	-4.4
532	0.266	2.51975308642	0.9904	-7.3	-0.05
533	0.2665	2.51975308642	6.6288	-0.0857142857143	1.4
534	0.267	2.51975308642	-4.648	1.35714285714	1.4
535	0.2675	-1.70987654321	3.8096	2.8	-0.05
536	0.268	1.10987654321	-4.648	2.8	-0.05
537	0.2685	-8.75925925926	2.4	1.35714285714	17.35
538	0.269	1.10987654321	2.4	4.24285714286	-8.75
539	0.2695	3.92962962963	6.6288	-8.74285714286	-0.05
540	0.27	1.10987654321	3.8096	-7.3	-1.5
541	0.2705	3.92962962963	-6.0576	2.8	-1.5
542	0.271	9.56913580247	-0.4192	2.8	-0.05
543	0.2715	1.10987654321	6.6288	2.8	2.85
544	0.272	-12.9888888889	6.6288	-0.0857142857143	-1.5
545	0.2725	2.51975308642	10.8576	-1.52857142857	1.4
546	0.273	3.92962962963	16.496	2.8	-5.85
547	0.2735	3.92962962963	20.7248	-13.0714285714	-2.95
548	0.274	3.92962962963	22.1344	-2.97142857143	-2.95
549	0.2745	2.51975308642	6.6288	-1.52857142857	-0.05
550	0.275	3.92962962963	6.6288	1.35714285714	-1.5
551	0.2755	3.92962962963	10.8576	1.35714285714	-1.5
552	0.276	-10.1691358025	13.6768	2.8	5.75
553	0.2765	-5.93950617284	15.0864	2.8	-11.65
554	0.277	2.51975308642	13.6768	-7.3	-1.5
555	0.2775	2.51975308642	16.496	11.4571428571	-0.05
556	0.278	5.33950617284	10.8576	2.8	-0.05
557	0.2785	3.92962962963	16.496	-0.0857142857143	-0.05
558	0.279	5.33950617284	13.6768	1.35714285714	-2.95
559	0.2795	-3.11975308642	8.0384	1.35714285714	-0.05
560	0.28	9.56913580247	6.6288	-0.0857142857143	-0.05
561	0.2805	-0.3	6.6288	4.24285714286	14.45
562	0.281	-0.3	5.2192	17.2285714286	-2.95
563	0.2815	-0.3	6.6288	-10.1857142857	-0.05
564	0.282	1.10987654321	9.448	1.35714285714	-0.05
565	0.2825	1.10987654321	-4.648	-0.0857142857143	-1.5
566	0.283	-0.3	2.4	-1.52857142857	-0.05
567	0.2835	-7.34938271605	6.6288	-0.0857142857143	-1.5
568	0.284	20.8481481481	6.6288	-0.0857142857143	1.4
569	0.2845	-10.1691358025	3.8096	1.35714285714	20.25
570	0.285	1.10987654321	5.2192	2.8	-7.3
571	0.2855	-0.3	6.6288	-7.3	-1.5
572	0.286	1.10987654321	2.4	-0.0857142857143	-0.05
573	0.2865	1.10987654321	-0.4192	-0.0857142857143	-1.5
574	0.287	2.51975308642	17.9056	2.8	-0.05
575	0.2875	3.92962962963	6.6288	2.8	1.4
576	0.288	20.8481481481	5.2192	-0.0857142857143	-1.5
577	0.2885	-4.52962962963	6.6288	4.24285714286	17.35
578	0.289	3.92962962963	6.6288	-0.0857142857143	-7.3
579	0.2895	2.51975308642	5.2192	-2.97142857143	-0.05
580	0.29	3.92962962963	6.6288	-0.0857142857143	-0.05
581	0.2905	1.10987654321	6.6288	-4.41428571429	1.4
582	0.291	2.51975308642	8.0384	-0.0857142857143	-1.5
583	0.2915	-11.5790123457	5.2192	-0.0857142857143	1.4
584	0.292	16.6185185185	8.0384	2.8	2.85
585	0.2925	-10.1691358025	5.2192	-0.0857142857143	14.45
586	0.293	-4.52962962963	10.8576	-2.97142857143	-14.55
587	0.2935	-0.3	13.6768	15.7857142857	-1.5
588	0.294	-0.3	10.8576	-5.85714285714	-0.05
589	0.2945	-0.3	20.7248	-0.0857142857143	-0.05
590	0.295	5.33950617284	6.6288	1.35714285714	-0.05
591	0.2955	-8.75925925926	10.8576	-0.0857142857143	-0.05
592	0.296	25.0777777778	9.448	1.35714285714	-1.5
593	0.2965	3.92962962963	9.448	1.35714285714	-10.2
594	0.297	2.51975308642	8.0384	-0.0857142857143	13.0
595	0.2975	-0.3	6.6288	-2.97142857143	-7.3
596	0.298	-0.3	-1.8288	1.35714285714	-0.05
597	0.2985	5.33950617284	3.8096	-1.52857142857	-1.5
598	0.299	-0.3	10.8576	-0.0857142857143	1.4
599	0.2995	-7.34938271605	9.448	-0.0857142857143	-2.95
600	0.3	25.0777777778	9.448	2.8	-0.05
601	0.3005	3.92962962963	8.0384	-1.52857142857	-4.4
602	0.301	-0.3	2.4	1.35714285714	-0.05
603	0.3015	-1.70987654321	-1.8288	-0.0857142857143	-0.05
604	0.302	-3.11975308642	-10.2864	-1.52857142857	-0.05
605	0.3025	-5.93950617284	-6.0576	-0.0857142857143	-1.5
606	0.303	-0.3	-0.4192	-0.0857142857143	-0.05
607	0.3035	-10.1691358025	3.8096	-1.52857142857	-0.05
608	0.304	-8.75925925926	-1.8288	2.8	1.4
609	0.3045	-1.70987654321	-1.8288	11.4571428571	-0.05
610	0.305	-0.3	-1.8288	-2.97142857143	-1.5
611	0.3055	-0.3	-0.4192	2.8	-2.95
612	0.306	1.10987654321	-6.0576	1.35714285714	1.4
613	0.3065	1.10987654321	6.6288	2.8	-0.05
614	0.307	13.7987654321	-0.4192	1.35714285714	-0.05
615	0.3075	-3.11975308642	3.8096	-0.0857142857143	-2.95
616	0.308	1.10987654321	0.9904	1.35714285714	2.85
617	0.3085	-1.70987654321	5.2192	7.12857142857	-0.05
618	0.309	1.10987654321	6.6288	-4.41428571429	-0.05
619	0.3095	1.10987654321	-6.0576	1.35714285714	-0.05
620	0.31	1.10987654321	22.1344	-1.52857142857	1.4
621	0.3105	-12.9888888889	6.6288	2.8	-1.5
622	0.311	18.0283950617	5.2192	-0.0857142857143	2.85
623	0.3115	-10.1691358025	9.448	1.35714285714	18.8
624	0.312	-3.11975308642	15.0864	2.8	-4.4
625	0.3125	1.10987654321	17.9056	-1.52857142857	17.35
626	0.313	-0.3	10.8576	2.8	1.4
627	0.3135	1.10987654321	6.6288	2.8	-0.05
628	0.314	2.51975308642	27.7728	1.35714285714	-1.5
629	0.3145	1.10987654321	12.2672	-1.52857142857	-0.05
630	0.315	16.6185185185	15.0864	-1.52857142857	-1.5
631	0.3155	-4.52962962963	16.496	-1.52857142857	8.65
632	0.316	3.92962962963	16.496	2.8	1.4
633	0.3165	2.51975308642	16.496	-7.3	-0.05
634	0.317	3.92962962963	17.9056	1.35714285714	-7.3
635	0.3175	1.10987654321	5.2192	-2.97142857143	1.4
636	0.318	1.10987654321	23.544	2.8	-1.5
637	0.3185	1.10987654321	9.448	-0.0857142857143	-2.95
638	0.319	22.2580246914	17.9056	-0.0857142857143	1.4
639	0.3195	-4.52962962963	20.7248	2.8	-7.3
640	0.32	8.15925925926	15.0864	2.8	-5.85
641	0.3205	6.74938271605	17.9056	-0.0857142857143	1.4
642	0.321	2.51975308642	9.448	17.2285714286	-1.5
643	0.3215	3.92962962963	16.496	-4.41428571429	-1.5
644	0.322	3.92962962963	-0.4192	-0.0857142857143	-1.5
645	0.3225	8.15925925926	5.2192	-0.0857142857143	-0.05
646	0.323	-5.93950617284	8.0384	-0.0857142857143	2.85
647	0.3235	18.0283950617	6.6288	-0.0857142857143	-7.3
648	0.324	1.10987654321	5.2192	-0.0857142857143	10.1
649	0.3245	2.51975308642	6.6288	7.12857142857	-0.05
650	0.325	1.10987654321	3.8096	11.4571428571	-1.5
651	0.3255	1.10987654321	6.6288	-2.97142857143	-0.05
652	0.326	2.51975308642	-6.0576	1.35714285714	-1.5
653	0.3265	-3.11975308642	0.9904	-1.52857142857	-0.05
654	0.327	9.56913580247	0.9904	-0.0857142857143	2.85
655	0.3275	2.51975308642	2.4	7.12857142857	-7.3
656	0.328	1.10987654321	-0.4192	-8.74285714286	-0.05
657	0.3285	1.10987654321	5.2192	17.2285714286	-0.05
658	0.329	2.51975308642	2.4	-5.85714285714	-0.05
659	0.3295	1.10987654321	2.4	-0.0857142857143	-0.05
660	0.33	-1.70987654321	-8.8768	-0.0857142857143	-2.95
661	0.3305	-7.34938271605	-0.4192	-1.52857142857	-0.05
662	0.331	5.33950617284	-0.4192	-0.0857142857143	-7.3
663	0.3315	-3.11975308642	-1.8288	-1.52857142857	13.0
664	0.332	-5.93950617284	-0.4192	2.8	-8.75
665	0.3325	-3.11975308642	2.4	-7.3	2.85
666	0.333	-3.11975308642	-0.4192	2.8	-1.5
667	0.3335	-3.11975308642	-0.4192	1.35714285714	-0.05
668	0.334	-0.3	13.6768	-0.0857142857143	-0.05
669	0.3345	3.92962962963	0.9904	-0.0857142857143	1.4
670	0.335	5.33950617284	2.4	2.8	5.75
671	0.3355	-1.70987654321	0.9904	5.68571428571	-0.05
672	0.336	-3.11975308642	-0.4192	-0.0857142857143	10.1
673	0.3365	-1.70987654321	0.9904	12.9	-1.5
674	0.337	-3.11975308642	2.4	-4.41428571429	-0.05
675	0.3375	-4.52962962963	17.9056	-0.0857142857143	1.4
676	0.338	-1.70987654321	-7.4672	2.8	-0.05
677	0.3385	-10.1691358025	2.4	-1.52857142857	1.4
678	0.339	13.7987654321	-0.4192	2.8	-0.05
679	0.3395	-7.34938271605	0.9904	-1.52857142857	-0.05
680	0.34	-1.70987654321	3.8096	4.24285714286	-0.05
681	0.3405	-4.52962962963	-1.8288	2.8	-1.5
682	0.341	-3.11975308642	3.8096	-0.0857142857143	1.4
683	0.3415	-4.52962962963	-10.2864	-4.41428571429	-1.5
684	0.342	-1.70987654321	-3.2384	2.8	-1.5
685	0.3425	-14.3987654321	-3.2384	1.35714285714	4.3
686	0.343	16.6185185185	-6.0576	-0.0857142857143	-0.05
687	0.3435	-3.11975308642	-4.648	2.8	-0.05
688	0.344	-4.52962962963	-6.0576	15.7857142857	1.4
689	0.3445	-3.11975308642	-4.648	-7.3	2.85
690	0.345	-1.70987654321	-8.8768	1.35714285714	2.85
691	0.3455	-4.52962962963	9.448	2.8	-0.05
692	0.346	-5.93950617284	-4.648	-1.52857142857	2.85
693	0.3465	-4.52962962963	-1.8288	2.8	-2.95
694	0.347	10.9790123457	-4.648	-0.0857142857143	-0.05
695	0.3475	-4.52962962963	-4.648	-0.0857142857143	-8.75
696	0.348	-4.52962962963	-8.8768	-7.3	-0.05
697	0.3485	-4.52962962963	-4.648	12.9	-1.5
698	0.349	-1.70987654321	-4.648	1.35714285714	-0.05
699	0.3495	-1.70987654321	-1.8288	-4.41428571429	-0.05
700	0.35	-5.93950617284	-3.2384	2.8	-0.05
701	0.3505	-8.75925925926	0.9904	1.35714285714	-0.05
702	0.351	-0.3	0.9904	2.8	-4.4
703	0.3515	-8.75925925926	-0.4192	-0.0857142857143	2.85
704	0.352	-5.93950617284	-1.8288	7.12857142857	1.4
705	0.3525	-5.93950617284	-1.8288	-1.52857142857	4.3
706	0.353	-3.11975308642	3.8096	1.35714285714	-0.05
707	0.3535	-7.34938271605	-10.2864	-1.52857142857	1.4
708	0.354	-3.11975308642	-4.648	-0.0857142857143	-0.05
709	0.3545	-15.8086419753	5.2192	1.35714285714	-0.05
710	0.355	12.3888888889	3.8096	-0.0857142857143	4.3
711	0.3555	-12.9888888889	8.0384	2.8	17.35
712	0.356	-3.11975308642	6.6288	-8.74285714286	-7.3
713	0.3565	-4.52962962963	3.8096	2.8	17.35
714	0.357	-4.52962962963	6.6288	-7.3	1.4
715	0.3575	-1.70987654321	6.6288	2.8	-1.5
716	0.358	-5.93950617284	-4.648	-0.0857142857143	-0.05
717	0.3585	-15.8086419753	5.2192	-0.0857142857143	2.85
718	0.359	-15.8086419753	8.0384	4.24285714286	-10.2
719	0.3595	-7.34938271605	6.6288	-1.52857142857	-4.4
720	0.36	-5.93950617284	6.6288	-11.6285714286	-1.5
721	0.3605	-4.52962962963	13.6768	18.6714285714	-0.05
722	0.361	-1.70987654321	6.6288	-2.97142857143	1.4
723	0.3615	-0.3	27.7728	4.24285714286	-1.5
724	0.362	-3.11975308642	2.4	-0.0857142857143	2.85
725	0.3625	2.51975308642	15.0864	-1.52857142857	-0.05
726	0.363	-7.34938271605	9.448	1.35714285714	-1.5
727	0.3635	1.10987654321	10.8576	4.24285714286	4.3
728	0.364	2.51975308642	16.496	17.2285714286	-0.05
729	0.3645	-0.3	10.8576	-8.74285714286	-0.05
730	0.365	-0.3	16.496	-1.52857142857	-0.05
731	0.3655	1.10987654321	29.1824	2.8	-1.5
732	0.366	-1.70987654321	3.8096	-0.0857142857143	-0.05
733	0.3665	1.10987654321	9.448	2.8	1.4
734	0.367	-10.1691358025	6.6288	-0.0857142857143	-1.5
735	0.3675	-1.70987654321	9.448	1.35714285714	13.0
736	0.368	-1.70987654321	9.448	-1.52857142857	-7.3
737	0.3685	-0.3	5.2192	4.24285714286	1.4
738	0.369	1.10987654321	-1.8288	-2.97142857143	1.4
739	0.3695	2.51975308642	24.9536	-1.52857142857	-0.05
740	0.37	2.51975308642	5.2192	1.35714285714	-0.05
741	0.3705	-11.5790123457	9.448	1.35714285714	-1.5
742	0.371	18.0283950617	8.0384	-0.0857142857143	-10.2
743	0.3715	-3.11975308642	10.8576	1.35714285714	15.9
744	0.372	-1.70987654321	9.448	2.8	-10.2
745	0.3725	-3.11975308642	8.0384	15.7857142857	-2.95
746	0.373	-3.11975308642	3.8096	1.35714285714	-1.5
747	0.3735	-0.3	17.9056	-1.52857142857	-0.05
748	0.374	-3.11975308642	2.4	-0.0857142857143	-0.05
749	0.3745	-10.1691358025	5.2192	1.35714285714	1.4
750	0.375	-11.5790123457	0.9904	-0.0857142857143	-1.5
751	0.3755	-3.11975308642	2.4	2.8	-1.5
752	0.376	-0.3	2.4	12.9	-1.5
753	0.3765	1.10987654321	0.9904	-1.52857142857	-0.05
754	0.377	-3.11975308642	3.8096	1.35714285714	-0.05
755	0.3775	1.10987654321	-11.696	-0.0857142857143	-0.05
756	0.378	-4.52962962963	-0.4192	1.35714285714	1.4
757	0.3785	13.7987654321	-3.2384	1.35714285714	-0.05
758	0.379	-10.1691358025	-0.4192	4.24285714286	-2.95
759	0.3795	-4.52962962963	-1.8288	2.8	-0.05
760	0.38	-4.52962962963	-1.8288	-5.85714285714	-5.85
761	0.3805	-4.52962962963	2.4	-0.0857142857143	-1.5
762	0.381	-0.3	-13.1056	-1.52857142857	-0.05
763	0.3815	-5.93950617284	-10.2864	-0.0857142857143	1.4
764	0.382	-1.70987654321	-3.2384	-0.0857142857143	1.4
765	0.3825	-8.75925925926	-0.4192	1.35714285714	-0.05
766	0.383	-0.3	-3.2384	-0.0857142857143	-5.85
767	0.3835	-0.3	-4.648	1.35714285714	-1.5
768	0.384	-4.52962962963	-6.0576	2.8	-1.5
769	0.3845	-4.52962962963	-4.648	-1.52857142857	-0.05
770	0.385	-3.11975308642	-17.3344	1.35714285714	-0.05
771	0.3855	-4.52962962963	-10.2864	-0.0857142857143	-0.05
772	0.386	-18.6283950617	-8.8768	1.35714285714	-2.95
773	0.3865	10.9790123457	-8.8768	1.35714285714	-1.5
774	0.387	-14.3987654321	-8.8768	1.35714285714	8.65
775	0.3875	-5.93950617284	-6.0576	8.57142857143	-0.05
776	0.388	-5.93950617284	-8.8768	-0.0857142857143	-0.05
777	0.3885	-5.93950617284	-18.744	-0.0857142857143	1.4
778	0.389	-5.93950617284	6.6288	2.8	1.4
779	0.3895	-4.52962962963	-13.1056	1.35714285714	-1.5
780	0.39	15.2086419753	-1.8288	1.35714285714	-1.5
781	0.3905	-12.9888888889	-3.2384	1.35714285714	-1.5
782	0.391	-4.52962962963	-3.2384	2.8	10.1
783	0.3915	-4.52962962963	-1.8288	-5.85714285714	-4.4
784	0.392	-4.52962962963	-7.4672	10.0142857143	1.4
785	0.3925	-1.70987654321	-13.1056	1.35714285714	1.4
786	0.393	-3.11975308642	16.496	1.35714285714	-0.05
787	0.3935	3.92962962963	-0.4192	1.35714285714	-1.5
788	0.394	-5.93950617284	2.4	-0.0857142857143	1.4
789	0.3945	15.2086419753	-0.4192	1.35714285714	-0.05
790	0.395	-0.3	3.8096	-1.52857142857	-2.95
791	0.3955	-0.3	3.8096	1.35714285714	-0.05
792	0.396	2.51975308642	5.2192	-4.41428571429	-0.05
793	0.3965	1.10987654321	10.8576	-2.97142857143	-0.05
794	0.397	-0.3	3.8096	2.8	-1.5
795	0.3975	5.33950617284	8.0384	1.35714285714	1.4
796	0.398	-11.5790123457	5.2192	1.35714285714	2.85
797	0.3985	-8.75925925926	3.8096	2.8	-11.65
798	0.399	1.10987654321	2.4	-0.0857142857143	-5.85
799	0.3995	-0.3	2.4	5.68571428571	-1.5
800	0.4	-0.3	2.4	-7.3	-7.3
801	0.4005	-0.3	5.2192	1.35714285714	-0.05
802	0.401	-0.3	-4.648	1.35714285714	-1.5
803	0.4015	-1.70987654321	-0.4192	-0.0857142857143	1.4
804	0.402	-0.3	-0.4192	1.35714285714	-0.05
805	0.4025	9.56913580247	-0.4192	1.35714285714	2.85
806	0.403	-1.70987654321	0.9904	4.24285714286	-7.3
807	0.4035	-1.70987654321	0.9904	-0.0857142857143	14.45
808	0.404	-1.70987654321	2.4	-4.41428571429	-5.85
809	0.4045	-3.11975308642	-13.1056	-0.0857142857143	-0.05
810	0.405	-0.3	-4.648	1.35714285714	-2.95
811	0.4055	2.51975308642	0.9904	1.35714285714	1.4
812	0.406	-8.75925925926	3.8096	1.35714285714	-0.05
813	0.4065	-0.3	2.4	1.35714285714	13.0
814	0.407	1.10987654321	3.8096	-2.97142857143	-0.05
815	0.4075	1.10987654321	3.8096	-1.52857142857	-0.05
816	0.408	2.51975308642	0.9904	12.9	-0.05
817	0.4085	2.51975308642	-6.0576	-0.0857142857143	-0.05
818	0.409	-1.70987654321	-4.648	4.24285714286	-1.5
819	0.4095	-3.11975308642	2.4	4.24285714286	1.4
820	0.41	5.33950617284	3.8096	1.35714285714	-0.05
821	0.4105	-3.11975308642	3.8096	4.24285714286	-7.3
822	0.411	-3.11975308642	5.2192	-10.1857142857	-1.5
823	0.4115	-1.70987654321	8.0384	-7.3	-1.5
824	0.412	1.10987654321	6.6288	17.2285714286	-0.05
825	0.4125	-0.3	19.3152	-1.52857142857	1.4
826	0.413	3.92962962963	8.0384	1.35714285714	-0.05
827	0.4135	15.2086419753	6.6288	1.35714285714	4.3
828	0.414	-7.34938271605	9.448	1.35714285714	-11.65
829	0.4145	3.92962962963	8.0384	-0.0857142857143	15.9
830	0.415	1.10987654321	6.6288	4.24285714286	1.4
831	0.4155	-0.3	8.0384	-2.97142857143	-0.05
832	0.416	1.10987654321	17.9056	-0.0857142857143	-0.05
833	0.4165	-4.52962962963	2.4	-0.0857142857143	1.4
834	0.417	1.10987654321	0.9904	-0.0857142857143	-1.5
835	0.4175	16.6185185185	-0.4192	-1.52857142857	2.85
836	0.418	-4.52962962963	-0.4192	1.35714285714	-7.3
837	0.4185	-4.52962962963	-0.4192	-5.85714285714	2.85
838	0.419	-7.34938271605	2.4	11.4571428571	2.85
839	0.4195	-5.93950617284	3.8096	-1.52857142857	1.4
840	0.42	-4.52962962963	17.9056	-0.0857142857143	-0.05
841	0.4205	1.10987654321	3.8096	-0.0857142857143	-0.05
842	0.421	-15.8086419753	2.4	2.8	2.85
843	0.4215	15.2086419753	2.4	-1.52857142857	2.85
844	0.422	-5.93950617284	0.9904	-0.0857142857143	-7.3
845	0.4225	-8.75925925926	-0.4192	-0.0857142857143	17.35
846	0.423	-8.75925925926	-3.2384	11.4571428571	-0.05
847	0.4235	-10.1691358025	0.9904	-0.0857142857143	-1.5
848	0.424	-11.5790123457	0.9904	-0.0857142857143	-0.05
849	0.4245	-7.34938271605	-4.648	-0.0857142857143	2.85
850	0.425	-21.4481481481	-1.8288	2.8	1.4
851	0.4255	-10.1691358025	-4.648	2.8	5.75
852	0.426	-8.75925925926	-4.648	-0.0857142857143	-10.2
853	0.4265	-8.75925925926	-6.0576	-4.41428571429	-0.05
854	0.427	-10.1691358025	-7.4672	7.12857142857	1.4
855	0.4275	-8.75925925926	5.2192	2.8	1.4
856	0.428	-11.5790123457	-13.1056	1.35714285714	1.4
857	0.4285	-3.11975308642	-7.4672	1.35714285714	1.4
858	0.429	-15.8086419753	-10.2864	1.35714285714	-2.95
859	0.4295	-5.93950617284	-8.8768	-0.0857142857143	-1.5
860	0.43	-5.93950617284	-8.8768	-8.74285714286	-4.4
861	0.4305	-5.93950617284	-8.8768	17.2285714286	-1.5
862	0.431	-8.75925925926	-17.3344	-1.52857142857	1.4
863	0.4315	-4.52962962963	3.8096	1.35714285714	1.4
864	0.432	-8.75925925926	-8.8768	2.8	2.85
865	0.4325	9.56913580247	-8.8768	1.35714285714	-0.05
866	0.433	-4.52962962963	-10.2864	2.8	2.85
867	0.4335	-1.70987654321	-11.696	-8.74285714286	-0.05
868	0.434	-4.52962962963	-10.2864	-10.1857142857	-0.05
869	0.4345	-3.11975308642	-11.696	17.2285714286	-0.05
870	0.435	-4.52962962963	-17.3344	-0.0857142857143	-1.5
871	0.4355	-3.11975308642	-4.648	-0.0857142857143	-0.05
872	0.436	-7.34938271605	-13.1056	-0.0857142857143	-0.05
873	0.4365	-4.52962962963	-11.696	1.35714285714	-8.75
874	0.437	-3.11975308642	-13.1056	-0.0857142857143	-0.05
875	0.4375	-0.3	-10.2864	4.24285714286	-4.4
876	0.438	1.10987654321	-8.8768	-8.74285714286	-0.05
877	0.4385	3.92962962963	-7.4672	-0.0857142857143	-2.95
878	0.439	3.92962962963	5.2192	1.35714285714	-1.5
879	0.4395	1.10987654321	-17.3344	-1.52857142857	-1.5
880	0.44	-3.11975308642	-10.2864	2.8	-2.95
881	0.4405	3.92962962963	-11.696	-0.0857142857143	2.85
882	0.441	5.33950617284	-11.696	2.8	-16.0
883	0.4415	8.15925925926	-14.5152	-7.3	-2.95
884	0.442	10.9790123457	-14.5152	8.57142857143	-1.5
885	0.4425	12.3888888889	-20.1536	-2.97142857143	-2.95
886	0.443	13.7987654321	-17.3344	-0.0857142857143	-4.4
887	0.4435	1.10987654321	-14.5152	-0.0857142857143	-2.95
888	0.444	32.1271604938	-11.696	-1.52857142857	-0.05
889	0.4445	6.74938271605	-14.5152	1.35714285714	-8.75
890	0.445	18.0283950617	-11.696	2.8	1.4
891	0.4455	19.4382716049	-14.5152	-7.3	-7.3
892	0.446	20.8481481481	-15.9248	17.2285714286	-2.95
893	0.4465	25.0777777778	5.2192	-0.0857142857143	-2.95
894	0.447	26.487654321	-10.2864	1.35714285714	-1.5
895	0.4475	25.0777777778	-15.9248	2.8	-1.5
896	0.448	32.1271604938	-8.8768	-1.52857142857	7.2
897	0.4485	34.9469135802	-6.0576	4.24285714286	-4.4
898	0.449	34.9469135802	-4.648	18.6714285714	-1.5
899	0.4495	34.9469135802	-3.2384	-8.74285714286	-1.5
900	0.45	34.9469135802	-7.4672	-0.0857142857143	-4.4
901	0.4505	36.3567901235	-10.2864	-0.0857142857143	-4.4
902	0.451	40.5864197531	-6.0576	-0.0857142857143	-0.05
903	0.4515	26.487654321	-4.648	-0.0857142857143	-0.05
904	0.452	34.9469135802	-4.648	-1.52857142857	-14.55
905	0.4525	37.7666666667	-4.648	4.24285714286	13.0
906	0.453	37.7666666667	-3.2384	-0.0857142857143	-11.65
907	0.4535	36.3567901235	-4.648	14.3428571429	-0.05
908	0.454	33.537037037	-7.4672	-0.0857142857143	-2.95
909	0.4545	37.7666666667	-3.2384	-0.0857142857143	-1.5
910	0.455	20.8481481481	-6.0576	-1.52857142857	1.4
911	0.4555	29.3074074074	-7.4672	5.68571428571	-13.1
912	0.456	36.3567901235	-3.2384	-0.0857142857143	4.3
913	0.4565	41.9962962963	-4.648	-0.0857142857143	-7.3
914	0.457	39.1765432099	-7.4672	-7.3	1.4
915	0.4575	37.7666666667	-11.696	-0.0857142857143	2.85
916	0.458	36.3567901235	-1.8288	2.8	2.85
917	0.4585	33.537037037	-7.4672	-0.0857142857143	1.4
918	0.459	32.1271604938	-4.648	-0.0857142857143	2.85
919	0.4595	19.4382716049	-0.4192	-0.0857142857143	-0.05
920	0.46	27.8975308642	-0.4192	-0.0857142857143	2.85
921	0.4605	26.487654321	3.8096	4.24285714286	-7.3
922	0.461	29.3074074074	5.2192	-7.3	1.4
923	0.4615	27.8975308642	3.8096	15.7857142857	1.4
924	0.462	26.487654321	9.448	-0.0857142857143	1.4
925	0.4625	27.8975308642	5.2192	1.35714285714	1.4
926	0.463	16.6185185185	10.8576	2.8	-0.05
927	0.4635	33.537037037	12.2672	2.8	-8.75
928	0.464	22.2580246914	9.448	2.8	17.35
929	0.4645	19.4382716049	8.0384	-1.52857142857	-11.65
930	0.465	18.0283950617	15.0864	18.6714285714	1.4
931	0.4655	16.6185185185	16.496	-8.74285714286	1.4
932	0.466	12.3888888889	17.9056	-0.0857142857143	1.4
933	0.4665	9.56913580247	10.8576	-0.0857142857143	2.85
934	0.467	15.2086419753	19.3152	-0.0857142857143	4.3
935	0.4675	8.15925925926	19.3152	4.24285714286	8.65
936	0.468	1.10987654321	17.9056	5.68571428571	1.4
937	0.4685	2.51975308642	19.3152	1.35714285714	15.9
938	0.469	-1.70987654321	15.0864	1.35714285714	4.3
939	0.4695	-3.11975308642	3.8096	-0.0857142857143	1.4
940	0.47	-4.52962962963	30.592	-0.0857142857143	2.85
941	0.4705	-10.1691358025	2.4	-1.52857142857	2.85
942	0.471	5.33950617284	8.0384	2.8	5.75
943	0.4715	-17.2185185185	9.448	1.35714285714	15.9
944	0.472	-10.1691358025	9.448	-2.97142857143	-4.4
945	0.4725	-10.1691358025	9.448	5.68571428571	2.85
946	0.473	-5.93950617284	15.0864	4.24285714286	2.85
947	0.4735	-5.93950617284	20.7248	-0.0857142857143	-0.05
948	0.474	-11.5790123457	-3.2384	-1.52857142857	2.85
949	0.4745	-0.3	2.4	1.35714285714	4.3
950	0.475	-18.6283950617	2.4	-0.0857142857143	-2.95
951	0.4755	-5.93950617284	2.4	-1.52857142857	-7.3
952	0.476	-7.34938271605	-0.4192	-11.6285714286	-0.05
953	0.4765	-7.34938271605	2.4	21.5571428571	-0.05
954	0.477	-7.34938271605	-4.648	-0.0857142857143	1.4
955	0.4775	-7.34938271605	13.6768	-0.0857142857143	2.85
956	0.478	-10.1691358025	-4.648	1.35714285714	1.4
957	0.4785	-5.93950617284	-1.8288	-0.0857142857143	-0.05
958	0.479	10.9790123457	-6.0576	-1.52857142857	4.3
959	0.4795	-10.1691358025	-1.8288	2.8	-11.65
960	0.48	-8.75925925926	-1.8288	-13.0714285714	1.4
961	0.4805	-10.1691358025	-6.0576	17.2285714286	2.85
962	0.481	-10.1691358025	-6.0576	1.35714285714	1.4
963	0.4815	-8.75925925926	10.8576	-0.0857142857143	1.4
964	0.482	-12.9888888889	-6.0576	1.35714285714	4.3
965	0.4825	-8.75925925926	-4.648	-0.0857142857143	-0.05
966	0.483	5.33950617284	-7.4672	-0.0857142857143	4.3
967	0.4835	-12.9888888889	-10.2864	2.8	-10.2
968	0.484	-12.9888888889	-8.8768	-10.1857142857	1.4
969	0.4845	-12.9888888889	-4.648	-8.74285714286	1.4
970	0.485	-12.9888888889	-3.2384	-4.41428571429	1.4
971	0.4855	-10.1691358025	-14.5152	-1.52857142857	-0.05
972	0.486	-8.75925925926	-10.2864	-1.52857142857	2.85
973	0.4865	-20.0382716049	-6.0576	-1.52857142857	1.4
974	0.487	-10.1691358025	-7.4672	1.35714285714	-4.4
975	0.4875	-17.2185185185	-8.8768	1.35714285714	8.65
976	0.488	-14.3987654321	-8.8768	-2.97142857143	-4.4
977	0.4885	-17.2185185185	-8.8768	4.24285714286	1.4
978	0.489	-15.8086419753	-15.9248	1.35714285714	1.4
979	0.4895	-12.9888888889	-10.2864	1.35714285714	-1.5
980	0.49	-15.8086419753	-15.9248	-1.52857142857	1.4
981	0.4905	-4.52962962963	-11.696	1.35714285714	1.4
982	0.491	-14.3987654321	-10.2864	2.8	-5.85
983	0.4915	-17.2185185185	-11.696	-0.0857142857143	7.2
984	0.492	-14.3987654321	-7.4672	-5.85714285714	-4.4
985	0.4925	-11.5790123457	-6.0576	-5.85714285714	1.4
986	0.493	-10.1691358025	-15.9248	1.35714285714	1.4
987	0.4935	-5.93950617284	-4.648	-1.52857142857	1.4
988	0.494	-10.1691358025	-7.4672	1.35714285714	2.85
989	0.4945	-17.2185185185	-4.648	1.35714285714	-1.5
990	0.495	-5.93950617284	-0.4192	1.35714285714	4.3
991	0.4955	-8.75925925926	-0.4192	4.24285714286	1.4
992	0.496	-10.1691358025	-3.2384	20.1142857143	-0.05
993	0.4965	-8.75925925926	-4.648	-7.3	-0.05
994	0.497	-8.75925925926	-1.8288	1.35714285714	1.4
995	0.4975	-11.5790123457	-6.0576	-0.0857142857143	4.3
996	0.498	-12.9888888889	2.4	-0.0857142857143	-1.5
997	0.4985	-5.93950617284	-1.8288	2.8	-4.4
998	0.499	-14.3987654321	-3.2384	-0.0857142857143	10.1
999	0.4995	-10.1691358025	-3.2384	2.8	-1.5
1000	0.5	-10.1691358025	-4.648	-8.74285714286	-1.5
1001	0.5005	-10.1691358025	0.9904	-1.52857142857	-0.05
1002	0.501	-10.1691358025	-17.3344	-0.0857142857143	-0.05
1003	0.5015	-11.5790123457	9.448	-0.0857142857143	-0.05
1004	0.502	-7.34938271605	-4.648	1.35714285714	-2.95
1005	0.5025	12.3888888889	-3.2384	1.35714285714	7.2
1006	0.503	-17.2185185185	-1.8288	2.8	18.8
1007	0.5035	-5.93950617284	-1.8288	-7.3	-5.85
1008	0.504	-5.93950617284	-0.4192	-0.0857142857143	14.45
1009	0.5045	-5.93950617284	0.9904	-4.41428571429	-0.05
1010	0.505	-7.34938271605	-1.8288	-0.0857142857143	-0.05
1011	0.5055	-7.34938271605	-1.8288	1.35714285714	2.85
1012	0.506	-3.11975308642	0.9904	-0.0857142857143	1.4
1013	0.5065	-12.9888888889	0.9904	-0.0857142857143	-10.2
1014	0.507	-3.11975308642	3.8096	-1.52857142857	-5.85
1015	0.5075	-5.93950617284	-0.4192	-11.6285714286	-0.05
1016	0.508	-3.11975308642	-1.8288	2.8	-0.05
1017	0.5085	-3.11975308642	-8.8768	1.35714285714	-0.05
1018	0.509	-3.11975308642	15.0864	-0.0857142857143	1.4
1019	0.5095	-4.52962962963	0.9904	-0.0857142857143	1.4
1020	0.51	-8.75925925926	-0.4192	1.35714285714	1.4
1021	0.5105	-5.93950617284	-1.8288	-2.97142857143	-7.3
1022	0.511	-3.11975308642	0.9904	-10.1857142857	-0.05
1023	0.5115	-4.52962962963	-0.4192	20.1142857143	1.4
1024	0.512	-3.11975308642	-1.8288	-7.3	-0.05
1025	0.5125	-4.52962962963	-6.0576	-0.0857142857143	-0.05
1026	0.513	-1.70987654321	-1.8288	2.8	1.4
1027	0.5135	-21.4481481481	-1.8288	-1.52857142857	-0.05
1028	0.514	12.3888888889	-4.648	-1.52857142857	4.3
1029	0.5145	-14.3987654321	0.9904	1.35714285714	-10.2
1030	0.515	-4.52962962963	-1.8288	1.35714285714	13.0
1031	0.5155	-3.11975308642	-1.8288	-2.97142857143	-2.95
1032	0.516	-4.52962962963	-1.8288	-0.0857142857143	1.4
1033	0.5165	-3.11975308642	13.6768	1.35714285714	1.4
1034	0.517	-4.52962962963	-11.696	1.35714285714	1.4
1035	0.5175	-14.3987654321	-7.4672	1.35714285714	1.4
1036	0.518	-5.93950617284	-6.0576	-0.0857142857143	17.35
1037	0.5185	-5.93950617284	-6.0576	4.24285714286	-0.05
1038	0.519	-3.11975308642	-4.648	8.57142857143	-1.5
1039	0.5195	-4.52962962963	-8.8768	4.24285714286	-0.05
1040	0.52	-0.3	8.0384	1.35714285714	1.4
1041	0.5205	-4.52962962963	-14.5152	1.35714285714	1.4
1042	0.521	-4.52962962963	-4.648	-0.0857142857143	-0.05
1043	0.5215	1.10987654321	-3.2384	1.35714285714	-0.05
1044	0.522	-0.3	-4.648	7.12857142857	-2.95
1045	0.5225	-3.11975308642	-1.8288	-8.74285714286	-0.05
1046	0.523	-1.70987654321	-1.8288	20.1142857143	1.4
1047	0.5235	-1.70987654321	-6.0576	-0.0857142857143	-1.5
1048	0.524	-1.70987654321	6.6288	-0.0857142857143	-0.05
1049	0.5245	1.10987654321	0.9904	1.35714285714	-0.05
1050	0.525	-11.5790123457	-1.8288	-1.52857142857	-0.05
1051	0.5255	15.2086419753	3.8096	1.35714285714	-8.75
1052	0.526	-0.3	5.2192	-0.0857142857143	1.4
1053	0.5265	-1.70987654321	2.4	4.24285714286	-2.95
1054	0.527	1.10987654321	0.9904	-2.97142857143	-0.05
1055	0.5275	-1.70987654321	-13.1056	2.8	1.4
1056	0.528	-0.3	16.496	-0.0857142857143	2.85
1057	0.5285	-7.34938271605	-1.8288	1.35714285714	-0.05
1058	0.529	10.9790123457	0.9904	-1.52857142857	-2.95
1059	0.5295	-5.93950617284	3.8096	-0.0857142857143	7.2
1060	0.53	-0.3	5.2192	-10.1857142857	-4.4
1061	0.5305	-1.70987654321	5.2192	17.2285714286	-1.5
1062	0.531	-3.11975308642	2.4	-8.74285714286	1.4
1063	0.5315	-0.3	16.496	2.8	1.4
1064	0.532	-1.70987654321	-7.4672	-0.0857142857143	-0.05
1065	0.5325	13.7987654321	-4.648	-1.52857142857	2.85
1066	0.533	-7.34938271605	-4.648	1.35714285714	-10.2
1067	0.5335	-1.70987654321	-6.0576	-0.0857142857143	8.65
1068	0.534	-4.52962962963	-6.0576	-4.41428571429	-4.4
1069	0.5345	-5.93950617284	-6.0576	17.2285714286	1.4
1070	0.535	-5.93950617284	-4.648	-1.52857142857	1.4
1071	0.5355	-3.11975308642	3.8096	-0.0857142857143	1.4
1072	0.536	-12.9888888889	-4.648	-0.0857142857143	1.4
1073	0.5365	16.6185185185	-4.648	4.24285714286	2.85
1074	0.537	-8.75925925926	-0.4192	5.68571428571	20.25
1075	0.5375	-3.11975308642	-3.2384	4.24285714286	-7.3
1076	0.538	-1.70987654321	-3.2384	-1.52857142857	17.35
1077	0.5385	-1.70987654321	-3.2384	-0.0857142857143	1.4
1078	0.539	1.10987654321	2.4	1.35714285714	1.4
1079	0.5395	-0.3	-0.4192	-0.0857142857143	-0.05
1080	0.54	-7.34938271605	-1.8288	-1.52857142857	-0.05
1081	0.5405	19.4382716049	-0.4192	-0.0857142857143	1.4
1082	0.541	-7.34938271605	0.9904	4.24285714286	-11.65
1083	0.5415	5.33950617284	-0.4192	-2.97142857143	17.35
1084	0.542	3.92962962963	-1.8288	18.6714285714	-0.05
1085	0.5425	5.33950617284	-4.648	-7.3	-0.05
1086	0.543	3.92962962963	-4.648	14.3428571429	-0.05
1087	0.5435	5.33950617284	-8.8768	2.8	-0.05
1088	0.544	5.33950617284	-1.8288	-0.0857142857143	1.4
1089	0.5445	15.2086419753	-6.0576	2.8	4.3
1090	0.545	1.10987654321	-4.648	2.8	-5.85
1091	0.5455	5.33950617284	-6.0576	-1.52857142857	18.8
1092	0.546	3.92962962963	-7.4672	4.24285714286	-8.75
1093	0.5465	1.10987654321	-8.8768	-7.3	-0.05
1094	0.547	2.51975308642	-1.8288	-0.0857142857143	2.85
1095	0.5475	-0.3	-10.2864	-0.0857142857143	1.4
1096	0.548	2.51975308642	-3.2384	-1.52857142857	1.4
1097	0.5485	-7.34938271605	-1.8288	4.24285714286	-7.3
1098	0.549	-1.70987654321	-1.8288	-2.97142857143	13.0
1099	0.5495	1.10987654321	-1.8288	-2.97142857143	-1.5
1100	0.55	-1.70987654321	-0.4192	1.35714285714	-0.05
1101	0.5505	-1.70987654321	-17.3344	-0.0857142857143	-0.05
1102	0.551	-1.70987654321	-13.1056	-0.0857142857143	1.4
1103	0.5515	-3.11975308642	-4.648	-0.0857142857143	-0.05
1104	0.552	-8.75925925926	-0.4192	1.35714285714	4.3
1105	0.5525	-0.3	-1.8288	-1.52857142857	-8.75
1106	0.553	-3.11975308642	-1.8288	1.35714285714	4.3
1107	0.5535	-3.11975308642	-4.648	-7.3	-1.5
1108	0.554	-4.52962962963	-0.4192	14.3428571429	-0.05
1109	0.5545	-3.11975308642	-0.4192	-0.0857142857143	-1.5
1110	0.555	-1.70987654321	-8.8768	1.35714285714	-1.5
1111	0.5555	-14.3987654321	-1.8288	-0.0857142857143	-1.5
1112	0.556	10.9790123457	-3.2384	1.35714285714	-10.2
1113	0.5565	-4.52962962963	-1.8288	-1.52857142857	18.8
1114	0.557	-4.52962962963	-4.648	18.6714285714	-0.05
1115	0.5575	-4.52962962963	-6.0576	-8.74285714286	-0.05
1116	0.558	-0.3	-0.4192	2.8	-0.05
1117	0.5585	-1.70987654321	5.2192	-0.0857142857143	1.4
1118	0.559	-1.70987654321	-8.8768	-0.0857142857143	-0.05
1119	0.5595	12.3888888889	-1.8288	1.35714285714	-0.05
1120	0.56	-7.34938271605	-4.648	-0.0857142857143	2.85
1121	0.5605	-0.3	-7.4672	-1.52857142857	-11.65
1122	0.561	1.10987654321	-3.2384	14.3428571429	1.4
1123	0.5615	1.10987654321	-3.2384	1.35714285714	1.4
1124	0.562	1.10987654321	-3.2384	1.35714285714	-0.05
1125	0.5625	-0.3	0.9904	-1.52857142857	2.85
1126	0.563	-12.9888888889	-10.2864	-0.0857142857143	1.4
1127	0.5635	10.9790123457	-4.648	2.8	-8.75
1128	0.564	-3.11975308642	-6.0576	-1.52857142857	15.9
1129	0.5645	-1.70987654321	-3.2384	2.8	-8.75
1130	0.565	-1.70987654321	-6.0576	-5.85714285714	-0.05
1131	0.5655	1.10987654321	-6.0576	14.3428571429	-0.05
1132	0.566	-0.3	-8.8768	2.8	-0.05
1133	0.5665	-1.70987654321	-4.648	-0.0857142857143	-0.05
1134	0.567	-7.34938271605	-3.2384	2.8	-2.95
1135	0.5675	12.3888888889	-4.648	-1.52857142857	-7.3
1136	0.568	1.10987654321	-3.2384	1.35714285714	4.3
1137	0.5685	-1.70987654321	-1.8288	-7.3	-1.5
1138	0.569	-0.3	-0.4192	-8.74285714286	-1.5
1139	0.5695	-1.70987654321	-1.8288	15.7857142857	-1.5
1140	0.57	-3.11975308642	0.9904	-0.0857142857143	-1.5
1141	0.5705	-0.3	-4.648	2.8	-1.5
1142	0.571	-15.8086419753	-4.648	1.35714285714	2.85
1143	0.5715	-12.9888888889	-6.0576	1.35714285714	-8.75
1144	0.572	-1.70987654321	-6.0576	-4.41428571429	-0.05
1145	0.5725	-3.11975308642	-4.648	-2.97142857143	-4.4
1146	0.573	-3.11975308642	-4.648	-2.97142857143	-0.05
1147	0.5735	-3.11975308642	-15.9248	1.35714285714	-0.05
1148	0.574	-4.52962962963	-7.4672	2.8	1.4
1149	0.5745	-0.3	-15.9248	-0.0857142857143	-1.5
1150	0.575	-10.1691358025	-3.2384	1.35714285714	-0.05
1151	0.5755	-1.70987654321	-0.4192	4.24285714286	-0.05
1152	0.576	-0.3	-6.0576	-8.74285714286	-1.5
1153	0.5765	-1.70987654321	-4.648	-2.97142857143	2.85
1154	0.577	-4.52962962963	0.9904	1.35714285714	-0.05
1155	0.5775	-3.11975308642	-8.8768	-0.0857142857143	-0.05
1156	0.578	-3.11975308642	-0.4192	-0.0857142857143	1.4
1157	0.5785	-7.34938271605	-0.4192	-0.0857142857143	1.4
1158	0.579	2.51975308642	-6.0576	-0.0857142857143	-1.5
1159	0.5795	-4.52962962963	-6.0576	-8.74285714286	-1.5
1160	0.58	-5.93950617284	-4.648	15.7857142857	-0.05
1161	0.5805	-7.34938271605	-6.0576	1.35714285714	-0.05
1162	0.581	-7.34938271605	-14.5152	1.35714285714	-1.5
1163	0.5815	-5.93950617284	17.9056	2.8	1.4
1164	0.582	-4.52962962963	-1.8288	-0.0857142857143	1.4
1165	0.5825	-5.93950617284	-1.8288	2.8	-1.5
1166	0.583	-1.70987654321	0.9904	1.35714285714	-0.05
1167	0.5835	-4.52962962963	-0.4192	-11.6285714286	-1.5
1168	0.584	-4.52962962963	2.4	17.2285714286	-0.05
1169	0.5845	-3.11975308642	-3.2384	-7.3	-0.05
1170	0.585	-1.70987654321	-1.8288	4.24285714286	-1.5
1171	0.5855	-3.11975308642	6.6288	4.24285714286	-1.5
1172	0.586	1.10987654321	2.4	1.35714285714	-0.05
1173	0.5865	-15.8086419753	3.8096	2.8	-8.75
1174	0.587	-3.11975308642	5.2192	-1.52857142857	8.65
1175	0.5875	-4.52962962963	3.8096	-7.3	-5.85
1176	0.588	-3.11975308642	5.2192	18.6714285714	-0.05
1177	0.5885	-3.11975308642	6.6288	-7.3	2.85
1178	0.589	-4.52962962963	-3.2384	-0.0857142857143	1.4
1179	0.5895	-1.70987654321	-1.8288	-0.0857142857143	-0.05
1180	0.59	3.92962962963	3.8096	-0.0857142857143	2.85
1181	0.5905	-8.75925925926	3.8096	-0.0857142857143	-0.05
1182	0.591	-4.52962962963	6.6288	-1.52857142857	1.4
1183	0.5915	-0.3	5.2192	14.3428571429	1.4
1184	0.592	-0.3	6.6288	-2.97142857143	-0.05
1185	0.5925	2.51975308642	-3.2384	2.8	4.3
1186	0.593	1.10987654321	0.9904	-1.52857142857	-0.05
1187	0.5935	3.92962962963	9.448	1.35714285714	-0.05
1188	0.594	5.33950617284	9.448	-0.0857142857143	-0.05
1189	0.5945	3.92962962963	10.8576	1.35714285714	13.0
1190	0.595	1.10987654321	8.0384	2.8	-10.2
1191	0.5955	1.10987654321	8.0384	-8.74285714286	-0.05
1192	0.596	2.51975308642	6.6288	14.3428571429	-1.5
1193	0.5965	2.51975308642	-0.4192	-5.85714285714	-0.05
1194	0.597	1.10987654321	15.0864	-2.97142857143	-2.95
1195	0.5975	-14.3987654321	3.8096	1.35714285714	-1.5
1196	0.598	18.0283950617	2.4	-0.0857142857143	-1.5
1197	0.5985	-10.1691358025	-0.4192	1.35714285714	-0.05
1198	0.599	1.10987654321	-0.4192	-0.0857142857143	-2.95
1199	0.5995	-0.3	-1.8288	2.8	-1.5
1200	0.6	-3.11975308642	2.4	-1.52857142857	-1.5
1201	0.6005	-3.11975308642	-15.9248	1.35714285714	-0.05
1202	0.601	-3.11975308642	-8.8768	-0.0857142857143	2.85
1203	0.6015	-4.52962962963	-0.4192	-0.0857142857143	-0.05
1204	0.602	9.56913580247	0.9904	-1.52857142857	-0.05
1205	0.6025	-0.3	-0.4192	-0.0857142857143	-11.65
1206	0.603	2.51975308642	-0.4192	-0.0857142857143	17.35
1207	0.6035	3.92962962963	0.9904	2.8	-7.3
1208	0.604	1.10987654321	-1.8288	4.24285714286	-0.05
1209	0.6045	1.10987654321	0.9904	2.8	2.85
1210	0.605	-3.11975308642	2.4	1.35714285714	-0.05
1211	0.6055	1.10987654321	0.9904	2.8	2.85
1212	0.606	-7.34938271605	0.9904	1.35714285714	-2.95
1213	0.6065	-0.3	-1.8288	2.8	2.85
1214	0.607	-0.3	-3.2384	-10.1857142857	-1.5
1215	0.6075	-1.70987654321	-4.648	-0.0857142857143	1.4
1216	0.608	-0.3	-14.5152	2.8	-1.5
1217	0.6085	1.10987654321	15.0864	1.35714285714	-0.05
1218	0.609	-4.52962962963	0.9904	2.8	1.4
1219	0.6095	-4.52962962963	-0.4192	-1.52857142857	1.4
1220	0.61	-8.75925925926	0.9904	-1.52857142857	-1.5
1221	0.6105	-1.70987654321	-0.4192	1.35714285714	4.3
1222	0.611	-0.3	-1.8288	-13.0714285714	-1.5
1223	0.6115	2.51975308642	-1.8288	17.2285714286	1.4
1224	0.612	-0.3	-4.648	-7.3	-1.5
1225	0.6125	-1.70987654321	-1.8288	1.35714285714	2.85
1226	0.613	-5.93950617284	-1.8288	-0.0857142857143	-0.05
1227	0.6135	15.2086419753	-1.8288	-0.0857142857143	-8.75
1228	0.614	-1.70987654321	0.9904	-0.0857142857143	13.0
1229	0.6145	-3.11975308642	-0.4192	1.35714285714	-10.2
1230	0.615	-0.3	5.2192	-7.3	1.4
1231	0.6155	-0.3	6.6288	-1.52857142857	1.4
1232	0.616	-0.3	-8.8768	1.35714285714	1.4
1233	0.6165	5.33950617284	15.0864	-0.0857142857143	-1.5
1234	0.617	-1.70987654321	-1.8288	-0.0857142857143	-0.05
1235	0.6175	15.2086419753	0.9904	1.35714285714	2.85
1236	0.618	-3.11975308642	2.4	2.8	-7.3
1237	0.6185	1.10987654321	3.8096	-1.52857142857	-0.05
1238	0.619	-1.70987654321	0.9904	4.24285714286	10.1
1239	0.6195	-1.70987654321	-0.4192	-2.97142857143	4.3
1240	0.62	-3.11975308642	0.9904	15.7857142857	-0.05
1241	0.6205	-0.3	17.9056	2.8	1.4
1242	0.621	-7.34938271605	0.9904	2.8	-1.5
1243	0.6215	15.2086419753	0.9904	-1.52857142857	2.85
1244	0.622	-8.75925925926	6.6288	-0.0857142857143	-1.5
1245	0.6225	-0.3	0.9904	2.8	-5.85
1246	0.623	-3.11975308642	0.9904	-2.97142857143	-0.05
1247	0.6235	-1.70987654321	-0.4192	1.35714285714	-0.05
1248	0.624	-4.52962962963	0.9904	2.8	-1.5
1249	0.6245	-4.52962962963	-10.2864	-1.52857142857	-0.05
1250	0.625	-4.52962962963	-7.4672	-1.52857142857	-0.05
1251	0.6255	15.2086419753	-4.648	-1.52857142857	-10.2
1252	0.626	-4.52962962963	-4.648	-0.0857142857143	15.9
1253	0.6265	-1.70987654321	-6.0576	7.12857142857	-5.85
1254	0.627	-0.3	-3.2384	-11.6285714286	1.4
1255	0.6275	-0.3	-0.4192	18.6714285714	-0.05
1256	0.628	-0.3	-13.1056	-0.0857142857143	1.4
1257	0.6285	-0.3	16.496	-0.0857142857143	1.4
1258	0.629	-1.70987654321	-8.8768	1.35714285714	1.4
1259	0.6295	10.9790123457	-3.2384	2.8	-0.05
1260	0.63	-7.34938271605	-4.648	2.8	14.45
1261	0.6305	-0.3	-4.648	-1.52857142857	-4.4
1262	0.631	-1.70987654321	-3.2384	4.24285714286	1.4
1263	0.6315	-0.3	-4.648	5.68571428571	-0.05
1264	0.632	-0.3	0.9904	-0.0857142857143	-2.95
1265	0.6325	2.51975308642	-4.648	4.24285714286	-0.05
1266	0.633	8.15925925926	-6.0576	1.35714285714	2.85
1267	0.6335	-0.3	-6.0576	1.35714285714	-0.05
1268	0.634	1.10987654321	-3.2384	-1.52857142857	10.1
1269	0.6345	1.10987654321	-7.4672	4.24285714286	-1.5
1270	0.635	1.10987654321	-7.4672	17.2285714286	-1.5
1271	0.6355	1.10987654321	-1.8288	2.8	-0.05
1272	0.636	-0.3	15.0864	1.35714285714	-0.05
1273	0.6365	-3.11975308642	-10.2864	1.35714285714	1.4
1274	0.637	2.51975308642	0.9904	-0.0857142857143	2.85
1275	0.6375	-10.1691358025	-0.4192	1.35714285714	1.4
1276	0.638	-0.3	0.9904	1.35714285714	-5.85
1277	0.6385	1.10987654321	2.4	-1.52857142857	-1.5
1278	0.639	1.10987654321	2.4	7.12857142857	1.4
1279	0.6395	1.10987654321	-1.8288	-0.0857142857143	2.85
1280	0.64	-1.70987654321	17.9056	-1.52857142857	-1.5
1281	0.6405	2.51975308642	-11.696	-0.0857142857143	1.4
1282	0.641	-10.1691358025	2.4	-0.0857142857143	-0.05
1283	0.6415	13.7987654321	2.4	4.24285714286	-2.95
1284	0.642	-4.52962962963	0.9904	1.35714285714	-1.5
1285	0.6425	-3.11975308642	0.9904	8.57142857143	1.4
1286	0.643	-3.11975308642	0.9904	1.35714285714	1.4
1287	0.6435	-3.11975308642	5.2192	1.35714285714	1.4
1288	0.644	-3.11975308642	-3.2384	1.35714285714	-0.05
1289	0.6445	1.10987654321	5.2192	-0.0857142857143	-0.05
1290	0.645	-8.75925925926	5.2192	-0.0857142857143	1.4
1291	0.6455	-7.34938271605	6.6288	1.35714285714	-7.3
1292	0.646	-0.3	6.6288	-0.0857142857143	4.3
1293	0.6465	1.10987654321	8.0384	-4.41428571429	-5.85
1294	0.647	1.10987654321	3.8096	5.68571428571	1.4
1295	0.6475	-0.3	8.0384	2.8	-1.5
1296	0.648	-1.70987654321	2.4	1.35714285714	-0.05
1297	0.6485	1.10987654321	2.4	1.35714285714	-1.5
1298	0.649	18.0283950617	0.9904	1.35714285714	4.3
1299	0.6495	-8.75925925926	-1.8288	1.35714285714	-1.5
1300	0.65	-0.3	-1.8288	-1.52857142857	20.25
1301	0.6505	2.51975308642	0.9904	21.5571428571	-0.05
1302	0.651	1.10987654321	-3.2384	-8.74285714286	-0.05
1303	0.6515	2.51975308642	-4.648	4.24285714286	1.4
1304	0.652	8.15925925926	-1.8288	2.8	-1.5
1305	0.6525	8.15925925926	6.6288	-1.52857142857	-0.05
1306	0.653	-4.52962962963	2.4	-1.52857142857	-0.05
1307	0.6535	2.51975308642	3.8096	-2.97142857143	8.65
1308	0.654	2.51975308642	5.2192	4.24285714286	-4.4
1309	0.6545	1.10987654321	2.4	17.2285714286	-1.5
1310	0.655	1.10987654321	6.6288	4.24285714286	1.4
1311	0.6555	1.10987654321	24.9536	-0.0857142857143	-0.05
1312	0.656	-3.11975308642	-3.2384	1.35714285714	1.4
1313	0.6565	1.10987654321	2.4	1.35714285714	-0.05
1314	0.657	-7.34938271605	0.9904	1.35714285714	-1.5
1315	0.6575	-0.3	-0.4192	-0.0857142857143	-2.95
1316	0.658	-0.3	-1.8288	-4.41428571429	-4.4
1317	0.6585	-0.3	-0.4192	5.68571428571	-0.05
1318	0.659	-0.3	0.9904	-0.0857142857143	-0.05
1319	0.6595	-1.70987654321	17.9056	-1.52857142857	1.4
1320	0.66	-0.3	-6.0576	-1.52857142857	-0.05
1321	0.6605	-12.9888888889	2.4	1.35714285714	1.4
1322	0.661	15.2086419753	6.6288	4.24285714286	-8.75
1323	0.6615	-1.70987654321	5.2192	-2.97142857143	14.45
1324	0.662	-3.11975308642	5.2192	4.24285714286	-11.65
1325	0.6625	-1.70987654321	9.448	-8.74285714286	-0.05
1326	0.663	-1.70987654321	3.8096	17.2285714286	-0.05
1327	0.6635	-1.70987654321	0.9904	-1.52857142857	-1.5
1328	0.664	1.10987654321	-0.4192	1.35714285714	1.4
1329	0.6645	-3.11975308642	2.4	2.8	2.85
1330	0.665	-1.70987654321	6.6288	4.24285714286	-1.5
1331	0.6655	1.10987654321	3.8096	2.8	-2.95
1332	0.666	3.92962962963	5.2192	-2.97142857143	-5.85
1333	0.6665	3.92962962963	5.2192	4.24285714286	1.4
1334	0.667	3.92962962963	2.4	1.35714285714	1.4
1335	0.6675	5.33950617284	6.6288	-1.52857142857	-1.5
1336	0.668	8.15925925926	-4.648	-1.52857142857	1.4
1337	0.6685	-7.34938271605	0.9904	2.8	1.4
1338	0.669	-3.11975308642	5.2192	-0.0857142857143	-10.2
1339	0.6695	5.33950617284	5.2192	-1.52857142857	15.9
1340	0.67	5.33950617284	3.8096	4.24285714286	-1.5
1341	0.6705	8.15925925926	9.448	17.2285714286	-0.05
1342	0.671	9.56913580247	10.8576	-7.3	-0.05
1343	0.6715	10.9790123457	-4.648	1.35714285714	-0.05
1344	0.672	10.9790123457	-3.2384	1.35714285714	-0.05
1345	0.6725	8.15925925926	5.2192	2.8	-1.5
1346	0.673	13.7987654321	3.8096	1.35714285714	-1.5
1347	0.6735	1.10987654321	0.9904	-2.97142857143	2.85
1348	0.674	3.92962962963	-0.4192	2.8	-0.05
1349	0.6745	3.92962962963	0.9904	-11.6285714286	-7.3
1350	0.675	5.33950617284	2.4	-0.0857142857143	-0.05
1351	0.6755	8.15925925926	16.496	1.35714285714	-1.5
1352	0.676	1.10987654321	-3.2384	-1.52857142857	-0.05
1353	0.6765	8.15925925926	-1.8288	1.35714285714	1.4
1354	0.677	-0.3	0.9904	-0.0857142857143	-0.05
1355	0.6775	3.92962962963	0.9904	4.24285714286	-1.5
1356	0.678	8.15925925926	-3.2384	-8.74285714286	-1.5
1357	0.6785	5.33950617284	0.9904	-5.85714285714	1.4
1358	0.679	3.92962962963	-13.1056	-1.52857142857	-0.05
1359	0.6795	5.33950617284	-11.696	-0.0857142857143	-0.05
1360	0.68	3.92962962963	-3.2384	-0.0857142857143	1.4
1361	0.6805	1.10987654321	-4.648	-1.52857142857	4.3
1362	0.681	13.7987654321	-3.2384	-1.52857142857	-0.05
1363	0.6815	5.33950617284	-4.648	-10.1857142857	-0.05
1364	0.682	6.74938271605	-4.648	14.3428571429	-0.05
1365	0.6825	5.33950617284	-6.0576	-7.3	1.4
1366	0.683	5.33950617284	-6.0576	-1.52857142857	-0.05
1367	0.6835	3.92962962963	-13.1056	1.35714285714	-1.5
1368	0.684	-1.70987654321	-3.2384	-1.52857142857	-0.05
1369	0.6845	16.6185185185	-4.648	-2.97142857143	-10.2
1370	0.685	8.15925925926	-1.8288	-1.52857142857	10.1
1371	0.6855	9.56913580247	-3.2384	1.35714285714	-8.75
1372	0.686	9.56913580247	0.9904	-13.0714285714	-0.05
1373	0.6865	12.3888888889	-1.8288	14.3428571429	-0.05
1374	0.687	10.9790123457	-4.648	-7.3	1.4
1375	0.6875	10.9790123457	-6.0576	2.8	-0.05
1376	0.688	-4.52962962963	0.9904	-0.0857142857143	2.85
1377	0.6885	25.0777777778	2.4	1.35714285714	1.4
1378	0.689	5.33950617284	3.8096	2.8	-7.3
1379	0.6895	-0.3	6.6288	-2.97142857143	-1.5
1380	0.69	-0.3	5.2192	8.57142857143	1.4
1381	0.6905	-1.70987654321	6.6288	1.35714285714	-0.05
1382	0.691	-3.11975308642	-0.4192	-0.0857142857143	-1.5
1383	0.6915	3.92962962963	6.6288	1.35714285714	-0.05
1384	0.692	-4.52962962963	8.0384	1.35714285714	-0.05
1385	0.6925	12.3888888889	9.448	1.35714285714	-5.85
1386	0.693	1.10987654321	8.0384	-0.0857142857143	5.75
1387	0.6935	1.10987654321	8.0384	11.4571428571	-2.95
1388	0.694	-0.3	8.0384	-1.52857142857	-0.05
1389	0.6945	2.51975308642	16.496	-4.41428571429	1.4
1390	0.695	-0.3	6.6288	-1.52857142857	-0.05
1391	0.6955	8.15925925926	10.8576	1.35714285714	-0.05
1392	0.696	-4.52962962963	13.6768	1.35714285714	-2.95
1393	0.6965	8.15925925926	13.6768	-0.0857142857143	-0.05
1394	0.697	3.92962962963	15.0864	-1.52857142857	-8.75
1395	0.6975	3.92962962963	13.6768	5.68571428571	-2.95
1396	0.698	3.92962962963	15.0864	4.24285714286	2.85
1397	0.6985	2.51975308642	22.1344	-0.0857142857143	-0.05
1398	0.699	3.92962962963	10.8576	-1.52857142857	-0.05
1399	0.6995	-11.5790123457	10.8576	-1.52857142857	-1.5
1400	0.7	23.6679012346	9.448	1.35714285714	-0.05
1401	0.7005	-5.93950617284	13.6768	-0.0857142857143	-2.95
1402	0.701	3.92962962963	15.0864	2.8	-0.05
1403	0.7015	5.33950617284	9.448	1.35714285714	1.4
1404	0.702	1.10987654321	16.496	-1.52857142857	-0.05
1405	0.7025	5.33950617284	29.1824	-1.52857142857	-1.5
1406	0.703	2.51975308642	2.4	1.35714285714	-1.5
1407	0.7035	5.33950617284	16.496	1.35714285714	-0.05
1408	0.704	-1.70987654321	13.6768	-1.52857142857	1.4
1409	0.7045	2.51975308642	10.8576	-0.0857142857143	-8.75
1410	0.705	3.92962962963	10.8576	-2.97142857143	10.1
1411	0.7055	5.33950617284	8.0384	1.35714285714	-1.5
1412	0.706	3.92962962963	9.448	2.8	1.4
1413	0.7065	5.33950617284	17.9056	1.35714285714	-0.05
1414	0.707	1.10987654321	6.6288	1.35714285714	1.4
1415	0.7075	19.4382716049	9.448	1.35714285714	-2.95
1416	0.708	-3.11975308642	9.448	-0.0857142857143	-0.05
1417	0.7085	1.10987654321	8.0384	-2.97142857143	15.9
1418	0.709	2.51975308642	15.0864	-5.85714285714	-7.3
1419	0.7095	1.10987654321	12.2672	12.9	-0.05
1420	0.71	-0.3	0.9904	-1.52857142857	-0.05
1421	0.7105	-3.11975308642	6.6288	2.8	-0.05
1422	0.711	-1.70987654321	16.496	1.35714285714	2.85
1423	0.7115	-0.3	17.9056	-0.0857142857143	-0.05
1424	0.712	-1.70987654321	15.0864	2.8	-2.95
1425	0.7125	-0.3	16.496	-1.52857142857	17.35
1426	0.713	-3.11975308642	16.496	1.35714285714	-8.75
1427	0.7135	1.10987654321	13.6768	-0.0857142857143	-0.05
1428	0.714	-0.3	23.544	-0.0857142857143	1.4
1429	0.7145	-0.3	16.496	-1.52857142857	-1.5
1430	0.715	3.92962962963	17.9056	1.35714285714	2.85
1431	0.7155	-5.93950617284	16.496	-0.0857142857143	-7.3
1432	0.716	1.10987654321	15.0864	-1.52857142857	8.65
1433	0.7165	1.10987654321	16.496	-7.3	-0.05
1434	0.717	2.51975308642	17.9056	-0.0857142857143	-0.05
1435	0.7175	1.10987654321	-1.8288	-1.52857142857	-0.05
1436	0.718	3.92962962963	30.592	-0.0857142857143	1.4
1437	0.7185	-1.70987654321	9.448	1.35714285714	1.4
1438	0.719	-3.11975308642	9.448	1.35714285714	-0.05
1439	0.7195	-4.52962962963	8.0384	-0.0857142857143	-2.95
1440	0.72	-0.3	8.0384	1.35714285714	-0.05
1441	0.7205	2.51975308642	5.2192	-10.1857142857	-1.5
1442	0.721	3.92962962963	9.448	15.7857142857	1.4
1443	0.7215	2.51975308642	3.8096	-10.1857142857	-0.05
1444	0.722	-0.3	19.3152	-0.0857142857143	-0.05
1445	0.7225	-3.11975308642	9.448	-0.0857142857143	-0.05
1446	0.723	19.4382716049	9.448	1.35714285714	-0.05
1447	0.7235	-5.93950617284	9.448	1.35714285714	17.35
1448	0.724	1.10987654321	10.8576	-1.52857142857	-8.75
1449	0.7245	1.10987654321	15.0864	12.9	-0.05
1450	0.725	3.92962962963	10.8576	1.35714285714	-0.05
1451	0.7255	1.10987654321	10.8576	1.35714285714	-0.05
1452	0.726	1.10987654321	13.6768	1.35714285714	-0.05
1453	0.7265	-11.5790123457	6.6288	2.8	-1.5
1454	0.727	12.3888888889	10.8576	-0.0857142857143	-10.2
1455	0.7275	1.10987654321	9.448	5.68571428571	18.8
1456	0.728	-0.3	8.0384	1.35714285714	-8.75
1457	0.7285	-1.70987654321	6.6288	14.3428571429	-0.05
1458	0.729	-1.70987654321	10.8576	2.8	-0.05
1459	0.7295	-3.11975308642	2.4	2.8	-2.95
1460	0.73	-0.3	6.6288	2.8	1.4
1461	0.7305	-12.9888888889	9.448	-0.0857142857143	-1.5
1462	0.731	-1.70987654321	5.2192	4.24285714286	-0.05
1463	0.7315	-0.3	5.2192	1.35714285714	4.3
1464	0.732	1.10987654321	9.448	12.9	-1.5
1465	0.7325	2.51975308642	5.2192	-5.85714285714	-0.05
1466	0.733	1.10987654321	-3.2384	1.35714285714	-0.05
1467	0.7335	2.51975308642	23.544	-1.52857142857	-1.5
1468	0.734	2.51975308642	3.8096	-0.0857142857143	-1.5
1469	0.7345	8.15925925926	5.2192	-1.52857142857	-0.05
1470	0.735	-0.3	6.6288	1.35714285714	2.85
1471	0.7355	1.10987654321	5.2192	17.2285714286	-0.05
1472	0.736	1.10987654321	3.8096	-5.85714285714	-0.05
1473	0.7365	2.51975308642	5.2192	2.8	-0.05
1474	0.737	1.10987654321	17.9056	1.35714285714	-1.5
1475	0.7375	5.33950617284	-4.648	-0.0857142857143	-0.05
1476	0.738	-14.3987654321	2.4	1.35714285714	1.4
1477	0.7385	-8.75925925926	2.4	-0.0857142857143	-7.3
1478	0.739	2.51975308642	2.4	4.24285714286	7.2
1479	0.7395	1.10987654321	5.2192	-7.3	-5.85
1480	0.74	2.51975308642	-0.4192	15.7857142857	-0.05
1481	0.7405	3.92962962963	-6.0576	1.35714285714	-0.05
1482	0.741	-1.70987654321	-3.2384	1.35714285714	2.85
1483	0.7415	-1.70987654321	6.6288	1.35714285714	1.4
1484	0.742	2.51975308642	2.4	1.35714285714	-0.05
1485	0.7425	-1.70987654321	6.6288	2.8	-5.85
1486	0.743	1.10987654321	2.4	-11.6285714286	-1.5
1487	0.7435	1.10987654321	8.0384	17.2285714286	1.4
1488	0.744	2.51975308642	3.8096	-7.3	-0.05
1489	0.7445	1.10987654321	9.448	1.35714285714	-0.05
1490	0.745	-0.3	2.4	-0.0857142857143	-0.05
1491	0.7455	16.6185185185	6.6288	-0.0857142857143	1.4
1492	0.746	-5.93950617284	5.2192	4.24285714286	-8.75
1493	0.7465	1.10987654321	5.2192	1.35714285714	14.45
1494	0.747	1.10987654321	3.8096	-0.0857142857143	-7.3
1495	0.7475	1.10987654321	2.4	-0.0857142857143	-0.05
1496	0.748	2.51975308642	-10.2864	-0.0857142857143	-1.5
1497	0.7485	-1.70987654321	-7.4672	-0.0857142857143	1.4
1498	0.749	2.51975308642	0.9904	-0.0857142857143	-0.05
1499	0.7495	1.10987654321	-0.4192	-1.52857142857	-2.95
1500	0.75	2.51975308642	0.9904	2.8	8.65
1501	0.7505	1.10987654321	2.4	-0.0857142857143	-7.3
1502	0.751	1.10987654321	0.9904	20.1142857143	-1.5
1503	0.7515	1.10987654321	-1.8288	-7.3	-0.05
1504	0.752	1.10987654321	-3.2384	1.35714285714	-0.05
1505	0.7525	2.51975308642	-7.4672	4.24285714286	2.85
1506	0.753	15.2086419753	-1.8288	1.35714285714	1.4
1507	0.7535	1.10987654321	-0.4192	4.24285714286	2.85
1508	0.754	-0.3	-1.8288	-1.52857142857	-2.95
1509	0.7545	2.51975308642	-3.2384	18.6714285714	1.4
1510	0.755	1.10987654321	-10.2864	-2.97142857143	-0.05
1511	0.7555	-0.3	-4.648	-5.85714285714	-0.05
1512	0.756	-1.70987654321	-15.9248	-1.52857142857	-0.05
1513	0.7565	1.10987654321	-8.8768	2.8	-0.05
1514	0.757	1.10987654321	-6.0576	-0.0857142857143	-0.05
1515	0.7575	3.92962962963	-4.648	-0.0857142857143	-7.3
1516	0.758	8.15925925926	-4.648	-10.1857142857	-1.5
1517	0.7585	3.92962962963	-6.0576	15.7857142857	-0.05
1518	0.759	5.33950617284	-8.8768	-8.74285714286	-10.2
1519	0.7595	3.92962962963	2.4	-0.0857142857143	-0.05
1520	0.76	2.51975308642	-13.1056	-0.0857142857143	1.4
1521	0.7605	16.6185185185	-6.0576	2.8	2.85
1522	0.761	-0.3	-4.648	2.8	17.35
1523	0.7615	3.92962962963	-4.648	1.35714285714	-1.5
1524	0.762	2.51975308642	-1.8288	20.1142857143	-1.5
1525	0.7625	3.92962962963	-0.4192	-8.74285714286	-0.05
1526	0.763	-0.3	-4.648	-0.0857142857143	-0.05
1527	0.7635	1.10987654321	6.6288	2.8	-0.05
1528	0.764	-8.75925925926	-4.648	1.35714285714	-1.5
1529	0.7645	10.9790123457	-1.8288	1.35714285714	2.85
1530	0.765	-4.52962962963	-3.2384	2.8	7.2
1531	0.7655	-3.11975308642	0.9904	4.24285714286	-2.95
1532	0.766	-3.11975308642	2.4	-7.3	-2.95
1533	0.7665	-7.34938271605	-0.4192	18.6714285714	-0.05
1534	0.767	-7.34938271605	-8.8768	-0.0857142857143	-0.05
1535	0.7675	-5.93950617284	-10.2864	1.35714285714	-0.05
1536	0.768	-5.93950617284	0.9904	-0.0857142857143	-1.5
1537	0.7685	9.56913580247	0.9904	-1.52857142857	2.85
1538	0.769	-7.34938271605	-3.2384	1.35714285714	-8.75
1539	0.7695	-7.34938271605	-3.2384	-8.74285714286	-0.05
1540	0.77	-5.93950617284	-0.4192	18.6714285714	-0.05
1541	0.7705	-1.70987654321	-1.8288	2.8	-1.5
1542	0.771	-1.70987654321	6.6288	2.8	1.4
1543	0.7715	1.10987654321	-0.4192	1.35714285714	-0.05
1544	0.772	16.6185185185	6.6288	2.8	4.3
1545	0.7725	-8.75925925926	2.4	4.24285714286	-8.75
1546	0.773	1.10987654321	5.2192	-0.0857142857143	-7.3
1547	0.7735	2.51975308642	6.6288	7.12857142857	-1.5
1548	0.774	1.10987654321	3.8096	4.24285714286	-5.85
1549	0.7745	3.92962962963	-7.4672	-0.0857142857143	-0.05
1550	0.775	1.10987654321	2.4	-0.0857142857143	-0.05
1551	0.7755	10.9790123457	-3.2384	-0.0857142857143	-0.05
1552	0.776	-7.34938271605	6.6288	1.35714285714	-7.3
1553	0.7765	1.10987654321	3.8096	2.8	-2.95
1554	0.777	-0.3	5.2192	4.24285714286	1.4
1555	0.7775	-0.3	0.9904	-0.0857142857143	-1.5
1556	0.778	-1.70987654321	15.0864	-0.0857142857143	-0.05
1557	0.7785	1.10987654321	-6.0576	1.35714285714	1.4
1558	0.779	-0.3	2.4	-0.0857142857143	1.4
1559	0.7795	-10.1691358025	0.9904	-1.52857142857	1.4
1560	0.78	1.10987654321	2.4	2.8	5.75
1561	0.7805	-1.70987654321	5.2192	-8.74285714286	-0.05
1562	0.781	-0.3	5.2192	-4.41428571429	1.4
1563	0.7815	-1.70987654321	6.6288	2.8	1.4
1564	0.782	-3.11975308642	-0.4192	1.35714285714	-0.05
1565	0.7825	-0.3	-1.8288	-0.0857142857143	-0.05
1566	0.783	-14.3987654321	2.4	1.35714285714	-0.05
1567	0.7835	15.2086419753	0.9904	-1.52857142857	-11.65
1568	0.784	-1.70987654321	0.9904	4.24285714286	1.4
1569	0.7845	-3.11975308642	0.9904	-5.85714285714	1.4
1570	0.785	-1.70987654321	-0.4192	-2.97142857143	-1.5
1571	0.7855	1.10987654321	2.4	1.35714285714	-0.05
1572	0.786	-4.52962962963	-4.648	1.35714285714	-1.5
1573	0.7865	1.10987654321	-1.8288	-0.0857142857143	-1.5
1574	0.787	16.6185185185	-1.8288	-0.0857142857143	2.85
1575	0.7875	-11.5790123457	-0.4192	-1.52857142857	-1.5
1576	0.788	-4.52962962963	-3.2384	4.24285714286	-0.05
1577	0.7885	-3.11975308642	-6.0576	-2.97142857143	-0.05
1578	0.789	-1.70987654321	-0.4192	-0.0857142857143	1.4
1579	0.7895	-1.70987654321	-8.8768	-0.0857142857143	-0.05
1580	0.79	-1.70987654321	10.8576	-0.0857142857143	-0.05
1581	0.7905	8.15925925926	3.8096	2.8	-0.05
1582	0.791	-4.52962962963	3.8096	-0.0857142857143	-1.5
1583	0.7915	-0.3	0.9904	-1.52857142857	15.9
1584	0.792	-0.3	0.9904	-0.0857142857143	-10.2
1585	0.7925	-0.3	0.9904	-2.97142857143	-0.05
1586	0.793	-0.3	-0.4192	-1.52857142857	-1.5
1587	0.7935	-0.3	2.4	1.35714285714	1.4
1588	0.794	3.92962962963	-4.648	-0.0857142857143	1.4
1589	0.7945	-14.3987654321	-0.4192	-1.52857142857	4.3
1590	0.795	1.10987654321	0.9904	-0.0857142857143	-0.05
1591	0.7955	1.10987654321	0.9904	-5.85714285714	-0.05
1592	0.796	-0.3	2.4	-1.52857142857	-0.05
1593	0.7965	-0.3	5.2192	-1.52857142857	1.4
1594	0.797	2.51975308642	17.9056	-0.0857142857143	-0.05
1595	0.7975	-0.3	-10.2864	-0.0857142857143	4.3
1596	0.798	1.10987654321	-3.2384	1.35714285714	1.4
1597	0.7985	-3.11975308642	-4.648	2.8	2.85
1598	0.799	2.51975308642	-6.0576	4.24285714286	4.3
1599	0.7995	2.51975308642	-4.648	-4.41428571429	-0.05
1600	0.8	-0.3	-6.0576	12.9	-1.5
1601	0.8005	3.92962962963	-8.8768	-2.97142857143	1.4
1602	0.801	1.10987654321	6.6288	-1.52857142857	-0.05
1603	0.8015	3.92962962963	-6.0576	-0.0857142857143	-1.5
1604	0.802	-5.93950617284	-7.4672	1.35714285714	-0.05
1605	0.8025	13.7987654321	-8.8768	1.35714285714	-2.95
1606	0.803	-1.70987654321	-6.0576	-1.52857142857	-5.85
1607	0.8035	-0.3	-4.648	12.9	-1.5
1608	0.804	-3.11975308642	-7.4672	-0.0857142857143	1.4
1609	0.8045	-4.52962962963	-3.2384	-4.41428571429	-0.05
1610	0.805	-7.34938271605	-14.5152	-0.0857142857143	-1.5
1611	0.8055	2.51975308642	-6.0576	-0.0857142857143	2.85
1612	0.806	-8.75925925926	-6.0576	-0.0857142857143	-0.05
1613	0.8065	-4.52962962963	-4.648	-0.0857142857143	-2.95
1614	0.807	-4.52962962963	-4.648	1.35714285714	5.75
1615	0.8075	-3.11975308642	-1.8288	14.3428571429	-0.05
1616	0.808	-5.93950617284	2.4	-8.74285714286	-1.5
1617	0.8085	-5.93950617284	-10.2864	-0.0857142857143	-1.5
1618	0.809	-3.11975308642	0.9904	-1.52857142857	2.85
1619	0.8095	2.51975308642	-3.2384	-1.52857142857	2.85
1620	0.81	-7.34938271605	-7.4672	4.24285714286	14.45
1621	0.8105	-4.52962962963	-7.4672	4.24285714286	-8.75
1622	0.811	-3.11975308642	-6.0576	-7.3	1.4
1623	0.8115	-1.70987654321	-6.0576	7.12857142857	1.4
1624	0.812	-1.70987654321	-13.1056	-2.97142857143	-0.05
1625	0.8125	-0.3	-6.0576	1.35714285714	-0.05
1626	0.813	-14.3987654321	-4.648	-0.0857142857143	-0.05
1627	0.8135	18.0283950617	-7.4672	1.35714285714	-0.05
1628	0.814	-8.75925925926	-3.2384	1.35714285714	-2.95
1629	0.8145	1.10987654321	-4.648	1.35714285714	5.75
1630	0.815	-0.3	-1.8288	-7.3	-2.95
1631	0.8155	2.51975308642	-0.4192	-0.0857142857143	-0.05
1632	0.816	1.10987654321	13.6768	1.35714285714	1.4
1633	0.8165	1.10987654321	-10.2864	-1.52857142857	-1.5
1634	0.817	-4.52962962963	-1.8288	2.8	-0.05
1635	0.8175	1.10987654321	-1.8288	-0.0857142857143	2.85
1636	0.818	3.92962962963	0.9904	2.8	-4.4
1637	0.8185	2.51975308642	-1.8288	-8.74285714286	-1.5
1638	0.819	1.10987654321	-0.4192	-5.85714285714	-0.05
1639	0.8195	1.10987654321	-0.4192	1.35714285714	-0.05
1640	0.82	-3.11975308642	-3.2384	2.8	1.4
1641	0.8205	-12.9888888889	-1.8288	1.35714285714	-0.05
1642	0.821	16.6185185185	-4.648	2.8	2.85
1643	0.8215	-8.75925925926	-1.8288	1.35714285714	-0.05
1644	0.822	1.10987654321	-1.8288	1.35714285714	2.85
1645	0.8225	2.51975308642	-0.4192	-11.6285714286	-1.5
1646	0.823	1.10987654321	-0.4192	-0.0857142857143	1.4
1647	0.8235	-1.70987654321	9.448	-0.0857142857143	-1.5
1648	0.824	-3.11975308642	-7.4672	1.35714285714	-1.5
1649	0.8245	-10.1691358025	-1.8288	1.35714285714	-1.5
1650	0.825	-4.52962962963	-1.8288	-1.52857142857	14.45
1651	0.8255	-3.11975308642	-4.648	4.24285714286	-1.5
1652	0.826	-3.11975308642	-3.2384	18.6714285714	-2.95
1653	0.8265	-1.70987654321	-3.2384	-7.3	1.4
1654	0.827	1.10987654321	-1.8288	2.8	-1.5
1655	0.8275	-1.70987654321	-6.0576	1.35714285714	-0.05
1656	0.828	2.51975308642	-3.2384	1.35714285714	-1.5
1657	0.8285	-10.1691358025	-3.2384	1.35714285714	1.4
1658	0.829	-1.70987654321	-1.8288	1.35714285714	-0.05
1659	0.8295	-1.70987654321	-0.4192	-10.1857142857	-1.5
1660	0.83	-3.11975308642	-0.4192	17.2285714286	-0.05
1661	0.8305	-1.70987654321	-3.2384	-8.74285714286	-0.05
1662	0.831	-0.3	-0.4192	-2.97142857143	-1.5
1663	0.8315	-12.9888888889	-4.648	-1.52857142857	-1.5
1664	0.832	16.6185185185	-4.648	-1.52857142857	2.85
1665	0.8325	-10.1691358025	-6.0576	-1.52857142857	-4.4
1666	0.833	-4.52962962963	-4.648	-0.0857142857143	2.85
1667	0.8335	-5.93950617284	-6.0576	-4.41428571429	-4.4
1668	0.834	-7.34938271605	-4.648	-1.52857142857	-0.05
1669	0.8345	-3.11975308642	6.6288	-0.0857142857143	-1.5
1670	0.835	-7.34938271605	-10.2864	1.35714285714	2.85
1671	0.8355	-15.8086419753	-7.4672	2.8	-4.4
1672	0.836	10.9790123457	-8.8768	-1.52857142857	-1.5
1673	0.8365	-3.11975308642	-8.8768	-0.0857142857143	7.2
1674	0.837	-4.52962962963	-6.0576	4.24285714286	-2.95
1675	0.8375	-5.93950617284	-13.1056	-8.74285714286	-0.05
1676	0.838	-3.11975308642	-17.3344	2.8	1.4
1677	0.8385	-3.11975308642	-14.5152	-0.0857142857143	-0.05
1678	0.839	-1.70987654321	-7.4672	-1.52857142857	1.4
1679	0.8395	-5.93950617284	-7.4672	-1.52857142857	2.85
1680	0.84	-4.52962962963	-6.0576	1.35714285714	-1.5
1681	0.8405	-4.52962962963	-4.648	-1.52857142857	14.45
1682	0.841	-5.93950617284	-6.0576	-1.52857142857	-0.05
1683	0.8415	-4.52962962963	-14.5152	1.35714285714	-0.05
1684	0.842	-3.11975308642	-13.1056	1.35714285714	-1.5
1685	0.8425	-7.34938271605	-4.648	1.35714285714	-0.05
1686	0.843	1.10987654321	-6.0576	-0.0857142857143	1.4
1687	0.8435	-10.1691358025	-6.0576	-0.0857142857143	-2.95
1688	0.844	-4.52962962963	-4.648	-11.6285714286	-0.05
1689	0.8445	-5.93950617284	-3.2384	20.1142857143	-1.5
1690	0.845	-1.70987654321	-6.0576	-7.3	-0.05
1691	0.8455	-4.52962962963	-0.4192	-0.0857142857143	1.4
1692	0.846	-5.93950617284	-3.2384	-0.0857142857143	-0.05
1693	0.8465	13.7987654321	-3.2384	1.35714285714	-1.5
1694	0.847	-11.5790123457	-3.2384	2.8	2.85
1695	0.8475	-7.34938271605	-0.4192	-11.6285714286	-0.05
1696	0.848	-1.70987654321	3.8096	17.2285714286	1.4
1697	0.8485	-1.70987654321	9.448	-8.74285714286	-0.05
1698	0.849	-3.11975308642	20.7248	-0.0857142857143	-0.05
1699	0.8495	-3.11975308642	-0.4192	-0.0857142857143	-0.05
1700	0.85	9.56913580247	3.8096	1.35714285714	-11.65
1701	0.8505	-7.34938271605	3.8096	-1.52857142857	20.25
1702	0.851	-4.52962962963	2.4	4.24285714286	2.85
1703	0.8515	-3.11975308642	2.4	15.7857142857	1.4
1704	0.852	-0.3	3.8096	2.8	-0.05
1705	0.8525	1.10987654321	9.448	-0.0857142857143	-1.5
1706	0.853	-5.93950617284	-6.0576	1.35714285714	-0.05
1707	0.8535	-0.3	0.9904	1.35714285714	1.4
1708	0.854	-8.75925925926	-1.8288	-0.0857142857143	-0.05
1709	0.8545	-1.70987654321	-1.8288	-0.0857142857143	-8.75
1710	0.855	-3.11975308642	-1.8288	-8.74285714286	-2.95
1711	0.8555	-3.11975308642	-3.2384	18.6714285714	-0.05
1712	0.856	-3.11975308642	-14.5152	1.35714285714	1.4
1713	0.8565	-1.70987654321	13.6768	-0.0857142857143	1.4
1714	0.857	-1.70987654321	-8.8768	2.8	1.4
1715	0.8575	-3.11975308642	-3.2384	2.8	-5.85
1716	0.858	-4.52962962963	-1.8288	-1.52857142857	15.9
1717	0.8585	-4.52962962963	-0.4192	2.8	-0.05
1718	0.859	-4.52962962963	-0.4192	-1.52857142857	-11.65
1719	0.8595	-7.34938271605	-1.8288	-1.52857142857	1.4
1720	0.86	-3.11975308642	-6.0576	1.35714285714	-0.05
1721	0.8605	-4.52962962963	5.2192	-0.0857142857143	-0.05
1722	0.861	-3.11975308642	-1.8288	-1.52857142857	1.4
1723	0.8615	-10.1691358025	-1.8288	-0.0857142857143	-0.05
1724	0.862	-4.52962962963	-1.8288	-0.0857142857143	17.35
1725	0.8625	-4.52962962963	0.9904	2.8	-1.5
1726	0.863	-3.11975308642	0.9904	-5.85714285714	1.4
1727	0.8635	-1.70987654321	0.9904	4.24285714286	-0.05
1728	0.864	-5.93950617284	16.496	1.35714285714	-0.05
1729	0.8645	1.10987654321	-6.0576	-1.52857142857	1.4
1730	0.865	-12.9888888889	-4.648	1.35714285714	-1.5
1731	0.8655	-7.34938271605	-4.648	1.35714285714	-2.95
1732	0.866	-5.93950617284	-4.648	1.35714285714	-4.4
1733	0.8665	-3.11975308642	-3.2384	-7.3	2.85
1734	0.867	-5.93950617284	0.9904	-1.52857142857	-1.5
1735	0.8675	-4.52962962963	-11.696	-1.52857142857	-1.5
1736	0.868	-4.52962962963	-10.2864	1.35714285714	1.4
1737	0.8685	-12.9888888889	-0.4192	1.35714285714	1.4
1738	0.869	-14.3987654321	-1.8288	4.24285714286	-10.2
1739	0.8695	-7.34938271605	-1.8288	-2.97142857143	-10.2
1740	0.87	-5.93950617284	-4.648	-4.41428571429	1.4
1741	0.8705	-7.34938271605	-1.8288	14.3428571429	-1.5
1742	0.871	-4.52962962963	-3.2384	-7.3	1.4
1743	0.8715	-3.11975308642	10.8576	-1.52857142857	-1.5
1744	0.872	-4.52962962963	-4.648	-1.52857142857	1.4
1745	0.8725	-5.93950617284	0.9904	-0.0857142857143	1.4
1746	0.873	-3.11975308642	-0.4192	-1.52857142857	-0.05
1747	0.8735	-5.93950617284	-3.2384	2.8	-1.5
1748	0.874	-4.52962962963	-0.4192	10.0142857143	-0.05
1749	0.8745	-5.93950617284	-3.2384	2.8	1.4
1750	0.875	-4.52962962963	0.9904	-1.52857142857	-1.5
1751	0.8755	-4.52962962963	-10.2864	-0.0857142857143	-0.05
1752	0.876	-11.5790123457	9.448	2.8	-0.05
1753	0.8765	10.9790123457	-7.4672	-0.0857142857143	-8.75
1754	0.877	-7.34938271605	-6.0576	-1.52857142857	14.45
1755	0.8775	-3.11975308642	-6.0576	-1.52857142857	-8.75
1756	0.878	-5.93950617284	-4.648	4.24285714286	-1.5
1757	0.8785	-3.11975308642	-13.1056	-1.52857142857	-0.05
1758	0.879	-1.70987654321	10.8576	-0.0857142857143	-1.5
1759	0.8795	-4.52962962963	-10.2864	1.35714285714	-1.5
1760	0.88	16.6185185185	-1.8288	1.35714285714	2.85
1761	0.8805	-10.1691358025	-1.8288	1.35714285714	1.4
1762	0.881	1.10987654321	-1.8288	-0.0857142857143	-1.5
1763	0.8815	3.92962962963	-1.8288	7.12857142857	-0.05
1764	0.882	1.10987654321	2.4	-1.52857142857	-0.05
1765	0.8825	1.10987654321	-11.696	-1.52857142857	-1.5
1766	0.883	6.74938271605	17.9056	1.35714285714	-1.5
1767	0.8835	-7.34938271605	-4.648	1.35714285714	-1.5
1768	0.884	13.7987654321	-1.8288	1.35714285714	-0.05
1769	0.8845	3.92962962963	-0.4192	2.8	-0.05
1770	0.885	1.10987654321	0.9904	-10.1857142857	-0.05
1771	0.8855	1.10987654321	3.8096	17.2285714286	-0.05
1772	0.886	1.10987654321	-4.648	1.35714285714	-1.5
1773	0.8865	2.51975308642	2.4	1.35714285714	1.4
1774	0.887	2.51975308642	-4.648	-0.0857142857143	1.4
1775	0.8875	15.2086419753	2.4	-0.0857142857143	-13.1
1776	0.888	1.10987654321	0.9904	-1.52857142857	15.9
1777	0.8885	-3.11975308642	0.9904	4.24285714286	-8.75
1778	0.889	-0.3	-1.8288	-8.74285714286	1.4
1779	0.8895	-1.70987654321	-0.4192	18.6714285714	1.4
1780	0.89	-0.3	-6.0576	-0.0857142857143	1.4
1781	0.8905	-1.70987654321	-6.0576	1.35714285714	1.4
1782	0.891	-11.5790123457	0.9904	1.35714285714	-0.05
1783	0.8915	15.2086419753	-1.8288	1.35714285714	-10.2
1784	0.892	-3.11975308642	-1.8288	-4.41428571429	17.35
1785	0.8925	-4.52962962963	-1.8288	11.4571428571	1.4
1786	0.893	-4.52962962963	-4.648	-2.97142857143	-1.5
1787	0.8935	-8.75925925926	-14.5152	-0.0857142857143	1.4
1788	0.894	-4.52962962963	9.448	-1.52857142857	-0.05
1789	0.8945	-10.1691358025	-11.696	-1.52857142857	-0.05
1790	0.895	13.7987654321	0.9904	-2.97142857143	-0.05
1791	0.8955	-12.9888888889	-1.8288	-0.0857142857143	7.2
1792	0.896	-5.93950617284	0.9904	-7.3	-1.5
1793	0.8965	-4.52962962963	0.9904	12.9	-2.95
1794	0.897	-4.52962962963	0.9904	-0.0857142857143	-0.05
1795	0.8975	-4.52962962963	19.3152	1.35714285714	-0.05
1796	0.898	-7.34938271605	2.4	2.8	-2.95
1797	0.8985	-12.9888888889	0.9904	-0.0857142857143	-0.05
1798	0.899	-5.93950617284	2.4	5.68571428571	-10.2
1799	0.8995	-4.52962962963	0.9904	-10.1857142857	-0.05
1800	0.9	-3.11975308642	3.8096	18.6714285714	-1.5
1801	0.9005	-4.52962962963	2.4	-0.0857142857143	1.4
1802	0.901	-5.93950617284	2.4	-0.0857142857143	-0.05
1803	0.9015	-5.93950617284	2.4	1.35714285714	2.85
1804	0.902	-20.0382716049	2.4	2.8	1.4
1805	0.9025	12.3888888889	0.9904	1.35714285714	-8.75
1806	0.903	-5.93950617284	3.8096	-0.0857142857143	14.45
1807	0.9035	-7.34938271605	-0.4192	-2.97142857143	1.4
1808	0.904	-4.52962962963	5.2192	-1.52857142857	-0.05
1809	0.9045	-5.93950617284	-10.2864	1.35714285714	-0.05
1810	0.905	-3.11975308642	-7.4672	-0.0857142857143	-0.05
1811	0.9055	-5.93950617284	2.4	-0.0857142857143	-0.05
1812	0.906	-1.70987654321	2.4	1.35714285714	-0.05
1813	0.9065	-4.52962962963	0.9904	5.68571428571	-4.4
1814	0.907	-4.52962962963	0.9904	-8.74285714286	-0.05
1815	0.9075	-4.52962962963	6.6288	18.6714285714	-0.05
1816	0.908	-7.34938271605	-1.8288	-0.0857142857143	-0.05
1817	0.9085	-4.52962962963	9.448	-0.0857142857143	-1.5
1818	0.909	-4.52962962963	0.9904	-0.0857142857143	-0.05
1819	0.9095	-15.8086419753	-0.4192	-0.0857142857143	-0.05
1820	0.91	-7.34938271605	-1.8288	1.35714285714	-8.75
1821	0.9105	-4.52962962963	-1.8288	-1.52857142857	7.2
1822	0.911	-5.93950617284	-0.4192	17.2285714286	-0.05
1823	0.9115	-3.11975308642	-6.0576	-8.74285714286	-0.05
1824	0.912	-4.52962962963	0.9904	-1.52857142857	-0.05
1825	0.9125	-4.52962962963	0.9904	-0.0857142857143	-0.05
1826	0.913	-12.9888888889	0.9904	1.35714285714	-0.05
1827	0.9135	19.4382716049	0.9904	-1.52857142857	-13.1
1828	0.914	-3.11975308642	-0.4192	-0.0857142857143	17.35
1829	0.9145	-3.11975308642	-4.648	2.8	17.35
1830	0.915	-3.11975308642	-4.648	-10.1857142857	-1.5
1831	0.9155	-0.3	-0.4192	17.2285714286	1.4
1832	0.916	-3.11975308642	-1.8288	-0.0857142857143	-1.5
1833	0.9165	1.10987654321	-0.4192	1.35714285714	-0.05
1834	0.917	-7.34938271605	-0.4192	-0.0857142857143	-1.5
1835	0.9175	1.10987654321	0.9904	-1.52857142857	18.8
1836	0.918	1.10987654321	0.9904	1.35714285714	-0.05
1837	0.9185	1.10987654321	0.9904	14.3428571429	1.4
1838	0.919	1.10987654321	-0.4192	-2.97142857143	-1.5
1839	0.9195	-1.70987654321	-10.2864	-0.0857142857143	-2.95
1840	0.92	-0.3	-4.648	-0.0857142857143	1.4
1841	0.9205	-15.8086419753	-0.4192	1.35714285714	-0.05
1842	0.921	16.6185185185	0.9904	-0.0857142857143	-8.75
1843	0.9215	-0.3	0.9904	-0.0857142857143	7.2
1844	0.922	-3.11975308642	2.4	-1.52857142857	-1.5
1845	0.9225	-0.3	5.2192	-0.0857142857143	-1.5
1846	0.923	-4.52962962963	-4.648	1.35714285714	-1.5
1847	0.9235	-0.3	-0.4192	1.35714285714	-0.05
1848	0.924	-1.70987654321	9.448	1.35714285714	-0.05
1849	0.9245	-5.93950617284	9.448	2.8	1.4
1850	0.925	-4.52962962963	8.0384	-0.0857142857143	-14.55
1851	0.9255	-3.11975308642	9.448	2.8	1.4
1852	0.926	-1.70987654321	15.0864	-7.3	-0.05
1853	0.9265	-1.70987654321	10.8576	2.8	-1.5
1854	0.927	-1.70987654321	22.1344	-1.52857142857	-1.5
1855	0.9275	1.10987654321	10.8576	-1.52857142857	1.4
1856	0.928	-8.75925925926	15.0864	-1.52857142857	-2.95
1857	0.9285	-1.70987654321	9.448	1.35714285714	18.8
1858	0.929	-3.11975308642	12.2672	-4.41428571429	-0.05
1859	0.9295	-0.3	8.0384	-0.0857142857143	-0.05
1860	0.93	-1.70987654321	-4.648	-2.97142857143	1.4
1861	0.9305	-1.70987654321	0.9904	-1.52857142857	-0.05
1862	0.931	1.10987654321	3.8096	-0.0857142857143	1.4
1863	0.9315	-12.9888888889	3.8096	-0.0857142857143	-1.5
1864	0.932	1.10987654321	5.2192	-0.0857142857143	13.0
1865	0.9325	2.51975308642	2.4	-2.97142857143	-5.85
1866	0.933	2.51975308642	6.6288	7.12857142857	-1.5
1867	0.9335	2.51975308642	0.9904	1.35714285714	-1.5
1868	0.934	2.51975308642	16.496	4.24285714286	-0.05
1869	0.9345	3.92962962963	0.9904	1.35714285714	-0.05
1870	0.935	-5.93950617284	0.9904	-0.0857142857143	-0.05
1871	0.9355	-1.70987654321	0.9904	-0.0857142857143	-11.65
1872	0.936	5.33950617284	-1.8288	1.35714285714	17.35
1873	0.9365	3.92962962963	0.9904	14.3428571429	-0.05
1874	0.937	3.92962962963	-0.4192	-7.3	-0.05
1875	0.9375	1.10987654321	-10.2864	1.35714285714	-1.5
1876	0.938	3.92962962963	-3.2384	-0.0857142857143	1.4
1877	0.9385	-11.5790123457	-1.8288	-0.0857142857143	-4.4
1878	0.939	18.0283950617	-4.648	1.35714285714	-13.1
1879	0.9395	-0.3	-6.0576	-0.0857142857143	17.35
1880	0.94	-0.3	-1.8288	18.6714285714	-0.05
1881	0.9405	-0.3	-6.0576	-8.74285714286	-0.05
1882	0.941	1.10987654321	-7.4672	4.24285714286	-1.5
1883	0.9415	3.92962962963	-1.8288	1.35714285714	1.4
1884	0.942	3.92962962963	-10.2864	2.8	1.4
1885	0.9425	-7.34938271605	-4.648	-0.0857142857143	-4.4
1886	0.943	1.10987654321	-6.0576	-0.0857142857143	1.4
1887	0.9435	1.10987654321	-4.648	-0.0857142857143	-0.05
1888	0.944	1.10987654321	-1.8288	4.24285714286	-1.5
1889	0.9445	-1.70987654321	-10.2864	-1.52857142857	-0.05
1890	0.945	1.10987654321	-8.8768	2.8	-0.05
1891	0.9455	1.10987654321	-0.4192	-0.0857142857143	4.3
1892	0.946	-0.3	0.9904	-1.52857142857	2.85
1893	0.9465	1.10987654321	0.9904	1.35714285714	14.45
1894	0.947	3.92962962963	2.4	-0.0857142857143	-10.2
1895	0.9475	2.51975308642	5.2192	17.2285714286	-1.5
1896	0.948	2.51975308642	0.9904	1.35714285714	-1.5
1897	0.9485	1.10987654321	-0.4192	-0.0857142857143	-0.05
1898	0.949	-0.3	19.3152	-0.0857142857143	-0.05
1899	0.9495	-4.52962962963	5.2192	1.35714285714	-0.05
1900	0.95	8.15925925926	0.9904	-1.52857142857	-5.85
1901	0.9505	-4.52962962963	3.8096	1.35714285714	5.75
1902	0.951	2.51975308642	0.9904	4.24285714286	4.3
1903	0.9515	3.92962962963	0.9904	1.35714285714	-0.05
1904	0.952	2.51975308642	3.8096	8.57142857143	-4.4
1905	0.9525	3.92962962963	-1.8288	1.35714285714	-2.95
1906	0.953	3.92962962963	-3.2384	1.35714285714	1.4
1907	0.9535	-10.1691358025	-0.4192	1.35714285714	1.4
1908	0.954	-7.34938271605	-0.4192	-1.52857142857	-13.1
1909	0.9545	-0.3	-0.4192	-2.97142857143	18.8
1910	0.955	-0.3	-0.4192	18.6714285714	-0.05
1911	0.9555	-0.3	-1.8288	-7.3	-1.5
1912	0.956	1.10987654321	-0.4192	-1.52857142857	-2.95
1913	0.9565	3.92962962963	-1.8288	-0.0857142857143	1.4
1914	0.957	-15.8086419753	-4.648	2.8	1.4
1915	0.9575	-10.1691358025	-0.4192	2.8	-8.75
1916	0.958	-4.52962962963	0.9904	-1.52857142857	-7.3
1917	0.9585	-3.11975308642	2.4	-11.6285714286	-2.95
1918	0.959	-1.70987654321	2.4	18.6714285714	-1.5
1919	0.9595	-4.52962962963	-1.8288	-8.74285714286	-0.05
1920	0.96	-4.52962962963	15.0864	1.35714285714	-0.05
1921	0.9605	-5.93950617284	-4.648	1.35714285714	-0.05
1922	0.961	10.9790123457	-1.8288	-1.52857142857	-0.05
1923	0.9615	-5.93950617284	0.9904	-0.0857142857143	14.45
1924	0.962	-4.52962962963	0.9904	5.68571428571	-5.85
1925	0.9625	-1.70987654321	0.9904	-13.0714285714	-2.95
1926	0.963	-0.3	5.2192	1.35714285714	-0.05
1927	0.9635	-4.52962962963	17.9056	-1.52857142857	-1.5
1928	0.964	-3.11975308642	-6.0576	1.35714285714	-0.05
1929	0.9645	-7.34938271605	0.9904	-0.0857142857143	-1.5
1930	0.965	8.15925925926	2.4	-0.0857142857143	1.4
1931	0.9655	-3.11975308642	2.4	4.24285714286	-7.3
1932	0.966	-4.52962962963	2.4	-7.3	-0.05
1933	0.9665	-4.52962962963	2.4	-5.85714285714	-1.5
1934	0.967	-4.52962962963	-4.648	1.35714285714	-0.05
1935	0.9675	-1.70987654321	9.448	-0.0857142857143	-0.05
1936	0.968	-15.8086419753	-0.4192	-1.52857142857	-2.95
1937	0.9685	16.6185185185	-1.8288	-1.52857142857	-8.75
1938	0.969	-5.93950617284	-3.2384	-1.52857142857	8.65
1939	0.9695	-4.52962962963	-3.2384	-1.52857142857	-0.05
1940	0.97	-4.52962962963	-6.0576	10.0142857143	-0.05
1941	0.9705	-1.70987654321	-6.0576	-1.52857142857	-2.95
1942	0.971	-4.52962962963	10.8576	1.35714285714	-0.05
1943	0.9715	-0.3	-15.9248	1.35714285714	-1.5
1944	0.972	-11.5790123457	-7.4672	1.35714285714	-1.5
1945	0.9725	1.10987654321	-6.0576	-0.0857142857143	-0.05
1946	0.973	-10.1691358025	-4.648	-2.97142857143	-0.05
1947	0.9735	-3.11975308642	-4.648	4.24285714286	17.35
1948	0.974	-7.34938271605	-7.4672	-4.41428571429	-0.05
1949	0.9745	-5.93950617284	-8.8768	-0.0857142857143	-1.5
1950	0.975	-8.75925925926	-0.4192	-2.97142857143	-0.05
1951	0.9755	-18.6283950617	-1.8288	1.35714285714	-0.05
1952	0.976	2.51975308642	-4.648	1.35714285714	-11.65
1953	0.9765	-8.75925925926	-4.648	-1.52857142857	17.35
1954	0.977	-4.52962962963	-6.0576	-1.52857142857	-8.75
1955	0.9775	-5.93950617284	-4.648	-2.97142857143	-1.5
1956	0.978	-5.93950617284	-13.1056	1.35714285714	-2.95
1957	0.9785	-7.34938271605	0.9904	-0.0857142857143	-0.05
1958	0.979	-4.52962962963	-11.696	-0.0857142857143	-0.05
1959	0.9795	-17.2185185185	-7.4672	-2.97142857143	1.4
1960	0.98	-12.9888888889	-4.648	1.35714285714	-7.3
1961	0.9805	-1.70987654321	-3.2384	-0.0857142857143	-5.85
1962	0.981	-1.70987654321	0.9904	12.9	-1.5
1963	0.9815	-3.11975308642	-4.648	-5.85714285714	-7.3
1964	0.982	-1.70987654321	2.4	-0.0857142857143	-0.05
1965	0.9825	-1.70987654321	-4.648	-1.52857142857	2.85
1966	0.983	-5.93950617284	0.9904	1.35714285714	-0.05
1967	0.9835	3.92962962963	-0.4192	2.8	-4.4
1968	0.984	-3.11975308642	-3.2384	-0.0857142857143	-1.5
1969	0.9845	-3.11975308642	-6.0576	-10.1857142857	-2.95
1970	0.985	-0.3	-6.0576	15.7857142857	-0.05
1971	0.9855	-1.70987654321	-15.9248	-0.0857142857143	-0.05
1972	0.986	1.10987654321	8.0384	-0.0857142857143	-0.05
1973	0.9865	-3.11975308642	-6.0576	-0.0857142857143	4.3
1974	0.987	-12.9888888889	-6.0576	1.35714285714	-5.85
1975	0.9875	-4.52962962963	-7.4672	-1.52857142857	20.25
1976	0.988	-3.11975308642	-6.0576	2.8	-0.05
1977	0.9885	-4.52962962963	-4.648	14.3428571429	-0.05
1978	0.989	-1.70987654321	-3.2384	-4.41428571429	-1.5
1979	0.9895	-0.3	-8.8768	1.35714285714	-0.05
1980	0.99	2.51975308642	-10.2864	2.8	-0.05
1981	0.9905	-8.75925925926	-4.648	-0.0857142857143	-0.05
1982	0.991	3.92962962963	-7.4672	-0.0857142857143	-4.4
1983	0.9915	-1.70987654321	-7.4672	1.35714285714	5.75
1984	0.992	-3.11975308642	-7.4672	-1.52857142857	-4.4
1985	0.9925	-1.70987654321	-7.4672	17.2285714286	-1.5
1986	0.993	-3.11975308642	-20.1536	1.35714285714	-0.05
1987	0.9935	-1.70987654321	-4.648	1.35714285714	4.3
1988	0.994	1.10987654321	-10.2864	2.8	4.3
1989	0.9945	-14.3987654321	-10.2864	-0.0857142857143	2.85
1990	0.995	-11.5790123457	-11.696	1.35714285714	-7.3
1991	0.9955	-3.11975308642	-10.2864	1.35714285714	15.9
1992	0.996	-3.11975308642	-11.696	-2.97142857143	-5.85
1993	0.9965	-4.52962962963	-10.2864	-1.52857142857	2.85
1994	0.997	-0.3	-15.9248	1.35714285714	-1.5
1995	0.9975	-0.3	-3.2384	-1.52857142857	1.4
1996	0.998	-11.5790123457	-10.2864	2.8	-0.05
1997	0.9985	12.3888888889	-11.696	1.35714285714	-7.3
1998	0.999	-4.52962962963	-13.1056	-1.52857142857	15.9
1999	0.9995	-4.52962962963	-10.2864	2.8	-7.3
2000	1.0	-1.70987654321	-11.696	-7.3	-1.5
2001	1.0005	-0.3	-8.8768	1.35714285714	-1.5
2002	1.001	1.10987654321	-14.5152	4.24285714286	-0.05
2003	1.0015	-0.3	-3.2384	-0.0857142857143	1.4
2004	1.002	10.9790123457	-13.1056	1.35714285714	1.4
2005	1.0025	-1.70987654321	-10.2864	1.35714285714	-10.2
2006	1.003	-1.70987654321	-8.8768	-0.0857142857143	-2.95
2007	1.0035	1.10987654321	-8.8768	-8.74285714286	-0.05
2008	1.004	-0.3	-11.696	21.5571428571	2.85
2009	1.0045	1.10987654321	-20.1536	1.35714285714	-0.05
2010	1.005	2.51975308642	6.6288	-1.52857142857	-0.05
2011	1.0055	-3.11975308642	-7.4672	1.35714285714	1.4
2012	1.006	12.3888888889	-6.0576	-0.0857142857143	-0.05
2013	1.0065	-4.52962962963	-7.4672	-0.0857142857143	1.4
2014	1.007	-1.70987654321	-6.0576	2.8	-5.85
2015	1.0075	1.10987654321	-8.8768	12.9	4.3
2016	1.008	-0.3	-4.648	-4.41428571429	-0.05
2017	1.0085	-0.3	10.8576	1.35714285714	-0.05
2018	1.009	5.33950617284	-10.2864	1.35714285714	1.4
2019	1.0095	-3.11975308642	-0.4192	1.35714285714	-0.05
2020	1.01	10.9790123457	2.4	4.24285714286	-2.95
2021	1.0105	-0.3	2.4	-1.52857142857	1.4
2022	1.011	-0.3	0.9904	-11.6285714286	-1.5
2023	1.0115	-0.3	-1.8288	-1.52857142857	-1.5
2024	1.012	-0.3	-8.8768	1.35714285714	-1.5
2025	1.0125	-3.11975308642	8.0384	1.35714285714	2.85
2026	1.013	-1.70987654321	-13.1056	1.35714285714	1.4
2027	1.0135	-8.75925925926	-8.8768	-0.0857142857143	-0.05
2028	1.014	-7.34938271605	-10.2864	1.35714285714	1.4
2029	1.0145	-3.11975308642	-10.2864	2.8	-1.5
2030	1.015	-4.52962962963	-10.2864	-10.1857142857	-1.5
2031	1.0155	-3.11975308642	-10.2864	1.35714285714	-0.05
2032	1.016	-3.11975308642	-11.696	-7.3	-1.5
2033	1.0165	-0.3	2.4	2.8	-0.05
2034	1.017	-1.70987654321	-8.8768	1.35714285714	-1.5
2035	1.0175	12.3888888889	-8.8768	-0.0857142857143	-2.95
2036	1.018	-3.11975308642	-8.8768	-0.0857142857143	8.65
2037	1.0185	1.10987654321	-8.8768	-5.85714285714	-4.4
2038	1.019	2.51975308642	-6.0576	12.9	-0.05
2039	1.0195	3.92962962963	-3.2384	-4.41428571429	1.4
2040	1.02	-1.70987654321	-15.9248	-0.0857142857143	-0.05
2041	1.0205	1.10987654321	-17.3344	-0.0857142857143	-0.05
2042	1.021	-0.3	-11.696	2.8	1.4
2043	1.0215	8.15925925926	-11.696	2.8	-8.75
2044	1.022	-4.52962962963	-10.2864	1.35714285714	-0.05
2045	1.0225	-0.3	-10.2864	2.8	4.3
2046	1.023	1.10987654321	-13.1056	-2.97142857143	-0.05
2047	1.0235	1.10987654321	-4.648	1.35714285714	-0.05
2048	1.024	-0.3	-17.3344	-0.0857142857143	-0.05
2049	1.0245	3.92962962963	-4.648	-1.52857142857	-0.05
2050	1.025	-11.5790123457	-4.648	-0.0857142857143	-1.5
2051	1.0255	18.0283950617	-4.648	1.35714285714	-2.95
2052	1.026	1.10987654321	-6.0576	4.24285714286	17.35
2053	1.0265	-0.3	-4.648	-1.52857142857	-11.65
2054	1.027	1.10987654321	-4.648	1.35714285714	1.4
2055	1.0275	1.10987654321	-14.5152	-0.0857142857143	-0.05
2056	1.028	-0.3	-18.744	1.35714285714	-1.5
2057	1.0285	1.10987654321	-10.2864	1.35714285714	-0.05
2058	1.029	10.9790123457	-8.8768	-0.0857142857143	-0.05
2059	1.0295	1.10987654321	-8.8768	4.24285714286	1.4
2060	1.03	2.51975308642	-10.2864	-8.74285714286	-1.5
2061	1.0305	1.10987654321	-7.4672	-0.0857142857143	1.4
2062	1.031	1.10987654321	-3.2384	-0.0857142857143	-0.05
2063	1.0315	3.92962962963	-20.1536	1.35714285714	-1.5
2064	1.032	-0.3	-8.8768	-0.0857142857143	-1.5
2065	1.0325	-0.3	-11.696	1.35714285714	1.4
2066	1.033	2.51975308642	-10.2864	1.35714285714	-7.3
2067	1.0335	-3.11975308642	-8.8768	-0.0857142857143	-1.5
2068	1.034	1.10987654321	-8.8768	-8.74285714286	-1.5
2069	1.0345	1.10987654321	-1.8288	-1.52857142857	-0.05
2070	1.035	2.51975308642	-15.9248	1.35714285714	-0.05
2071	1.0355	2.51975308642	10.8576	1.35714285714	-0.05
2072	1.036	2.51975308642	-6.0576	-0.0857142857143	-0.05
2073	1.0365	8.15925925926	-7.4672	-0.0857142857143	1.4
2074	1.037	2.51975308642	-7.4672	4.24285714286	-2.95
2075	1.0375	-0.3	-8.8768	-10.1857142857	-0.05
2076	1.038	1.10987654321	-8.8768	-7.3	2.85
2077	1.0385	1.10987654321	-10.2864	1.35714285714	-0.05
2078	1.039	-1.70987654321	-15.9248	-0.0857142857143	2.85
2079	1.0395	1.10987654321	-20.1536	1.35714285714	1.4
2080	1.04	-0.3	-11.696	-1.52857142857	-0.05
2081	1.0405	9.56913580247	-7.4672	2.8	10.1
2082	1.041	2.51975308642	-6.0576	4.24285714286	-4.4
2083	1.0415	3.92962962963	-6.0576	-13.0714285714	-1.5
2084	1.042	3.92962962963	-6.0576	20.1142857143	1.4
2085	1.0425	5.33950617284	-15.9248	-0.0857142857143	1.4
2086	1.043	5.33950617284	13.6768	-0.0857142857143	-0.05
2087	1.0435	3.92962962963	-8.8768	-1.52857142857	-1.5
2088	1.044	22.2580246914	-6.0576	2.8	1.4
2089	1.0445	-5.93950617284	-8.8768	1.35714285714	-2.95
2090	1.045	3.92962962963	-6.0576	-1.52857142857	17.35
2091	1.0455	2.51975308642	-4.648	17.2285714286	-0.05
2092	1.046	5.33950617284	-6.0576	-5.85714285714	-0.05
2093	1.0465	2.51975308642	-4.648	1.35714285714	-1.5
2094	1.047	3.92962962963	-7.4672	1.35714285714	-0.05
2095	1.0475	-8.75925925926	-4.648	-0.0857142857143	1.4
2096	1.048	-4.52962962963	-4.648	1.35714285714	-10.2
2097	1.0485	1.10987654321	-3.2384	-1.52857142857	21.7
2098	1.049	3.92962962963	-6.0576	1.35714285714	-1.5
2099	1.0495	1.10987654321	-1.8288	-4.41428571429	-11.65
2100	1.05	3.92962962963	-4.648	-0.0857142857143	-0.05
2101	1.0505	5.33950617284	-1.8288	-1.52857142857	-2.95
2102	1.051	9.56913580247	-6.0576	1.35714285714	-0.05
2103	1.0515	12.3888888889	-7.4672	-0.0857142857143	2.85
2104	1.052	1.10987654321	-1.8288	2.8	8.65
2105	1.0525	2.51975308642	-1.8288	4.24285714286	-5.85
2106	1.053	1.10987654321	-0.4192	-4.41428571429	-1.5
2107	1.0535	1.10987654321	2.4	1.35714285714	-1.5
2108	1.054	5.33950617284	-13.1056	1.35714285714	-0.05
2109	1.0545	5.33950617284	-8.8768	-1.52857142857	-0.05
2110	1.055	5.33950617284	-0.4192	-1.52857142857	2.85
2111	1.0555	-8.75925925926	-0.4192	-2.97142857143	-2.95
2112	1.056	1.10987654321	-3.2384	-1.52857142857	13.0
2113	1.0565	2.51975308642	-0.4192	2.8	-0.05
2114	1.057	1.10987654321	-1.8288	14.3428571429	-0.05
2115	1.0575	1.10987654321	-4.648	-7.3	-1.5
2116	1.058	-0.3	-10.2864	1.35714285714	-1.5
2117	1.0585	1.10987654321	-14.5152	4.24285714286	-0.05
2118	1.059	-0.3	-0.4192	1.35714285714	-2.95
2119	1.0595	5.33950617284	-8.8768	1.35714285714	-2.95
2120	1.06	-8.75925925926	-8.8768	1.35714285714	1.4
2121	1.0605	-3.11975308642	-6.0576	-7.3	-4.4
2122	1.061	-4.52962962963	-3.2384	12.9	-0.05
2123	1.0615	-3.11975308642	-15.9248	1.35714285714	1.4
2124	1.062	-3.11975308642	-0.4192	1.35714285714	1.4
2125	1.0625	-0.3	-13.1056	1.35714285714	-0.05
2126	1.063	-7.34938271605	-4.648	1.35714285714	1.4
2127	1.0635	9.56913580247	-6.0576	4.24285714286	-0.05
2128	1.064	-3.11975308642	-6.0576	-0.0857142857143	-2.95
2129	1.0645	-0.3	-4.648	11.4571428571	-2.95
2130	1.065	1.10987654321	-7.4672	-10.1857142857	-2.95
2131	1.0655	-0.3	6.6288	1.35714285714	1.4
2132	1.066	-0.3	-15.9248	-1.52857142857	1.4
2133	1.0665	-4.52962962963	-8.8768	1.35714285714	-1.5
2134	1.067	3.92962962963	-4.648	1.35714285714	-0.05
2135	1.0675	1.10987654321	-6.0576	2.8	-0.05
2136	1.068	1.10987654321	-6.0576	-7.3	-0.05
2137	1.0685	-1.70987654321	-3.2384	-4.41428571429	-0.05
2138	1.069	-5.93950617284	-1.8288	2.8	-0.05
2139	1.0695	-3.11975308642	-15.9248	2.8	-0.05
2140	1.07	-7.34938271605	-8.8768	-0.0857142857143	-1.5
2141	1.0705	-0.3	0.9904	-0.0857142857143	-0.05
2142	1.071	13.7987654321	-0.4192	-0.0857142857143	2.85
2143	1.0715	-11.5790123457	-0.4192	1.35714285714	-8.75
2144	1.072	-4.52962962963	-1.8288	-0.0857142857143	15.9
2145	1.0725	-0.3	0.9904	14.3428571429	-1.5
2146	1.073	1.10987654321	2.4	-4.41428571429	-1.5
2147	1.0735	-0.3	10.8576	-1.52857142857	-0.05
2148	1.074	5.33950617284	0.9904	-0.0857142857143	-0.05
2149	1.0745	-7.34938271605	5.2192	-1.52857142857	1.4
2150	1.075	18.0283950617	2.4	-0.0857142857143	-7.3
2151	1.0755	1.10987654321	6.6288	1.35714285714	10.1
2152	1.076	2.51975308642	2.4	21.5571428571	-0.05
2153	1.0765	3.92962962963	-1.8288	-8.74285714286	1.4
2154	1.077	5.33950617284	6.6288	1.35714285714	1.4
2155	1.0775	8.15925925926	23.544	1.35714285714	-0.05
2156	1.078	10.9790123457	-1.8288	1.35714285714	1.4
2157	1.0785	-7.34938271605	5.2192	-0.0857142857143	4.3
2158	1.079	-4.52962962963	5.2192	1.35714285714	-11.65
2159	1.0795	5.33950617284	6.6288	-1.52857142857	13.0
2160	1.08	2.51975308642	6.6288	-1.52857142857	-0.05
2161	1.0805	8.15925925926	6.6288	-1.52857142857	-0.05
2162	1.081	2.51975308642	5.2192	-0.0857142857143	-0.05
2163	1.0815	2.51975308642	17.9056	-0.0857142857143	-0.05
2164	1.082	5.33950617284	-3.2384	1.35714285714	-1.5
2165	1.0825	-7.34938271605	-0.4192	2.8	1.4
2166	1.083	-7.34938271605	2.4	4.24285714286	-10.2
2167	1.0835	3.92962962963	2.4	1.35714285714	18.8
2168	1.084	2.51975308642	3.8096	1.35714285714	-7.3
2169	1.0845	1.10987654321	0.9904	-2.97142857143	-0.05
2170	1.085	-0.3	-6.0576	-0.0857142857143	-0.05
2171	1.0855	-0.3	-1.8288	-1.52857142857	-1.5
2172	1.086	5.33950617284	3.8096	4.24285714286	-0.05
2173	1.0865	-8.75925925926	6.6288	1.35714285714	-0.05
2174	1.087	-0.3	3.8096	-1.52857142857	-8.75
2175	1.0875	-0.3	3.8096	2.8	2.85
2176	1.088	3.92962962963	0.9904	-8.74285714286	1.4
2177	1.0885	6.74938271605	8.0384	1.35714285714	-1.5
2178	1.089	5.33950617284	22.1344	1.35714285714	-0.05
2179	1.0895	2.51975308642	-3.2384	1.35714285714	-0.05
2180	1.09	2.51975308642	3.8096	1.35714285714	1.4
2181	1.0905	-3.11975308642	2.4	2.8	-1.5
2182	1.091	3.92962962963	3.8096	2.8	5.75
2183	1.0915	9.56913580247	6.6288	-8.74285714286	2.85
2184	1.092	8.15925925926	8.0384	-8.74285714286	1.4
2185	1.0925	9.56913580247	0.9904	-0.0857142857143	4.3
2186	1.093	5.33950617284	-0.4192	1.35714285714	-0.05
2187	1.0935	-3.11975308642	5.2192	2.8	-0.05
2188	1.094	20.8481481481	0.9904	-1.52857142857	-7.3
2189	1.0945	2.51975308642	2.4	-2.97142857143	10.1
2190	1.095	3.92962962963	-1.8288	2.8	1.4
2191	1.0955	8.15925925926	-3.2384	-2.97142857143	-1.5
2192	1.096	8.15925925926	0.9904	-0.0857142857143	1.4
2193	1.0965	8.15925925926	-10.2864	2.8	-1.5
2194	1.097	12.3888888889	-7.4672	-0.0857142857143	-0.05
2195	1.0975	-1.70987654321	0.9904	-1.52857142857	-1.5
2196	1.098	23.6679012346	2.4	2.8	-5.85
2197	1.0985	3.92962962963	0.9904	-0.0857142857143	7.2
2198	1.099	3.92962962963	-1.8288	-1.52857142857	5.75
2199	1.0995	3.92962962963	-3.2384	15.7857142857	-0.05
2200	1.1	6.74938271605	-15.9248	-0.0857142857143	2.85
2201	1.1005	3.92962962963	19.3152	-1.52857142857	1.4
2202	1.101	9.56913580247	-10.2864	-0.0857142857143	-0.05
2203	1.1015	-3.11975308642	-1.8288	-0.0857142857143	1.4
2204	1.102	-4.52962962963	-4.648	1.35714285714	-7.3
2205	1.1025	3.92962962963	-3.2384	-0.0857142857143	-0.05
2206	1.103	1.10987654321	-6.0576	5.68571428571	-1.5
2207	1.1035	1.10987654321	0.9904	1.35714285714	-0.05
2208	1.104	1.10987654321	13.6768	-0.0857142857143	4.3
2209	1.1045	-0.3	-10.2864	2.8	1.4
2210	1.105	3.92962962963	-3.2384	1.35714285714	-1.5
2211	1.1055	-10.1691358025	-1.8288	2.8	1.4
2212	1.106	3.92962962963	-3.2384	1.35714285714	1.4
2213	1.1065	1.10987654321	-3.2384	-2.97142857143	13.0
2214	1.107	1.10987654321	0.9904	-1.52857142857	1.4
2215	1.1075	2.51975308642	-11.696	1.35714285714	2.85
2216	1.108	2.51975308642	-10.2864	2.8	2.85
2217	1.1085	-0.3	-1.8288	2.8	2.85
2218	1.109	20.8481481481	-3.2384	1.35714285714	-0.05
2219	1.1095	-5.93950617284	-4.648	1.35714285714	10.1
2220	1.11	1.10987654321	0.9904	-5.85714285714	-5.85
2221	1.1105	2.51975308642	0.9904	7.12857142857	2.85
2222	1.111	2.51975308642	-11.696	-0.0857142857143	1.4
2223	1.1115	2.51975308642	2.4	-0.0857142857143	1.4
2224	1.112	3.92962962963	-11.696	1.35714285714	1.4
2225	1.1125	-8.75925925926	-0.4192	1.35714285714	-0.05
2226	1.113	22.2580246914	-3.2384	-0.0857142857143	2.85
2227	1.1135	5.33950617284	-1.8288	-0.0857142857143	-1.5
2228	1.114	9.56913580247	0.9904	5.68571428571	-0.05
2229	1.1145	1.10987654321	-0.4192	2.8	-2.95
2230	1.115	5.33950617284	2.4	1.35714285714	-0.05
2231	1.1155	1.10987654321	-7.4672	-0.0857142857143	-0.05
2232	1.116	10.9790123457	-1.8288	-1.52857142857	-0.05
2233	1.1165	22.2580246914	-4.648	-1.52857142857	-2.95
2234	1.117	-1.70987654321	0.9904	-0.0857142857143	-4.4
2235	1.1175	5.33950617284	-0.4192	-1.52857142857	-4.4
2236	1.118	5.33950617284	-4.648	-2.97142857143	-1.5
2237	1.1185	3.92962962963	0.9904	-1.52857142857	-2.95
2238	1.119	1.10987654321	10.8576	1.35714285714	-1.5
2239	1.1195	2.51975308642	-10.2864	-0.0857142857143	-1.5
2240	1.12	3.92962962963	-4.648	-0.0857142857143	-0.05
2241	1.1205	5.33950617284	-6.0576	-0.0857142857143	-4.4
2242	1.121	-3.11975308642	-4.648	-0.0857142857143	1.4
2243	1.1215	2.51975308642	-6.0576	-10.1857142857	-1.5
2244	1.122	-0.3	-7.4672	-0.0857142857143	2.85
2245	1.1225	-0.3	-1.8288	-10.1857142857	-0.05
2246	1.123	2.51975308642	13.6768	1.35714285714	-0.05
2247	1.1235	2.51975308642	-11.696	1.35714285714	-2.95
2248	1.124	3.92962962963	-6.0576	-0.0857142857143	-1.5
2249	1.1245	-1.70987654321	-6.0576	-0.0857142857143	-0.05
2250	1.125	-3.11975308642	-4.648	-1.52857142857	-8.75
2251	1.1255	-3.11975308642	-4.648	18.6714285714	-1.5
2252	1.126	-0.3	-4.648	-10.1857142857	-7.3
2253	1.1265	-1.70987654321	8.0384	-0.0857142857143	-0.05
2254	1.127	-1.70987654321	-10.2864	-0.0857142857143	2.85
2255	1.1275	-0.3	-6.0576	-0.0857142857143	-1.5
2256	1.128	-4.52962962963	-6.0576	1.35714285714	-10.2
2257	1.1285	-4.52962962963	-8.8768	-1.52857142857	-4.4
2258	1.129	-3.11975308642	-6.0576	-11.6285714286	-2.95
2259	1.1295	-1.70987654321	-4.648	18.6714285714	1.4
2260	1.13	-3.11975308642	-8.8768	-0.0857142857143	-0.05
2261	1.1305	-4.52962962963	5.2192	1.35714285714	1.4
2262	1.131	-3.11975308642	-6.0576	-1.52857142857	1.4
2263	1.1315	-10.1691358025	-11.696	-0.0857142857143	-0.05
2264	1.132	-10.1691358025	-3.2384	-0.0857142857143	7.2
2265	1.1325	-3.11975308642	-4.648	-7.3	-7.3
2266	1.133	-3.11975308642	-4.648	4.24285714286	2.85
2267	1.1335	-4.52962962963	-4.648	-1.52857142857	-1.5
2268	1.134	-4.52962962963	-13.1056	-0.0857142857143	-0.05
2269	1.1345	-4.52962962963	3.8096	1.35714285714	-0.05
2270	1.135	-12.9888888889	-4.648	-0.0857142857143	-0.05
2271	1.1355	13.7987654321	-6.0576	-0.0857142857143	-8.75
2272	1.136	-4.52962962963	-4.648	-0.0857142857143	10.1
2273	1.1365	-0.3	-4.648	-0.0857142857143	-0.05
2274	1.137	-3.11975308642	-6.0576	12.9	-1.5
2275	1.1375	-0.3	-1.8288	-1.52857142857	1.4
2276	1.138	-1.70987654321	8.0384	-1.52857142857	-0.05
2277	1.1385	-0.3	-3.2384	-0.0857142857143	1.4
2278	1.139	1.10987654321	-3.2384	1.35714285714	4.3
2279	1.1395	-1.70987654321	-0.4192	-1.52857142857	4.3
2280	1.14	-0.3	-1.8288	1.35714285714	2.85
2281	1.1405	-1.70987654321	-3.2384	-5.85714285714	-0.05
2282	1.141	-0.3	0.9904	-0.0857142857143	-0.05
2283	1.1415	-0.3	-0.4192	-1.52857142857	-1.5
2284	1.142	1.10987654321	-7.4672	-0.0857142857143	-1.5
2285	1.1425	-1.70987654321	-4.648	-0.0857142857143	-0.05
2286	1.143	-11.5790123457	-6.0576	-1.52857142857	-1.5
2287	1.1435	18.0283950617	-8.8768	-0.0857142857143	-11.65
2288	1.144	-1.70987654321	-4.648	-1.52857142857	15.9
2289	1.1445	1.10987654321	-3.2384	18.6714285714	1.4
2290	1.145	-0.3	-7.4672	-7.3	-0.05
2291	1.1455	1.10987654321	-0.4192	-1.52857142857	-0.05
2292	1.146	-0.3	15.0864	1.35714285714	-0.05
2293	1.1465	-1.70987654321	-10.2864	-1.52857142857	-0.05
2294	1.147	2.51975308642	-1.8288	-0.0857142857143	-5.85
2295	1.1475	-8.75925925926	-4.648	1.35714285714	-0.05
2296	1.148	-0.3	-3.2384	-1.52857142857	-8.75
2297	1.1485	-0.3	-4.648	-1.52857142857	2.85
2298	1.149	-1.70987654321	-4.648	-7.3	-1.5
2299	1.1495	3.92962962963	-6.0576	1.35714285714	-0.05
2300	1.15	1.10987654321	3.8096	2.8	-1.5
2301	1.1505	1.10987654321	-11.696	-2.97142857143	-0.05
2302	1.151	15.2086419753	-6.0576	-0.0857142857143	2.85
2303	1.1515	-7.34938271605	-7.4672	1.35714285714	-7.3
2304	1.152	1.10987654321	-6.0576	1.35714285714	-10.2
2305	1.1525	1.10987654321	-6.0576	12.9	-1.5
2306	1.153	1.10987654321	-10.2864	-1.52857142857	-0.05
2307	1.1535	1.10987654321	-10.2864	2.8	-1.5
2308	1.154	3.92962962963	-4.648	1.35714285714	1.4
2309	1.1545	3.92962962963	-11.696	1.35714285714	-0.05
2310	1.155	-3.11975308642	-7.4672	1.35714285714	-1.5
2311	1.1555	2.51975308642	-7.4672	-1.52857142857	15.9
2312	1.156	-0.3	-6.0576	4.24285714286	-0.05
2313	1.1565	-0.3	-3.2384	14.3428571429	-2.95
2314	1.157	-1.70987654321	-3.2384	-4.41428571429	-1.5
2315	1.1575	-0.3	6.6288	2.8	-0.05
2316	1.158	-4.52962962963	0.9904	-1.52857142857	-1.5
2317	1.1585	18.0283950617	0.9904	1.35714285714	1.4
2318	1.159	-10.1691358025	2.4	1.35714285714	17.35
2319	1.1595	-3.11975308642	0.9904	1.35714285714	-10.2
2320	1.16	-4.52962962963	0.9904	-2.97142857143	-1.5
2321	1.1605	-4.52962962963	3.8096	7.12857142857	-0.05
2322	1.161	-5.93950617284	15.0864	-0.0857142857143	-1.5
2323	1.1615	-4.52962962963	-4.648	-0.0857142857143	-0.05
2324	1.162	-20.0382716049	0.9904	2.8	-1.5
2325	1.1625	13.7987654321	2.4	-0.0857142857143	2.85
2326	1.163	-17.2185185185	0.9904	1.35714285714	18.8
2327	1.1635	-5.93950617284	-1.8288	-0.0857142857143	-7.3
2328	1.164	-8.75925925926	-0.4192	-4.41428571429	-0.05
2329	1.1645	-7.34938271605	-0.4192	-0.0857142857143	1.4
2330	1.165	-5.93950617284	8.0384	-1.52857142857	-0.05
2331	1.1655	-5.93950617284	2.4	-0.0857142857143	-1.5
2332	1.166	-0.3	6.6288	-0.0857142857143	-5.85
2333	1.1665	16.6185185185	6.6288	-0.0857142857143	1.4
2334	1.167	-1.70987654321	5.2192	4.24285714286	-10.2
2335	1.1675	-4.52962962963	3.8096	-5.85714285714	-0.05
2336	1.168	-5.93950617284	8.0384	18.6714285714	-0.05
2337	1.1685	-7.34938271605	6.6288	2.8	-0.05
2338	1.169	-4.52962962963	6.6288	-4.41428571429	-0.05
2339	1.1695	-7.34938271605	-1.8288	2.8	-1.5
2340	1.17	-5.93950617284	5.2192	-1.52857142857	-1.5
2341	1.1705	-11.5790123457	5.2192	1.35714285714	-0.05
2342	1.171	-4.52962962963	3.8096	1.35714285714	-2.95
2343	1.1715	-3.11975308642	5.2192	1.35714285714	-2.95
2344	1.172	-1.70987654321	5.2192	17.2285714286	-2.95
2345	1.1725	-1.70987654321	-0.4192	-4.41428571429	-2.95
2346	1.173	-4.52962962963	22.1344	-0.0857142857143	-1.5
2347	1.1735	-0.3	-6.0576	-0.0857142857143	-0.05
2348	1.174	-10.1691358025	6.6288	1.35714285714	1.4
2349	1.1745	-10.1691358025	5.2192	1.35714285714	-11.65
2350	1.175	-1.70987654321	6.6288	-2.97142857143	15.9
2351	1.1755	1.10987654321	6.6288	4.24285714286	-1.5
2352	1.176	1.10987654321	3.8096	18.6714285714	1.4
2353	1.1765	-1.70987654321	0.9904	1.35714285714	-0.05
2354	1.177	-0.3	9.448	-0.0857142857143	-0.05
2355	1.1775	-0.3	-7.4672	1.35714285714	-1.5
2356	1.178	-3.11975308642	-0.4192	-0.0857142857143	-1.5
2357	1.1785	5.33950617284	-0.4192	2.8	-2.95
2358	1.179	-3.11975308642	-4.648	2.8	10.1
2359	1.1795	-1.70987654321	-3.2384	1.35714285714	-7.3
2360	1.18	-1.70987654321	-6.0576	-1.52857142857	-1.5
2361	1.1805	-4.52962962963	-6.0576	18.6714285714	-2.95
2362	1.181	-4.52962962963	-8.8768	-1.52857142857	-2.95
2363	1.1815	-3.11975308642	-0.4192	-0.0857142857143	-1.5
2364	1.182	-0.3	-1.8288	-0.0857142857143	-2.95
2365	1.1825	15.2086419753	0.9904	-0.0857142857143	1.4
2366	1.183	-10.1691358025	0.9904	1.35714285714	17.35
2367	1.1835	-4.52962962963	-0.4192	-0.0857142857143	-7.3
2368	1.184	-4.52962962963	0.9904	-8.74285714286	-0.05
2369	1.1845	-5.93950617284	-0.4192	-1.52857142857	-0.05
2370	1.185	-5.93950617284	-0.4192	-7.3	-0.05
2371	1.1855	-3.11975308642	0.9904	-0.0857142857143	1.4
2372	1.186	-10.1691358025	0.9904	-0.0857142857143	-0.05
