Time,1,2
0.000000,10.786667,9.271280
0.000500,12.191515,-4.770633
0.001000,12.191515,-1.962250
0.001500,12.191515,-0.558059
0.002000,13.596364,9.271280
0.002500,3.762424,-0.558059
0.003000,5.167273,0.846132
0.003500,24.835152,0.846132
0.004000,15.001212,0.846132
0.004500,10.786667,-0.558059
0.005000,3.762424,0.846132
0.005500,13.596364,-8.983207
0.006000,15.001212,-4.770633
0.006500,13.596364,0.846132
0.007000,13.596364,-4.770633
0.007500,17.810909,-0.558059
0.008000,19.215758,-0.558059
0.008500,30.454545,2.250323
0.009000,10.786667,-1.962250
0.009500,12.191515,-1.962250
0.010000,12.191515,-0.558059
0.010500,10.786667,-0.558059
0.011000,9.381818,-0.558059
0.011500,10.786667,-0.558059
0.012000,9.381818,0.846132
0.012500,12.191515,0.846132
0.013000,10.786667,-3.366442
0.013500,12.191515,2.250323
0.014000,12.191515,-7.579015
0.014500,9.381818,-0.558059
0.015000,12.191515,-1.962250
0.015500,13.596364,0.846132
0.016000,15.001212,0.846132
0.016500,3.762424,0.846132
0.017000,10.786667,2.250323
0.017500,15.001212,-1.962250
0.018000,15.001212,-1.962250
0.018500,13.596364,-0.558059
0.019000,12.191515,-1.962250
0.019500,15.001212,-3.366442
0.020000,16.406061,-0.558059
0.020500,15.001212,-0.558059
0.021000,15.001212,-1.962250
0.021500,13.596364,-10.387398
0.022000,16.406061,-0.558059
0.022500,16.406061,10.675471
0.023000,20.620606,-3.366442
0.023500,7.976970,-3.366442
0.024000,12.191515,-1.962250
0.024500,3.762424,0.846132
0.025000,29.049697,-0.558059
0.025500,16.406061,-3.366442
0.026000,17.810909,-6.174824
0.026500,16.406061,-0.558059
0.027000,17.810909,-1.962250
0.027500,16.406061,-1.962250
0.028000,15.001212,-1.962250
0.028500,16.406061,-0.558059
0.029000,16.406061,-6.174824
0.029500,17.810909,-6.174824
0.030000,15.001212,10.675471
0.030500,15.001212,-3.366442
0.031000,12.191515,3.654515
0.031500,9.381818,-0.558059
0.032000,0.952727,0.846132
0.032500,22.025455,3.654515
0.033000,9.381818,0.846132
0.033500,0.952727,2.250323
0.034000,7.976970,2.250323
0.034500,9.381818,2.250323
0.035000,9.381818,0.846132
0.035500,10.786667,2.250323
0.036000,9.381818,3.654515
0.036500,7.976970,3.654515
0.037000,9.381818,3.654515
0.037500,7.976970,-6.174824
0.038000,5.167273,0.846132
0.038500,3.762424,3.654515
0.039000,5.167273,-1.962250
0.039500,5.167273,2.250323
0.040000,9.381818,2.250323
0.040500,-0.452121,-0.558059
0.041000,5.167273,-0.558059
0.041500,6.572121,-0.558059
0.042000,7.976970,0.846132
0.042500,9.381818,0.846132
0.043000,9.381818,0.846132
0.043500,10.786667,-0.558059
0.044000,9.381818,-0.558059
0.044500,7.976970,-3.366442
0.045000,10.786667,2.250323
0.045500,10.786667,9.271280
0.046000,10.786667,3.654515
0.046500,10.786667,-4.770633
0.047000,9.381818,13.483854
0.047500,24.835152,-0.558059
0.048000,23.430303,-0.558059
0.048500,17.810909,-0.558059
0.049000,0.952727,0.846132
0.049500,12.191515,2.250323
0.050000,13.596364,2.250323
0.050500,10.786667,5.058706
0.051000,10.786667,9.271280
0.051500,12.191515,5.058706
0.052000,12.191515,5.058706
0.052500,10.786667,5.058706
0.053000,12.191515,17.696428
0.053500,12.191515,16.292236
0.054000,9.381818,5.058706
0.054500,10.786667,-1.962250
0.055000,9.381818,6.462897
0.055500,19.215758,5.058706
0.056000,15.001212,6.462897
0.056500,24.835152,0.846132
0.057000,3.762424,3.654515
0.057500,13.596364,3.654515
0.058000,12.191515,0.846132
0.058500,15.001212,-1.962250
0.059000,15.001212,0.846132
0.059500,13.596364,-0.558059
0.060000,12.191515,2.250323
0.060500,13.596364,2.250323
0.061000,12.191515,5.058706
0.061500,10.786667,-3.366442
0.062000,10.786667,5.058706
0.062500,15.001212,0.846132
0.063000,12.191515,0.846132
0.063500,5.167273,5.058706
0.064000,12.191515,2.250323
0.064500,13.596364,3.654515
0.065000,16.406061,0.846132
0.065500,13.596364,3.654515
0.066000,16.406061,3.654515
0.066500,16.406061,6.462897
0.067000,10.786667,7.867089
0.067500,12.191515,6.462897
0.068000,12.191515,-0.558059
0.068500,13.596364,2.250323
0.069000,15.001212,19.100619
0.069500,16.406061,2.250323
0.070000,19.215758,9.271280
0.070500,16.406061,-4.770633
0.071000,3.762424,2.250323
0.071500,26.240000,3.654515
0.072000,15.001212,5.058706
0.072500,13.596364,5.058706
0.073000,15.001212,3.654515
0.073500,13.596364,0.846132
0.074000,13.596364,3.654515
0.074500,15.001212,3.654515
0.075000,9.381818,0.846132
0.075500,9.381818,5.058706
0.076000,13.596364,6.462897
0.076500,12.191515,10.675471
0.077000,7.976970,-6.174824
0.077500,10.786667,2.250323
0.078000,12.191515,2.250323
0.078500,24.835152,5.058706
0.079000,7.976970,2.250323
0.079500,16.406061,3.654515
0.080000,13.596364,5.058706
0.080500,16.406061,5.058706
0.081000,17.810909,6.462897
0.081500,19.215758,7.867089
0.082000,17.810909,5.058706
0.082500,19.215758,3.654515
0.083000,16.406061,2.250323
0.083500,19.215758,-1.962250
0.084000,17.810909,13.483854
0.084500,16.406061,14.888045
0.085000,16.406061,2.250323
0.085500,9.381818,6.462897
0.086000,24.835152,6.462897
0.086500,16.406061,3.654515
0.087000,36.073939,2.250323
0.087500,17.810909,2.250323
0.088000,20.620606,2.250323
0.088500,20.620606,6.462897
0.089000,22.025455,5.058706
0.089500,22.025455,7.867089
0.090000,19.215758,5.058706
0.090500,23.430303,3.654515
0.091000,20.620606,-3.366442
0.091500,29.049697,13.483854
0.092000,22.025455,6.462897
0.092500,24.835152,-6.174824
0.093000,23.430303,-6.174824
0.093500,16.406061,0.846132
0.094000,34.669091,2.250323
0.094500,29.049697,5.058706
0.095000,20.620606,2.250323
0.095500,19.215758,0.846132
0.096000,23.430303,2.250323
0.096500,23.430303,0.846132
0.097000,24.835152,0.846132
0.097500,24.835152,-0.558059
0.098000,26.240000,0.846132
0.098500,26.240000,-0.558059
0.099000,23.430303,3.654515
0.099500,27.644848,-4.770633
0.100000,23.430303,6.462897
0.100500,23.430303,-3.366442
0.101000,27.644848,0.846132
0.101500,38.883636,2.250323
0.102000,30.454545,3.654515
0.102500,40.288485,2.250323
0.103000,27.644848,0.846132
0.103500,29.049697,-0.558059
0.104000,29.049697,2.250323
0.104500,26.240000,3.654515
0.105000,26.240000,0.846132
0.105500,24.835152,2.250323
0.106000,26.240000,5.058706
0.106500,27.644848,5.058706
0.107000,27.644848,-3.366442
0.107500,29.049697,10.675471
0.108000,29.049697,-1.962250
0.108500,30.454545,2.250323
0.109000,20.620606,0.846132
0.109500,16.406061,2.250323
0.110000,24.835152,3.654515
0.110500,19.215758,-0.558059
0.111000,26.240000,2.250323
0.111500,27.644848,-0.558059
0.112000,26.240000,0.846132
0.112500,24.835152,2.250323
0.113000,24.835152,0.846132
0.113500,26.240000,0.846132
0.114000,24.835152,3.654515
0.114500,22.025455,-0.558059
0.115000,22.025455,-6.174824
0.115500,20.620606,0.846132
0.116000,24.835152,3.654515
0.116500,20.620606,6.462897
0.117000,23.430303,5.058706
0.117500,13.596364,6.462897
0.118000,19.215758,5.058706
0.118500,10.786667,7.867089
0.119000,26.240000,9.271280
0.119500,19.215758,5.058706
0.120000,19.215758,6.462897
0.120500,22.025455,6.462897
0.121000,19.215758,6.462897
0.121500,17.810909,7.867089
0.122000,19.215758,9.271280
0.122500,20.620606,-1.962250
0.123000,19.215758,0.846132
0.123500,22.025455,0.846132
0.124000,22.025455,3.654515
0.124500,12.191515,3.654515
0.125000,15.001212,2.250323
0.125500,20.620606,3.654515
0.126000,22.025455,2.250323
0.126500,23.430303,0.846132
0.127000,23.430303,3.654515
0.127500,20.620606,0.846132
0.128000,20.620606,2.250323
0.128500,22.025455,-0.558059
0.129000,20.620606,0.846132
0.129500,23.430303,0.846132
0.130000,23.430303,-6.174824
0.130500,17.810909,-4.770633
0.131000,26.240000,-0.558059
0.131500,19.215758,0.846132
0.132000,20.620606,-6.174824
0.132500,10.786667,2.250323
0.133000,15.001212,5.058706
0.133500,16.406061,5.058706
0.134000,16.406061,5.058706
0.134500,19.215758,5.058706
0.135000,16.406061,5.058706
0.135500,16.406061,3.654515
0.136000,19.215758,5.058706
0.136500,16.406061,3.654515
0.137000,16.406061,5.058706
0.137500,16.406061,6.462897
0.138000,15.001212,-3.366442
0.138500,16.406061,14.888045
0.139000,15.001212,0.846132
0.139500,13.596364,6.462897
0.140000,17.810909,3.654515
0.140500,10.786667,3.654515
0.141000,12.191515,5.058706
0.141500,19.215758,3.654515
0.142000,17.810909,2.250323
0.142500,17.810909,2.250323
0.143000,15.001212,3.654515
0.143500,16.406061,6.462897
0.144000,15.001212,3.654515
0.144500,16.406061,3.654515
0.145000,16.406061,-0.558059
0.145500,15.001212,-0.558059
0.146000,12.191515,-4.770633
0.146500,12.191515,3.654515
0.147000,16.406061,6.462897
0.147500,9.381818,5.058706
0.148000,16.406061,5.058706
0.148500,5.167273,6.462897
0.149000,13.596364,3.654515
0.149500,12.191515,3.654515
0.150000,12.191515,9.271280
0.150500,10.786667,6.462897
0.151000,10.786667,6.462897
0.151500,10.786667,6.462897
0.152000,15.001212,5.058706
0.152500,12.191515,9.271280
0.153000,16.406061,-0.558059
0.153500,17.810909,2.250323
0.154000,16.406061,17.696428
0.154500,17.810909,16.292236
0.155000,17.810909,13.483854
0.155500,15.001212,5.058706
0.156000,3.762424,5.058706
0.156500,22.025455,6.462897
0.157000,9.381818,6.462897
0.157500,16.406061,3.654515
0.158000,16.406061,6.462897
0.158500,19.215758,3.654515
0.159000,17.810909,3.654515
0.159500,19.215758,-0.558059
0.160000,16.406061,2.250323
0.160500,16.406061,2.250323
0.161000,17.810909,5.058706
0.161500,16.406061,-3.366442
0.162000,15.001212,3.654515
0.162500,16.406061,-3.366442
0.163000,22.025455,2.250323
0.163500,13.596364,3.654515
0.164000,20.620606,5.058706
0.164500,5.167273,5.058706
0.165000,17.810909,5.058706
0.165500,13.596364,2.250323
0.166000,16.406061,2.250323
0.166500,15.001212,6.462897
0.167000,16.406061,7.867089
0.167500,16.406061,5.058706
0.168000,15.001212,2.250323
0.168500,16.406061,6.462897
0.169000,15.001212,3.654515
0.169500,16.406061,-4.770633
0.170000,16.406061,16.292236
0.170500,17.810909,0.846132
0.171000,13.596364,5.058706
0.171500,3.762424,6.462897
0.172000,24.835152,3.654515
0.172500,17.810909,5.058706
0.173000,12.191515,5.058706
0.173500,12.191515,6.462897
0.174000,10.786667,3.654515
0.174500,12.191515,2.250323
0.175000,10.786667,2.250323
0.175500,9.381818,5.058706
0.176000,10.786667,2.250323
0.176500,9.381818,6.462897
0.177000,10.786667,-1.962250
0.177500,10.786667,7.867089
0.178000,5.167273,2.250323
0.178500,3.762424,21.909001
0.179000,23.430303,3.654515
0.179500,17.810909,3.654515
0.180000,22.025455,3.654515
0.180500,5.167273,5.058706
0.181000,13.596364,3.654515
0.181500,16.406061,3.654515
0.182000,15.001212,3.654515
0.182500,15.001212,2.250323
0.183000,12.191515,3.654515
0.183500,13.596364,5.058706
0.184000,15.001212,3.654515
0.184500,15.001212,17.696428
0.185000,16.406061,6.462897
0.185500,16.406061,20.504810
0.186000,17.810909,3.654515
0.186500,15.001212,0.846132
0.187000,7.976970,6.462897
0.187500,29.049697,5.058706
0.188000,17.810909,7.867089
0.188500,15.001212,6.462897
0.189000,15.001212,6.462897
0.189500,16.406061,6.462897
0.190000,15.001212,6.462897
0.190500,16.406061,6.462897
0.191000,16.406061,2.250323
0.191500,19.215758,-3.366442
0.192000,19.215758,-4.770633
0.192500,19.215758,-1.962250
0.193000,24.835152,3.654515
0.193500,23.430303,2.250323
0.194000,26.240000,0.846132
0.194500,31.859394,-0.558059
0.195000,33.264242,3.654515
0.195500,17.810909,2.250323
0.196000,17.810909,0.846132
0.196500,23.430303,0.846132
0.197000,22.025455,0.846132
0.197500,20.620606,2.250323
0.198000,19.215758,3.654515
0.198500,19.215758,6.462897
0.199000,17.810909,0.846132
0.199500,17.810909,-0.558059
0.200000,22.025455,-6.174824
0.200500,20.620606,7.867089
0.201000,19.215758,9.271280
0.201500,24.835152,0.846132
0.202000,12.191515,-0.558059
0.202500,17.810909,-0.558059
0.203000,10.786667,0.846132
0.203500,19.215758,0.846132
0.204000,17.810909,-0.558059
0.204500,19.215758,-0.558059
0.205000,19.215758,-0.558059
0.205500,19.215758,0.846132
0.206000,17.810909,0.846132
0.206500,20.620606,-0.558059
0.207000,20.620606,5.058706
0.207500,22.025455,6.462897
0.208000,19.215758,-4.770633
0.208500,22.025455,13.483854
0.209000,19.215758,-3.366442
0.209500,20.620606,-0.558059
0.210000,19.215758,3.654515
0.210500,19.215758,0.846132
0.211000,17.810909,0.846132
0.211500,10.786667,5.058706
0.212000,17.810909,2.250323
0.212500,17.810909,2.250323
0.213000,22.025455,5.058706
0.213500,19.215758,3.654515
0.214000,17.810909,5.058706
0.214500,19.215758,6.462897
0.215000,19.215758,5.058706
0.215500,17.810909,6.462897
0.216000,17.810909,-0.558059
0.216500,19.215758,17.696428
0.217000,16.406061,14.888045
0.217500,17.810909,-0.558059
0.218000,5.167273,6.462897
0.218500,17.810909,6.462897
0.219000,31.859394,9.271280
0.219500,12.191515,3.654515
0.220000,22.025455,6.462897
0.220500,19.215758,6.462897
0.221000,19.215758,7.867089
0.221500,19.215758,7.867089
0.222000,17.810909,6.462897
0.222500,17.810909,6.462897
0.223000,15.001212,5.058706
0.223500,20.620606,-1.962250
0.224000,20.620606,5.058706
0.224500,20.620606,14.888045
0.225000,23.430303,19.100619
0.225500,23.430303,6.462897
0.226000,9.381818,5.058706
0.226500,17.810909,5.058706
0.227000,29.049697,6.462897
0.227500,13.596364,7.867089
0.228000,16.406061,6.462897
0.228500,16.406061,7.867089
0.229000,16.406061,9.271280
0.229500,16.406061,6.462897
0.230000,16.406061,9.271280
0.230500,17.810909,6.462897
0.231000,17.810909,10.675471
0.231500,17.810909,13.483854
0.232000,17.810909,20.504810
0.232500,16.406061,20.504810
0.233000,12.191515,2.250323
0.233500,16.406061,9.271280
0.234000,10.786667,9.271280
0.234500,30.454545,13.483854
0.235000,17.810909,12.079662
0.235500,16.406061,13.483854
0.236000,17.810909,9.271280
0.236500,17.810909,6.462897
0.237000,17.810909,9.271280
0.237500,17.810909,13.483854
0.238000,19.215758,14.888045
0.238500,19.215758,14.888045
0.239000,17.810909,13.483854
0.239500,17.810909,13.483854
0.240000,17.810909,23.313193
0.240500,17.810909,17.696428
0.241000,20.620606,6.462897
0.241500,17.810909,10.675471
0.242000,31.859394,13.483854
0.242500,29.049697,10.675471
0.243000,13.596364,10.675471
0.243500,19.215758,9.271280
0.244000,22.025455,16.292236
0.244500,22.025455,12.079662
0.245000,20.620606,10.675471
0.245500,22.025455,13.483854
0.246000,20.620606,9.271280
0.246500,22.025455,13.483854
0.247000,20.620606,7.867089
0.247500,22.025455,7.867089
0.248000,22.025455,0.846132
0.248500,27.644848,12.079662
0.249000,19.215758,13.483854
0.249500,22.025455,13.483854
0.250000,29.049697,13.483854
0.250500,20.620606,13.483854
0.251000,10.786667,13.483854
0.251500,16.406061,13.483854
0.252000,19.215758,10.675471
0.252500,16.406061,10.675471
0.253000,16.406061,13.483854
0.253500,17.810909,9.271280
0.254000,16.406061,16.292236
0.254500,15.001212,5.058706
0.255000,12.191515,17.696428
0.255500,15.001212,24.717384
0.256000,17.810909,14.888045
0.256500,3.762424,12.079662
0.257000,13.596364,14.888045
0.257500,5.167273,13.483854
0.258000,29.049697,7.867089
0.258500,13.596364,7.867089
0.259000,15.001212,7.867089
0.259500,15.001212,9.271280
0.260000,15.001212,6.462897
0.260500,13.596364,7.867089
0.261000,15.001212,9.271280
0.261500,10.786667,12.079662
0.262000,9.381818,6.462897
0.262500,10.786667,-0.558059
0.263000,15.001212,14.888045
0.263500,12.191515,3.654515
0.264000,12.191515,7.867089
0.264500,13.596364,2.250323
0.265000,-3.261818,10.675471
0.265500,2.357576,10.675471
0.266000,3.762424,9.271280
0.266500,7.976970,10.675471
0.267000,3.762424,10.675471
0.267500,3.762424,9.271280
0.268000,7.976970,9.271280
0.268500,7.976970,7.867089
0.269000,10.786667,13.483854
0.269500,5.167273,10.675471
0.270000,7.976970,5.058706
0.270500,5.167273,19.100619
0.271000,0.952727,3.654515
0.271500,2.357576,16.292236
0.272000,2.357576,5.058706
0.272500,7.976970,13.483854
0.273000,13.596364,7.867089
0.273500,12.191515,7.867089
0.274000,-0.452121,6.462897
0.274500,3.762424,9.271280
0.275000,9.381818,6.462897
0.275500,9.381818,6.462897
0.276000,7.976970,7.867089
0.276500,9.381818,7.867089
0.277000,7.976970,10.675471
0.277500,7.976970,9.271280
0.278000,6.572121,3.654515
0.278500,9.381818,5.058706
0.279000,7.976970,0.846132
0.279500,10.786667,17.696428
0.280000,10.786667,19.100619
0.280500,13.596364,13.483854
0.281000,-0.452121,13.483854
0.281500,-0.452121,7.867089
0.282000,0.952727,9.271280
0.282500,9.381818,9.271280
0.283000,3.762424,10.675471
0.283500,7.976970,10.675471
0.284000,10.786667,10.675471
0.284500,10.786667,14.888045
0.285000,13.596364,10.675471
0.285500,15.001212,7.867089
0.286000,15.001212,9.271280
0.286500,16.406061,9.271280
0.287000,13.596364,0.846132
0.287500,15.001212,10.675471
0.288000,15.001212,3.654515
0.288500,15.001212,10.675471
0.289000,17.810909,6.462897
0.289500,12.191515,6.462897
0.290000,7.976970,6.462897
0.290500,3.762424,10.675471
0.291000,13.596364,7.867089
0.291500,9.381818,6.462897
0.292000,15.001212,7.867089
0.292500,13.596364,7.867089
0.293000,12.191515,7.867089
0.293500,10.786667,10.675471
0.294000,10.786667,6.462897
0.294500,15.001212,10.675471
0.295000,12.191515,7.867089
0.295500,12.191515,7.867089
0.296000,13.596364,23.313193
0.296500,7.976970,6.462897
0.297000,7.976970,2.250323
0.297500,9.381818,21.909001
0.298000,2.357576,6.462897
0.298500,3.762424,6.462897
0.299000,22.025455,7.867089
0.299500,12.191515,6.462897
0.300000,7.976970,9.271280
0.300500,10.786667,13.483854
0.301000,5.167273,10.675471
0.301500,7.976970,9.271280
0.302000,7.976970,12.079662
0.302500,5.167273,10.675471
0.303000,5.167273,13.483854
0.303500,9.381818,13.483854
0.304000,5.167273,2.250323
0.304500,2.357576,10.675471
0.305000,6.572121,3.654515
0.305500,9.381818,7.867089
0.306000,2.357576,7.867089
0.306500,19.215758,5.058706
0.307000,-0.452121,3.654515
0.307500,0.952727,6.462897
0.308000,5.167273,6.462897
0.308500,9.381818,7.867089
0.309000,9.381818,6.462897
0.309500,3.762424,6.462897
0.310000,7.976970,7.867089
0.310500,5.167273,6.462897
0.311000,5.167273,9.271280
0.311500,3.762424,-0.558059
0.312000,5.167273,-4.770633
0.312500,5.167273,-1.962250
0.313000,10.786667,0.846132
0.313500,5.167273,2.250323
0.314000,9.381818,3.654515
0.314500,3.762424,3.654515
0.315000,0.952727,3.654515
0.315500,5.167273,5.058706
0.316000,7.976970,5.058706
0.316500,5.167273,5.058706
0.317000,7.976970,6.462897
0.317500,7.976970,5.058706
0.318000,7.976970,7.867089
0.318500,7.976970,3.654515
0.319000,5.167273,7.867089
0.319500,9.381818,5.058706
0.320000,9.381818,21.909001
0.320500,10.786667,3.654515
0.321000,9.381818,6.462897
0.321500,-0.452121,7.867089
0.322000,24.835152,6.462897
0.322500,13.596364,7.867089
0.323000,2.357576,6.462897
0.323500,5.167273,5.058706
0.324000,13.596364,6.462897
0.324500,12.191515,7.867089
0.325000,13.596364,3.654515
0.325500,15.001212,2.250323
0.326000,12.191515,5.058706
0.326500,13.596364,5.058706
0.327000,12.191515,9.271280
0.327500,15.001212,0.846132
0.328000,15.001212,-0.558059
0.328500,12.191515,16.292236
0.329000,15.001212,3.654515
0.329500,16.406061,9.271280
0.330000,3.762424,6.462897
0.330500,16.406061,7.867089
0.331000,3.762424,6.462897
0.331500,16.406061,6.462897
0.332000,15.001212,9.271280
0.332500,16.406061,6.462897
0.333000,15.001212,6.462897
0.333500,15.001212,6.462897
0.334000,15.001212,10.675471
0.334500,12.191515,9.271280
0.335000,13.596364,3.654515
0.335500,15.001212,5.058706
0.336000,16.406061,-0.558059
0.336500,15.001212,20.504810
0.337000,15.001212,7.867089
0.337500,10.786667,2.250323
0.338000,3.762424,5.058706
0.338500,3.762424,5.058706
0.339000,7.976970,5.058706
0.339500,3.762424,3.654515
0.340000,13.596364,3.654515
0.340500,16.406061,6.462897
0.341000,15.001212,0.846132
0.341500,17.810909,5.058706
0.342000,16.406061,2.250323
0.342500,16.406061,-0.558059
0.343000,16.406061,5.058706
0.343500,16.406061,3.654515
0.344000,15.001212,-4.770633
0.344500,17.810909,13.483854
0.345000,17.810909,0.846132
0.345500,17.810909,3.654515
0.346000,2.357576,2.250323
0.346500,5.167273,3.654515
0.347000,15.001212,3.654515
0.347500,16.406061,3.654515
0.348000,16.406061,5.058706
0.348500,15.001212,5.058706
0.349000,16.406061,5.058706
0.349500,15.001212,10.675471
0.350000,12.191515,6.462897
0.350500,13.596364,14.888045
0.351000,13.596364,9.271280
0.351500,16.406061,12.079662
0.352000,10.786667,17.696428
0.352500,9.381818,14.888045
0.353000,10.786667,2.250323
0.353500,0.952727,7.867089
0.354000,12.191515,7.867089
0.354500,23.430303,6.462897
0.355000,10.786667,6.462897
0.355500,9.381818,9.271280
0.356000,12.191515,9.271280
0.356500,9.381818,7.867089
0.357000,12.191515,7.867089
0.357500,12.191515,9.271280
0.358000,10.786667,12.079662
0.358500,12.191515,7.867089
0.359000,12.191515,0.846132
0.359500,13.596364,9.271280
0.360000,13.596364,5.058706
0.360500,13.596364,13.483854
0.361000,19.215758,13.483854
0.361500,3.762424,9.271280
0.362000,12.191515,9.271280
0.362500,12.191515,10.675471
0.363000,15.001212,7.867089
0.363500,15.001212,9.271280
0.364000,17.810909,16.292236
0.364500,15.001212,9.271280
0.365000,15.001212,10.675471
0.365500,15.001212,13.483854
0.366000,15.001212,10.675471
0.366500,12.191515,10.675471
0.367000,12.191515,5.058706
0.367500,12.191515,19.100619
0.368000,13.596364,23.313193
0.368500,17.810909,10.675471
0.369000,10.786667,9.271280
0.369500,16.406061,7.867089
0.370000,2.357576,10.675471
0.370500,10.786667,6.462897
0.371000,16.406061,7.867089
0.371500,12.191515,9.271280
0.372000,10.786667,10.675471
0.372500,12.191515,7.867089
0.373000,12.191515,7.867089
0.373500,10.786667,7.867089
0.374000,13.596364,6.462897
0.374500,12.191515,9.271280
0.375000,13.596364,7.867089
0.375500,13.596364,20.504810
0.376000,10.786667,6.462897
0.376500,16.406061,3.654515
0.377000,13.596364,6.462897
0.377500,27.644848,7.867089
0.378000,20.620606,7.867089
0.378500,26.240000,7.867089
0.379000,12.191515,6.462897
0.379500,15.001212,5.058706
0.380000,12.191515,9.271280
0.380500,12.191515,6.462897
0.381000,12.191515,9.271280
0.381500,15.001212,13.483854
0.382000,12.191515,7.867089
0.382500,9.381818,14.888045
0.383000,5.167273,7.867089
0.383500,7.976970,23.313193
0.384000,0.952727,0.846132
0.384500,10.786667,13.483854
0.385000,5.167273,10.675471
0.385500,16.406061,10.675471
0.386000,19.215758,10.675471
0.386500,-0.452121,13.483854
0.387000,7.976970,10.675471
0.387500,7.976970,9.271280
0.388000,5.167273,9.271280
0.388500,5.167273,10.675471
0.389000,5.167273,13.483854
0.389500,5.167273,9.271280
0.390000,9.381818,9.271280
0.390500,9.381818,19.100619
0.391000,7.976970,3.654515
0.391500,10.786667,10.675471
0.392000,10.786667,0.846132
0.392500,-0.452121,6.462897
0.393000,15.001212,6.462897
0.393500,3.762424,7.867089
0.394000,9.381818,6.462897
0.394500,5.167273,9.271280
0.395000,7.976970,6.462897
0.395500,9.381818,7.867089
0.396000,5.167273,6.462897
0.396500,7.976970,9.271280
0.397000,7.976970,10.675471
0.397500,6.572121,16.292236
0.398000,7.976970,3.654515
0.398500,7.976970,2.250323
0.399000,10.786667,21.909001
0.399500,10.786667,17.696428
0.400000,9.381818,12.079662
0.400500,12.191515,9.271280
0.401000,0.952727,9.271280
0.401500,2.357576,9.271280
0.402000,10.786667,10.675471
0.402500,6.572121,6.462897
0.403000,10.786667,10.675471
0.403500,13.596364,7.867089
0.404000,12.191515,6.462897
0.404500,15.001212,6.462897
0.405000,12.191515,5.058706
0.405500,10.786667,9.271280
0.406000,10.786667,2.250323
0.406500,12.191515,9.271280
0.407000,13.596364,-4.770633
0.407500,13.596364,10.675471
0.408000,13.596364,-3.366442
0.408500,17.810909,2.250323
0.409000,15.001212,0.846132
0.409500,3.762424,3.654515
0.410000,15.001212,6.462897
0.410500,2.357576,3.654515
0.411000,10.786667,2.250323
0.411500,13.596364,2.250323
0.412000,12.191515,6.462897
0.412500,13.596364,3.654515
0.413000,15.001212,5.058706
0.413500,13.596364,0.846132
0.414000,15.001212,7.867089
0.414500,16.406061,5.058706
0.415000,16.406061,10.675471
0.415500,16.406061,3.654515
0.416000,12.191515,-0.558059
0.416500,16.406061,3.654515
0.417000,16.406061,7.867089
0.417500,3.762424,7.867089
0.418000,5.167273,6.462897
0.418500,12.191515,6.462897
0.419000,12.191515,3.654515
0.419500,16.406061,5.058706
0.420000,15.001212,7.867089
0.420500,16.406061,7.867089
0.421000,13.596364,6.462897
0.421500,12.191515,10.675471
0.422000,15.001212,12.079662
0.422500,13.596364,0.846132
0.423000,12.191515,6.462897
0.423500,15.001212,-4.770633
0.424000,12.191515,3.654515
0.424500,12.191515,3.654515
0.425000,19.215758,3.654515
0.425500,17.810909,2.250323
0.426000,12.191515,3.654515
0.426500,16.406061,3.654515
0.427000,16.406061,3.654515
0.427500,15.001212,3.654515
0.428000,13.596364,7.867089
0.428500,15.001212,7.867089
0.429000,15.001212,6.462897
0.429500,12.191515,7.867089
0.430000,13.596364,6.462897
0.430500,9.381818,9.271280
0.431000,9.381818,-0.558059
0.431500,13.596364,6.462897
0.432000,9.381818,3.654515
0.432500,10.786667,2.250323
0.433000,5.167273,9.271280
0.433500,23.430303,6.462897
0.434000,22.025455,7.867089
0.434500,7.976970,7.867089
0.435000,10.786667,10.675471
0.435500,12.191515,9.271280
0.436000,12.191515,9.271280
0.436500,12.191515,10.675471
0.437000,12.191515,7.867089
0.437500,12.191515,10.675471
0.438000,13.596364,13.483854
0.438500,10.786667,6.462897
0.439000,10.786667,21.909001
0.439500,12.191515,21.909001
0.440000,13.596364,5.058706
0.440500,5.167273,10.675471
0.441000,-1.856970,9.271280
0.441500,19.215758,9.271280
0.442000,23.430303,9.271280
0.442500,13.596364,7.867089
0.443000,12.191515,6.462897
0.443500,10.786667,10.675471
0.444000,10.786667,10.675471
0.444500,9.381818,9.271280
0.445000,13.596364,9.271280
0.445500,9.381818,10.675471
0.446000,12.191515,9.271280
0.446500,9.381818,6.462897
0.447000,10.786667,21.909001
0.447500,9.381818,13.483854
0.448000,9.381818,21.909001
0.448500,7.976970,0.846132
0.449000,9.381818,6.462897
0.449500,-0.452121,10.675471
0.450000,20.620606,13.483854
0.450500,15.001212,10.675471
0.451000,7.976970,7.867089
0.451500,9.381818,10.675471
0.452000,7.976970,9.271280
0.452500,9.381818,14.888045
0.453000,10.786667,10.675471
0.453500,7.976970,12.079662
0.454000,10.786667,10.675471
0.454500,9.381818,9.271280
0.455000,7.976970,14.888045
0.455500,10.786667,9.271280
0.456000,10.786667,26.121575
0.456500,5.167273,10.675471
0.457000,10.786667,2.250323
0.457500,16.406061,10.675471
0.458000,16.406061,9.271280
0.458500,22.025455,10.675471
0.459000,23.430303,6.462897
0.459500,7.976970,9.271280
0.460000,9.381818,7.867089
0.460500,7.976970,10.675471
0.461000,7.976970,13.483854
0.461500,7.976970,14.888045
0.462000,7.976970,13.483854
0.462500,5.167273,14.888045
0.463000,3.762424,13.483854
0.463500,3.762424,3.654515
0.464000,10.786667,6.462897
0.464500,2.357576,26.121575
0.465000,9.381818,17.696428
0.465500,10.786667,10.675471
0.466000,-3.261818,13.483854
0.466500,3.762424,16.292236
0.467000,19.215758,16.292236
0.467500,15.001212,16.292236
0.468000,9.381818,16.292236
0.468500,10.786667,16.292236
0.469000,9.381818,16.292236
0.469500,10.786667,17.696428
0.470000,7.976970,16.292236
0.470500,10.786667,17.696428
0.471000,9.381818,16.292236
0.471500,10.786667,17.696428
0.472000,13.596364,19.100619
0.472500,13.596364,26.121575
0.473000,12.191515,16.292236
0.473500,15.001212,5.058706
0.474000,15.001212,10.675471
0.474500,19.215758,9.271280
0.475000,33.264242,9.271280
0.475500,12.191515,9.271280
0.476000,15.001212,9.271280
0.476500,12.191515,10.675471
0.477000,13.596364,9.271280
0.477500,12.191515,10.675471
0.478000,10.786667,13.483854
0.478500,10.786667,13.483854
0.479000,12.191515,10.675471
0.479500,12.191515,14.888045
0.480000,12.191515,2.250323
0.480500,13.596364,21.909001
0.481000,13.596364,19.100619
0.481500,9.381818,13.483854
0.482000,-0.452121,13.483854
0.482500,-1.856970,10.675471
0.483000,9.381818,13.483854
0.483500,5.167273,12.079662
0.484000,12.191515,10.675471
0.484500,10.786667,10.675471
0.485000,10.786667,13.483854
0.485500,12.191515,9.271280
0.486000,15.001212,9.271280
0.486500,12.191515,7.867089
0.487000,12.191515,9.271280
0.487500,13.596364,7.867089
0.488000,10.786667,12.079662
0.488500,10.786667,5.058706
0.489000,13.596364,24.717384
0.489500,13.596364,17.696428
0.490000,5.167273,10.675471
0.490500,0.952727,10.675471
0.491000,0.952727,13.483854
0.491500,5.167273,13.483854
0.492000,9.381818,16.292236
0.492500,10.786667,10.675471
0.493000,9.381818,13.483854
0.493500,10.786667,16.292236
0.494000,7.976970,16.292236
0.494500,7.976970,13.483854
0.495000,6.572121,16.292236
0.495500,9.381818,13.483854
0.496000,9.381818,26.121575
0.496500,10.786667,26.121575
0.497000,9.381818,10.675471
0.497500,10.786667,9.271280
0.498000,3.762424,12.079662
0.498500,24.835152,10.675471
0.499000,24.835152,13.483854
0.499500,5.167273,14.888045
0.500000,12.191515,17.696428
0.500500,9.381818,13.483854
0.501000,10.786667,17.696428
0.501500,12.191515,16.292236
0.502000,12.191515,16.292236
0.502500,10.786667,20.504810
0.503000,15.001212,10.675471
0.503500,12.191515,9.271280
0.504000,12.191515,24.717384
0.504500,12.191515,20.504810
0.505000,12.191515,13.483854
0.505500,-0.452121,14.888045
0.506000,9.381818,14.888045
0.506500,5.167273,12.079662
0.507000,12.191515,10.675471
0.507500,17.810909,10.675471
0.508000,15.001212,10.675471
0.508500,15.001212,10.675471
0.509000,15.001212,9.271280
0.509500,15.001212,10.675471
0.510000,16.406061,13.483854
0.510500,15.001212,7.867089
0.511000,13.596364,13.483854
0.511500,15.001212,14.888045
0.512000,15.001212,17.696428
0.512500,16.406061,3.654515
0.513000,15.001212,9.271280
0.513500,12.191515,13.483854
0.514000,19.215758,10.675471
0.514500,13.596364,13.483854
0.515000,7.976970,16.292236
0.515500,13.596364,16.292236
0.516000,16.406061,13.483854
0.516500,13.596364,13.483854
0.517000,13.596364,14.888045
0.517500,13.596364,14.888045
0.518000,15.001212,16.292236
0.518500,13.596364,13.483854
0.519000,15.001212,10.675471
0.519500,15.001212,7.867089
0.520000,16.406061,17.696428
0.520500,17.810909,5.058706
0.521000,16.406061,3.654515
0.521500,13.596364,10.675471
0.522000,9.381818,12.079662
0.522500,2.357576,12.079662
0.523000,15.001212,10.675471
0.523500,15.001212,10.675471
0.524000,13.596364,10.675471
0.524500,13.596364,10.675471
0.525000,15.001212,13.483854
0.525500,16.406061,9.271280
0.526000,16.406061,13.483854
0.526500,15.001212,13.483854
0.527000,13.596364,7.867089
0.527500,15.001212,16.292236
0.528000,12.191515,28.929958
0.528500,16.406061,21.909001
0.529000,15.001212,21.909001
0.529500,16.406061,10.675471
0.530000,7.976970,14.888045
0.530500,3.762424,10.675471
0.531000,15.001212,13.483854
0.531500,5.167273,10.675471
0.532000,17.810909,14.888045
0.532500,15.001212,10.675471
0.533000,15.001212,14.888045
0.533500,13.596364,16.292236
0.534000,10.786667,13.483854
0.534500,13.596364,14.888045
0.535000,15.001212,10.675471
0.535500,12.191515,14.888045
0.536000,16.406061,6.462897
0.536500,17.810909,23.313193
0.537000,16.406061,19.100619
0.537500,16.406061,5.058706
0.538000,9.381818,10.675471
0.538500,5.167273,12.079662
0.539000,2.357576,16.292236
0.539500,10.786667,14.888045
0.540000,15.001212,14.888045
0.540500,15.001212,12.079662
0.541000,12.191515,14.888045
0.541500,15.001212,10.675471
0.542000,13.596364,13.483854
0.542500,15.001212,10.675471
0.543000,16.406061,7.867089
0.543500,15.001212,9.271280
0.544000,12.191515,13.483854
0.544500,15.001212,7.867089
0.545000,15.001212,21.909001
0.545500,7.976970,6.462897
0.546000,12.191515,3.654515
0.546500,12.191515,2.250323
0.547000,5.167273,3.654515
0.547500,5.167273,10.675471
0.548000,2.357576,13.483854
0.548500,7.976970,10.675471
0.549000,3.762424,7.867089
0.549500,12.191515,9.271280
0.550000,13.596364,9.271280
0.550500,15.001212,10.675471
0.551000,13.596364,10.675471
0.551500,16.406061,7.867089
0.552000,16.406061,9.271280
0.552500,16.406061,5.058706
0.553000,17.810909,6.462897
0.553500,20.620606,21.909001
0.554000,19.215758,13.483854
0.554500,19.215758,6.462897
0.555000,10.786667,14.888045
0.555500,29.049697,13.483854
0.556000,26.240000,9.271280
0.556500,31.859394,13.483854
0.557000,16.406061,10.675471
0.557500,16.406061,14.888045
0.558000,17.810909,13.483854
0.558500,19.215758,13.483854
0.559000,16.406061,10.675471
0.559500,12.191515,13.483854
0.560000,13.596364,10.675471
0.560500,13.596364,14.888045
0.561000,12.191515,2.250323
0.561500,15.001212,10.675471
0.562000,15.001212,3.654515
0.562500,15.001212,21.909001
0.563000,15.001212,7.867089
0.563500,19.215758,13.483854
0.564000,24.835152,14.888045
0.564500,20.620606,13.483854
0.565000,3.762424,13.483854
0.565500,10.786667,13.483854
0.566000,13.596364,12.079662
0.566500,12.191515,14.888045
0.567000,12.191515,10.675471
0.567500,10.786667,16.292236
0.568000,15.001212,16.292236
0.568500,16.406061,9.271280
0.569000,13.596364,3.654515
0.569500,12.191515,9.271280
0.570000,16.406061,27.525767
0.570500,13.596364,14.888045
0.571000,9.381818,13.483854
0.571500,2.357576,17.696428
0.572000,3.762424,16.292236
0.572500,7.976970,14.888045
0.573000,15.001212,16.292236
0.573500,9.381818,17.696428
0.574000,12.191515,17.696428
0.574500,12.191515,13.483854
0.575000,15.001212,16.292236
0.575500,12.191515,16.292236
0.576000,16.406061,16.292236
0.576500,16.406061,10.675471
0.577000,16.406061,14.888045
0.577500,15.001212,19.100619
0.578000,17.810909,9.271280
0.578500,17.810909,21.909001
0.579000,13.596364,5.058706
0.579500,5.167273,13.483854
0.580000,17.810909,16.292236
0.580500,7.976970,14.888045
0.581000,29.049697,16.292236
0.581500,16.406061,16.292236
0.582000,16.406061,17.696428
0.582500,16.406061,16.292236
0.583000,12.191515,17.696428
0.583500,13.596364,17.696428
0.584000,12.191515,16.292236
0.584500,12.191515,16.292236
0.585000,12.191515,16.292236
0.585500,12.191515,28.929958
0.586000,16.406061,23.313193
0.586500,10.786667,14.888045
0.587000,12.191515,5.058706
0.587500,10.786667,10.675471
0.588000,23.430303,14.888045
0.588500,17.810909,10.675471
0.589000,6.572121,10.675471
0.589500,7.976970,13.483854
0.590000,12.191515,13.483854
0.590500,15.001212,13.483854
0.591000,17.810909,14.888045
0.591500,15.001212,10.675471
0.592000,15.001212,13.483854
0.592500,16.406061,13.483854
0.593000,15.001212,13.483854
0.593500,17.810909,5.058706
0.594000,13.596364,24.717384
0.594500,16.406061,23.313193
0.595000,12.191515,19.100619
0.595500,10.786667,16.292236
0.596000,3.762424,16.292236
0.596500,5.167273,10.675471
0.597000,10.786667,9.271280
0.597500,15.001212,13.483854
0.598000,12.191515,9.271280
0.598500,13.596364,14.888045
0.599000,15.001212,14.888045
0.599500,15.001212,14.888045
0.600000,13.596364,16.292236
0.600500,16.406061,13.483854
0.601000,17.810909,10.675471
0.601500,17.810909,13.483854
0.602000,16.406061,14.888045
0.602500,17.810909,9.271280
0.603000,17.810909,26.121575
0.603500,16.406061,16.292236
0.604000,15.001212,6.462897
0.604500,9.381818,14.888045
0.605000,20.620606,9.271280
0.605500,31.859394,9.271280
0.606000,20.620606,14.888045
0.606500,17.810909,14.888045
0.607000,19.215758,10.675471
0.607500,17.810909,10.675471
0.608000,19.215758,14.888045
0.608500,17.810909,16.292236
0.609000,19.215758,13.483854
0.609500,17.810909,6.462897
0.610000,19.215758,3.654515
0.610500,22.025455,13.483854
0.611000,20.620606,23.313193
0.611500,17.810909,9.271280
0.612000,17.810909,6.462897
0.612500,31.859394,10.675471
0.613000,16.406061,13.483854
0.613500,34.669091,13.483854
0.614000,27.644848,10.675471
0.614500,22.025455,10.675471
0.615000,22.025455,13.483854
0.615500,19.215758,14.888045
0.616000,20.620606,13.483854
0.616500,20.620606,14.888045
0.617000,19.215758,10.675471
0.617500,20.620606,10.675471
0.618000,20.620606,17.696428
0.618500,22.025455,16.292236
0.619000,22.025455,3.654515
0.619500,23.430303,17.696428
0.620000,23.430303,6.462897
0.620500,26.240000,13.483854
0.621000,15.001212,14.888045
0.621500,33.264242,14.888045
0.622000,15.001212,17.696428
0.622500,17.810909,16.292236
0.623000,20.620606,14.888045
0.623500,20.620606,14.888045
0.624000,23.430303,10.675471
0.624500,20.620606,16.292236
0.625000,23.430303,17.696428
0.625500,23.430303,10.675471
0.626000,27.644848,13.483854
0.626500,23.430303,19.100619
0.627000,24.835152,13.483854
0.627500,24.835152,27.525767
0.628000,19.215758,6.462897
0.628500,23.430303,13.483854
0.629000,16.406061,13.483854
0.629500,36.073939,13.483854
0.630000,27.644848,10.675471
0.630500,37.478788,10.675471
0.631000,23.430303,10.675471
0.631500,23.430303,10.675471
0.632000,23.430303,13.483854
0.632500,23.430303,13.483854
0.633000,22.025455,17.696428
0.633500,23.430303,10.675471
0.634000,23.430303,16.292236
0.634500,23.430303,0.846132
0.635000,24.835152,6.462897
0.635500,26.240000,6.462897
0.636000,26.240000,5.058706
0.636500,29.049697,13.483854
0.637000,20.620606,13.483854
0.637500,36.073939,14.888045
0.638000,17.810909,9.271280
0.638500,23.430303,13.483854
0.639000,22.025455,14.888045
0.639500,27.644848,10.675471
0.640000,26.240000,10.675471
0.640500,27.644848,9.271280
0.641000,27.644848,13.483854
0.641500,24.835152,6.462897
0.642000,27.644848,7.867089
0.642500,26.240000,13.483854
0.643000,27.644848,5.058706
0.643500,24.835152,3.654515
0.644000,29.049697,10.675471
0.644500,26.240000,10.675471
0.645000,33.264242,9.271280
0.645500,26.240000,10.675471
0.646000,23.430303,10.675471
0.646500,26.240000,9.271280
0.647000,29.049697,7.867089
0.647500,29.049697,10.675471
0.648000,29.049697,9.271280
0.648500,27.644848,14.888045
0.649000,26.240000,14.888045
0.649500,26.240000,13.483854
0.650000,24.835152,16.292236
0.650500,26.240000,13.483854
0.651000,27.644848,10.675471
0.651500,27.644848,2.250323
0.652000,29.049697,13.483854
0.652500,26.240000,23.313193
0.653000,31.859394,7.867089
0.653500,29.049697,9.271280
0.654000,17.810909,10.675471
0.654500,33.264242,10.675471
0.655000,19.215758,7.867089
0.655500,19.215758,9.271280
0.656000,23.430303,7.867089
0.656500,24.835152,6.462897
0.657000,23.430303,7.867089
0.657500,24.835152,6.462897
0.658000,24.835152,6.462897
0.658500,24.835152,9.271280
0.659000,23.430303,6.462897
0.659500,23.430303,6.462897
0.660000,26.240000,-1.962250
0.660500,23.430303,16.292236
0.661000,20.620606,17.696428
0.661500,17.810909,-0.558059
0.662000,13.596364,7.867089
0.662500,23.430303,9.271280
0.663000,36.073939,7.867089
0.663500,24.835152,9.271280
0.664000,20.620606,9.271280
0.664500,22.025455,6.462897
0.665000,23.430303,10.675471
0.665500,20.620606,10.675471
0.666000,20.620606,9.271280
0.666500,20.620606,10.675471
0.667000,19.215758,9.271280
0.667500,16.406061,16.292236
0.668000,20.620606,10.675471
0.668500,23.430303,26.121575
0.669000,24.835152,12.079662
0.669500,13.596364,13.483854
0.670000,20.620606,14.888045
0.670500,10.786667,13.483854
0.671000,16.406061,13.483854
0.671500,15.001212,13.483854
0.672000,17.810909,10.675471
0.672500,17.810909,10.675471
0.673000,17.810909,10.675471
0.673500,20.620606,10.675471
0.674000,19.215758,7.867089
0.674500,20.620606,13.483854
0.675000,23.430303,7.867089
0.675500,20.620606,10.675471
0.676000,19.215758,2.250323
0.676500,22.025455,9.271280
0.677000,19.215758,3.654515
0.677500,20.620606,13.483854
0.678000,33.264242,13.483854
0.678500,20.620606,10.675471
0.679000,15.001212,9.271280
0.679500,22.025455,9.271280
0.680000,17.810909,10.675471
0.680500,19.215758,10.675471
0.681000,20.620606,10.675471
0.681500,17.810909,13.483854
0.682000,16.406061,16.292236
0.682500,17.810909,17.696428
0.683000,17.810909,16.292236
0.683500,16.406061,14.888045
0.684000,17.810909,6.462897
0.684500,16.406061,16.292236
0.685000,19.215758,10.675471
0.685500,17.810909,17.696428
0.686000,9.381818,17.696428
0.686500,10.786667,16.292236
0.687000,15.001212,14.888045
0.687500,12.191515,16.292236
0.688000,16.406061,16.292236
0.688500,17.810909,17.696428
0.689000,15.001212,17.696428
0.689500,16.406061,14.888045
0.690000,16.406061,17.696428
0.690500,16.406061,17.696428
0.691000,16.406061,12.079662
0.691500,15.001212,27.525767
0.692000,12.191515,6.462897
0.692500,10.786667,10.675471
0.693000,12.191515,19.100619
0.693500,27.644848,14.888045
0.694000,16.406061,16.292236
0.694500,22.025455,13.483854
0.695000,0.952727,16.292236
0.695500,12.191515,16.292236
0.696000,10.786667,17.696428
0.696500,13.596364,17.696428
0.697000,12.191515,16.292236
0.697500,10.786667,17.696428
0.698000,12.191515,21.909001
0.698500,12.191515,16.292236
0.699000,7.976970,20.504810
0.699500,9.381818,31.738340
0.700000,5.167273,20.504810
0.700500,10.786667,13.483854
0.701000,6.572121,19.100619
0.701500,23.430303,19.100619
0.702000,12.191515,16.292236
0.702500,3.762424,17.696428
0.703000,3.762424,17.696428
0.703500,12.191515,13.483854
0.704000,13.596364,13.483854
0.704500,13.596364,16.292236
0.705000,10.786667,16.292236
0.705500,10.786667,16.292236
0.706000,10.786667,10.675471
0.706500,10.786667,7.867089
0.707000,12.191515,5.058706
0.707500,15.001212,23.313193
0.708000,10.786667,16.292236
0.708500,12.191515,9.271280
0.709000,3.762424,16.292236
0.709500,3.762424,13.483854
0.710000,17.810909,14.888045
0.710500,6.572121,13.483854
0.711000,15.001212,13.483854
0.711500,15.001212,10.675471
0.712000,12.191515,16.292236
0.712500,13.596364,10.675471
0.713000,13.596364,13.483854
0.713500,13.596364,13.483854
0.714000,13.596364,19.100619
0.714500,15.001212,2.250323
0.715000,15.001212,9.271280
0.715500,16.406061,28.929958
0.716000,17.810909,14.888045
0.716500,9.381818,17.696428
0.717000,12.191515,17.696428
0.717500,3.762424,16.292236
0.718000,27.644848,17.696428
0.718500,17.810909,16.292236
0.719000,16.406061,16.292236
0.719500,16.406061,14.888045
0.720000,17.810909,14.888045
0.720500,16.406061,16.292236
0.721000,16.406061,13.483854
0.721500,13.596364,14.888045
0.722000,15.001212,17.696428
0.722500,15.001212,14.888045
0.723000,15.001212,16.292236
0.723500,15.001212,27.525767
0.724000,12.191515,10.675471
0.724500,3.762424,14.888045
0.725000,16.406061,13.483854
0.725500,22.025455,14.888045
0.726000,27.644848,13.483854
0.726500,12.191515,12.079662
0.727000,10.786667,10.675471
0.727500,10.786667,14.888045
0.728000,12.191515,13.483854
0.728500,12.191515,10.675471
0.729000,10.786667,14.888045
0.729500,10.786667,16.292236
0.730000,10.786667,5.058706
0.730500,9.381818,16.292236
0.731000,10.786667,6.462897
0.731500,10.786667,10.675471
0.732000,16.406061,13.483854
0.732500,15.001212,13.483854
0.733000,17.810909,16.292236
0.733500,9.381818,16.292236
0.734000,5.167273,16.292236
0.734500,9.381818,14.888045
0.735000,9.381818,13.483854
0.735500,5.167273,19.100619
0.736000,10.786667,14.888045
0.736500,9.381818,16.292236
0.737000,7.976970,19.100619
0.737500,7.976970,10.675471
0.738000,3.762424,27.525767
0.738500,3.762424,6.462897
0.739000,7.976970,13.483854
0.739500,9.381818,7.867089
0.740000,-0.452121,13.483854
0.740500,22.025455,10.675471
0.741000,5.167273,14.888045
0.741500,7.976970,9.271280
0.742000,12.191515,13.483854
0.742500,12.191515,14.888045
0.743000,9.381818,16.292236
0.743500,9.381818,16.292236
0.744000,9.381818,16.292236
0.744500,3.762424,17.696428
0.745000,7.976970,16.292236
0.745500,9.381818,6.462897
0.746000,9.381818,13.483854
0.746500,10.786667,6.462897
0.747000,3.762424,16.292236
0.747500,9.381818,16.292236
0.748000,0.952727,17.696428
0.748500,3.762424,14.888045
0.749000,22.025455,13.483854
0.749500,7.976970,16.292236
0.750000,10.786667,14.888045
0.750500,7.976970,17.696428
0.751000,9.381818,14.888045
0.751500,5.167273,16.292236
0.752000,7.976970,17.696428
0.752500,3.762424,13.483854
0.753000,9.381818,17.696428
0.753500,9.381818,17.696428
0.754000,7.976970,21.909001
0.754500,9.381818,7.867089
0.755000,5.167273,5.058706
0.755500,10.786667,14.888045
0.756000,2.357576,14.888045
0.756500,22.025455,14.888045
0.757000,-0.452121,16.292236
0.757500,7.976970,14.888045
0.758000,7.976970,9.271280
0.758500,10.786667,10.675471
0.759000,10.786667,9.271280
0.759500,10.786667,9.271280
0.760000,9.381818,13.483854
0.760500,10.786667,13.483854
0.761000,10.786667,17.696428
0.761500,7.976970,5.058706
0.762000,10.786667,6.462897
0.762500,10.786667,23.313193
0.763000,15.001212,12.079662
0.763500,7.976970,14.888045
0.764000,12.191515,13.483854
0.764500,0.952727,9.271280
0.765000,2.357576,14.888045
0.765500,12.191515,14.888045
0.766000,10.786667,13.483854
0.766500,13.596364,13.483854
0.767000,12.191515,13.483854
0.767500,16.406061,10.675471
0.768000,10.786667,16.292236
0.768500,13.596364,10.675471
0.769000,16.406061,5.058706
0.769500,15.001212,16.292236
0.770000,16.406061,26.121575
0.770500,12.191515,7.867089
0.771000,16.406061,14.888045
0.771500,16.406061,13.483854
0.772000,26.240000,14.888045
0.772500,9.381818,13.483854
0.773000,15.001212,14.888045
0.773500,12.191515,12.079662
0.774000,15.001212,14.888045
0.774500,16.406061,10.675471
0.775000,17.810909,9.271280
0.775500,17.810909,13.483854
0.776000,15.001212,10.675471
0.776500,16.406061,10.675471
0.777000,17.810909,7.867089
0.777500,15.001212,6.462897
0.778000,15.001212,10.675471
0.778500,16.406061,10.675471
0.779000,19.215758,10.675471
0.779500,31.859394,13.483854
0.780000,22.025455,10.675471
0.780500,12.191515,10.675471
0.781000,17.810909,10.675471
0.781500,19.215758,14.888045
0.782000,17.810909,16.292236
0.782500,19.215758,17.696428
0.783000,19.215758,13.483854
0.783500,16.406061,16.292236
0.784000,19.215758,21.909001
0.784500,17.810909,14.888045
0.785000,17.810909,20.504810
0.785500,22.025455,10.675471
0.786000,16.406061,21.909001
0.786500,20.620606,10.675471
0.787000,24.835152,19.100619
0.787500,30.454545,14.888045
0.788000,29.049697,13.483854
0.788500,36.073939,13.483854
0.789000,20.620606,10.675471
0.789500,22.025455,14.888045
0.790000,22.025455,13.483854
0.790500,24.835152,13.483854
0.791000,22.025455,10.675471
0.791500,23.430303,7.867089
0.792000,22.025455,9.271280
0.792500,23.430303,9.271280
0.793000,24.835152,3.654515
0.793500,22.025455,23.313193
0.794000,23.430303,14.888045
0.794500,19.215758,26.121575
0.795000,22.025455,13.483854
0.795500,31.859394,12.079662
0.796000,23.430303,10.675471
0.796500,34.669091,10.675471
0.797000,16.406061,13.483854
0.797500,22.025455,9.271280
0.798000,20.620606,9.271280
0.798500,24.835152,10.675471
0.799000,23.430303,10.675471
0.799500,19.215758,14.888045
0.800000,20.620606,19.100619
0.800500,20.620606,13.483854
0.801000,20.620606,17.696428
0.801500,20.620606,6.462897
0.802000,20.620606,21.909001
0.802500,20.620606,7.867089
0.803000,9.381818,10.675471
0.803500,26.240000,14.888045
0.804000,20.620606,14.888045
0.804500,29.049697,14.888045
0.805000,17.810909,16.292236
0.805500,17.810909,10.675471
0.806000,19.215758,17.696428
0.806500,20.620606,16.292236
0.807000,20.620606,12.079662
0.807500,22.025455,12.079662
0.808000,23.430303,7.867089
0.808500,22.025455,0.846132
0.809000,22.025455,7.867089
0.809500,22.025455,24.717384
0.810000,24.835152,9.271280
0.810500,16.406061,14.888045
0.811000,9.381818,14.888045
0.811500,30.454545,10.675471
0.812000,17.810909,13.483854
0.812500,16.406061,9.271280
0.813000,15.001212,13.483854
0.813500,19.215758,12.079662
0.814000,17.810909,13.483854
0.814500,19.215758,9.271280
0.815000,17.810909,12.079662
0.815500,17.810909,13.483854
0.816000,19.215758,10.675471
0.816500,20.620606,6.462897
0.817000,22.025455,9.271280
0.817500,19.215758,10.675471
0.818000,23.430303,14.888045
0.818500,12.191515,14.888045
0.819000,13.596364,13.483854
0.819500,27.644848,14.888045
0.820000,13.596364,10.675471
0.820500,16.406061,13.483854
0.821000,17.810909,13.483854
0.821500,16.406061,13.483854
0.822000,19.215758,10.675471
0.822500,17.810909,10.675471
0.823000,17.810909,13.483854
0.823500,19.215758,13.483854
0.824000,17.810909,6.462897
0.824500,17.810909,21.909001
0.825000,16.406061,21.909001
0.825500,17.810909,7.867089
0.826000,16.406061,10.675471
0.826500,17.810909,13.483854
0.827000,30.454545,16.292236
0.827500,16.406061,13.483854
0.828000,10.786667,13.483854
0.828500,16.406061,14.888045
0.829000,17.810909,13.483854
0.829500,16.406061,12.079662
0.830000,16.406061,10.675471
0.830500,16.406061,13.483854
0.831000,12.191515,9.271280
0.831500,16.406061,16.292236
0.832000,13.596364,13.483854
0.832500,12.191515,2.250323
0.833000,13.596364,19.100619
0.833500,13.596364,6.462897
0.834000,16.406061,13.483854
0.834500,6.572121,9.271280
0.835000,3.762424,16.292236
0.835500,3.762424,13.483854
0.836000,7.976970,14.888045
0.836500,10.786667,14.888045
0.837000,13.596364,9.271280
0.837500,10.786667,14.888045
0.838000,10.786667,14.888045
0.838500,12.191515,13.483854
0.839000,10.786667,14.888045
0.839500,10.786667,13.483854
0.840000,15.001212,17.696428
0.840500,10.786667,6.462897
0.841000,12.191515,24.717384
0.841500,12.191515,7.867089
0.842000,13.596364,7.867089
0.842500,12.191515,13.483854
0.843000,13.596364,14.888045
0.843500,2.357576,14.888045
0.844000,3.762424,16.292236
0.844500,7.976970,10.675471
0.845000,10.786667,10.675471
0.845500,10.786667,14.888045
0.846000,10.786667,14.888045
0.846500,10.786667,16.292236
0.847000,10.786667,14.888045
0.847500,12.191515,14.888045
0.848000,7.976970,3.654515
0.848500,7.976970,16.292236
0.849000,7.976970,28.929958
0.849500,7.976970,13.483854
0.850000,5.167273,14.888045
0.850500,-3.261818,16.292236
0.851000,20.620606,16.292236
0.851500,7.976970,19.100619
0.852000,0.952727,20.504810
0.852500,2.357576,19.100619
0.853000,6.572121,17.696428
0.853500,3.762424,19.100619
0.854000,5.167273,20.504810
0.854500,3.762424,21.909001
0.855000,2.357576,21.909001
0.855500,3.762424,19.100619
0.856000,3.762424,17.696428
0.856500,7.976970,21.909001
0.857000,5.167273,9.271280
0.857500,9.381818,28.929958
0.858000,5.167273,10.675471
0.858500,10.786667,16.292236
0.859000,3.762424,16.292236
0.859500,19.215758,10.675471
0.860000,16.406061,16.292236
0.860500,-1.856970,16.292236
0.861000,10.786667,16.292236
0.861500,7.976970,16.292236
0.862000,7.976970,16.292236
0.862500,9.381818,16.292236
0.863000,10.786667,16.292236
0.863500,7.976970,16.292236
0.864000,10.786667,20.504810
0.864500,10.786667,17.696428
0.865000,5.167273,19.100619
0.865500,7.976970,6.462897
0.866000,0.952727,21.909001
0.866500,2.357576,9.271280
0.867000,-7.476364,17.696428
0.867500,16.406061,19.100619
0.868000,17.810909,17.696428
0.868500,22.025455,16.292236
0.869000,5.167273,16.292236
0.869500,9.381818,17.696428
0.870000,12.191515,16.292236
0.870500,10.786667,17.696428
0.871000,7.976970,19.100619
0.871500,9.381818,16.292236
0.872000,5.167273,16.292236
0.872500,7.976970,16.292236
0.873000,10.786667,30.334149
0.873500,9.381818,27.525767
0.874000,7.976970,21.909001
0.874500,5.167273,9.271280
0.875000,12.191515,16.292236
0.875500,16.406061,14.888045
0.876000,15.001212,13.483854
0.876500,-0.452121,16.292236
0.877000,7.976970,16.292236
0.877500,7.976970,14.888045
0.878000,9.381818,14.888045
0.878500,9.381818,14.888045
0.879000,10.786667,10.675471
0.879500,13.596364,14.888045
0.880000,12.191515,17.696428
0.880500,13.596364,10.675471
0.881000,13.596364,28.929958
0.881500,9.381818,9.271280
0.882000,7.976970,13.483854
0.882500,13.596364,13.483854
0.883000,15.001212,16.292236
0.883500,9.381818,16.292236
0.884000,7.976970,17.696428
0.884500,3.762424,14.888045
0.885000,13.596364,14.888045
0.885500,13.596364,14.888045
0.886000,13.596364,16.292236
0.886500,13.596364,16.292236
0.887000,12.191515,12.079662
0.887500,10.786667,19.100619
0.888000,12.191515,14.888045
0.888500,13.596364,14.888045
0.889000,15.001212,9.271280
0.889500,7.976970,14.888045
0.890000,15.001212,17.696428
0.890500,9.381818,16.292236
0.891000,27.644848,16.292236
0.891500,27.644848,13.483854
0.892000,12.191515,14.888045
0.892500,15.001212,16.292236
0.893000,13.596364,16.292236
0.893500,12.191515,14.888045
0.894000,9.381818,16.292236
0.894500,10.786667,13.483854
0.895000,10.786667,10.675471
0.895500,10.786667,3.654515
0.896000,12.191515,21.909001
0.896500,10.786667,17.696428
0.897000,10.786667,23.313193
0.897500,13.596364,6.462897
0.898000,0.952727,14.888045
0.898500,19.215758,16.292236
0.899000,6.572121,16.292236
0.899500,7.976970,17.696428
0.900000,6.572121,19.100619
0.900500,5.167273,20.504810
0.901000,6.572121,17.696428
0.901500,9.381818,19.100619
0.902000,7.976970,13.483854
0.902500,12.191515,14.888045
0.903000,10.786667,19.100619
0.903500,9.381818,30.334149
0.904000,5.167273,10.675471
0.904500,5.167273,17.696428
0.905000,10.786667,6.462897
0.905500,0.952727,16.292236
0.906000,22.025455,14.888045
0.906500,12.191515,16.292236
0.907000,0.952727,16.292236
0.907500,10.786667,14.888045
0.908000,10.786667,16.292236
0.908500,12.191515,14.888045
0.909000,12.191515,17.696428
0.909500,12.191515,10.675471
0.910000,12.191515,13.483854
0.910500,13.596364,16.292236
0.911000,15.001212,24.717384
0.911500,12.191515,16.292236
0.912000,16.406061,3.654515
0.912500,2.357576,13.483854
0.913000,16.406061,9.271280
0.913500,29.049697,12.079662
0.914000,7.976970,9.271280
0.914500,12.191515,9.271280
0.915000,15.001212,9.271280
0.915500,16.406061,9.271280
0.916000,17.810909,10.675471
0.916500,16.406061,10.675471
0.917000,15.001212,13.483854
0.917500,15.001212,14.888045
0.918000,16.406061,6.462897
0.918500,15.001212,14.888045
0.919000,16.406061,0.846132
0.919500,12.191515,10.675471
0.920000,19.215758,7.867089
0.920500,9.381818,12.079662
0.921000,30.454545,9.271280
0.921500,16.406061,9.271280
0.922000,12.191515,7.867089
0.922500,16.406061,6.462897
0.923000,15.001212,9.271280
0.923500,16.406061,7.867089
0.924000,15.001212,5.058706
0.924500,16.406061,7.867089
0.925000,17.810909,3.654515
0.925500,17.810909,7.867089
0.926000,16.406061,3.654515
0.926500,16.406061,21.909001
0.927000,16.406061,5.058706
0.927500,2.357576,7.867089
0.928000,12.191515,6.462897
0.928500,29.049697,6.462897
0.929000,7.976970,5.058706
0.929500,13.596364,6.462897
0.930000,15.001212,6.462897
0.930500,15.001212,9.271280
0.931000,15.001212,9.271280
0.931500,12.191515,13.483854
0.932000,13.596364,10.675471
0.932500,15.001212,16.292236
0.933000,12.191515,2.250323
0.933500,13.596364,20.504810
0.934000,12.191515,19.100619
0.934500,10.786667,9.271280
0.935000,3.762424,13.483854
0.935500,2.357576,12.079662
0.936000,23.430303,9.271280
0.936500,13.596364,10.675471
0.937000,12.191515,9.271280
0.937500,12.191515,9.271280
0.938000,12.191515,13.483854
0.938500,7.976970,10.675471
0.939000,10.786667,13.483854
0.939500,10.786667,14.888045
0.940000,12.191515,16.292236
0.940500,10.786667,16.292236
0.941000,12.191515,10.675471
0.941500,10.786667,21.909001
0.942000,13.596364,7.867089
0.942500,0.952727,9.271280
0.943000,0.952727,10.675471
0.943500,22.025455,13.483854
0.944000,9.381818,10.675471
0.944500,9.381818,9.271280
0.945000,10.786667,10.675471
0.945500,9.381818,13.483854
0.946000,12.191515,14.888045
0.946500,10.786667,9.271280
0.947000,15.001212,7.867089
0.947500,13.596364,0.846132
0.948000,13.596364,14.888045
0.948500,12.191515,16.292236
0.949000,12.191515,5.058706
0.949500,10.786667,27.525767
0.950000,13.596364,13.483854
0.950500,27.644848,14.888045
0.951000,9.381818,13.483854
0.951500,17.810909,14.888045
0.952000,10.786667,10.675471
0.952500,13.596364,10.675471
0.953000,13.596364,10.675471
0.953500,15.001212,14.888045
0.954000,13.596364,14.888045
0.954500,15.001212,16.292236
0.955000,10.786667,9.271280
0.955500,13.596364,-0.558059
0.956000,13.596364,23.313193
0.956500,10.786667,17.696428
0.957000,10.786667,10.675471
0.957500,0.952727,16.292236
0.958000,26.240000,10.675471
0.958500,20.620606,10.675471
0.959000,15.001212,12.079662
0.959500,10.786667,10.675471
0.960000,7.976970,10.675471
0.960500,9.381818,10.675471
0.961000,9.381818,10.675471
0.961500,10.786667,13.483854
0.962000,10.786667,14.888045
0.962500,12.191515,14.888045
0.963000,12.191515,2.250323
0.963500,10.786667,10.675471
0.964000,10.786667,24.717384
0.964500,16.406061,13.483854
0.965000,3.762424,10.675471
0.965500,5.167273,13.483854
0.966000,23.430303,10.675471
0.966500,22.025455,13.483854
0.967000,9.381818,13.483854
0.967500,7.976970,16.292236
0.968000,10.786667,10.675471
0.968500,15.001212,9.271280
0.969000,15.001212,7.867089
0.969500,15.001212,6.462897
0.970000,13.596364,7.867089
0.970500,15.001212,16.292236
0.971000,15.001212,0.846132
0.971500,13.596364,17.696428
0.972000,13.596364,3.654515
0.972500,12.191515,7.867089
0.973000,20.620606,12.079662
0.973500,9.381818,13.483854
0.974000,27.644848,9.271280
0.974500,9.381818,10.675471
0.975000,13.596364,9.271280
0.975500,16.406061,9.271280
0.976000,13.596364,9.271280
0.976500,13.596364,10.675471
0.977000,12.191515,10.675471
0.977500,13.596364,7.867089
0.978000,9.381818,13.483854
0.978500,10.786667,13.483854
0.979000,10.786667,14.888045
0.979500,9.381818,9.271280
0.980000,10.786667,23.313193
0.980500,10.786667,7.867089
0.981000,13.596364,10.675471
0.981500,12.191515,13.483854
0.982000,19.215758,10.675471
0.982500,3.762424,10.675471
0.983000,7.976970,10.675471
0.983500,9.381818,9.271280
0.984000,9.381818,14.888045
0.984500,10.786667,14.888045
0.985000,7.976970,14.888045
0.985500,12.191515,13.483854
0.986000,12.191515,13.483854
0.986500,10.786667,9.271280
0.987000,12.191515,10.675471
0.987500,10.786667,9.271280
0.988000,10.786667,0.846132
0.988500,12.191515,9.271280
0.989000,9.381818,5.058706
0.989500,17.810909,7.867089
0.990000,13.596364,9.271280
0.990500,23.430303,9.271280
0.991000,17.810909,9.271280
0.991500,10.786667,6.462897
0.992000,12.191515,9.271280
0.992500,10.786667,10.675471
0.993000,12.191515,10.675471
0.993500,10.786667,9.271280
0.994000,9.381818,14.888045
0.994500,9.381818,13.483854
0.995000,7.976970,10.675471
0.995500,10.786667,7.867089
0.996000,13.596364,0.846132
0.996500,13.596364,21.909001
0.997000,10.786667,6.462897
0.997500,9.381818,9.271280
0.998000,3.762424,9.271280
0.998500,23.430303,10.675471
0.999000,19.215758,9.271280
0.999500,27.644848,10.675471
1.000000,12.191515,9.271280
1.000500,13.596364,12.079662
1.001000,15.001212,10.675471
1.001500,15.001212,6.462897
1.002000,15.001212,10.675471
1.002500,16.406061,9.271280
1.003000,19.215758,9.271280
1.003500,16.406061,9.271280
1.004000,16.406061,0.846132
1.004500,17.810909,19.100619
1.005000,16.406061,6.462897
1.005500,17.810909,23.313193
1.006000,19.215758,3.654515
1.006500,7.976970,10.675471
1.007000,13.596364,10.675471
1.007500,10.786667,10.675471
1.008000,16.406061,9.271280
1.008500,19.215758,7.867089
1.009000,17.810909,13.483854
1.009500,16.406061,9.271280
1.010000,17.810909,10.675471
1.010500,17.810909,14.888045
1.011000,16.406061,10.675471
1.011500,17.810909,9.271280
1.012000,17.810909,5.058706
1.012500,17.810909,26.121575
1.013000,17.810909,9.271280
1.013500,16.406061,17.696428
1.014000,15.001212,14.888045
1.014500,10.786667,13.483854
1.015000,31.859394,14.888045
1.015500,10.786667,14.888045
1.016000,15.001212,13.483854
1.016500,12.191515,13.483854
1.017000,15.001212,13.483854
1.017500,12.191515,14.888045
1.018000,15.001212,16.292236
1.018500,13.596364,13.483854
1.019000,15.001212,14.888045
1.019500,15.001212,16.292236
1.020000,17.810909,27.525767
1.020500,17.810909,7.867089
1.021000,10.786667,10.675471
1.021500,17.810909,16.292236
1.022000,16.406061,17.696428
1.022500,26.240000,17.696428
1.023000,5.167273,16.292236
1.023500,12.191515,17.696428
1.024000,13.596364,14.888045
1.024500,12.191515,16.292236
1.025000,16.406061,14.888045
1.025500,13.596364,13.483854
1.026000,12.191515,16.292236
1.026500,12.191515,10.675471
1.027000,12.191515,17.696428
1.027500,10.786667,9.271280
1.028000,12.191515,27.525767
1.028500,7.976970,6.462897
1.029000,5.167273,16.292236
1.029500,13.596364,10.675471
1.030000,2.357576,14.888045
1.030500,24.835152,13.483854
1.031000,10.786667,14.888045
1.031500,2.357576,16.292236
1.032000,10.786667,14.888045
1.032500,10.786667,14.888045
1.033000,10.786667,16.292236
1.033500,9.381818,17.696428
1.034000,10.786667,19.100619
1.034500,10.786667,17.696428
1.035000,9.381818,6.462897
1.035500,9.381818,20.504810
1.036000,10.786667,23.313193
1.036500,12.191515,27.525767
1.037000,7.976970,6.462897
1.037500,15.001212,13.483854
1.038000,7.976970,10.675471
1.038500,27.644848,9.271280
1.039000,26.240000,9.271280
1.039500,10.786667,12.079662
1.040000,12.191515,9.271280
1.040500,12.191515,10.675471
1.041000,12.191515,9.271280
1.041500,15.001212,10.675471
1.042000,12.191515,10.675471
1.042500,10.786667,10.675471
1.043000,10.786667,10.675471
1.043500,10.786667,0.846132
1.044000,12.191515,23.313193
1.044500,12.191515,10.675471
1.045000,5.167273,12.079662
1.045500,9.381818,14.888045
1.046000,3.762424,9.271280
1.046500,2.357576,10.675471
1.047000,10.786667,10.675471
1.047500,10.786667,9.271280
1.048000,10.786667,9.271280
1.048500,15.001212,9.271280
1.049000,15.001212,9.271280
1.049500,13.596364,7.867089
1.050000,10.786667,6.462897
1.050500,15.001212,7.867089
1.051000,13.596364,-1.962250
1.051500,12.191515,6.462897
1.052000,10.786667,-1.962250
1.052500,12.191515,12.079662
1.053000,13.596364,0.846132
1.053500,16.406061,9.271280
1.054000,19.215758,10.675471
1.054500,27.644848,10.675471
1.055000,7.976970,7.867089
1.055500,9.381818,9.271280
1.056000,15.001212,9.271280
1.056500,15.001212,9.271280
1.057000,16.406061,6.462897
1.057500,15.001212,6.462897
1.058000,16.406061,6.462897
1.058500,15.001212,6.462897
1.059000,15.001212,10.675471
1.059500,13.596364,10.675471
1.060000,16.406061,5.058706
1.060500,15.001212,2.250323
1.061000,12.191515,2.250323
1.061500,16.406061,6.462897
1.062000,12.191515,21.909001
1.062500,3.762424,7.867089
1.063000,24.835152,10.675471
1.063500,23.430303,6.462897
1.064000,15.001212,7.867089
1.064500,15.001212,6.462897
1.065000,13.596364,7.867089
1.065500,15.001212,6.462897
1.066000,13.596364,6.462897
1.066500,12.191515,10.675471
1.067000,10.786667,9.271280
1.067500,13.596364,14.888045
1.068000,16.406061,7.867089
1.068500,17.810909,23.313193
1.069000,17.810909,21.909001
1.069500,15.001212,10.675471
1.070000,12.191515,9.271280
1.070500,7.976970,10.675471
1.071000,3.762424,9.271280
1.071500,17.810909,10.675471
1.072000,15.001212,6.462897
1.072500,15.001212,7.867089
1.073000,15.001212,7.867089
1.073500,15.001212,7.867089
1.074000,16.406061,9.271280
1.074500,16.406061,6.462897
1.075000,17.810909,5.058706
1.075500,19.215758,7.867089
1.076000,19.215758,-0.558059
1.076500,20.620606,17.696428
1.077000,19.215758,9.271280
1.077500,19.215758,21.909001
1.078000,19.215758,0.846132
1.078500,10.786667,7.867089
1.079000,19.215758,6.462897
1.079500,12.191515,7.867089
1.080000,16.406061,9.271280
1.080500,19.215758,7.867089
1.081000,16.406061,10.675471
1.081500,17.810909,9.271280
1.082000,15.001212,14.888045
1.082500,13.596364,13.483854
1.083000,15.001212,9.271280
1.083500,17.810909,16.292236
1.084000,12.191515,6.462897
1.084500,16.406061,26.121575
1.085000,13.596364,16.292236
1.085500,16.406061,5.058706
1.086000,16.406061,5.058706
1.086500,3.762424,9.271280
1.087000,19.215758,13.483854
1.087500,23.430303,13.483854
1.088000,10.786667,13.483854
1.088500,17.810909,10.675471
1.089000,15.001212,13.483854
1.089500,16.406061,13.483854
1.090000,13.596364,10.675471
1.090500,16.406061,10.675471
1.091000,17.810909,10.675471
1.091500,19.215758,2.250323
1.092000,17.810909,0.846132
1.092500,17.810909,21.909001
1.093000,17.810909,17.696428
1.093500,16.406061,10.675471
1.094000,3.762424,9.271280
1.094500,7.976970,10.675471
1.095000,3.762424,12.079662
1.095500,10.786667,10.675471
1.096000,12.191515,10.675471
1.096500,10.786667,10.675471
1.097000,12.191515,9.271280
1.097500,15.001212,10.675471
1.098000,13.596364,10.675471
1.098500,12.191515,10.675471
1.099000,13.596364,10.675471
1.099500,7.976970,0.846132
1.100000,9.381818,26.121575
1.100500,10.786667,9.271280
1.101000,9.381818,17.696428
1.101500,12.191515,13.483854
1.102000,2.357576,9.271280
1.102500,26.240000,7.867089
1.103000,9.381818,9.271280
1.103500,3.762424,10.675471
1.104000,7.976970,13.483854
1.104500,10.786667,14.888045
1.105000,9.381818,14.888045
1.105500,9.381818,9.271280
1.106000,10.786667,7.867089
1.106500,9.381818,14.888045
1.107000,7.976970,2.250323
1.107500,9.381818,6.462897
1.108000,10.786667,2.250323
1.108500,5.167273,0.846132
1.109000,-0.452121,6.462897
1.109500,10.786667,9.271280
1.110000,0.952727,6.462897
1.110500,23.430303,7.867089
1.111000,10.786667,6.462897
1.111500,5.167273,5.058706
1.112000,9.381818,6.462897
1.112500,9.381818,6.462897
1.113000,9.381818,7.867089
1.113500,9.381818,6.462897
1.114000,7.976970,9.271280
1.114500,10.786667,6.462897
1.115000,10.786667,7.867089
1.115500,10.786667,-0.558059
1.116000,6.572121,13.483854
1.116500,5.167273,0.846132
1.117000,9.381818,7.867089
1.117500,10.786667,9.271280
1.118000,19.215758,5.058706
1.118500,3.762424,5.058706
1.119000,0.952727,6.462897
1.119500,5.167273,5.058706
1.120000,5.167273,3.654515
1.120500,5.167273,6.462897
1.121000,3.762424,6.462897
1.121500,3.762424,9.271280
1.122000,3.762424,5.058706
1.122500,5.167273,7.867089
1.123000,9.381818,-0.558059
1.123500,7.976970,16.292236
1.124000,6.572121,-0.558059
1.124500,5.167273,6.462897
1.125000,10.786667,6.462897
1.125500,22.025455,3.654515
1.126000,2.357576,6.462897
1.126500,5.167273,5.058706
1.127000,9.381818,3.654515
1.127500,9.381818,3.654515
1.128000,10.786667,5.058706
1.128500,10.786667,6.462897
1.129000,7.976970,2.250323
1.129500,12.191515,0.846132
1.130000,3.762424,7.867089
1.130500,7.976970,0.846132
1.131000,9.381818,19.100619
1.131500,9.381818,14.888045
1.132000,10.786667,2.250323
1.132500,-3.261818,9.271280
1.133000,13.596364,6.462897
1.133500,20.620606,7.867089
1.134000,0.952727,7.867089
1.134500,7.976970,6.462897
1.135000,7.976970,6.462897
1.135500,7.976970,6.462897
1.136000,9.381818,6.462897
1.136500,7.976970,6.462897
1.137000,12.191515,6.462897
1.137500,10.786667,7.867089
1.138000,9.381818,10.675471
1.138500,9.381818,-1.962250
1.139000,10.786667,6.462897
1.139500,9.381818,0.846132
1.140000,15.001212,6.462897
1.140500,5.167273,5.058706
1.141000,7.976970,6.462897
1.141500,0.952727,3.654515
1.142000,13.596364,5.058706
1.142500,12.191515,5.058706
1.143000,10.786667,5.058706
1.143500,10.786667,7.867089
1.144000,9.381818,6.462897
1.144500,12.191515,5.058706
1.145000,9.381818,5.058706
1.145500,10.786667,3.654515
1.146000,12.191515,7.867089
1.146500,15.001212,5.058706
1.147000,10.786667,21.909001
1.147500,15.001212,5.058706
1.148000,0.952727,9.271280
1.148500,7.976970,5.058706
1.149000,22.025455,5.058706
1.149500,15.001212,7.867089
1.150000,10.786667,6.462897
1.150500,9.381818,7.867089
1.151000,10.786667,5.058706
1.151500,10.786667,6.462897
1.152000,12.191515,6.462897
1.152500,12.191515,6.462897
1.153000,13.596364,6.462897
1.153500,10.786667,9.271280
1.154000,10.786667,-3.366442
1.154500,15.001212,5.058706
1.155000,15.001212,2.250323
1.155500,10.786667,6.462897
1.156000,17.810909,6.462897
1.156500,12.191515,7.867089
1.157000,27.644848,7.867089
1.157500,13.596364,9.271280
1.158000,10.786667,10.675471
1.158500,12.191515,7.867089
1.159000,17.810909,9.271280
1.159500,15.001212,9.271280
1.160000,13.596364,10.675471
1.160500,12.191515,9.271280
1.161000,15.001212,13.483854
1.161500,12.191515,14.888045
1.162000,10.786667,3.654515
1.162500,13.596364,20.504810
1.163000,13.596364,5.058706
1.163500,17.810909,10.675471
1.164000,16.406061,10.675471
1.164500,13.596364,12.079662
1.165000,13.596364,9.271280
1.165500,16.406061,6.462897
1.166000,16.406061,6.462897
1.166500,16.406061,13.483854
1.167000,16.406061,7.867089
1.167500,15.001212,7.867089
1.168000,15.001212,5.058706
1.168500,13.596364,5.058706
1.169000,13.596364,9.271280
1.169500,13.596364,0.846132
1.170000,10.786667,21.909001
1.170500,9.381818,0.846132
1.171000,13.596364,5.058706
1.171500,9.381818,6.462897
1.172000,13.596364,6.462897
1.172500,24.835152,7.867089
1.173000,9.381818,7.867089
1.173500,6.572121,2.250323
1.174000,10.786667,3.654515
1.174500,15.001212,6.462897
1.175000,15.001212,5.058706
1.175500,15.001212,6.462897
1.176000,15.001212,3.654515
1.176500,15.001212,9.271280
1.177000,9.381818,7.867089
1.177500,12.191515,0.846132
1.178000,7.976970,3.654515
1.178500,5.167273,0.846132
1.179000,9.381818,2.250323
1.179500,15.001212,6.462897
1.180000,3.762424,5.058706
1.180500,19.215758,5.058706
1.181000,7.976970,6.462897
1.181500,15.001212,7.867089
1.182000,15.001212,3.654515
1.182500,13.596364,5.058706
1.183000,13.596364,6.462897
1.183500,12.191515,9.271280
1.184000,13.596364,10.675471
1.184500,12.191515,6.462897
1.185000,10.786667,9.271280
1.185500,13.596364,-0.558059
1.186000,10.786667,13.483854
1.186500,10.786667,21.909001
1.187000,15.001212,6.462897
1.187500,2.357576,7.867089
1.188000,12.191515,7.867089
1.188500,27.644848,5.058706
1.189000,10.786667,7.867089
1.189500,13.596364,6.462897
1.190000,15.001212,6.462897
1.190500,13.596364,6.462897
1.191000,12.191515,6.462897
1.191500,12.191515,7.867089
1.192000,12.191515,6.462897
1.192500,12.191515,6.462897
1.193000,15.001212,3.654515
1.193500,12.191515,-1.962250
1.194000,10.786667,20.504810
1.194500,12.191515,5.058706
1.195000,7.976970,13.483854
1.195500,0.952727,13.483854
1.196000,-1.856970,10.675471
1.196500,10.786667,10.675471
1.197000,7.976970,10.675471
1.197500,10.786667,14.888045
1.198000,12.191515,13.483854
1.198500,10.786667,7.867089
1.199000,13.596364,13.483854
1.199500,9.381818,17.696428
1.200000,10.786667,16.292236
1.200500,9.381818,10.675471
1.201000,12.191515,14.888045
1.201500,10.786667,3.654515
1.202000,15.001212,19.100619
1.202500,13.596364,27.525767
1.203000,15.001212,16.292236
1.203500,15.001212,10.675471
1.204000,13.596364,14.888045
1.204500,0.952727,17.696428
1.205000,9.381818,14.888045
1.205500,9.381818,19.100619
1.206000,13.596364,16.292236
1.206500,13.596364,17.696428
1.207000,12.191515,13.483854
1.207500,15.001212,16.292236
1.208000,10.786667,16.292236
1.208500,13.596364,14.888045
1.209000,15.001212,13.483854
1.209500,13.596364,10.675471
1.210000,12.191515,6.462897
1.210500,12.191515,10.675471
1.211000,10.786667,14.888045
1.211500,9.381818,19.100619
1.212000,13.596364,20.504810
1.212500,7.976970,17.696428
1.213000,7.976970,19.100619
1.213500,12.191515,17.696428
1.214000,12.191515,14.888045
1.214500,12.191515,14.888045
1.215000,13.596364,16.292236
1.215500,12.191515,13.483854
1.216000,12.191515,14.888045
1.216500,12.191515,16.292236
1.217000,12.191515,19.100619
1.217500,15.001212,14.888045
1.218000,17.810909,6.462897
1.218500,15.001212,6.462897
1.219000,12.191515,17.696428
1.219500,10.786667,13.483854
1.220000,3.762424,13.483854
1.220500,17.810909,16.292236
1.221000,26.240000,17.696428
1.221500,23.430303,17.696428
1.222000,12.191515,17.696428
1.222500,12.191515,16.292236
1.223000,10.786667,13.483854
1.223500,10.786667,19.100619
1.224000,12.191515,16.292236
1.224500,7.976970,14.888045
1.225000,10.786667,10.675471
1.225500,12.191515,16.292236
1.226000,12.191515,5.058706
1.226500,15.001212,26.121575
1.227000,12.191515,20.504810
1.227500,10.786667,28.929958
1.228000,10.786667,16.292236
1.228500,2.357576,17.696428
1.229000,5.167273,16.292236
1.229500,22.025455,16.292236
1.230000,10.786667,14.888045
1.230500,10.786667,13.483854
1.231000,7.976970,14.888045
1.231500,7.976970,16.292236
1.232000,12.191515,16.292236
1.232500,9.381818,16.292236
1.233000,9.381818,16.292236
1.233500,10.786667,16.292236
1.234000,12.191515,13.483854
1.234500,12.191515,5.058706
1.235000,16.406061,21.909001
1.235500,12.191515,23.313193
1.236000,15.001212,7.867089
1.236500,7.976970,10.675471
1.237000,3.762424,16.292236
1.237500,16.406061,14.888045
1.238000,23.430303,6.462897
1.238500,10.786667,16.292236
1.239000,5.167273,13.483854
1.239500,9.381818,16.292236
1.240000,9.381818,13.483854
1.240500,10.786667,13.483854
1.241000,10.786667,13.483854
1.241500,12.191515,13.483854
1.242000,9.381818,10.675471
1.242500,7.976970,9.271280
1.243000,10.786667,24.717384
1.243500,5.167273,17.696428
1.244000,7.976970,23.313193
1.244500,10.786667,7.867089
1.245000,-0.452121,14.888045
1.245500,9.381818,10.675471
1.246000,-0.452121,14.888045
1.246500,23.430303,14.888045
1.247000,5.167273,16.292236
1.247500,9.381818,14.888045
1.248000,10.786667,13.483854
1.248500,9.381818,13.483854
1.249000,9.381818,16.292236
1.249500,10.786667,16.292236
1.250000,9.381818,14.888045
1.250500,7.976970,14.888045
1.251000,10.786667,13.483854
1.251500,7.976970,3.654515
1.252000,9.381818,26.121575
1.252500,9.381818,16.292236
1.253000,5.167273,21.909001
1.253500,3.762424,16.292236
1.254000,-3.261818,16.292236
1.254500,20.620606,16.292236
1.255000,10.786667,17.696428
1.255500,-0.452121,16.292236
1.256000,3.762424,16.292236
1.256500,7.976970,17.696428
1.257000,7.976970,16.292236
1.257500,7.976970,17.696428
1.258000,7.976970,17.696428
1.258500,7.976970,17.696428
1.259000,10.786667,13.483854
1.259500,9.381818,10.675471
1.260000,5.167273,10.675471
1.260500,7.976970,30.334149
1.261000,10.786667,16.292236
1.261500,-4.666667,17.696428
1.262000,2.357576,14.888045
1.262500,6.572121,17.696428
1.263000,-3.261818,16.292236
1.263500,2.357576,16.292236
1.264000,3.762424,14.888045
1.264500,5.167273,13.483854
1.265000,2.357576,16.292236
1.265500,3.762424,14.888045
1.266000,2.357576,16.292236
1.266500,3.762424,16.292236
1.267000,6.572121,20.504810
1.267500,6.572121,21.909001
1.268000,9.381818,12.079662
1.268500,5.167273,30.334149
1.269000,2.357576,7.867089
1.269500,2.357576,17.696428
1.270000,-0.452121,16.292236
1.270500,19.215758,13.483854
1.271000,12.191515,14.888045
1.271500,19.215758,13.483854
1.272000,9.381818,13.483854
1.272500,9.381818,13.483854
1.273000,7.976970,14.888045
1.273500,7.976970,14.888045
1.274000,7.976970,10.675471
1.274500,9.381818,14.888045
1.275000,9.381818,7.867089
1.275500,10.786667,14.888045
1.276000,9.381818,12.079662
1.276500,7.976970,16.292236
1.277000,7.976970,21.909001
1.277500,10.786667,20.504810
1.278000,12.191515,10.675471
1.278500,0.952727,14.888045
1.279000,19.215758,13.483854
1.279500,5.167273,10.675471
1.280000,9.381818,10.675471
1.280500,10.786667,10.675471
1.281000,12.191515,10.675471
1.281500,12.191515,10.675471
1.282000,10.786667,14.888045
1.282500,10.786667,14.888045
1.283000,10.786667,14.888045
1.283500,6.572121,16.292236
1.284000,10.786667,10.675471
1.284500,10.786667,16.292236
1.285000,12.191515,9.271280
1.285500,12.191515,24.717384
1.286000,12.191515,10.675471
1.286500,12.191515,13.483854
1.287000,3.762424,10.675471
1.287500,23.430303,9.271280
1.288000,10.786667,9.271280
1.288500,10.786667,10.675471
1.289000,12.191515,9.271280
1.289500,13.596364,9.271280
1.290000,12.191515,10.675471
1.290500,9.381818,9.271280
1.291000,13.596364,10.675471
1.291500,12.191515,12.079662
1.292000,12.191515,9.271280
1.292500,12.191515,14.888045
1.293000,10.786667,3.654515
1.293500,9.381818,21.909001
1.294000,10.786667,7.867089
1.294500,12.191515,14.888045
1.295000,13.596364,9.271280
1.295500,13.596364,14.888045
1.296000,23.430303,13.483854
1.296500,7.976970,13.483854
1.297000,10.786667,10.675471
1.297500,10.786667,9.271280
1.298000,9.381818,13.483854
1.298500,10.786667,10.675471
1.299000,10.786667,9.271280
1.299500,7.976970,13.483854
1.300000,9.381818,13.483854
1.300500,3.762424,2.250323
1.301000,5.167273,17.696428
1.301500,5.167273,26.121575
1.302000,2.357576,6.462897
1.302500,5.167273,7.867089
1.303000,9.381818,10.675471
1.303500,23.430303,13.483854
1.304000,5.167273,13.483854
1.304500,0.952727,13.483854
1.305000,5.167273,12.079662
1.305500,7.976970,9.271280
1.306000,7.976970,13.483854
1.306500,9.381818,9.271280
1.307000,9.381818,12.079662
1.307500,10.786667,13.483854
1.308000,9.381818,10.675471
1.308500,9.381818,10.675471
1.309000,10.786667,3.654515
1.309500,10.786667,16.292236
1.310000,9.381818,5.058706
1.310500,12.191515,10.675471
1.311000,0.952727,10.675471
1.311500,3.762424,13.483854
1.312000,-0.452121,10.675471
1.312500,10.786667,10.675471
1.313000,9.381818,9.271280
1.313500,7.976970,9.271280
1.314000,5.167273,10.675471
1.314500,9.381818,10.675471
1.315000,6.572121,10.675471
1.315500,7.976970,10.675471
1.316000,5.167273,7.867089
1.316500,9.381818,13.483854
1.317000,5.167273,3.654515
1.317500,7.976970,6.462897
1.318000,5.167273,23.313193
1.318500,3.762424,16.292236
1.319000,9.381818,10.675471
1.319500,-3.261818,10.675471
1.320000,0.952727,9.271280
1.320500,22.025455,9.271280
1.321000,2.357576,10.675471
1.321500,3.762424,10.675471
1.322000,7.976970,9.271280
1.322500,3.762424,7.867089
1.323000,7.976970,7.867089
1.323500,5.167273,10.675471
1.324000,0.952727,10.675471
1.324500,3.762424,9.271280
1.325000,7.976970,6.462897
1.325500,9.381818,5.058706
1.326000,10.786667,23.313193
1.326500,9.381818,9.271280
1.327000,7.976970,9.271280
1.327500,-4.666667,9.271280
1.328000,9.381818,9.271280
1.328500,17.810909,10.675471
1.329000,5.167273,13.483854
1.329500,2.357576,9.271280
1.330000,3.762424,13.483854
1.330500,3.762424,13.483854
1.331000,7.976970,14.888045
1.331500,5.167273,16.292236
1.332000,3.762424,13.483854
1.332500,5.167273,14.888045
1.333000,9.381818,3.654515
1.333500,7.976970,23.313193
1.334000,7.976970,16.292236
1.334500,10.786667,23.313193
1.335000,-0.452121,9.271280
1.335500,-1.856970,6.462897
1.336000,7.976970,7.867089
1.336500,-0.452121,10.675471
1.337000,5.167273,10.675471
1.337500,7.976970,13.483854
1.338000,5.167273,10.675471
1.338500,3.762424,13.483854
1.339000,9.381818,9.271280
1.339500,10.786667,10.675471
1.340000,10.786667,7.867089
1.340500,9.381818,13.483854
1.341000,13.596364,-0.558059
1.341500,9.381818,17.696428
1.342000,12.191515,5.058706
1.342500,3.762424,7.867089
1.343000,7.976970,0.846132
1.343500,20.620606,9.271280
1.344000,9.381818,13.483854
1.344500,-1.856970,12.079662
1.345000,3.762424,10.675471
1.345500,3.762424,9.271280
1.346000,5.167273,10.675471
1.346500,0.952727,14.888045
1.347000,3.762424,9.271280
1.347500,2.357576,14.888045
1.348000,5.167273,10.675471
1.348500,2.357576,14.888045
1.349000,2.357576,3.654515
1.349500,0.952727,21.909001
1.350000,-0.452121,6.462897
1.350500,-8.881212,16.292236
1.351000,10.786667,16.292236
1.351500,16.406061,14.888045
1.352000,-4.666667,14.888045
1.352500,3.762424,16.292236
1.353000,5.167273,10.675471
1.353500,5.167273,10.675471
1.354000,5.167273,14.888045
1.354500,5.167273,17.696428
1.355000,7.976970,9.271280
1.355500,7.976970,10.675471
1.356000,6.572121,14.888045
1.356500,12.191515,10.675471
1.357000,6.572121,19.100619
1.357500,5.167273,5.058706
1.358000,5.167273,21.909001
1.358500,15.001212,9.271280
1.359000,15.001212,7.867089
1.359500,22.025455,9.271280
1.360000,2.357576,10.675471
1.360500,0.952727,10.675471
1.361000,3.762424,13.483854
1.361500,0.952727,14.888045
1.362000,0.952727,10.675471
1.362500,0.952727,10.675471
1.363000,2.357576,14.888045
1.363500,2.357576,6.462897
1.364000,3.762424,3.654515
1.364500,2.357576,20.504810
1.365000,5.167273,24.717384
1.365500,5.167273,10.675471
1.366000,-0.452121,14.888045
1.366500,-7.476364,16.292236
1.367000,13.596364,16.292236
1.367500,10.786667,14.888045
1.368000,17.810909,14.888045
1.368500,2.357576,16.292236
1.369000,2.357576,16.292236
1.369500,3.762424,16.292236
1.370000,2.357576,14.888045
1.370500,3.762424,14.888045
1.371000,2.357576,14.888045
1.371500,5.167273,17.696428
1.372000,5.167273,16.292236
1.372500,9.381818,10.675471
1.373000,10.786667,28.929958
1.373500,5.167273,7.867089
1.374000,0.952727,14.888045
1.374500,-0.452121,14.888045
1.375000,-4.666667,14.888045
1.375500,5.167273,13.483854
1.376000,9.381818,10.675471
1.376500,7.976970,13.483854
1.377000,7.976970,10.675471
1.377500,5.167273,14.888045
1.378000,0.952727,16.292236
1.378500,-0.452121,13.483854
1.379000,3.762424,13.483854
1.379500,0.952727,14.888045
1.380000,-1.856970,5.058706
1.380500,-0.452121,21.909001
1.381000,-1.856970,7.867089
1.381500,-4.666667,24.717384
1.382000,0.952727,9.271280
1.382500,12.191515,16.292236
1.383000,9.381818,17.696428
1.383500,-0.452121,19.100619
1.384000,-10.286061,20.504810
1.384500,-4.666667,16.292236
1.385000,-4.666667,17.696428
1.385500,-4.666667,13.483854
1.386000,-4.666667,14.888045
1.386500,-1.856970,13.483854
1.387000,-3.261818,14.888045
1.387500,-3.261818,17.696428
1.388000,-0.452121,13.483854
1.388500,-4.666667,20.504810
1.389000,-1.856970,10.675471
1.389500,-0.452121,5.058706
1.390000,-3.261818,3.654515
1.390500,0.952727,9.271280
1.391000,-1.856970,10.675471
1.391500,15.001212,7.867089
1.392000,10.786667,9.271280
1.392500,-3.261818,9.271280
1.393000,-3.261818,10.675471
1.393500,-1.856970,7.867089
1.394000,-3.261818,9.271280
1.394500,-0.452121,10.675471
1.395000,-4.666667,9.271280
1.395500,-3.261818,9.271280
1.396000,-4.666667,13.483854
1.396500,-1.856970,9.271280
1.397000,-4.666667,23.313193
1.397500,-1.856970,7.867089
1.398000,-1.856970,3.654515
1.398500,-13.095758,10.675471
1.399000,9.381818,9.271280
1.399500,-4.666667,9.271280
1.400000,12.191515,9.271280
1.400500,-1.856970,9.271280
1.401000,-0.452121,9.271280
1.401500,0.952727,9.271280
1.402000,-0.452121,9.271280
1.402500,0.952727,9.271280
1.403000,0.952727,9.271280
1.403500,-0.452121,6.462897
1.404000,0.952727,16.292236
1.404500,-1.856970,5.058706
1.405000,0.952727,9.271280
1.405500,0.952727,0.846132
1.406000,-0.452121,6.462897
1.406500,2.357576,6.462897
1.407000,2.357576,17.696428
1.407500,-6.071515,9.271280
1.408000,13.596364,6.462897
1.408500,0.952727,7.867089
1.409000,3.762424,9.271280
1.409500,3.762424,9.271280
1.410000,0.952727,10.675471
1.410500,0.952727,6.462897
1.411000,2.357576,9.271280
1.411500,0.952727,7.867089
1.412000,-0.452121,7.867089
1.412500,2.357576,13.483854
1.413000,2.357576,9.271280
1.413500,2.357576,6.462897
1.414000,-0.452121,23.313193
1.414500,5.167273,10.675471
1.415000,-3.261818,7.867089
1.415500,-8.881212,13.483854
1.416000,-7.476364,10.675471
1.416500,-6.071515,13.483854
1.417000,-0.452121,14.888045
1.417500,-1.856970,9.271280
1.418000,-0.452121,6.462897
1.418500,0.952727,7.867089
1.419000,2.357576,13.483854
1.419500,0.952727,9.271280
1.420000,0.952727,7.867089
1.420500,0.952727,13.483854
1.421000,0.952727,14.888045
1.421500,0.952727,20.504810
1.422000,-1.856970,21.909001
1.422500,-0.452121,5.058706
1.423000,-0.452121,13.483854
1.423500,-6.071515,13.483854
1.424000,-7.476364,10.675471
1.424500,13.596364,12.079662
1.425000,3.762424,7.867089
1.425500,2.357576,10.675471
1.426000,0.952727,9.271280
1.426500,0.952727,13.483854
1.427000,0.952727,9.271280
1.427500,0.952727,14.888045
1.428000,0.952727,9.271280
1.428500,0.952727,16.292236
1.429000,0.952727,17.696428
1.429500,0.952727,13.483854
1.430000,0.952727,6.462897
1.430500,3.762424,23.313193
1.431000,3.762424,17.696428
1.431500,5.167273,26.121575
1.432000,7.976970,10.675471
1.432500,-6.071515,13.483854
1.433000,9.381818,13.483854
1.433500,17.810909,10.675471
1.434000,-3.261818,13.483854
1.434500,7.976970,12.079662
1.435000,5.167273,13.483854
1.435500,5.167273,14.888045
1.436000,7.976970,10.675471
1.436500,5.167273,13.483854
1.437000,7.976970,10.675471
1.437500,5.167273,7.867089
1.438000,5.167273,10.675471
1.438500,7.976970,0.846132
1.439000,9.381818,20.504810
1.439500,9.381818,2.250323
1.440000,10.786667,10.675471
1.440500,2.357576,9.271280
1.441000,9.381818,7.867089
1.441500,5.167273,9.271280
1.442000,0.952727,7.867089
1.442500,3.762424,6.462897
1.443000,7.976970,5.058706
1.443500,7.976970,6.462897
1.444000,5.167273,7.867089
1.444500,6.572121,7.867089
1.445000,7.976970,6.462897
1.445500,9.381818,5.058706
1.446000,7.976970,9.271280
1.446500,9.381818,6.462897
1.447000,7.976970,6.462897
1.447500,7.976970,0.846132
1.448000,9.381818,20.504810
1.448500,9.381818,5.058706
1.449000,10.786667,9.271280
1.449500,5.167273,10.675471
1.450000,20.620606,10.675471
1.450500,0.952727,10.675471
1.451000,3.762424,10.675471
1.451500,-1.856970,16.292236
1.452000,7.976970,14.888045
1.452500,3.762424,14.888045
1.453000,9.381818,13.483854
1.453500,5.167273,10.675471
1.454000,9.381818,10.675471
1.454500,9.381818,7.867089
1.455000,7.976970,14.888045
1.455500,10.786667,9.271280
1.456000,10.786667,23.313193
1.456500,15.001212,6.462897
1.457000,15.001212,0.846132
1.457500,9.381818,3.654515
1.458000,3.762424,5.058706
1.458500,0.952727,6.462897
1.459000,22.025455,6.462897
1.459500,5.167273,9.271280
1.460000,9.381818,6.462897
1.460500,9.381818,6.462897
1.461000,9.381818,7.867089
1.461500,7.976970,9.271280
1.462000,7.976970,9.271280
1.462500,7.976970,9.271280
1.463000,10.786667,10.675471
1.463500,10.786667,10.675471
1.464000,7.976970,14.888045
1.464500,7.976970,6.462897
1.465000,9.381818,20.504810
1.465500,3.762424,2.250323
1.466000,10.786667,9.271280
1.466500,13.596364,5.058706
1.467000,3.762424,6.462897
1.467500,23.430303,9.271280
1.468000,3.762424,6.462897
1.468500,5.167273,10.675471
1.469000,9.381818,9.271280
1.469500,9.381818,9.271280
1.470000,10.786667,9.271280
1.470500,12.191515,9.271280
1.471000,10.786667,10.675471
1.471500,12.191515,12.079662
1.472000,12.191515,10.675471
1.472500,12.191515,0.846132
1.473000,10.786667,7.867089
1.473500,10.786667,0.846132
1.474000,7.976970,6.462897
1.474500,13.596364,2.250323
1.475000,0.952727,6.462897
1.475500,17.810909,7.867089
1.476000,3.762424,5.058706
1.476500,23.430303,6.462897
1.477000,5.167273,9.271280
1.477500,10.786667,6.462897
1.478000,9.381818,7.867089
1.478500,3.762424,9.271280
1.479000,7.976970,9.271280
1.479500,7.976970,10.675471
1.480000,9.381818,9.271280
1.480500,5.167273,13.483854
1.481000,9.381818,9.271280
1.481500,5.167273,2.250323
1.482000,7.976970,13.483854
1.482500,3.762424,0.846132
1.483000,7.976970,10.675471
1.483500,5.167273,13.483854
1.484000,12.191515,13.483854
1.484500,16.406061,10.675471
1.485000,19.215758,10.675471
1.485500,3.762424,10.675471
1.486000,7.976970,10.675471
1.486500,10.786667,12.079662
1.487000,12.191515,9.271280
1.487500,10.786667,9.271280
1.488000,10.786667,13.483854
1.488500,10.786667,13.483854
1.489000,10.786667,16.292236
1.489500,9.381818,9.271280
1.490000,12.191515,-1.962250
1.490500,12.191515,21.909001
1.491000,16.406061,7.867089
1.491500,16.406061,7.867089
1.492000,16.406061,10.675471
1.492500,3.762424,9.271280
1.493000,22.025455,10.675471
1.493500,5.167273,7.867089
1.494000,15.001212,9.271280
1.494500,10.786667,10.675471
1.495000,12.191515,7.867089
1.495500,15.001212,7.867089
1.496000,12.191515,6.462897
1.496500,15.001212,7.867089
1.497000,13.596364,7.867089
1.497500,15.001212,6.462897
1.498000,12.191515,10.675471
1.498500,15.001212,3.654515
1.499000,13.596364,23.313193
1.499500,9.381818,3.654515
1.500000,7.976970,13.483854
1.500500,5.167273,6.462897
1.501000,-1.856970,9.271280
1.501500,22.025455,7.867089
1.502000,16.406061,9.271280
1.502500,7.976970,7.867089
1.503000,10.786667,6.462897
1.503500,10.786667,10.675471
1.504000,7.976970,9.271280
1.504500,10.786667,10.675471
1.505000,3.762424,10.675471
1.505500,6.572121,9.271280
1.506000,5.167273,10.675471
1.506500,9.381818,9.271280
1.507000,10.786667,20.504810
1.507500,9.381818,21.909001
1.508000,5.167273,9.271280
1.508500,10.786667,3.654515
1.509000,-0.452121,9.271280
1.509500,22.025455,7.867089
1.510000,16.406061,9.271280
1.510500,20.620606,9.271280
1.511000,0.952727,10.675471
1.511500,6.572121,13.483854
1.512000,5.167273,9.271280
1.512500,5.167273,7.867089
1.513000,3.762424,9.271280
1.513500,3.762424,7.867089
1.514000,2.357576,6.462897
1.514500,3.762424,10.675471
1.515000,5.167273,12.079662
1.515500,3.762424,10.675471
1.516000,5.167273,5.058706
1.516500,0.952727,6.462897
1.517000,3.762424,19.100619
1.517500,0.952727,7.867089
1.518000,2.357576,9.271280
1.518500,19.215758,9.271280
1.519000,-1.856970,10.675471
1.519500,7.976970,9.271280
1.520000,5.167273,10.675471
1.520500,7.976970,7.867089
1.521000,5.167273,9.271280
1.521500,7.976970,9.271280
1.522000,3.762424,9.271280
1.522500,3.762424,9.271280
1.523000,0.952727,6.462897
1.523500,5.167273,-0.558059
1.524000,5.167273,12.079662
1.524500,3.762424,24.717384
1.525000,7.976970,3.654515
1.525500,-1.856970,10.675471
1.526000,0.952727,7.867089
1.526500,-4.666667,9.271280
1.527000,12.191515,7.867089
1.527500,-1.856970,7.867089
1.528000,3.762424,6.462897
1.528500,0.952727,7.867089
1.529000,7.976970,7.867089
1.529500,2.357576,10.675471
1.530000,3.762424,7.867089
1.530500,3.762424,7.867089
1.531000,3.762424,7.867089
1.531500,3.762424,13.483854
1.532000,5.167273,0.846132
1.532500,5.167273,7.867089
1.533000,2.357576,21.909001
1.533500,7.976970,7.867089
1.534000,-3.261818,13.483854
1.534500,-0.452121,10.675471
1.535000,-3.261818,7.867089
1.535500,-3.261818,9.271280
1.536000,5.167273,7.867089
1.536500,5.167273,6.462897
1.537000,5.167273,5.058706
1.537500,5.167273,6.462897
1.538000,0.952727,6.462897
1.538500,7.976970,7.867089
1.539000,5.167273,7.867089
1.539500,5.167273,12.079662
1.540000,2.357576,-0.558059
1.540500,2.357576,0.846132
1.541000,0.952727,6.462897
1.541500,2.357576,0.846132
1.542000,7.976970,5.058706
1.542500,-3.261818,6.462897
1.543000,-0.452121,9.271280
1.543500,19.215758,5.058706
1.544000,-3.261818,6.462897
1.544500,5.167273,6.462897
1.545000,-1.856970,7.867089
1.545500,0.952727,6.462897
1.546000,2.357576,6.462897
1.546500,5.167273,6.462897
1.547000,3.762424,7.867089
1.547500,2.357576,6.462897
1.548000,7.976970,9.271280
1.548500,3.762424,0.846132
1.549000,5.167273,9.271280
1.549500,3.762424,2.250323
1.550000,0.952727,24.717384
1.550500,7.976970,6.462897
1.551000,-1.856970,9.271280
1.551500,13.596364,6.462897
1.552000,-0.452121,6.462897
1.552500,5.167273,7.867089
1.553000,9.381818,6.462897
1.553500,7.976970,7.867089
1.554000,7.976970,7.867089
1.554500,5.167273,7.867089
1.555000,7.976970,13.483854
1.555500,7.976970,7.867089
1.556000,7.976970,3.654515
1.556500,5.167273,6.462897
1.557000,3.762424,2.250323
1.557500,7.976970,-0.558059
1.558000,12.191515,3.654515
1.558500,10.786667,6.462897
1.559000,-0.452121,3.654515
1.559500,10.786667,5.058706
1.560000,-0.452121,5.058706
1.560500,-3.261818,5.058706
1.561000,3.762424,5.058706
1.561500,3.762424,7.867089
1.562000,7.976970,7.867089
1.562500,7.976970,5.058706
1.563000,7.976970,10.675471
1.563500,7.976970,-0.558059
1.564000,9.381818,2.250323
1.564500,5.167273,-1.962250
1.565000,2.357576,2.250323
1.565500,7.976970,0.846132
1.566000,7.976970,6.462897
1.566500,22.025455,6.462897
1.567000,9.381818,2.250323
1.567500,3.762424,6.462897
1.568000,10.786667,6.462897
1.568500,3.762424,6.462897
1.569000,12.191515,6.462897
1.569500,10.786667,5.058706
1.570000,12.191515,5.058706
1.570500,10.786667,7.867089
1.571000,12.191515,5.058706
1.571500,10.786667,9.271280
1.572000,9.381818,-0.558059
1.572500,10.786667,0.846132
1.573000,10.786667,16.292236
1.573500,10.786667,20.504810
1.574000,15.001212,5.058706
1.574500,13.596364,5.058706
1.575000,2.357576,3.654515
1.575500,13.596364,5.058706
1.576000,5.167273,5.058706
1.576500,9.381818,7.867089
1.577000,10.786667,6.462897
1.577500,12.191515,5.058706
1.578000,10.786667,7.867089
1.578500,12.191515,9.271280
1.579000,9.381818,6.462897
1.579500,13.596364,7.867089
1.580000,10.786667,9.271280
1.580500,12.191515,6.462897
1.581000,12.191515,6.462897
1.581500,15.001212,0.846132
1.582000,12.191515,9.271280
1.582500,12.191515,0.846132
1.583000,15.001212,6.462897
1.583500,15.001212,17.696428
1.584000,12.191515,9.271280
1.584500,3.762424,13.483854
1.585000,16.406061,13.483854
1.585500,2.357576,13.483854
1.586000,10.786667,9.271280
1.586500,13.596364,9.271280
1.587000,13.596364,6.462897
1.587500,13.596364,7.867089
1.588000,12.191515,6.462897
1.588500,12.191515,7.867089
1.589000,10.786667,6.462897
1.589500,12.191515,13.483854
1.590000,13.596364,7.867089
1.590500,15.001212,14.888045
1.591000,13.596364,19.100619
1.591500,15.001212,5.058706
1.592000,10.786667,17.696428
1.592500,15.001212,2.250323
1.593000,5.167273,9.271280
1.593500,-0.452121,6.462897
1.594000,5.167273,9.271280
1.594500,0.952727,10.675471
1.595000,2.357576,7.867089
1.595500,-1.856970,10.675471
1.596000,13.596364,9.271280
1.596500,13.596364,5.058706
1.597000,13.596364,6.462897
1.597500,15.001212,6.462897
1.598000,15.001212,2.250323
1.598500,15.001212,5.058706
1.599000,16.406061,6.462897
1.599500,17.810909,7.867089
1.600000,17.810909,0.846132
1.600500,17.810909,2.250323
1.601000,16.406061,2.250323
1.601500,20.620606,5.058706
1.602000,15.001212,3.654515
1.602500,30.454545,5.058706
1.603000,24.835152,3.654515
1.603500,10.786667,5.058706
1.604000,16.406061,5.058706
1.604500,15.001212,9.271280
1.605000,19.215758,6.462897
1.605500,19.215758,5.058706
1.606000,20.620606,2.250323
1.606500,19.215758,5.058706
1.607000,22.025455,6.462897
1.607500,20.620606,9.271280
1.608000,19.215758,5.058706
1.608500,20.620606,-1.962250
1.609000,22.025455,9.271280
1.609500,16.406061,0.846132
1.610000,23.430303,5.058706
1.610500,17.810909,5.058706
1.611000,22.025455,6.462897
1.611500,27.644848,6.462897
1.612000,12.191515,6.462897
1.612500,16.406061,9.271280
1.613000,17.810909,7.867089
1.613500,16.406061,7.867089
1.614000,20.620606,9.271280
1.614500,20.620606,9.271280
1.615000,17.810909,9.271280
1.615500,19.215758,9.271280
1.616000,19.215758,7.867089
1.616500,15.001212,16.292236
1.617000,17.810909,10.675471
1.617500,17.810909,2.250323
1.618000,16.406061,16.292236
1.618500,13.596364,6.462897
1.619000,13.596364,9.271280
1.619500,19.215758,10.675471
1.620000,13.596364,10.675471
1.620500,27.644848,10.675471
1.621000,17.810909,14.888045
1.621500,2.357576,17.696428
1.622000,16.406061,16.292236
1.622500,0.952727,14.888045
1.623000,12.191515,13.483854
1.623500,10.786667,12.079662
1.624000,10.786667,9.271280
1.624500,10.786667,13.483854
1.625000,10.786667,12.079662
1.625500,12.191515,10.675471
1.626000,7.976970,13.483854
1.626500,7.976970,10.675471
1.627000,5.167273,14.888045
1.627500,9.381818,2.250323
1.628000,7.976970,13.483854
1.628500,9.381818,5.058706
1.629000,12.191515,7.867089
1.629500,10.786667,9.271280
1.630000,22.025455,9.271280
1.630500,19.215758,9.271280
1.631000,0.952727,13.483854
1.631500,5.167273,14.888045
1.632000,5.167273,10.675471
1.632500,7.976970,14.888045
1.633000,3.762424,9.271280
1.633500,5.167273,14.888045
1.634000,9.381818,10.675471
1.634500,12.191515,6.462897
1.635000,7.976970,14.888045
1.635500,10.786667,3.654515
1.636000,9.381818,13.483854
1.636500,12.191515,3.654515
1.637000,7.976970,20.504810
1.637500,3.762424,7.867089
1.638000,0.952727,14.888045
1.638500,-4.666667,12.079662
1.639000,0.952727,13.483854
1.639500,0.952727,13.483854
1.640000,7.976970,9.271280
1.640500,9.381818,12.079662
1.641000,10.786667,14.888045
1.641500,9.381818,7.867089
1.642000,7.976970,10.675471
1.642500,10.786667,14.888045
1.643000,12.191515,14.888045
1.643500,9.381818,10.675471
1.644000,9.381818,14.888045
1.644500,10.786667,2.250323
1.645000,10.786667,27.525767
1.645500,10.786667,24.717384
1.646000,13.596364,5.058706
1.646500,9.381818,13.483854
1.647000,10.786667,14.888045
1.647500,26.240000,14.888045
1.648000,13.596364,16.292236
1.648500,3.762424,14.888045
1.649000,7.976970,14.888045
1.649500,10.786667,13.483854
1.650000,10.786667,16.292236
1.650500,10.786667,17.696428
1.651000,10.786667,13.483854
1.651500,15.001212,14.888045
1.652000,10.786667,13.483854
1.652500,15.001212,10.675471
1.653000,10.786667,13.483854
1.653500,12.191515,5.058706
1.654000,13.596364,13.483854
1.654500,13.596364,7.867089
1.655000,16.406061,13.483854
1.655500,16.406061,10.675471
1.656000,16.406061,13.483854
1.656500,3.762424,10.675471
1.657000,9.381818,13.483854
1.657500,9.381818,13.483854
1.658000,12.191515,10.675471
1.658500,12.191515,13.483854
1.659000,13.596364,9.271280
1.659500,10.786667,13.483854
1.660000,12.191515,14.888045
1.660500,12.191515,12.079662
1.661000,10.786667,13.483854
1.661500,10.786667,5.058706
1.662000,9.381818,9.271280
1.662500,12.191515,24.717384
1.663000,12.191515,7.867089
1.663500,10.786667,13.483854
1.664000,12.191515,12.079662
1.664500,10.786667,10.675471
1.665000,7.976970,16.292236
1.665500,-0.452121,14.888045
1.666000,7.976970,14.888045
1.666500,-1.856970,17.696428
1.667000,2.357576,13.483854
1.667500,5.167273,14.888045
1.668000,5.167273,14.888045
1.668500,5.167273,14.888045
1.669000,3.762424,14.888045
1.669500,9.381818,13.483854
1.670000,9.381818,7.867089
1.670500,10.786667,14.888045
1.671000,9.381818,10.675471
1.671500,10.786667,23.313193
1.672000,5.167273,9.271280
1.672500,5.167273,3.654515
1.673000,6.572121,7.867089
1.673500,17.810909,6.462897
1.674000,13.596364,9.271280
1.674500,20.620606,7.867089
1.675000,15.001212,9.271280
1.675500,-1.856970,7.867089
1.676000,5.167273,9.271280
1.676500,7.976970,10.675471
1.677000,5.167273,10.675471
1.677500,7.976970,9.271280
1.678000,6.572121,10.675471
1.678500,3.762424,13.483854
1.679000,7.976970,9.271280
1.679500,5.167273,2.250323
1.680000,3.762424,19.100619
1.680500,5.167273,21.909001
1.681000,10.786667,23.313193
1.681500,10.786667,13.483854
1.682000,0.952727,12.079662
1.682500,-3.261818,7.867089
1.683000,15.001212,13.483854
1.683500,0.952727,14.888045
1.684000,7.976970,13.483854
1.684500,9.381818,14.888045
1.685000,7.976970,13.483854
1.685500,9.381818,10.675471
1.686000,10.786667,13.483854
1.686500,9.381818,10.675471
1.687000,9.381818,14.888045
1.687500,9.381818,10.675471
1.688000,9.381818,5.058706
1.688500,6.572121,2.250323
1.689000,5.167273,14.888045
1.689500,3.762424,6.462897
1.690000,12.191515,14.888045
1.690500,13.596364,14.888045
1.691000,17.810909,10.675471
1.691500,22.025455,13.483854
1.692000,5.167273,13.483854
1.692500,9.381818,14.888045
1.693000,5.167273,16.292236
1.693500,9.381818,17.696428
1.694000,5.167273,16.292236
1.694500,7.976970,16.292236
1.695000,5.167273,17.696428
1.695500,7.976970,16.292236
1.696000,7.976970,16.292236
1.696500,9.381818,19.100619
1.697000,5.167273,13.483854
1.697500,6.572121,31.738340
1.698000,3.762424,13.483854
1.698500,-0.452121,14.888045
1.699000,-4.666667,16.292236
1.699500,0.952727,16.292236
1.700000,-1.856970,17.696428
1.700500,-0.452121,13.483854
1.701000,-0.452121,14.888045
1.701500,7.976970,17.696428
1.702000,3.762424,14.888045
1.702500,7.976970,14.888045
1.703000,3.762424,17.696428
1.703500,9.381818,16.292236
1.704000,7.976970,16.292236
1.704500,5.167273,16.292236
1.705000,2.357576,20.504810
1.705500,3.762424,13.483854
1.706000,2.357576,6.462897
1.706500,0.952727,10.675471
1.707000,0.952727,19.100619
1.707500,0.952727,14.888045
1.708000,-6.071515,9.271280
1.708500,9.381818,7.867089
1.709000,23.430303,9.271280
1.709500,9.381818,12.079662
1.710000,10.786667,14.888045
1.710500,7.976970,16.292236
1.711000,7.976970,16.292236
1.711500,7.976970,14.888045
1.712000,5.167273,16.292236
1.712500,9.381818,13.483854
1.713000,7.976970,10.675471
1.713500,5.167273,14.888045
1.714000,3.762424,10.675471
1.714500,3.762424,23.313193
1.715000,0.952727,23.313193
1.715500,3.762424,23.313193
1.716000,0.952727,20.504810
1.716500,5.167273,13.483854
1.717000,5.167273,13.483854
1.717500,-0.452121,14.888045
1.718000,13.596364,13.483854
1.718500,10.786667,13.483854
1.719000,-6.071515,14.888045
1.719500,0.952727,10.675471
1.720000,3.762424,10.675471
1.720500,0.952727,13.483854
1.721000,5.167273,16.292236
1.721500,0.952727,10.675471
1.722000,2.357576,14.888045
1.722500,2.357576,6.462897
1.723000,2.357576,14.888045
1.723500,3.762424,10.675471
1.724000,2.357576,26.121575
1.724500,5.167273,6.462897
1.725000,2.357576,20.504810
1.725500,2.357576,2.250323
1.726000,-4.666667,10.675471
1.726500,0.952727,9.271280
1.727000,-6.071515,13.483854
1.727500,12.191515,13.483854
1.728000,3.762424,13.483854
1.728500,3.762424,13.483854
1.729000,5.167273,9.271280
1.729500,7.976970,9.271280
1.730000,5.167273,7.867089
1.730500,5.167273,13.483854
1.731000,5.167273,10.675471
1.731500,3.762424,7.867089
1.732000,3.762424,16.292236
1.732500,5.167273,13.483854
1.733000,3.762424,3.654515
1.733500,2.357576,10.675471
1.734000,2.357576,7.867089
1.734500,2.357576,6.462897
1.735000,0.952727,14.888045
1.735500,5.167273,6.462897
1.736000,-4.666667,10.675471
1.736500,20.620606,7.867089
1.737000,3.762424,13.483854
1.737500,3.762424,6.462897
1.738000,3.762424,9.271280
1.738500,5.167273,10.675471
1.739000,5.167273,13.483854
1.739500,5.167273,13.483854
1.740000,7.976970,9.271280
1.740500,0.952727,10.675471
1.741000,0.952727,9.271280
1.741500,3.762424,3.654515
1.742000,3.762424,3.654515
1.742500,3.762424,5.058706
1.743000,3.762424,21.909001
1.743500,7.976970,6.462897
1.744000,-0.452121,10.675471
1.744500,7.976970,3.654515
1.745000,13.596364,10.675471
1.745500,9.381818,10.675471
1.746000,-6.071515,10.675471
1.746500,2.357576,7.867089
1.747000,2.357576,9.271280
1.747500,3.762424,13.483854
1.748000,3.762424,10.675471
1.748500,0.952727,13.483854
1.749000,2.357576,16.292236
1.749500,2.357576,16.292236
1.750000,2.357576,17.696428
1.750500,0.952727,6.462897
1.751000,0.952727,14.888045
1.751500,-0.452121,6.462897
1.752000,7.976970,14.888045
1.752500,0.952727,14.888045
1.753000,3.762424,16.292236
1.753500,17.810909,13.483854
1.754000,5.167273,13.483854
1.754500,-3.261818,10.675471
1.755000,2.357576,9.271280
1.755500,2.357576,13.483854
1.756000,7.976970,9.271280
1.756500,5.167273,7.867089
1.757000,7.976970,7.867089
1.757500,10.786667,9.271280
1.758000,7.976970,2.250323
1.758500,9.381818,7.867089
1.759000,7.976970,-0.558059
1.759500,9.381818,21.909001
1.760000,10.786667,7.867089
1.760500,9.381818,5.058706
1.761000,0.952727,9.271280
1.761500,19.215758,9.271280
1.762000,15.001212,9.271280
1.762500,15.001212,10.675471
1.763000,3.762424,6.462897
1.763500,0.952727,9.271280
1.764000,2.357576,10.675471
1.764500,0.952727,7.867089
1.765000,0.952727,10.675471
1.765500,0.952727,13.483854
1.766000,0.952727,9.271280
1.766500,2.357576,17.696428
1.767000,0.952727,7.867089
1.767500,-1.856970,5.058706
1.768000,0.952727,5.058706
1.768500,0.952727,13.483854
1.769000,0.952727,5.058706
1.769500,10.786667,9.271280
1.770000,10.786667,9.271280
1.770500,20.620606,10.675471
1.771000,17.810909,7.867089
1.771500,7.976970,7.867089
1.772000,3.762424,9.271280
1.772500,5.167273,9.271280
1.773000,3.762424,7.867089
1.773500,2.357576,10.675471
1.774000,3.762424,6.462897
1.774500,7.976970,10.675471
1.775000,7.976970,6.462897
1.775500,5.167273,10.675471
1.776000,7.976970,3.654515
1.776500,2.357576,9.271280
1.777000,2.357576,-0.558059
1.777500,2.357576,7.867089
1.778000,3.762424,6.462897
1.778500,-6.071515,7.867089
1.779000,-7.476364,10.675471
1.779500,-3.261818,7.867089
1.780000,-0.452121,9.271280
1.780500,0.952727,10.675471
1.781000,2.357576,9.271280
1.781500,-1.856970,13.483854
1.782000,0.952727,9.271280
1.782500,0.952727,9.271280
1.783000,-0.452121,10.675471
1.783500,0.952727,2.250323
1.784000,-0.452121,14.888045
1.784500,0.952727,20.504810
1.785000,-0.452121,0.846132
1.785500,-10.286061,14.888045
1.786000,12.191515,13.483854
1.786500,2.357576,10.675471
1.787000,13.596364,13.483854
1.787500,-0.452121,13.483854
1.788000,2.357576,13.483854
1.788500,0.952727,9.271280
1.789000,0.952727,10.675471
1.789500,3.762424,7.867089
1.790000,0.952727,9.271280
1.790500,-0.452121,7.867089
1.791000,-0.452121,7.867089
1.791500,-0.452121,14.888045
1.792000,0.952727,10.675471
1.792500,0.952727,24.717384
1.793000,0.952727,10.675471
1.793500,-6.071515,9.271280
1.794000,-6.071515,10.675471
1.794500,-8.881212,13.483854
1.795000,2.357576,13.483854
1.795500,0.952727,9.271280
1.796000,-0.452121,9.271280
1.796500,5.167273,9.271280
1.797000,5.167273,10.675471
1.797500,5.167273,10.675471
1.798000,3.762424,9.271280
1.798500,3.762424,10.675471
1.799000,2.357576,13.483854
1.799500,0.952727,14.888045
1.800000,2.357576,10.675471
1.800500,3.762424,28.929958
1.801000,-0.452121,10.675471
1.801500,0.952727,5.058706
1.802000,3.762424,9.271280
1.802500,9.381818,9.271280
1.803000,16.406061,6.462897
1.803500,0.952727,9.271280
1.804000,-1.856970,10.675471
1.804500,-6.071515,13.483854
1.805000,-0.452121,13.483854
1.805500,0.952727,10.675471
1.806000,-0.452121,13.483854
1.806500,2.357576,10.675471
1.807000,0.952727,13.483854
1.807500,0.952727,9.271280
1.808000,0.952727,10.675471
1.808500,0.952727,2.250323
1.809000,0.952727,3.654515
1.809500,-0.452121,3.654515
1.810000,2.357576,7.867089
1.810500,3.762424,9.271280
1.811000,-4.666667,13.483854
1.811500,-10.286061,16.292236
1.812000,9.381818,12.079662
1.812500,-8.881212,13.483854
1.813000,-1.856970,17.696428
1.813500,0.952727,14.888045
1.814000,-1.856970,16.292236
1.814500,0.952727,16.292236
1.815000,0.952727,19.100619
1.815500,-0.452121,14.888045
1.816000,0.952727,16.292236
1.816500,0.952727,10.675471
1.817000,-0.452121,17.696428
1.817500,-0.452121,17.696428
1.818000,-1.856970,28.929958
1.818500,2.357576,19.100619
1.819000,0.952727,16.292236
1.819500,-8.881212,16.292236
1.820000,2.357576,16.292236
1.820500,17.810909,14.888045
1.821000,2.357576,19.100619
1.821500,3.762424,17.696428
1.822000,3.762424,19.100619
1.822500,5.167273,19.100619
1.823000,0.952727,17.696428
1.823500,5.167273,20.504810
1.824000,2.357576,19.100619
1.824500,5.167273,19.100619
1.825000,3.762424,14.888045
1.825500,5.167273,19.100619
1.826000,3.762424,6.462897
1.826500,2.357576,28.929958
1.827000,0.952727,26.121575
1.827500,2.357576,19.100619
1.828000,-6.071515,19.100619
1.828500,-0.452121,20.504810
1.829000,-7.476364,20.504810
1.829500,-3.261818,19.100619
1.830000,3.762424,19.100619
1.830500,7.976970,17.696428
1.831000,6.572121,19.100619
1.831500,5.167273,17.696428
1.832000,3.762424,17.696428
1.832500,7.976970,20.504810
1.833000,2.357576,16.292236
1.833500,2.357576,19.100619
1.834000,2.357576,16.292236
1.834500,3.762424,14.888045
1.835000,2.357576,6.462897
1.835500,7.976970,24.717384
1.836000,5.167273,28.929958
1.836500,9.381818,13.483854
1.837000,5.167273,16.292236
1.837500,-1.856970,14.888045
1.838000,5.167273,16.292236
1.838500,-1.856970,17.696428
1.839000,3.762424,16.292236
1.839500,5.167273,19.100619
1.840000,5.167273,16.292236
1.840500,7.976970,14.888045
1.841000,9.381818,17.696428
1.841500,7.976970,16.292236
1.842000,9.381818,14.888045
1.842500,12.191515,16.292236
1.843000,5.167273,10.675471
1.843500,3.762424,16.292236
1.844000,7.976970,6.462897
1.844500,9.381818,24.717384
1.845000,3.762424,23.313193
1.845500,0.952727,6.462897
1.846000,3.762424,12.079662
1.846500,-0.452121,13.483854
1.847000,19.215758,13.483854
1.847500,0.952727,13.483854
1.848000,6.572121,10.675471
1.848500,6.572121,10.675471
1.849000,3.762424,10.675471
1.849500,3.762424,10.675471
1.850000,2.357576,10.675471
1.850500,2.357576,14.888045
1.851000,0.952727,10.675471
1.851500,0.952727,13.483854
1.852000,3.762424,14.888045
1.852500,5.167273,16.292236
1.853000,3.762424,13.483854
1.853500,5.167273,5.058706
1.854000,0.952727,14.888045
1.854500,5.167273,7.867089
1.855000,-0.452121,13.483854
1.855500,17.810909,16.292236
1.856000,-0.452121,10.675471
1.856500,0.952727,14.888045
1.857000,2.357576,13.483854
1.857500,2.357576,10.675471
1.858000,0.952727,10.675471
1.858500,3.762424,14.888045
1.859000,0.952727,10.675471
1.859500,2.357576,12.079662
1.860000,2.357576,10.675471
1.860500,0.952727,9.271280
1.861000,-1.856970,27.525767
1.861500,0.952727,13.483854
1.862000,-0.452121,6.462897
1.862500,-1.856970,10.675471
1.863000,5.167273,10.675471
1.863500,15.001212,13.483854
1.864000,-3.261818,13.483854
1.864500,-7.476364,9.271280
1.865000,-4.666667,7.867089
1.865500,-1.856970,13.483854
1.866000,-0.452121,10.675471
1.866500,-4.666667,13.483854
1.867000,-1.856970,14.888045
1.867500,-1.856970,13.483854
1.868000,-0.452121,13.483854
1.868500,2.357576,9.271280
1.869000,0.952727,13.483854
1.869500,3.762424,3.654515
1.870000,3.762424,21.909001
1.870500,0.952727,9.271280
1.871000,-0.452121,27.525767
1.871500,2.357576,13.483854
1.872000,3.762424,13.483854
1.872500,12.191515,13.483854
1.873000,-7.476364,13.483854
1.873500,-1.856970,16.292236
1.874000,-1.856970,9.271280
1.874500,-0.452121,13.483854
1.875000,-0.452121,9.271280
1.875500,-0.452121,10.675471
1.876000,-0.452121,13.483854
1.876500,-0.452121,12.079662
1.877000,-0.452121,16.292236
1.877500,-0.452121,5.058706
1.878000,-3.261818,2.250323
1.878500,-4.666667,23.313193
1.879000,-1.856970,7.867089
1.879500,-3.261818,13.483854
1.880000,-0.452121,13.483854
1.880500,-4.666667,13.483854
1.881000,-10.286061,14.888045
1.881500,7.976970,13.483854
1.882000,-8.881212,14.888045
1.882500,-1.856970,10.675471
1.883000,-0.452121,10.675471
1.883500,0.952727,9.271280
1.884000,0.952727,10.675471
1.884500,0.952727,13.483854
1.885000,-4.666667,10.675471
1.885500,-0.452121,7.867089
1.886000,0.952727,12.079662
1.886500,2.357576,9.271280
1.887000,9.381818,-0.558059
1.887500,5.167273,17.696428
1.888000,5.167273,0.846132
1.888500,7.976970,0.846132
1.889000,-0.452121,5.058706
1.889500,16.406061,3.654515
1.890000,0.952727,6.462897
1.890500,3.762424,5.058706
1.891000,3.762424,3.654515
1.891500,2.357576,3.654515
1.892000,3.762424,6.462897
1.892500,5.167273,3.654515
1.893000,3.762424,2.250323
1.893500,2.357576,6.462897
1.894000,0.952727,2.250323
1.894500,2.357576,3.654515
1.895000,2.357576,-4.770633
1.895500,2.357576,7.867089
1.896000,5.167273,19.100619
1.896500,2.357576,17.696428
1.897000,5.167273,14.888045
1.897500,7.976970,5.058706
1.898000,-4.666667,6.462897
1.898500,16.406061,6.462897
1.899000,-0.452121,7.867089
1.899500,17.810909,5.058706
1.900000,-3.261818,7.867089
1.900500,5.167273,6.462897
1.901000,3.762424,7.867089
1.901500,3.762424,6.462897
1.902000,0.952727,6.462897
1.902500,5.167273,6.462897
1.903000,7.976970,9.271280
1.903500,5.167273,9.271280
1.904000,6.572121,10.675471
1.904500,3.762424,0.846132
1.905000,6.572121,14.888045
1.905500,2.357576,2.250323
1.906000,3.762424,3.654515
1.906500,-1.856970,5.058706
1.907000,16.406061,2.250323
1.907500,13.596364,5.058706
1.908000,19.215758,5.058706
1.908500,7.976970,3.654515
1.909000,7.976970,5.058706
1.909500,3.762424,6.462897
1.910000,0.952727,5.058706
1.910500,3.762424,6.462897
1.911000,2.357576,7.867089
1.911500,0.952727,6.462897
1.912000,2.357576,9.271280
1.912500,3.762424,2.250323
1.913000,0.952727,0.846132
1.913500,-0.452121,21.909001
1.914000,0.952727,10.675471
1.914500,-1.856970,23.313193
1.915000,3.762424,7.867089
1.915500,-7.476364,9.271280
1.916000,-10.286061,12.079662
1.916500,-7.476364,10.675471
1.917000,-8.881212,9.271280
1.917500,-7.476364,13.483854
1.918000,-3.261818,10.675471
1.918500,-3.261818,10.675471
1.919000,-3.261818,9.271280
1.919500,-0.452121,10.675471
1.920000,0.952727,9.271280
1.920500,-1.856970,9.271280
1.921000,-0.452121,13.483854
1.921500,-0.452121,2.250323
1.922000,-1.856970,2.250323
1.922500,-0.452121,3.654515
1.923000,-3.261818,5.058706
1.923500,-4.666667,9.271280
1.924000,0.952727,7.867089
1.924500,-4.666667,7.867089
1.925000,-13.095758,6.462897
1.925500,-4.666667,6.462897
1.926000,-4.666667,6.462897
1.926500,-6.071515,9.271280
1.927000,-3.261818,6.462897
1.927500,-3.261818,9.271280
1.928000,-4.666667,5.058706
1.928500,-4.666667,5.058706
1.929000,-1.856970,5.058706
1.929500,-4.666667,5.058706
1.930000,-3.261818,10.675471
1.930500,-6.071515,2.250323
1.931000,-6.071515,0.846132
1.931500,-7.476364,0.846132
1.932000,-11.690909,7.867089
1.932500,-6.071515,3.654515
1.933000,-4.666667,9.271280
1.933500,-13.095758,7.867089
1.934000,3.762424,10.675471
1.934500,-11.690909,9.271280
1.935000,-1.856970,7.867089
1.935500,-3.261818,10.675471
1.936000,-4.666667,6.462897
1.936500,-4.666667,9.271280
1.937000,-6.071515,6.462897
1.937500,-8.881212,9.271280
1.938000,-7.476364,9.271280
1.938500,-6.071515,7.867089
1.939000,-7.476364,9.271280
1.939500,-7.476364,0.846132
1.940000,-6.071515,16.292236
1.940500,-6.071515,24.717384
1.941000,-3.261818,7.867089
1.941500,-6.071515,6.462897
1.942000,-14.500606,10.675471
1.942500,-11.690909,7.867089
1.943000,-11.690909,9.271280
1.943500,-11.690909,9.271280
1.944000,-4.666667,9.271280
1.944500,-8.881212,6.462897
1.945000,-7.476364,7.867089
1.945500,-4.666667,10.675471
1.946000,-4.666667,9.271280
1.946500,-3.261818,9.271280
1.947000,-4.666667,6.462897
1.947500,-4.666667,5.058706
1.948000,-3.261818,-1.962250
1.948500,-0.452121,13.483854
1.949000,-1.856970,21.909001
1.949500,2.357576,6.462897
1.950000,-8.881212,6.462897
1.950500,-4.666667,6.462897
1.951000,-13.095758,9.271280
1.951500,0.952727,7.867089
1.952000,-10.286061,7.867089
1.952500,-1.856970,6.462897
1.953000,-6.071515,6.462897
1.953500,-4.666667,6.462897
1.954000,-3.261818,6.462897
1.954500,-3.261818,6.462897
1.955000,-3.261818,5.058706
1.955500,-1.856970,7.867089
1.956000,-3.261818,5.058706
1.956500,-0.452121,5.058706
1.957000,0.952727,-1.962250
1.957500,0.952727,13.483854
1.958000,3.762424,17.696428
1.958500,9.381818,-6.174824
1.959000,-4.666667,5.058706
1.959500,-0.452121,3.654515
1.960000,-4.666667,3.654515
1.960500,-1.856970,0.846132
1.961000,-6.071515,3.654515
1.961500,-0.452121,5.058706
1.962000,0.952727,5.058706
1.962500,0.952727,5.058706
1.963000,0.952727,5.058706
1.963500,0.952727,3.654515
1.964000,0.952727,7.867089
1.964500,-1.856970,6.462897
1.965000,0.952727,17.696428
1.965500,3.762424,16.292236
1.966000,0.952727,9.271280
1.966500,-3.261818,-3.366442
1.967000,-10.286061,3.654515
1.967500,-3.261818,6.462897
1.968000,13.596364,6.462897
1.968500,3.762424,5.058706
1.969000,-7.476364,2.250323
1.969500,0.952727,2.250323
1.970000,-1.856970,2.250323
1.970500,-0.452121,5.058706
1.971000,-1.856970,5.058706
1.971500,-0.452121,5.058706
1.972000,-1.856970,5.058706
1.972500,0.952727,2.250323
1.973000,-1.856970,-4.770633
1.973500,-0.452121,0.846132
1.974000,3.762424,19.100619
1.974500,-0.452121,6.462897
1.975000,2.357576,-3.366442
1.975500,-6.071515,5.058706
1.976000,-4.666667,3.654515
1.976500,16.406061,3.654515
1.977000,3.762424,6.462897
1.977500,16.406061,5.058706
1.978000,-0.452121,5.058706
1.978500,-0.452121,7.867089
1.979000,0.952727,5.058706
1.979500,0.952727,3.654515
1.980000,0.952727,6.462897
1.980500,-3.261818,6.462897
1.981000,0.952727,6.462897
1.981500,-3.261818,7.867089
1.982000,-4.666667,13.483854
1.982500,-1.856970,17.696428
1.983000,-4.666667,21.909001
1.983500,-4.666667,5.058706
1.984000,-4.666667,5.058706
1.984500,-13.095758,10.675471
1.985000,5.167273,10.675471
1.985500,0.952727,10.675471
1.986000,13.596364,7.867089
1.986500,-0.452121,7.867089
1.987000,-0.452121,6.462897
1.987500,0.952727,10.675471
1.988000,-3.261818,10.675471
1.988500,-4.666667,9.271280
1.989000,-4.666667,9.271280
1.989500,-4.666667,9.271280
1.990000,-1.856970,7.867089
1.990500,-1.856970,-1.962250
1.991000,-0.452121,7.867089
1.991500,-1.856970,-0.558059
1.992000,2.357576,6.462897
1.992500,0.952727,6.462897
1.993000,-8.881212,9.271280
1.993500,9.381818,9.271280
1.994000,-7.476364,9.271280
1.994500,-3.261818,10.675471
1.995000,-4.666667,13.483854
1.995500,-0.452121,9.271280
1.996000,-0.452121,9.271280
1.996500,-1.856970,9.271280
1.997000,-0.452121,9.271280
1.997500,-1.856970,7.867089
1.998000,-4.666667,13.483854
1.998500,-3.261818,6.462897
1.999000,-3.261818,23.313193
1.999500,-6.071515,16.292236
2.000000,-4.666667,3.654515
2.000500,-1.856970,7.867089
2.001000,-4.666667,7.867089
2.001500,13.596364,13.483854
2.002000,-7.476364,6.462897
2.002500,-0.452121,2.250323
2.003000,-10.286061,6.462897
2.003500,-3.261818,5.058706
2.004000,-1.856970,5.058706
2.004500,-3.261818,6.462897
2.005000,-4.666667,6.462897
2.005500,-4.666667,5.058706
2.006000,-6.071515,12.079662
2.006500,-8.881212,-0.558059
2.007000,-6.071515,7.867089
2.007500,-8.881212,2.250323
2.008000,-6.071515,5.058706
2.008500,-3.261818,6.462897
2.009000,-17.310303,5.058706
2.009500,-4.666667,5.058706
2.010000,-14.500606,6.462897
2.010500,-7.476364,5.058706
2.011000,-7.476364,5.058706
2.011500,-8.881212,3.654515
2.012000,-7.476364,6.462897
2.012500,-7.476364,5.058706
2.013000,-7.476364,6.462897
2.013500,-7.476364,5.058706
2.014000,-7.476364,-4.770633
2.014500,-8.881212,17.696428
2.015000,-7.476364,3.654515
2.015500,-13.095758,6.462897
2.016000,-7.476364,6.462897
2.016500,-18.715152,5.058706
2.017000,-3.261818,6.462897
2.017500,-15.905455,6.462897
2.018000,-10.286061,6.462897
2.018500,-14.500606,6.462897
2.019000,-11.690909,6.462897
2.019500,-11.690909,3.654515
2.020000,-10.286061,3.654515
2.020500,-10.286061,6.462897
2.021000,-10.286061,-3.366442
2.021500,-13.095758,0.846132
2.022000,-10.286061,-1.962250
2.022500,-8.881212,16.292236
2.023000,-6.071515,3.654515
2.023500,-11.690909,-0.558059
2.024000,-6.071515,2.250323
2.024500,-14.500606,0.846132
2.025000,-8.881212,3.654515
2.025500,-7.476364,0.846132
2.026000,-8.881212,0.846132
2.026500,-8.881212,-0.558059
2.027000,-8.881212,3.654515
2.027500,-10.286061,2.250323
2.028000,-8.881212,0.846132
2.028500,-11.690909,2.250323
2.029000,-11.690909,2.250323
2.029500,-8.881212,-4.770633
2.030000,-7.476364,-3.366442
2.030500,-11.690909,0.846132
2.031000,-7.476364,0.846132
2.031500,-7.476364,3.654515
2.032000,-14.500606,0.846132
2.032500,-8.881212,2.250323
2.033000,-13.095758,0.846132
2.033500,-8.881212,5.058706
2.034000,-10.286061,3.654515
2.034500,-10.286061,5.058706
2.035000,-10.286061,5.058706
2.035500,-7.476364,3.654515
2.036000,-7.476364,0.846132
2.036500,-10.286061,-1.962250
2.037000,-8.881212,-6.174824
2.037500,-7.476364,14.888045
2.038000,-10.286061,2.250323
2.038500,-10.286061,14.888045
2.039000,-4.666667,3.654515
2.039500,-17.310303,0.846132
2.040000,-4.666667,2.250323
2.040500,-11.690909,0.846132
2.041000,-13.095758,0.846132
2.041500,-4.666667,0.846132
2.042000,-6.071515,2.250323
2.042500,-4.666667,0.846132
2.043000,-4.666667,0.846132
2.043500,-6.071515,3.654515
2.044000,-6.071515,6.462897
2.044500,-8.881212,-1.962250
2.045000,-7.476364,6.462897
2.045500,-6.071515,-4.770633
2.046000,-8.881212,16.292236
2.046500,-7.476364,0.846132
2.047000,-4.666667,3.654515
2.047500,-15.905455,2.250323
2.048000,5.167273,3.654515
2.048500,-13.095758,5.058706
2.049000,-11.690909,5.058706
2.049500,-7.476364,2.250323
2.050000,-6.071515,6.462897
2.050500,-10.286061,6.462897
2.051000,-7.476364,6.462897
2.051500,-4.666667,6.462897
2.052000,-3.261818,6.462897
2.052500,-6.071515,5.058706
2.053000,-6.071515,6.462897
2.053500,-4.666667,-3.366442
2.054000,-6.071515,-3.366442
2.054500,-3.261818,3.654515
2.055000,-3.261818,2.250323
2.055500,-7.476364,3.654515
2.056000,-14.500606,5.058706
2.056500,3.762424,3.654515
2.057000,-10.286061,3.654515
2.057500,-8.881212,3.654515
2.058000,-6.071515,3.654515
2.058500,-6.071515,3.654515
2.059000,-6.071515,3.654515
2.059500,-3.261818,3.654515
2.060000,-7.476364,2.250323
2.060500,-4.666667,3.654515
2.061000,-8.881212,3.654515
2.061500,-7.476364,5.058706
2.062000,-6.071515,14.888045
2.062500,-7.476364,9.271280
2.063000,-6.071515,-3.366442
2.063500,-17.310303,0.846132
2.064000,-4.666667,2.250323
2.064500,3.762424,3.654515
2.065000,-15.905455,5.058706
2.065500,-10.286061,5.058706
2.066000,-8.881212,6.462897
2.066500,-7.476364,5.058706
2.067000,-8.881212,5.058706
2.067500,-8.881212,5.058706
2.068000,-8.881212,3.654515
2.068500,-10.286061,5.058706
2.069000,-10.286061,5.058706
2.069500,-7.476364,-6.174824
2.070000,-10.286061,6.462897
2.070500,-7.476364,-3.366442
2.071000,-6.071515,3.654515
2.071500,-6.071515,5.058706
2.072000,-6.071515,5.058706
2.072500,-17.310303,5.058706
2.073000,-15.905455,5.058706
2.073500,-10.286061,3.654515
2.074000,-11.690909,0.846132
2.074500,-11.690909,2.250323
2.075000,-10.286061,3.654515
2.075500,-11.690909,3.654515
2.076000,-11.690909,3.654515
2.076500,-11.690909,7.867089
2.077000,-11.690909,-1.962250
2.077500,-11.690909,-0.558059
2.078000,-15.905455,-1.962250
2.078500,-10.286061,2.250323
2.079000,-17.310303,0.846132
2.079500,-20.120000,2.250323
2.080000,0.952727,2.250323
2.080500,-15.905455,0.846132
2.081000,-11.690909,2.250323
2.081500,-11.690909,2.250323
2.082000,-11.690909,5.058706
2.082500,-14.500606,3.654515
2.083000,-15.905455,3.654515
2.083500,-15.905455,3.654515
2.084000,-20.120000,7.867089
2.084500,-14.500606,5.058706
2.085000,-13.095758,-0.558059
2.085500,-13.095758,6.462897
2.086000,-11.690909,-4.770633
2.086500,-7.476364,2.250323
2.087000,-3.261818,0.846132
2.087500,-3.261818,0.846132
2.088000,-18.715152,-1.962250
2.088500,-11.690909,-0.558059
2.089000,-13.095758,-0.558059
2.089500,-11.690909,0.846132
2.090000,-11.690909,0.846132
2.090500,-11.690909,0.846132
2.091000,-13.095758,-1.962250
2.091500,-11.690909,2.250323
2.092000,-8.881212,-3.366442
2.092500,-10.286061,-6.174824
2.093000,-13.095758,-0.558059
2.093500,-8.881212,2.250323
2.094000,-10.286061,2.250323
2.094500,-20.120000,5.058706
2.095000,-13.095758,2.250323
2.095500,-14.500606,3.654515
2.096000,-11.690909,2.250323
2.096500,-11.690909,0.846132
2.097000,-11.690909,2.250323
2.097500,-10.286061,2.250323
2.098000,-13.095758,5.058706
2.098500,-14.500606,0.846132
2.099000,-13.095758,7.867089
2.099500,-15.905455,3.654515
2.100000,-13.095758,-3.366442
2.100500,-14.500606,5.058706
2.101000,-11.690909,-0.558059
2.101500,-7.476364,3.654515
2.102000,0.952727,2.250323
2.102500,-3.261818,5.058706
2.103000,2.357576,5.058706
2.103500,-11.690909,6.462897
2.104000,-11.690909,5.058706
2.104500,-11.690909,5.058706
2.105000,-13.095758,6.462897
2.105500,-13.095758,6.462897
2.106000,-13.095758,3.654515
2.106500,-11.690909,6.462897
2.107000,-14.500606,2.250323
2.107500,-11.690909,-4.770633
2.108000,-15.905455,16.292236
2.108500,-13.095758,0.846132
2.109000,-15.905455,3.654515
2.109500,-22.929697,5.058706
2.110000,-20.120000,3.654515
2.110500,-17.310303,3.654515
2.111000,-15.905455,0.846132
2.111500,-15.905455,5.058706
2.112000,-15.905455,5.058706
2.112500,-18.715152,5.058706
2.113000,-14.500606,3.654515
2.113500,-17.310303,3.654515
2.114000,-17.310303,-3.366442
2.114500,-14.500606,17.696428
2.115000,-15.905455,7.867089
2.115500,-17.310303,-1.962250
2.116000,-27.144242,3.654515
2.116500,-7.476364,2.250323
2.117000,-15.905455,3.654515
2.117500,-25.739394,3.654515
2.118000,-18.715152,3.654515
2.118500,-17.310303,2.250323
2.119000,-18.715152,3.654515
2.119500,-15.905455,5.058706
2.120000,-15.905455,0.846132
2.120500,-18.715152,5.058706
2.121000,-17.310303,0.846132
2.121500,-17.310303,-4.770633
2.122000,-18.715152,-0.558059
2.122500,-11.690909,-1.962250
2.123000,-11.690909,0.846132
2.123500,-22.929697,0.846132
2.124000,-15.905455,0.846132
2.124500,-20.120000,0.846132
