	Time	Channel 1	Channel 2	Channel 3	Channel 4
0	0.0	9.29358974359	-0.579310344828	-2.98	22.4122137405
1	0.0005	14.9807692308	0.872413793103	-7.36	20.9977099237
2	0.001	14.9807692308	19.7448275862	-1.52	19.5832061069
3	0.0015	12.1371794872	-0.579310344828	-2.98	18.1687022901
4	0.002	12.1371794872	-2.03103448276	-2.98	15.3396946565
5	0.0025	14.9807692308	13.9379310345	2.86	33.7282442748
6	0.003	9.29358974359	8.13103448276	-2.98	22.4122137405
7	0.0035	12.1371794872	-15.0965517241	-1.52	19.5832061069
8	0.004	3.60641025641	-6.38620689655	-1.52	15.3396946565
9	0.0045	10.7153846154	-0.579310344828	-2.98	20.9977099237
10	0.005	10.7153846154	-3.48275862069	-1.52	22.4122137405
11	0.0055	13.558974359	-13.6448275862	-1.52	20.9977099237
12	0.006	-2.08076923077	-2.03103448276	-1.52	19.5832061069
13	0.0065	26.3551282051	-3.48275862069	-2.98	22.4122137405
14	0.007	9.29358974359	-4.93448275862	-1.52	8.26717557252
15	0.0075	9.29358974359	-3.48275862069	-1.52	19.5832061069
16	0.008	5.02820512821	-3.48275862069	-2.98	19.5832061069
17	0.0085	7.87179487179	-13.6448275862	1.4	20.9977099237
18	0.009	2.18461538462	-2.03103448276	-1.52	20.9977099237
19	0.0095	5.02820512821	-2.03103448276	-0.06	18.1687022901
20	0.01	13.558974359	-0.579310344828	-0.06	16.7541984733
21	0.0105	3.60641025641	-3.48275862069	-2.98	19.5832061069
22	0.011	10.7153846154	-3.48275862069	-11.74	20.9977099237
23	0.0115	9.29358974359	-6.38620689655	20.38	20.9977099237
24	0.012	7.87179487179	-12.1931034483	-1.52	18.1687022901
25	0.0125	5.02820512821	11.0344827586	-1.52	20.9977099237
26	0.013	3.60641025641	-3.48275862069	-1.52	20.9977099237
27	0.0135	3.60641025641	-2.03103448276	-2.98	20.9977099237
28	0.014	9.29358974359	-3.48275862069	-1.52	20.9977099237
29	0.0145	7.87179487179	-3.48275862069	-10.28	20.9977099237
30	0.015	7.87179487179	-2.03103448276	-8.82	20.9977099237
31	0.0155	5.02820512821	0.872413793103	-2.98	20.9977099237
32	0.016	5.02820512821	-7.83793103448	-1.52	20.9977099237
33	0.0165	-0.658974358974	0.872413793103	-2.98	20.9977099237
34	0.017	26.3551282051	-0.579310344828	-1.52	8.26717557252
35	0.0175	9.29358974359	-0.579310344828	-2.98	35.1427480916
36	0.018	10.7153846154	0.872413793103	-4.44	15.3396946565
37	0.0185	2.18461538462	-0.579310344828	13.08	16.7541984733
38	0.019	5.02820512821	-10.7413793103	-1.52	20.9977099237
39	0.0195	12.1371794872	11.0344827586	1.4	20.9977099237
40	0.02	10.7153846154	-2.03103448276	-2.98	22.4122137405
41	0.0205	2.18461538462	-0.579310344828	-0.06	19.5832061069
42	0.021	12.1371794872	-3.48275862069	-2.98	39.386259542
43	0.0215	10.7153846154	-0.579310344828	-1.52	23.8267175573
44	0.022	14.9807692308	-2.03103448276	2.86	23.8267175573
45	0.0225	13.558974359	-9.28965517241	-2.98	26.6557251908
46	0.023	14.9807692308	-7.83793103448	-1.52	25.241221374
47	0.0235	14.9807692308	-2.03103448276	-1.52	26.6557251908
48	0.024	3.60641025641	0.872413793103	-1.52	25.241221374
49	0.0245	16.4025641026	-0.579310344828	-1.52	23.8267175573
50	0.025	14.9807692308	-0.579310344828	-2.98	23.8267175573
51	0.0255	13.558974359	0.872413793103	-1.52	22.4122137405
52	0.026	13.558974359	3.77586206897	-2.98	20.9977099237
53	0.0265	14.9807692308	-10.7413793103	1.4	22.4122137405
54	0.027	9.29358974359	-2.03103448276	-0.06	22.4122137405
55	0.0275	-3.50256410256	-4.93448275862	-1.52	20.9977099237
56	0.028	26.3551282051	0.872413793103	-1.52	15.3396946565
57	0.0285	7.87179487179	-0.579310344828	-1.52	37.9717557252
58	0.029	5.02820512821	0.872413793103	7.24	23.8267175573
59	0.0295	5.02820512821	0.872413793103	-7.36	25.241221374
60	0.03	5.02820512821	-7.83793103448	-2.98	26.6557251908
61	0.0305	10.7153846154	-4.93448275862	-1.52	25.241221374
62	0.031	12.1371794872	-0.579310344828	-2.98	25.241221374
63	0.0315	-0.658974358974	-2.03103448276	-1.52	22.4122137405
64	0.032	9.29358974359	-2.03103448276	-2.98	16.7541984733
65	0.0325	7.87179487179	-0.579310344828	2.86	22.4122137405
66	0.033	7.87179487179	-3.48275862069	2.86	23.8267175573
67	0.0335	5.02820512821	16.8413793103	-1.52	22.4122137405
68	0.034	9.29358974359	-9.28965517241	-1.52	22.4122137405
69	0.0345	10.7153846154	-2.03103448276	1.4	20.9977099237
70	0.035	3.60641025641	-0.579310344828	-2.98	16.7541984733
71	0.0355	13.558974359	0.872413793103	-1.52	19.5832061069
72	0.036	7.87179487179	-0.579310344828	-10.28	19.5832061069
73	0.0365	10.7153846154	2.32413793103	-4.44	16.7541984733
74	0.037	3.60641025641	2.32413793103	-2.98	16.7541984733
75	0.0375	3.60641025641	-13.6448275862	-1.52	16.7541984733
76	0.038	9.29358974359	-2.03103448276	-1.52	16.7541984733
77	0.0385	-10.6115384615	-0.579310344828	-0.06	15.3396946565
78	0.039	17.8243589744	-0.579310344828	-1.52	8.26717557252
79	0.0395	2.18461538462	0.872413793103	-1.52	32.313740458
80	0.04	0.762820512821	-0.579310344828	-4.44	12.5106870229
81	0.0405	2.18461538462	0.872413793103	-2.98	19.5832061069
82	0.041	0.762820512821	-10.7413793103	1.4	19.5832061069
83	0.0415	9.29358974359	18.2931034483	-0.06	20.9977099237
84	0.042	-6.34615384615	-0.579310344828	-1.52	20.9977099237
85	0.0425	19.2461538462	-2.03103448276	-1.52	16.7541984733
86	0.043	-2.08076923077	-0.579310344828	-0.06	28.0702290076
87	0.0435	7.87179487179	-2.03103448276	-11.74	18.1687022901
88	0.044	5.02820512821	3.77586206897	-0.06	16.7541984733
89	0.0445	9.29358974359	-12.1931034483	-1.52	16.7541984733
90	0.045	6.45	-7.83793103448	-0.06	18.1687022901
91	0.0455	0.762820512821	-3.48275862069	-0.06	18.1687022901
92	0.046	3.60641025641	-4.93448275862	-2.98	9.68167938931
93	0.0465	0.762820512821	0.872413793103	-0.06	25.241221374
94	0.047	5.02820512821	-2.03103448276	4.32	20.9977099237
95	0.0475	7.87179487179	-2.03103448276	-4.44	20.9977099237
96	0.048	9.29358974359	3.77586206897	-0.06	19.5832061069
97	0.0485	7.87179487179	16.8413793103	-2.98	16.7541984733
98	0.049	5.02820512821	-7.83793103448	-1.52	19.5832061069
99	0.0495	16.4025641026	-0.579310344828	1.4	13.9251908397
100	0.05	0.762820512821	-2.03103448276	-1.52	13.9251908397
101	0.0505	2.18461538462	0.872413793103	-8.82	11.0961832061
102	0.051	6.45	-0.579310344828	17.46	15.3396946565
103	0.0515	3.60641025641	-2.03103448276	-1.52	8.26717557252
104	0.052	7.87179487179	-4.93448275862	-2.98	6.85267175573
105	0.0525	10.7153846154	-4.93448275862	1.4	5.43816793893
106	0.053	-4.92435897436	-3.48275862069	2.86	-0.219847328244
107	0.0535	23.5115384615	-3.48275862069	-1.52	-4.46335877863
108	0.054	7.87179487179	-0.579310344828	-2.98	-1.63435114504
109	0.0545	9.29358974359	-2.03103448276	2.86	-0.219847328244
110	0.055	7.87179487179	-3.48275862069	-2.98	-4.46335877863
111	0.0555	7.87179487179	-16.5482758621	1.4	-0.219847328244
112	0.056	6.45	18.2931034483	-1.52	-1.63435114504
113	0.0565	12.1371794872	-3.48275862069	-0.06	-3.04885496183
114	0.057	17.8243589744	-3.48275862069	-0.06	-11.5358778626
115	0.0575	10.7153846154	0.872413793103	-1.52	4.02366412214
116	0.058	12.1371794872	-3.48275862069	-0.06	-12.9503816794
117	0.0585	12.1371794872	-2.03103448276	-2.98	-3.04885496183
118	0.059	12.1371794872	-12.1931034483	-0.06	-4.46335877863
119	0.0595	7.87179487179	-6.38620689655	1.4	-4.46335877863
120	0.06	12.1371794872	-4.93448275862	-1.52	-3.04885496183
121	0.0605	10.7153846154	-0.579310344828	-1.52	-7.29236641221
122	0.061	12.1371794872	-3.48275862069	-0.06	-0.219847328244
123	0.0615	10.7153846154	-2.03103448276	-11.74	-11.5358778626
124	0.062	12.1371794872	-3.48275862069	-4.44	18.1687022901
125	0.0625	10.7153846154	-4.93448275862	-1.52	1.19465648855
126	0.063	10.7153846154	-0.579310344828	1.4	-0.219847328244
127	0.0635	14.9807692308	-0.579310344828	-1.52	-3.04885496183
128	0.064	29.1987179487	-2.03103448276	-0.06	4.02366412214
129	0.0645	12.1371794872	-3.48275862069	1.4	-7.29236641221
130	0.065	10.7153846154	0.872413793103	-4.44	1.19465648855
131	0.0655	12.1371794872	-0.579310344828	7.24	5.43816793893
132	0.066	12.1371794872	2.32413793103	-0.06	5.43816793893
133	0.0665	10.7153846154	-6.38620689655	-1.52	6.85267175573
134	0.067	16.4025641026	-4.93448275862	-1.52	5.43816793893
135	0.0675	29.1987179487	-0.579310344828	-0.06	8.26717557252
136	0.068	2.18461538462	-3.48275862069	-2.98	20.9977099237
137	0.0685	9.29358974359	-4.93448275862	-5.9	4.02366412214
138	0.069	9.29358974359	-3.48275862069	8.7	9.68167938931
139	0.0695	9.29358974359	-16.5482758621	-1.52	8.26717557252
140	0.07	13.558974359	16.8413793103	1.4	9.68167938931
141	0.0705	10.7153846154	-3.48275862069	-0.06	13.9251908397
142	0.071	17.8243589744	-2.03103448276	-0.06	8.26717557252
143	0.0715	7.87179487179	-0.579310344828	1.4	4.02366412214
144	0.072	12.1371794872	-2.03103448276	-13.2	9.68167938931
145	0.0725	12.1371794872	0.872413793103	17.46	8.26717557252
146	0.073	10.7153846154	-6.38620689655	-1.52	6.85267175573
147	0.0735	12.1371794872	-7.83793103448	1.4	6.85267175573
148	0.074	14.9807692308	-2.03103448276	-1.52	6.85267175573
149	0.0745	27.7769230769	-0.579310344828	-0.06	8.26717557252
150	0.075	0.762820512821	-0.579310344828	-0.06	23.8267175573
151	0.0755	10.7153846154	-0.579310344828	4.32	4.02366412214
152	0.076	10.7153846154	-0.579310344828	-0.06	5.43816793893
153	0.0765	10.7153846154	0.872413793103	-2.98	4.02366412214
154	0.077	10.7153846154	15.3896551724	-2.98	5.43816793893
155	0.0775	10.7153846154	-9.28965517241	-1.52	8.26717557252
156	0.078	16.4025641026	-2.03103448276	-1.52	-1.63435114504
157	0.0785	10.7153846154	-3.48275862069	-1.52	25.241221374
158	0.079	10.7153846154	-0.579310344828	4.32	4.02366412214
159	0.0795	5.02820512821	-3.48275862069	-7.36	4.02366412214
160	0.08	7.87179487179	-0.579310344828	-1.52	2.60916030534
161	0.0805	7.87179487179	2.32413793103	-1.52	4.02366412214
162	0.081	13.558974359	-2.03103448276	-0.06	2.60916030534
163	0.0815	0.762820512821	-2.03103448276	-0.06	-0.219847328244
164	0.082	12.1371794872	-2.03103448276	-0.06	-3.04885496183
165	0.0825	12.1371794872	-3.48275862069	17.46	-3.04885496183
166	0.083	7.87179487179	-6.38620689655	-5.9	-0.219847328244
167	0.0835	5.02820512821	-2.03103448276	-1.52	1.19465648855
168	0.084	5.02820512821	8.13103448276	-1.52	-1.63435114504
169	0.0845	7.87179487179	-6.38620689655	-1.52	2.60916030534
170	0.085	3.60641025641	-0.579310344828	1.4	-10.1213740458
171	0.0855	3.60641025641	-4.93448275862	-1.52	-10.1213740458
172	0.086	7.87179487179	-2.03103448276	-7.36	-0.219847328244
173	0.0865	5.02820512821	-0.579310344828	13.08	-0.219847328244
174	0.087	3.60641025641	-2.03103448276	-0.06	2.60916030534
175	0.0875	9.29358974359	11.0344827586	-2.98	2.60916030534
176	0.088	10.7153846154	-2.03103448276	-0.06	1.19465648855
177	0.0885	-4.92435897436	-2.03103448276	-0.06	4.02366412214
178	0.089	16.4025641026	0.872413793103	-0.06	5.43816793893
179	0.0895	7.87179487179	-2.03103448276	-8.82	2.60916030534
180	0.09	3.60641025641	-2.03103448276	-7.36	4.02366412214
181	0.0905	5.02820512821	2.32413793103	1.4	2.60916030534
182	0.091	10.7153846154	0.872413793103	2.86	2.60916030534
183	0.0915	5.02820512821	-2.03103448276	1.4	5.43816793893
184	0.092	26.3551282051	-0.579310344828	1.4	1.19465648855
185	0.0925	-2.08076923077	-0.579310344828	-0.06	5.43816793893
186	0.093	9.29358974359	0.872413793103	-0.06	-4.46335877863
187	0.0935	7.87179487179	-2.03103448276	2.86	2.60916030534
188	0.094	7.87179487179	-9.28965517241	-1.52	1.19465648855
189	0.0945	7.87179487179	15.3896551724	1.4	2.60916030534
190	0.095	3.60641025641	-0.579310344828	-0.06	1.19465648855
191	0.0955	-4.92435897436	-0.579310344828	-1.52	-0.219847328244
192	0.096	7.87179487179	-0.579310344828	1.4	1.19465648855
193	0.0965	5.02820512821	-0.579310344828	-5.9	1.19465648855
194	0.097	5.02820512821	0.872413793103	-0.06	-0.219847328244
195	0.0975	9.29358974359	3.77586206897	-1.52	1.19465648855
196	0.098	9.29358974359	18.2931034483	-0.06	2.60916030534
197	0.0985	7.87179487179	-2.03103448276	2.86	4.02366412214
198	0.099	5.02820512821	-2.03103448276	-1.52	5.43816793893
199	0.0995	16.4025641026	-0.579310344828	-0.06	-1.63435114504
200	0.1	7.87179487179	-2.03103448276	-11.74	1.19465648855
201	0.1005	7.87179487179	2.32413793103	17.46	6.85267175573
202	0.101	10.7153846154	-3.48275862069	1.4	6.85267175573
203	0.1015	7.87179487179	-6.38620689655	1.4	6.85267175573
204	0.102	7.87179487179	5.2275862069	1.4	5.43816793893
205	0.1025	14.9807692308	-4.93448275862	-0.06	6.85267175573
206	0.103	7.87179487179	-2.03103448276	1.4	15.3396946565
207	0.1035	12.1371794872	-2.03103448276	2.86	-0.219847328244
208	0.104	9.29358974359	-2.03103448276	-10.28	4.02366412214
209	0.1045	7.87179487179	0.872413793103	-7.36	8.26717557252
210	0.105	9.29358974359	18.2931034483	-1.52	6.85267175573
211	0.1055	12.1371794872	-10.7413793103	1.4	1.19465648855
212	0.106	9.29358974359	-0.579310344828	-0.06	1.19465648855
213	0.1065	7.87179487179	-2.03103448276	2.86	-0.219847328244
214	0.107	3.60641025641	-0.579310344828	-2.98	-0.219847328244
215	0.1075	10.7153846154	-2.03103448276	2.86	2.60916030534
216	0.108	14.9807692308	-3.48275862069	-4.44	-0.219847328244
217	0.1085	9.29358974359	2.32413793103	-0.06	1.19465648855
218	0.109	12.1371794872	19.7448275862	1.4	1.19465648855
219	0.1095	9.29358974359	-6.38620689655	-1.52	2.60916030534
220	0.11	16.4025641026	-0.579310344828	-0.06	-1.63435114504
221	0.1105	7.87179487179	-4.93448275862	-1.52	-7.29236641221
222	0.111	10.7153846154	-0.579310344828	2.86	5.43816793893
223	0.1115	10.7153846154	-0.579310344828	-8.82	-0.219847328244
224	0.112	13.558974359	-2.03103448276	2.86	-1.63435114504
225	0.1125	13.558974359	2.32413793103	-2.98	-1.63435114504
226	0.113	16.4025641026	-3.48275862069	-1.52	1.19465648855
227	0.1135	0.762820512821	0.872413793103	1.4	4.02366412214
228	0.114	2.18461538462	-0.579310344828	1.4	-8.70687022901
229	0.1145	14.9807692308	-0.579310344828	-1.52	2.60916030534
230	0.115	16.4025641026	-0.579310344828	5.78	1.19465648855
231	0.1155	14.9807692308	2.32413793103	-0.06	-0.219847328244
232	0.116	16.4025641026	18.2931034483	1.4	-0.219847328244
233	0.1165	17.8243589744	0.872413793103	1.4	-0.219847328244
234	0.117	5.02820512821	-0.579310344828	-1.52	1.19465648855
235	0.1175	26.3551282051	0.872413793103	1.4	-0.219847328244
236	0.118	14.9807692308	-2.03103448276	-4.44	-1.63435114504
237	0.1185	12.1371794872	-0.579310344828	-0.06	-0.219847328244
238	0.119	12.1371794872	2.32413793103	-2.98	-0.219847328244
239	0.1195	17.8243589744	-12.1931034483	1.4	-1.63435114504
240	0.12	17.8243589744	-0.579310344828	-0.06	-0.219847328244
241	0.1205	-0.658974358974	-0.579310344828	-1.52	-1.63435114504
242	0.121	13.558974359	-3.48275862069	-5.9	15.3396946565
243	0.1215	13.558974359	-2.03103448276	1.4	15.3396946565
244	0.122	14.9807692308	-2.03103448276	17.46	-0.219847328244
245	0.1225	16.4025641026	-0.579310344828	-7.36	-1.63435114504
246	0.123	13.558974359	0.872413793103	-7.36	-4.46335877863
247	0.1235	14.9807692308	0.872413793103	1.4	-3.04885496183
248	0.124	0.762820512821	-0.579310344828	1.4	-7.29236641221
249	0.1245	30.6205128205	-0.579310344828	1.4	-12.9503816794
250	0.125	14.9807692308	-3.48275862069	-0.06	9.68167938931
251	0.1255	14.9807692308	-0.579310344828	2.86	9.68167938931
252	0.126	17.8243589744	0.872413793103	-2.98	-7.29236641221
253	0.1265	12.1371794872	-3.48275862069	-2.98	-4.46335877863
254	0.127	14.9807692308	15.3896551724	-0.06	-5.87786259542
255	0.1275	0.762820512821	-3.48275862069	-1.52	-5.87786259542
256	0.128	23.5115384615	-2.03103448276	1.4	-0.219847328244
257	0.1285	12.1371794872	0.872413793103	4.32	-3.04885496183
258	0.129	12.1371794872	0.872413793103	-11.74	-1.63435114504
259	0.1295	14.9807692308	0.872413793103	-2.98	-1.63435114504
260	0.13	13.558974359	16.8413793103	-1.52	-0.219847328244
261	0.1305	14.9807692308	-7.83793103448	2.86	-0.219847328244
262	0.131	13.558974359	11.0344827586	-0.06	-0.219847328244
263	0.1315	5.02820512821	0.872413793103	1.4	4.02366412214
264	0.132	12.1371794872	-2.03103448276	4.32	-4.46335877863
265	0.1325	12.1371794872	-2.03103448276	20.38	-0.219847328244
266	0.133	13.558974359	-2.03103448276	-7.36	1.19465648855
267	0.1335	13.558974359	-6.38620689655	-0.06	-0.219847328244
268	0.134	9.29358974359	2.32413793103	-0.06	1.19465648855
269	0.1345	13.558974359	-0.579310344828	2.86	-0.219847328244
270	0.135	5.02820512821	-0.579310344828	4.32	16.7541984733
271	0.1355	10.7153846154	-4.93448275862	-0.06	-7.29236641221
272	0.136	12.1371794872	-2.03103448276	-0.06	4.02366412214
273	0.1365	10.7153846154	-2.03103448276	-4.44	2.60916030534
274	0.137	10.7153846154	-10.7413793103	1.4	4.02366412214
275	0.1375	13.558974359	13.9379310345	-2.98	4.02366412214
276	0.138	-3.50256410256	-0.579310344828	-2.98	2.60916030534
277	0.1385	30.6205128205	-2.03103448276	-1.52	-4.46335877863
278	0.139	14.9807692308	-2.03103448276	-0.06	20.9977099237
279	0.1395	10.7153846154	-2.03103448276	-2.98	5.43816793893
280	0.14	13.558974359	0.872413793103	4.32	5.43816793893
281	0.1405	9.29358974359	-7.83793103448	-1.52	6.85267175573
282	0.141	13.558974359	-4.93448275862	-0.06	6.85267175573
283	0.1415	17.8243589744	-2.03103448276	1.4	8.26717557252
284	0.142	0.762820512821	0.872413793103	-0.06	8.26717557252
285	0.1425	2.18461538462	-0.579310344828	2.86	-8.70687022901
286	0.143	13.558974359	-3.48275862069	-1.52	18.1687022901
287	0.1435	10.7153846154	-2.03103448276	-2.98	-4.46335877863
288	0.144	14.9807692308	-0.579310344828	-5.9	4.02366412214
289	0.1445	14.9807692308	-10.7413793103	-0.06	1.19465648855
290	0.145	17.8243589744	-2.03103448276	-0.06	2.60916030534
291	0.1455	-3.50256410256	-2.03103448276	-0.06	2.60916030534
292	0.146	2.18461538462	-2.03103448276	-0.06	-12.9503816794
293	0.1465	12.1371794872	-3.48275862069	-1.52	-10.1213740458
294	0.147	12.1371794872	-0.579310344828	-5.9	-3.04885496183
295	0.1475	13.558974359	-2.03103448276	13.08	-0.219847328244
296	0.148	16.4025641026	2.32413793103	-0.06	-0.219847328244
297	0.1485	14.9807692308	-2.03103448276	1.4	1.19465648855
298	0.149	16.4025641026	-2.03103448276	2.86	4.02366412214
299	0.1495	0.762820512821	0.872413793103	4.32	-8.70687022901
300	0.15	12.1371794872	0.872413793103	-1.52	-7.29236641221
301	0.1505	12.1371794872	-0.579310344828	-2.98	-0.219847328244
302	0.151	12.1371794872	-0.579310344828	4.32	-0.219847328244
303	0.1515	10.7153846154	-0.579310344828	-1.52	-0.219847328244
304	0.152	10.7153846154	-10.7413793103	1.4	-1.63435114504
305	0.1525	16.4025641026	-2.03103448276	1.4	-3.04885496183
306	0.153	32.0423076923	-2.03103448276	1.4	4.02366412214
307	0.1535	0.762820512821	-0.579310344828	-1.52	15.3396946565
308	0.154	12.1371794872	-0.579310344828	-4.44	-3.04885496183
309	0.1545	12.1371794872	0.872413793103	8.7	4.02366412214
310	0.155	10.7153846154	2.32413793103	-7.36	-0.219847328244
311	0.1555	10.7153846154	15.3896551724	-2.98	-0.219847328244
312	0.156	12.1371794872	-4.93448275862	-0.06	-0.219847328244
313	0.1565	24.9333333333	-0.579310344828	1.4	1.19465648855
314	0.157	0.762820512821	-0.579310344828	1.4	20.9977099237
315	0.1575	10.7153846154	-2.03103448276	-1.52	-4.46335877863
316	0.158	12.1371794872	0.872413793103	4.32	1.19465648855
317	0.1585	13.558974359	-0.579310344828	-0.06	1.19465648855
318	0.159	12.1371794872	16.8413793103	-0.06	2.60916030534
319	0.1595	9.29358974359	-7.83793103448	-1.52	2.60916030534
320	0.16	10.7153846154	-2.03103448276	-0.06	-0.219847328244
321	0.1605	5.02820512821	-0.579310344828	-1.52	-0.219847328244
322	0.161	9.29358974359	-2.03103448276	2.86	15.3396946565
323	0.1615	13.558974359	-3.48275862069	-2.98	-8.70687022901
324	0.162	12.1371794872	-2.03103448276	14.54	2.60916030534
325	0.1625	10.7153846154	-9.28965517241	-1.52	2.60916030534
326	0.163	9.29358974359	0.872413793103	2.86	2.60916030534
327	0.1635	23.5115384615	-0.579310344828	-0.06	4.02366412214
328	0.164	3.60641025641	0.872413793103	1.4	22.4122137405
329	0.1645	10.7153846154	-0.579310344828	2.86	-5.87786259542
330	0.165	12.1371794872	0.872413793103	-4.44	-0.219847328244
331	0.1655	9.29358974359	-0.579310344828	-4.44	4.02366412214
332	0.166	12.1371794872	-6.38620689655	2.86	1.19465648855
333	0.1665	10.7153846154	13.9379310345	1.4	1.19465648855
334	0.167	17.8243589744	0.872413793103	-0.06	1.19465648855
335	0.1675	0.762820512821	0.872413793103	-0.06	2.60916030534
336	0.168	13.558974359	0.872413793103	-0.06	-10.1213740458
337	0.1685	13.558974359	-2.03103448276	1.4	-3.04885496183
338	0.169	10.7153846154	-3.48275862069	1.4	-1.63435114504
339	0.1695	12.1371794872	13.9379310345	-0.06	-1.63435114504
340	0.17	14.9807692308	-10.7413793103	-0.06	-1.63435114504
341	0.1705	12.1371794872	-2.03103448276	4.32	-3.04885496183
342	0.171	30.6205128205	-2.03103448276	-0.06	-7.29236641221
343	0.1715	12.1371794872	-0.579310344828	4.32	5.43816793893
344	0.172	14.9807692308	-0.579310344828	-5.9	-0.219847328244
345	0.1725	14.9807692308	-2.03103448276	-5.9	-1.63435114504
346	0.173	14.9807692308	2.32413793103	-0.06	-1.63435114504
347	0.1735	16.4025641026	16.8413793103	1.4	-0.219847328244
348	0.174	12.1371794872	0.872413793103	1.4	-1.63435114504
349	0.1745	16.4025641026	0.872413793103	1.4	-3.04885496183
350	0.175	16.4025641026	0.872413793103	-0.06	-11.5358778626
351	0.1755	17.8243589744	0.872413793103	-2.98	8.26717557252
352	0.176	12.1371794872	-0.579310344828	21.84	-4.46335877863
353	0.1765	12.1371794872	-4.93448275862	-7.36	-3.04885496183
354	0.177	12.1371794872	-0.579310344828	-0.06	-1.63435114504
355	0.1775	12.1371794872	-7.83793103448	4.32	1.19465648855
356	0.178	5.02820512821	-2.03103448276	-0.06	-0.219847328244
357	0.1785	27.7769230769	-2.03103448276	-1.52	-0.219847328244
358	0.179	12.1371794872	-0.579310344828	2.86	-10.1213740458
359	0.1795	13.558974359	-2.03103448276	-4.44	-0.219847328244
360	0.18	12.1371794872	-2.03103448276	-4.44	1.19465648855
361	0.1805	13.558974359	-7.83793103448	-0.06	1.19465648855
362	0.181	10.7153846154	-3.48275862069	1.4	4.02366412214
363	0.1815	16.4025641026	0.872413793103	4.32	-0.219847328244
364	0.182	27.7769230769	0.872413793103	1.4	5.43816793893
365	0.1825	10.7153846154	2.32413793103	4.32	13.9251908397
366	0.183	12.1371794872	-2.03103448276	-1.52	-7.29236641221
367	0.1835	10.7153846154	0.872413793103	20.38	4.02366412214
368	0.184	12.1371794872	-2.03103448276	2.86	5.43816793893
369	0.1845	10.7153846154	-2.03103448276	-1.52	5.43816793893
370	0.185	12.1371794872	6.67931034483	-1.52	5.43816793893
371	0.1855	0.762820512821	-4.93448275862	-1.52	11.0961832061
372	0.186	3.60641025641	-2.03103448276	-0.06	-1.63435114504
373	0.1865	9.29358974359	-2.03103448276	-1.52	-0.219847328244
374	0.187	12.1371794872	-3.48275862069	-0.06	26.6557251908
375	0.1875	9.29358974359	-3.48275862069	-7.36	8.26717557252
376	0.188	12.1371794872	-4.93448275862	-0.06	6.85267175573
377	0.1885	12.1371794872	-4.93448275862	1.4	8.26717557252
378	0.189	3.60641025641	-0.579310344828	-1.52	13.9251908397
379	0.1895	10.7153846154	-2.03103448276	4.32	1.19465648855
380	0.19	9.29358974359	-2.03103448276	-1.52	1.19465648855
381	0.1905	10.7153846154	0.872413793103	-8.82	5.43816793893
382	0.191	14.9807692308	0.872413793103	-0.06	6.85267175573
383	0.1915	10.7153846154	-12.1931034483	1.4	6.85267175573
384	0.192	13.558974359	-9.28965517241	-1.52	9.68167938931
385	0.1925	10.7153846154	-0.579310344828	-0.06	12.5106870229
386	0.193	7.87179487179	-0.579310344828	-1.52	9.68167938931
387	0.1935	10.7153846154	-2.03103448276	-0.06	9.68167938931
388	0.194	6.45	-0.579310344828	4.32	8.26717557252
389	0.1945	7.87179487179	-2.03103448276	1.4	8.26717557252
390	0.195	9.29358974359	0.872413793103	1.4	12.5106870229
391	0.1955	9.29358974359	11.0344827586	-0.06	6.85267175573
392	0.196	13.558974359	-6.38620689655	-0.06	8.26717557252
393	0.1965	-4.92435897436	-0.579310344828	1.4	5.43816793893
394	0.197	7.87179487179	0.872413793103	-0.06	-4.46335877863
395	0.1975	7.87179487179	0.872413793103	-5.9	6.85267175573
396	0.198	9.29358974359	0.872413793103	14.54	1.19465648855
397	0.1985	9.29358974359	-0.579310344828	1.4	5.43816793893
398	0.199	5.02820512821	6.67931034483	-0.06	2.60916030534
399	0.1995	12.1371794872	-3.48275862069	2.86	2.60916030534
400	0.2	23.5115384615	0.872413793103	-0.06	5.43816793893
401	0.2005	7.87179487179	0.872413793103	2.86	15.3396946565
402	0.201	9.29358974359	-2.03103448276	5.78	-1.63435114504
403	0.2015	13.558974359	-3.48275862069	-4.44	-0.219847328244
404	0.202	13.558974359	-0.579310344828	1.4	2.60916030534
405	0.2025	12.1371794872	-6.38620689655	-4.44	4.02366412214
406	0.203	13.558974359	-2.03103448276	1.4	5.43816793893
407	0.2035	7.87179487179	0.872413793103	-1.52	5.43816793893
408	0.204	24.9333333333	-2.03103448276	-1.52	4.02366412214
409	0.2045	3.60641025641	0.872413793103	4.32	4.02366412214
410	0.205	10.7153846154	-0.579310344828	-5.9	-0.219847328244
411	0.2055	9.29358974359	0.872413793103	-1.52	4.02366412214
412	0.206	12.1371794872	-12.1931034483	-0.06	2.60916030534
413	0.2065	9.29358974359	2.32413793103	-0.06	2.60916030534
414	0.207	13.558974359	-7.83793103448	-0.06	1.19465648855
415	0.2075	10.7153846154	-0.579310344828	-0.06	1.19465648855
416	0.208	13.558974359	3.77586206897	2.86	5.43816793893
417	0.2085	13.558974359	-0.579310344828	-1.52	-11.5358778626
418	0.209	12.1371794872	2.32413793103	1.4	-0.219847328244
419	0.2095	12.1371794872	-4.93448275862	-1.52	-0.219847328244
420	0.21	12.1371794872	-6.38620689655	-0.06	-3.04885496183
421	0.2105	12.1371794872	-2.03103448276	-1.52	-1.63435114504
422	0.211	24.9333333333	-0.579310344828	-0.06	4.02366412214
423	0.2115	12.1371794872	-2.03103448276	2.86	-7.29236641221
424	0.212	12.1371794872	-2.03103448276	-2.98	1.19465648855
425	0.2125	12.1371794872	-0.579310344828	-5.9	-0.219847328244
426	0.213	12.1371794872	-10.7413793103	-1.52	-0.219847328244
427	0.2135	10.7153846154	-0.579310344828	-1.52	-0.219847328244
428	0.214	12.1371794872	-0.579310344828	-1.52	-5.87786259542
429	0.2145	29.1987179487	0.872413793103	4.32	-1.63435114504
430	0.215	3.60641025641	-0.579310344828	-0.06	13.9251908397
431	0.2155	12.1371794872	-2.03103448276	-2.98	-1.63435114504
432	0.216	10.7153846154	-2.03103448276	14.54	2.60916030534
433	0.2165	10.7153846154	-12.1931034483	-1.52	5.43816793893
434	0.217	9.29358974359	18.2931034483	-0.06	1.19465648855
435	0.2175	9.29358974359	-9.28965517241	-0.06	4.02366412214
436	0.218	17.8243589744	-2.03103448276	1.4	-0.219847328244
437	0.2185	0.762820512821	-0.579310344828	1.4	-1.63435114504
438	0.219	9.29358974359	-3.48275862069	4.32	5.43816793893
439	0.2195	9.29358974359	-3.48275862069	-8.82	6.85267175573
440	0.22	12.1371794872	-2.03103448276	-0.06	5.43816793893
441	0.2205	9.29358974359	0.872413793103	-1.52	6.85267175573
442	0.221	12.1371794872	-4.93448275862	2.86	5.43816793893
443	0.2215	-4.92435897436	-0.579310344828	1.4	6.85267175573
444	0.222	-3.50256410256	0.872413793103	1.4	-1.63435114504
445	0.2225	9.29358974359	-0.579310344828	5.78	5.43816793893
446	0.223	10.7153846154	-3.48275862069	-2.98	5.43816793893
447	0.2235	7.87179487179	2.32413793103	-0.06	4.02366412214
448	0.224	5.02820512821	11.0344827586	2.86	4.02366412214
449	0.2245	9.29358974359	-6.38620689655	2.86	6.85267175573
450	0.225	-4.92435897436	0.872413793103	-0.06	4.02366412214
451	0.2255	3.60641025641	-0.579310344828	-1.52	22.4122137405
452	0.226	7.87179487179	0.872413793103	-2.98	12.5106870229
453	0.2265	10.7153846154	-0.579310344828	-0.06	8.26717557252
454	0.227	9.29358974359	-15.0965517241	-2.98	8.26717557252
455	0.2275	9.29358974359	-13.6448275862	2.86	9.68167938931
456	0.228	12.1371794872	-4.93448275862	-0.06	9.68167938931
457	0.2285	19.2461538462	0.872413793103	-0.06	15.3396946565
458	0.229	3.60641025641	-2.03103448276	2.86	1.19465648855
459	0.2295	7.87179487179	-2.03103448276	-8.82	8.26717557252
460	0.23	0.762820512821	-0.579310344828	-5.9	9.68167938931
461	0.2305	-3.50256410256	-9.28965517241	-0.06	13.9251908397
462	0.231	0.762820512821	13.9379310345	1.4	13.9251908397
463	0.2315	-6.34615384615	0.872413793103	1.4	15.3396946565
464	0.232	12.1371794872	-0.579310344828	-0.06	5.43816793893
465	0.2325	-12.0333333333	2.32413793103	-0.06	8.26717557252
466	0.233	-6.34615384615	0.872413793103	1.4	8.26717557252
467	0.2335	-2.08076923077	-3.48275862069	-1.52	8.26717557252
468	0.234	-2.08076923077	2.32413793103	-0.06	5.43816793893
469	0.2345	-4.92435897436	-13.6448275862	1.4	8.26717557252
470	0.235	3.60641025641	0.872413793103	-0.06	5.43816793893
471	0.2355	-13.4551282051	-0.579310344828	-0.06	6.85267175573
472	0.236	-4.92435897436	-0.579310344828	-0.06	-0.219847328244
473	0.2365	-0.658974358974	-2.03103448276	1.4	-0.219847328244
474	0.237	3.60641025641	-3.48275862069	13.08	5.43816793893
475	0.2375	-0.658974358974	-16.5482758621	-0.06	4.02366412214
476	0.238	0.762820512821	16.8413793103	-0.06	5.43816793893
477	0.2385	-2.08076923077	-7.83793103448	-0.06	4.02366412214
478	0.239	-12.0333333333	-2.03103448276	-1.52	4.02366412214
479	0.2395	-4.92435897436	-2.03103448276	-0.06	12.5106870229
480	0.24	-3.50256410256	-0.579310344828	4.32	-3.04885496183
481	0.2405	-3.50256410256	0.872413793103	-1.52	5.43816793893
482	0.241	-3.50256410256	-2.03103448276	-2.98	8.26717557252
483	0.2415	-2.08076923077	15.3896551724	1.4	4.02366412214
484	0.242	-3.50256410256	-0.579310344828	1.4	5.43816793893
485	0.2425	-13.4551282051	-0.579310344828	1.4	4.02366412214
486	0.243	16.4025641026	-0.579310344828	-0.06	-1.63435114504
487	0.2435	-0.658974358974	-0.579310344828	-1.52	20.9977099237
488	0.244	0.762820512821	-2.03103448276	-2.98	-0.219847328244
489	0.2445	0.762820512821	-2.03103448276	16.0	6.85267175573
490	0.245	2.18461538462	-16.5482758621	2.86	5.43816793893
491	0.2455	3.60641025641	16.8413793103	-1.52	6.85267175573
492	0.246	-2.08076923077	-0.579310344828	-1.52	8.26717557252
493	0.2465	16.4025641026	-0.579310344828	2.86	6.85267175573
494	0.247	-4.92435897436	-2.03103448276	1.4	9.68167938931
495	0.2475	-0.658974358974	-0.579310344828	-7.36	5.43816793893
496	0.248	-2.08076923077	0.872413793103	20.38	9.68167938931
497	0.2485	-0.658974358974	-3.48275862069	-7.36	9.68167938931
498	0.249	0.762820512821	-2.03103448276	2.86	8.26717557252
499	0.2495	0.762820512821	-3.48275862069	2.86	8.26717557252
500	0.25	6.45	-2.03103448276	-0.06	1.19465648855
501	0.2505	-2.08076923077	-0.579310344828	-0.06	16.7541984733
502	0.251	-0.658974358974	-2.03103448276	2.86	5.43816793893
503	0.2515	-0.658974358974	0.872413793103	17.46	6.85267175573
504	0.252	2.18461538462	-0.579310344828	-4.44	4.02366412214
505	0.2525	2.18461538462	16.8413793103	-2.98	5.43816793893
506	0.253	0.762820512821	-10.7413793103	-1.52	5.43816793893
507	0.2535	5.02820512821	-0.579310344828	-0.06	4.02366412214
508	0.254	22.0897435897	-2.03103448276	1.4	8.26717557252
509	0.2545	3.60641025641	-4.93448275862	1.4	-0.219847328244
510	0.255	3.60641025641	0.872413793103	1.4	16.7541984733
511	0.2555	3.60641025641	2.32413793103	2.86	6.85267175573
512	0.256	5.02820512821	11.0344827586	4.32	4.02366412214
513	0.2565	3.60641025641	-10.7413793103	-1.52	5.43816793893
514	0.257	5.02820512821	-3.48275862069	-0.06	6.85267175573
515	0.2575	-7.76794871795	0.872413793103	1.4	19.5832061069
516	0.258	-0.658974358974	0.872413793103	-2.98	-0.219847328244
517	0.2585	-0.658974358974	0.872413793103	4.32	8.26717557252
518	0.259	-0.658974358974	-2.03103448276	-4.44	8.26717557252
519	0.2595	-2.08076923077	2.32413793103	1.4	8.26717557252
520	0.26	-3.50256410256	-2.03103448276	-0.06	9.68167938931
521	0.2605	-12.0333333333	-2.03103448276	-0.06	8.26717557252
522	0.261	17.8243589744	-2.03103448276	-0.06	1.19465648855
523	0.2615	0.762820512821	-0.579310344828	1.4	18.1687022901
524	0.262	3.60641025641	0.872413793103	-8.82	5.43816793893
525	0.2625	3.60641025641	3.77586206897	-4.44	8.26717557252
526	0.263	0.762820512821	-12.1931034483	1.4	9.68167938931
527	0.2635	2.18461538462	-9.28965517241	2.86	8.26717557252
528	0.264	0.762820512821	-0.579310344828	2.86	12.5106870229
529	0.2645	0.762820512821	-2.03103448276	1.4	1.19465648855
530	0.265	0.762820512821	-0.579310344828	-1.52	22.4122137405
531	0.2655	-0.658974358974	-0.579310344828	2.86	1.19465648855
532	0.266	-0.658974358974	0.872413793103	-7.36	5.43816793893
533	0.2665	0.762820512821	-9.28965517241	2.86	8.26717557252
534	0.267	-3.50256410256	-2.03103448276	1.4	8.26717557252
535	0.2675	3.60641025641	0.872413793103	1.4	2.60916030534
536	0.268	22.0897435897	-2.03103448276	-1.52	5.43816793893
537	0.2685	-6.34615384615	-0.579310344828	-1.52	19.5832061069
538	0.269	0.762820512821	-2.03103448276	-7.36	4.02366412214
539	0.2695	0.762820512821	2.32413793103	-0.06	8.26717557252
540	0.27	2.18461538462	-10.7413793103	4.32	8.26717557252
541	0.2705	3.60641025641	15.3896551724	4.32	9.68167938931
542	0.271	2.18461538462	-2.03103448276	-1.52	12.5106870229
543	0.2715	7.87179487179	0.872413793103	-0.06	8.26717557252
544	0.272	-2.08076923077	-2.03103448276	4.32	5.43816793893
545	0.2725	-0.658974358974	-0.579310344828	-8.82	9.68167938931
546	0.273	-0.658974358974	0.872413793103	-4.44	12.5106870229
547	0.2735	0.762820512821	-4.93448275862	1.4	9.68167938931
548	0.274	3.60641025641	6.67931034483	-0.06	9.68167938931
549	0.2745	-10.6115384615	0.872413793103	1.4	13.9251908397
550	0.275	-6.34615384615	0.872413793103	4.32	-0.219847328244
551	0.2755	0.762820512821	0.872413793103	-0.06	2.60916030534
552	0.276	-0.658974358974	-0.579310344828	-4.44	13.9251908397
553	0.2765	-2.08076923077	-0.579310344828	5.78	9.68167938931
554	0.277	-2.08076923077	15.3896551724	-0.06	12.5106870229
555	0.2775	2.18461538462	-7.83793103448	1.4	9.68167938931
556	0.278	-0.658974358974	-0.579310344828	-0.06	11.0961832061
557	0.2785	10.7153846154	0.872413793103	-1.52	1.19465648855
558	0.279	-0.658974358974	-2.03103448276	-0.06	26.6557251908
559	0.2795	2.18461538462	-2.03103448276	2.86	-0.219847328244
560	0.28	2.18461538462	-2.03103448276	-8.82	9.68167938931
561	0.2805	2.18461538462	-2.03103448276	2.86	8.26717557252
562	0.281	2.18461538462	6.67931034483	4.32	12.5106870229
563	0.2815	5.02820512821	-6.38620689655	1.4	11.0961832061
564	0.282	-3.50256410256	-2.03103448276	-0.06	8.26717557252
565	0.2825	3.60641025641	-4.93448275862	-0.06	23.8267175573
566	0.283	2.18461538462	-4.93448275862	-5.9	11.0961832061
567	0.2835	5.02820512821	-0.579310344828	-2.98	12.5106870229
568	0.284	2.18461538462	15.3896551724	-1.52	12.5106870229
569	0.2845	3.60641025641	-12.1931034483	-1.52	13.9251908397
570	0.285	-6.34615384615	-2.03103448276	-0.06	9.68167938931
571	0.2855	17.8243589744	-3.48275862069	-1.52	15.3396946565
572	0.286	3.60641025641	-3.48275862069	1.4	1.19465648855
573	0.2865	3.60641025641	0.872413793103	1.4	26.6557251908
574	0.287	-2.08076923077	-0.579310344828	17.46	8.26717557252
575	0.2875	-0.658974358974	-0.579310344828	1.4	12.5106870229
576	0.288	-0.658974358974	0.872413793103	-1.52	15.3396946565
577	0.2885	5.02820512821	0.872413793103	2.86	13.9251908397
578	0.289	16.4025641026	-0.579310344828	4.32	16.7541984733
579	0.2895	-9.18974358974	-2.03103448276	2.86	30.8992366412
580	0.29	0.762820512821	-2.03103448276	-1.52	4.02366412214
581	0.2905	0.762820512821	-2.03103448276	7.24	13.9251908397
582	0.291	-0.658974358974	0.872413793103	2.86	13.9251908397
583	0.2915	-2.08076923077	0.872413793103	2.86	13.9251908397
584	0.292	5.02820512821	0.872413793103	1.4	15.3396946565
585	0.2925	-9.18974358974	-2.03103448276	2.86	12.5106870229
586	0.293	-4.92435897436	-0.579310344828	-0.06	20.9977099237
587	0.2935	0.762820512821	-2.03103448276	4.32	8.26717557252
588	0.294	3.60641025641	-4.93448275862	-7.36	12.5106870229
589	0.2945	-0.658974358974	-0.579310344828	2.86	16.7541984733
590	0.295	3.60641025641	6.67931034483	2.86	15.3396946565
591	0.2955	-7.76794871795	-0.579310344828	2.86	12.5106870229
592	0.296	23.5115384615	-0.579310344828	1.4	4.02366412214
593	0.2965	0.762820512821	-2.03103448276	5.78	19.5832061069
594	0.297	9.29358974359	-0.579310344828	-8.82	8.26717557252
595	0.2975	9.29358974359	-3.48275862069	20.38	12.5106870229
596	0.298	5.02820512821	-0.579310344828	-8.82	13.9251908397
597	0.2985	9.29358974359	6.67931034483	-0.06	12.5106870229
598	0.299	5.02820512821	-6.38620689655	2.86	6.85267175573
599	0.2995	22.0897435897	-0.579310344828	1.4	8.26717557252
600	0.3	7.87179487179	-0.579310344828	1.4	25.241221374
601	0.3005	7.87179487179	-0.579310344828	2.86	1.19465648855
602	0.301	12.1371794872	-2.03103448276	-4.44	12.5106870229
603	0.3015	9.29358974359	-3.48275862069	1.4	9.68167938931
604	0.302	12.1371794872	0.872413793103	1.4	8.26717557252
605	0.3025	12.1371794872	-4.93448275862	1.4	12.5106870229
606	0.303	0.762820512821	-0.579310344828	4.32	-0.219847328244
607	0.3035	12.1371794872	-2.03103448276	-1.52	-1.63435114504
608	0.304	12.1371794872	-0.579310344828	-1.52	6.85267175573
609	0.3045	10.7153846154	-2.03103448276	2.86	8.26717557252
610	0.305	10.7153846154	3.77586206897	2.86	9.68167938931
611	0.3055	9.29358974359	-10.7413793103	4.32	9.68167938931
612	0.306	13.558974359	0.872413793103	2.86	9.68167938931
613	0.3065	10.7153846154	-3.48275862069	1.4	4.02366412214
614	0.307	9.29358974359	-0.579310344828	-1.52	16.7541984733
615	0.3075	14.9807692308	-2.03103448276	4.32	5.43816793893
616	0.308	13.558974359	3.77586206897	-7.36	5.43816793893
617	0.3085	12.1371794872	2.32413793103	-0.06	2.60916030534
618	0.309	13.558974359	-10.7413793103	-0.06	11.0961832061
619	0.3095	12.1371794872	8.13103448276	-1.52	8.26717557252
620	0.31	3.60641025641	0.872413793103	-0.06	9.68167938931
621	0.3105	7.87179487179	-2.03103448276	-1.52	-0.219847328244
622	0.311	10.7153846154	-0.579310344828	-13.2	6.85267175573
623	0.3115	12.1371794872	0.872413793103	18.92	8.26717557252
624	0.312	16.4025641026	-2.03103448276	-0.06	9.68167938931
625	0.3125	16.4025641026	-13.6448275862	2.86	8.26717557252
626	0.313	14.9807692308	-3.48275862069	4.32	8.26717557252
627	0.3135	5.02820512821	-0.579310344828	1.4	8.26717557252
628	0.314	7.87179487179	0.872413793103	1.4	12.5106870229
629	0.3145	12.1371794872	-2.03103448276	2.86	4.02366412214
630	0.315	13.558974359	0.872413793103	17.46	6.85267175573
631	0.3155	12.1371794872	-12.1931034483	2.86	5.43816793893
632	0.316	13.558974359	19.7448275862	-0.06	9.68167938931
633	0.3165	12.1371794872	0.872413793103	2.86	9.68167938931
634	0.317	2.18461538462	-0.579310344828	-0.06	8.26717557252
635	0.3175	22.0897435897	-0.579310344828	-0.06	13.9251908397
636	0.318	9.29358974359	-0.579310344828	4.32	5.43816793893
637	0.3185	10.7153846154	0.872413793103	-11.74	6.85267175573
638	0.319	12.1371794872	-0.579310344828	-1.52	8.26717557252
639	0.3195	10.7153846154	-7.83793103448	1.4	8.26717557252
640	0.32	12.1371794872	3.77586206897	1.4	4.02366412214
641	0.3205	22.0897435897	-3.48275862069	-0.06	5.43816793893
642	0.321	0.762820512821	-2.03103448276	1.4	4.02366412214
643	0.3215	13.558974359	-4.93448275862	-0.06	19.5832061069
644	0.322	13.558974359	-2.03103448276	-1.52	-4.46335877863
645	0.3225	14.9807692308	-2.03103448276	-4.44	2.60916030534
646	0.323	14.9807692308	-12.1931034483	2.86	2.60916030534
647	0.3235	14.9807692308	18.2931034483	2.86	2.60916030534
648	0.324	5.02820512821	-2.03103448276	1.4	-0.219847328244
649	0.3245	27.7769230769	0.872413793103	1.4	-1.63435114504
650	0.325	17.8243589744	-2.03103448276	2.86	-0.219847328244
651	0.3255	14.9807692308	-0.579310344828	-11.74	2.60916030534
652	0.326	13.558974359	-2.03103448276	-10.28	4.02366412214
653	0.3265	13.558974359	-2.03103448276	1.4	2.60916030534
654	0.327	13.558974359	-6.38620689655	-0.06	1.19465648855
655	0.3275	13.558974359	-2.03103448276	-1.52	-0.219847328244
656	0.328	22.0897435897	-3.48275862069	1.4	4.02366412214
657	0.3285	7.87179487179	-4.93448275862	1.4	-11.5358778626
658	0.329	12.1371794872	-3.48275862069	-10.28	1.19465648855
659	0.3295	10.7153846154	-3.48275862069	13.08	-3.04885496183
660	0.33	13.558974359	-2.03103448276	1.4	-0.219847328244
661	0.3305	13.558974359	13.9379310345	1.4	-1.63435114504
662	0.331	14.9807692308	-2.03103448276	-0.06	-0.219847328244
663	0.3315	5.02820512821	-2.03103448276	-0.06	-0.219847328244
664	0.332	3.60641025641	0.872413793103	1.4	1.19465648855
665	0.3325	12.1371794872	-0.579310344828	4.32	6.85267175573
666	0.333	12.1371794872	-2.03103448276	-0.06	-0.219847328244
667	0.3335	10.7153846154	0.872413793103	1.4	-0.219847328244
668	0.334	12.1371794872	-18.0	-0.06	2.60916030534
669	0.3345	12.1371794872	-9.28965517241	-1.52	-1.63435114504
670	0.335	-3.50256410256	-2.03103448276	-1.52	-1.63435114504
671	0.3355	23.5115384615	-4.93448275862	-1.52	-1.63435114504
672	0.336	10.7153846154	-2.03103448276	-1.52	5.43816793893
673	0.3365	12.1371794872	-0.579310344828	-7.36	-1.63435114504
674	0.337	12.1371794872	-0.579310344828	11.62	-5.87786259542
675	0.3375	10.7153846154	-15.0965517241	1.4	-0.219847328244
676	0.338	14.9807692308	0.872413793103	1.4	1.19465648855
677	0.3385	14.9807692308	-0.579310344828	-0.06	-1.63435114504
678	0.339	17.8243589744	-0.579310344828	2.86	-8.70687022901
679	0.3395	13.558974359	-2.03103448276	2.86	-4.46335877863
680	0.34	17.8243589744	-0.579310344828	-7.36	-3.04885496183
681	0.3405	16.4025641026	-0.579310344828	14.54	-5.87786259542
682	0.341	14.9807692308	-0.579310344828	-1.52	-4.46335877863
683	0.3415	12.1371794872	-7.83793103448	2.86	-3.04885496183
684	0.342	17.8243589744	-2.03103448276	-0.06	-7.29236641221
685	0.3425	30.6205128205	-0.579310344828	-0.06	-8.70687022901
686	0.343	10.7153846154	-3.48275862069	-0.06	-0.219847328244
687	0.3435	19.2461538462	-2.03103448276	-5.9	-11.5358778626
688	0.344	14.9807692308	-4.93448275862	16.0	-11.5358778626
689	0.3445	16.4025641026	-13.6448275862	2.86	-7.29236641221
690	0.345	16.4025641026	18.2931034483	-1.52	-10.1213740458
691	0.3455	14.9807692308	-13.6448275862	-0.06	-14.3648854962
692	0.346	29.1987179487	-2.03103448276	-0.06	-12.9503816794
693	0.3465	9.29358974359	-0.579310344828	1.4	-10.1213740458
694	0.347	17.8243589744	0.872413793103	-7.36	-20.0229007634
695	0.3475	17.8243589744	2.32413793103	16.0	-12.9503816794
696	0.348	14.9807692308	-3.48275862069	1.4	-10.1213740458
697	0.3485	17.8243589744	18.2931034483	2.86	-11.5358778626
698	0.349	17.8243589744	-0.579310344828	2.86	-7.29236641221
699	0.3495	9.29358974359	-0.579310344828	-1.52	-12.9503816794
700	0.35	33.4641025641	-2.03103448276	2.86	-14.3648854962
701	0.3505	16.4025641026	-2.03103448276	1.4	1.19465648855
702	0.351	16.4025641026	0.872413793103	1.4	-7.29236641221
703	0.3515	14.9807692308	-3.48275862069	13.08	-8.70687022901
704	0.352	16.4025641026	0.872413793103	-2.98	-8.70687022901
705	0.3525	17.8243589744	9.58275862069	2.86	-5.87786259542
706	0.353	13.558974359	-2.03103448276	1.4	-7.29236641221
707	0.3535	24.9333333333	-2.03103448276	-0.06	-15.779389313
708	0.354	13.558974359	-0.579310344828	-1.52	9.68167938931
709	0.3545	19.2461538462	-2.03103448276	-0.06	-12.9503816794
710	0.355	19.2461538462	-4.93448275862	-4.44	-4.46335877863
711	0.3555	17.8243589744	-7.83793103448	-0.06	-7.29236641221
712	0.356	19.2461538462	-4.93448275862	-1.52	-7.29236641221
713	0.3565	23.5115384615	-6.38620689655	-0.06	-5.87786259542
714	0.357	9.29358974359	-0.579310344828	1.4	-1.63435114504
715	0.3575	19.2461538462	-2.03103448276	2.86	-5.87786259542
716	0.358	22.0897435897	-3.48275862069	1.4	-4.46335877863
717	0.3585	22.0897435897	-2.03103448276	-4.44	-8.70687022901
718	0.359	20.6679487179	0.872413793103	-0.06	-8.70687022901
719	0.3595	24.9333333333	-0.579310344828	-1.52	-8.70687022901
720	0.36	22.0897435897	-6.38620689655	1.4	-10.1213740458
721	0.3605	14.9807692308	0.872413793103	-0.06	-11.5358778626
722	0.361	19.2461538462	-2.03103448276	-0.06	-8.70687022901
723	0.3615	20.6679487179	0.872413793103	4.32	-10.1213740458
724	0.362	22.0897435897	-2.03103448276	18.92	-11.5358778626
725	0.3625	19.2461538462	-4.93448275862	-4.44	-10.1213740458
726	0.363	20.6679487179	-0.579310344828	1.4	-8.70687022901
727	0.3635	19.2461538462	-3.48275862069	-0.06	-11.5358778626
728	0.364	5.02820512821	-2.03103448276	-1.52	-14.3648854962
729	0.3645	39.1512820513	0.872413793103	-0.06	-5.87786259542
730	0.365	16.4025641026	0.872413793103	4.32	-14.3648854962
731	0.3655	19.2461538462	0.872413793103	4.32	-5.87786259542
732	0.366	17.8243589744	-2.03103448276	-1.52	-5.87786259542
733	0.3665	17.8243589744	-10.7413793103	-0.06	-3.04885496183
734	0.367	16.4025641026	-7.83793103448	-1.52	-4.46335877863
735	0.3675	10.7153846154	-0.579310344828	-0.06	-4.46335877863
736	0.368	30.6205128205	-2.03103448276	-1.52	-3.04885496183
737	0.3685	17.8243589744	-3.48275862069	2.86	-12.9503816794
738	0.369	19.2461538462	-0.579310344828	-0.06	13.9251908397
739	0.3695	17.8243589744	-0.579310344828	14.54	-3.04885496183
740	0.37	19.2461538462	-10.7413793103	-2.98	-3.04885496183
741	0.3705	22.0897435897	-3.48275862069	-0.06	-4.46335877863
742	0.371	23.5115384615	-3.48275862069	-0.06	-3.04885496183
743	0.3715	7.87179487179	-2.03103448276	1.4	-3.04885496183
744	0.372	19.2461538462	-0.579310344828	4.32	4.02366412214
745	0.3725	17.8243589744	-2.03103448276	-5.9	-1.63435114504
746	0.373	19.2461538462	0.872413793103	-5.9	-4.46335877863
747	0.3735	17.8243589744	-2.03103448276	-0.06	-4.46335877863
748	0.374	19.2461538462	5.2275862069	2.86	-4.46335877863
749	0.3745	23.5115384615	-2.03103448276	-1.52	-3.04885496183
750	0.375	7.87179487179	-2.03103448276	1.4	-7.29236641221
751	0.3755	10.7153846154	-0.579310344828	1.4	-0.219847328244
752	0.376	19.2461538462	-0.579310344828	4.32	-10.1213740458
753	0.3765	17.8243589744	-3.48275862069	-8.82	-7.29236641221
754	0.377	17.8243589744	-3.48275862069	-0.06	-4.46335877863
755	0.3775	16.4025641026	2.32413793103	2.86	-5.87786259542
756	0.378	14.9807692308	-3.48275862069	-1.52	-7.29236641221
757	0.3785	32.0423076923	-2.03103448276	-0.06	-5.87786259542
758	0.379	5.02820512821	-2.03103448276	1.4	2.60916030534
759	0.3795	13.558974359	-2.03103448276	-5.9	-11.5358778626
760	0.38	16.4025641026	0.872413793103	7.24	-7.29236641221
761	0.3805	13.558974359	-3.48275862069	-4.44	-8.70687022901
762	0.381	12.1371794872	16.8413793103	-0.06	-10.1213740458
763	0.3815	14.9807692308	-10.7413793103	2.86	-8.70687022901
764	0.382	16.4025641026	0.872413793103	2.86	-5.87786259542
765	0.3825	13.558974359	0.872413793103	2.86	-5.87786259542
766	0.383	16.4025641026	0.872413793103	-1.52	-18.6083969466
767	0.3835	14.9807692308	2.32413793103	20.38	-8.70687022901
768	0.384	13.558974359	-0.579310344828	4.32	-7.29236641221
769	0.3845	14.9807692308	3.77586206897	1.4	-10.1213740458
770	0.385	17.8243589744	-2.03103448276	-1.52	-8.70687022901
771	0.3855	2.18461538462	-3.48275862069	-0.06	-4.46335877863
772	0.386	5.02820512821	-2.03103448276	1.4	-12.9503816794
773	0.3865	14.9807692308	-0.579310344828	1.4	-5.87786259542
774	0.387	14.9807692308	-3.48275862069	-0.06	-7.29236641221
775	0.3875	19.2461538462	-18.0	1.4	-5.87786259542
776	0.388	19.2461538462	16.8413793103	-1.52	-7.29236641221
777	0.3885	16.4025641026	-0.579310344828	1.4	-7.29236641221
778	0.389	26.3551282051	-0.579310344828	2.86	-3.04885496183
779	0.3895	19.2461538462	-3.48275862069	4.32	-15.779389313
780	0.39	20.6679487179	-0.579310344828	-4.44	-7.29236641221
781	0.3905	19.2461538462	-0.579310344828	-4.44	-8.70687022901
782	0.391	19.2461538462	-7.83793103448	1.4	-8.70687022901
783	0.3915	17.8243589744	13.9379310345	-0.06	-7.29236641221
784	0.392	7.87179487179	0.872413793103	-0.06	-7.29236641221
785	0.3925	33.4641025641	-0.579310344828	2.86	-8.70687022901
786	0.393	12.1371794872	-3.48275862069	-0.06	-5.87786259542
787	0.3935	17.8243589744	-0.579310344828	-11.74	-7.29236641221
788	0.394	16.4025641026	2.32413793103	-1.52	-8.70687022901
789	0.3945	19.2461538462	-10.7413793103	2.86	-8.70687022901
790	0.395	20.6679487179	-7.83793103448	-0.06	-7.29236641221
791	0.3955	12.1371794872	-0.579310344828	-0.06	-10.1213740458
792	0.396	19.2461538462	-2.03103448276	1.4	-14.3648854962
793	0.3965	12.1371794872	0.872413793103	1.4	4.02366412214
794	0.397	16.4025641026	0.872413793103	7.24	-8.70687022901
795	0.3975	14.9807692308	-4.93448275862	-7.36	-5.87786259542
796	0.398	17.8243589744	0.872413793103	-0.06	-5.87786259542
797	0.3985	17.8243589744	13.9379310345	-0.06	-3.04885496183
798	0.399	19.2461538462	-7.83793103448	1.4	-1.63435114504
799	0.3995	22.0897435897	-3.48275862069	-0.06	-4.46335877863
800	0.4	14.9807692308	-0.579310344828	-1.52	-7.29236641221
801	0.4005	19.2461538462	-0.579310344828	-11.74	-5.87786259542
802	0.401	20.6679487179	0.872413793103	18.92	-4.46335877863
803	0.4015	20.6679487179	-3.48275862069	2.86	-3.04885496183
804	0.402	23.5115384615	6.67931034483	-0.06	-4.46335877863
805	0.4025	24.9333333333	-4.93448275862	-0.06	-3.04885496183
806	0.403	29.1987179487	-4.93448275862	-1.52	-0.219847328244
807	0.4035	20.6679487179	-2.03103448276	-0.06	8.26717557252
808	0.404	20.6679487179	-2.03103448276	4.32	-14.3648854962
809	0.4045	22.0897435897	-0.579310344828	-7.36	-3.04885496183
810	0.405	20.6679487179	-4.93448275862	1.4	-5.87786259542
811	0.4055	23.5115384615	2.32413793103	4.32	-3.04885496183
812	0.406	20.6679487179	-0.579310344828	-1.52	-1.63435114504
813	0.4065	12.1371794872	-3.48275862069	1.4	-3.04885496183
814	0.407	23.5115384615	-3.48275862069	1.4	6.85267175573
815	0.4075	23.5115384615	-2.03103448276	-8.82	-1.63435114504
816	0.408	24.9333333333	-2.03103448276	-7.36	-0.219847328244
817	0.4085	23.5115384615	-4.93448275862	1.4	-1.63435114504
818	0.409	26.3551282051	9.58275862069	2.86	-4.46335877863
819	0.4095	29.1987179487	-2.03103448276	1.4	-1.63435114504
820	0.41	17.8243589744	-4.93448275862	-2.98	1.19465648855
821	0.4105	27.7769230769	-3.48275862069	2.86	1.19465648855
822	0.411	26.3551282051	-0.579310344828	-13.2	-7.29236641221
823	0.4115	23.5115384615	-0.579310344828	1.4	18.1687022901
824	0.412	26.3551282051	-2.03103448276	-1.52	-1.63435114504
825	0.4125	24.9333333333	-3.48275862069	-0.06	-1.63435114504
826	0.413	27.7769230769	-2.03103448276	1.4	-1.63435114504
827	0.4135	43.4166666667	-3.48275862069	-0.06	-0.219847328244
828	0.414	20.6679487179	-2.03103448276	-1.52	5.43816793893
829	0.4145	26.3551282051	-2.03103448276	-7.36	-3.04885496183
830	0.415	27.7769230769	-4.93448275862	18.92	-3.04885496183
831	0.4155	29.1987179487	-13.6448275862	1.4	-1.63435114504
832	0.416	29.1987179487	2.32413793103	-0.06	-1.63435114504
833	0.4165	32.0423076923	-2.03103448276	2.86	-1.63435114504
834	0.417	20.6679487179	-3.48275862069	1.4	-12.9503816794
835	0.4175	27.7769230769	0.872413793103	1.4	-11.5358778626
836	0.418	29.1987179487	-0.579310344828	-4.44	-4.46335877863
837	0.4185	32.0423076923	-4.93448275862	4.32	-0.219847328244
838	0.419	32.0423076923	-15.0965517241	-2.98	-4.46335877863
839	0.4195	32.0423076923	-12.1931034483	-0.06	-1.63435114504
840	0.42	32.0423076923	-6.38620689655	2.86	-1.63435114504
841	0.4205	40.5730769231	-2.03103448276	-0.06	-1.63435114504
842	0.421	33.4641025641	-2.03103448276	-0.06	-14.3648854962
843	0.4215	34.8858974359	-2.03103448276	-2.98	-7.29236641221
844	0.422	36.3076923077	-0.579310344828	5.78	-3.04885496183
845	0.4225	33.4641025641	3.77586206897	-0.06	-4.46335877863
846	0.423	30.6205128205	-6.38620689655	-1.52	-4.46335877863
847	0.4235	37.7294871795	0.872413793103	1.4	-7.29236641221
848	0.424	46.2602564103	0.872413793103	1.4	-7.29236641221
849	0.4245	29.1987179487	0.872413793103	-0.06	-3.04885496183
850	0.425	34.8858974359	0.872413793103	-7.36	-7.29236641221
851	0.4255	36.3076923077	-0.579310344828	4.32	-5.87786259542
852	0.426	34.8858974359	-6.38620689655	1.4	-7.29236641221
853	0.4265	34.8858974359	-4.93448275862	1.4	-7.29236641221
854	0.427	23.5115384615	-3.48275862069	-1.52	-4.46335877863
855	0.4275	26.3551282051	-2.03103448276	2.86	-18.6083969466
856	0.428	30.6205128205	-3.48275862069	1.4	-10.1213740458
857	0.4285	33.4641025641	-2.03103448276	-10.28	-5.87786259542
858	0.429	33.4641025641	2.32413793103	-11.74	-8.70687022901
859	0.4295	29.1987179487	-7.83793103448	-0.06	-8.70687022901
860	0.43	32.0423076923	-4.93448275862	2.86	-11.5358778626
861	0.4305	34.8858974359	-2.03103448276	2.86	-10.1213740458
862	0.431	50.5256410256	-2.03103448276	2.86	-8.70687022901
863	0.4315	29.1987179487	-0.579310344828	1.4	-8.70687022901
864	0.432	30.6205128205	5.2275862069	14.54	-8.70687022901
865	0.4325	32.0423076923	0.872413793103	1.4	-7.29236641221
866	0.433	33.4641025641	-9.28965517241	2.86	-5.87786259542
867	0.4335	33.4641025641	9.58275862069	-0.06	-5.87786259542
868	0.434	40.5730769231	-2.03103448276	-1.52	-7.29236641221
869	0.4345	27.7769230769	-0.579310344828	-0.06	-17.1938931298
870	0.435	32.0423076923	0.872413793103	-4.44	-12.9503816794
871	0.4355	34.8858974359	-2.03103448276	-2.98	-5.87786259542
872	0.436	33.4641025641	-0.579310344828	1.4	-4.46335877863
873	0.4365	29.1987179487	16.8413793103	-1.52	-4.46335877863
874	0.437	29.1987179487	-12.1931034483	-1.52	-7.29236641221
875	0.4375	30.6205128205	-2.03103448276	-0.06	-7.29236641221
876	0.438	40.5730769231	-2.03103448276	1.4	-17.1938931298
877	0.4385	32.0423076923	-2.03103448276	1.4	6.85267175573
878	0.439	30.6205128205	0.872413793103	1.4	-10.1213740458
879	0.4395	32.0423076923	-0.579310344828	-0.06	-7.29236641221
880	0.44	32.0423076923	6.67931034483	-1.52	-5.87786259542
881	0.4405	33.4641025641	-9.28965517241	1.4	-5.87786259542
882	0.441	26.3551282051	-2.03103448276	1.4	-7.29236641221
883	0.4415	44.8384615385	-0.579310344828	-0.06	-4.46335877863
884	0.442	29.1987179487	0.872413793103	1.4	-14.3648854962
885	0.4425	30.6205128205	0.872413793103	1.4	-7.29236641221
886	0.443	30.6205128205	-2.03103448276	-4.44	-11.5358778626
887	0.4435	27.7769230769	-13.6448275862	-0.06	-11.5358778626
888	0.444	26.3551282051	-7.83793103448	-0.06	-11.5358778626
889	0.4445	24.9333333333	2.32413793103	-1.52	-11.5358778626
890	0.445	22.0897435897	-0.579310344828	-0.06	-24.2664122137
891	0.4455	26.3551282051	-2.03103448276	-0.06	-22.8519083969
892	0.446	27.7769230769	-2.03103448276	-2.98	-4.46335877863
893	0.4465	27.7769230769	-0.579310344828	-4.44	-12.9503816794
894	0.447	29.1987179487	-10.7413793103	-0.06	-15.779389313
895	0.4475	29.1987179487	-9.28965517241	1.4	-18.6083969466
896	0.448	37.7294871795	-2.03103448276	2.86	-15.779389313
897	0.4485	19.2461538462	0.872413793103	-0.06	-18.6083969466
898	0.449	29.1987179487	-0.579310344828	-0.06	-10.1213740458
899	0.4495	30.6205128205	0.872413793103	-8.82	-15.779389313
900	0.45	32.0423076923	2.32413793103	1.4	-12.9503816794
901	0.4505	29.1987179487	6.67931034483	1.4	-14.3648854962
902	0.451	33.4641025641	-0.579310344828	-0.06	-17.1938931298
903	0.4515	30.6205128205	-3.48275862069	-0.06	-17.1938931298
904	0.452	29.1987179487	-0.579310344828	1.4	-25.6809160305
905	0.4525	29.1987179487	-2.03103448276	-1.52	-0.219847328244
906	0.453	29.1987179487	0.872413793103	11.62	-17.1938931298
907	0.4535	32.0423076923	0.872413793103	-1.52	-12.9503816794
908	0.454	29.1987179487	-10.7413793103	-1.52	-17.1938931298
909	0.4545	29.1987179487	9.58275862069	1.4	-12.9503816794
910	0.455	22.0897435897	-3.48275862069	-0.06	-12.9503816794
911	0.4555	29.1987179487	-0.579310344828	1.4	-21.4374045802
912	0.456	27.7769230769	-0.579310344828	4.32	-10.1213740458
913	0.4565	24.9333333333	0.872413793103	-4.44	-15.779389313
914	0.457	26.3551282051	-9.28965517241	2.86	-14.3648854962
915	0.4575	29.1987179487	19.7448275862	-0.06	-14.3648854962
916	0.458	24.9333333333	-2.03103448276	1.4	-14.3648854962
917	0.4585	29.1987179487	-0.579310344828	1.4	-14.3648854962
918	0.459	26.3551282051	-0.579310344828	2.86	-22.8519083969
919	0.4595	26.3551282051	0.872413793103	-4.44	-14.3648854962
920	0.46	26.3551282051	-3.48275862069	-2.98	-14.3648854962
921	0.4605	23.5115384615	-13.6448275862	2.86	-14.3648854962
922	0.461	26.3551282051	16.8413793103	1.4	-15.779389313
923	0.4615	24.9333333333	-7.83793103448	-0.06	-17.1938931298
924	0.462	26.3551282051	-3.48275862069	-0.06	-17.1938931298
925	0.4625	26.3551282051	-2.03103448276	-0.06	-20.0229007634
926	0.463	29.1987179487	-2.03103448276	14.54	-20.0229007634
927	0.4635	26.3551282051	-0.579310344828	-10.28	-15.779389313
928	0.464	27.7769230769	0.872413793103	-0.06	-17.1938931298
929	0.4645	30.6205128205	11.0344827586	-1.52	-18.6083969466
930	0.465	29.1987179487	-7.83793103448	2.86	-17.1938931298
931	0.4655	39.1512820513	0.872413793103	2.86	-18.6083969466
932	0.466	24.9333333333	0.872413793103	-0.06	-8.70687022901
933	0.4665	30.6205128205	-0.579310344828	-5.9	-18.6083969466
934	0.467	32.0423076923	0.872413793103	14.54	-15.779389313
935	0.4675	32.0423076923	-12.1931034483	-0.06	-14.3648854962
936	0.468	33.4641025641	-3.48275862069	-0.06	-15.779389313
937	0.4685	32.0423076923	-7.83793103448	-0.06	-12.9503816794
938	0.469	47.6820512821	-2.03103448276	-1.52	-17.1938931298
939	0.4695	20.6679487179	-2.03103448276	-1.52	-11.5358778626
940	0.47	29.1987179487	-2.03103448276	-0.06	-17.1938931298
941	0.4705	27.7769230769	-2.03103448276	-5.9	-11.5358778626
942	0.471	29.1987179487	-13.6448275862	-1.52	-11.5358778626
943	0.4715	33.4641025641	16.8413793103	-1.52	-11.5358778626
944	0.472	29.1987179487	-2.03103448276	-1.52	-5.87786259542
945	0.4725	32.0423076923	-3.48275862069	4.32	-7.29236641221
946	0.473	32.0423076923	-0.579310344828	1.4	-7.29236641221
947	0.4735	29.1987179487	-0.579310344828	-11.74	-10.1213740458
948	0.474	33.4641025641	0.872413793103	-7.36	-10.1213740458
949	0.4745	32.0423076923	2.32413793103	1.4	-8.70687022901
950	0.475	33.4641025641	-6.38620689655	-1.52	-8.70687022901
951	0.4755	24.9333333333	-2.03103448276	-0.06	-10.1213740458
952	0.476	43.4166666667	-0.579310344828	1.4	-8.70687022901
953	0.4765	23.5115384615	-2.03103448276	-1.52	9.68167938931
954	0.477	27.7769230769	-3.48275862069	-0.06	-17.1938931298
955	0.4775	30.6205128205	-0.579310344828	14.54	-10.1213740458
956	0.478	33.4641025641	-0.579310344828	-1.52	-8.70687022901
957	0.4785	29.1987179487	3.77586206897	-1.52	-7.29236641221
958	0.479	33.4641025641	-2.03103448276	-0.06	-5.87786259542
959	0.4795	17.8243589744	-2.03103448276	-0.06	-4.46335877863
960	0.48	29.1987179487	0.872413793103	-1.52	-14.3648854962
961	0.4805	27.7769230769	-2.03103448276	2.86	-7.29236641221
962	0.481	30.6205128205	-0.579310344828	5.78	-11.5358778626
963	0.4815	32.0423076923	-9.28965517241	-0.06	-5.87786259542
964	0.482	33.4641025641	16.8413793103	-1.52	-5.87786259542
965	0.4825	27.7769230769	-0.579310344828	1.4	-5.87786259542
966	0.483	43.4166666667	-3.48275862069	-1.52	-7.29236641221
967	0.4835	26.3551282051	-4.93448275862	-1.52	-7.29236641221
968	0.484	29.1987179487	-2.03103448276	-11.74	-10.1213740458
969	0.4845	29.1987179487	-0.579310344828	18.92	-7.29236641221
970	0.485	27.7769230769	-6.38620689655	-5.9	-7.29236641221
971	0.4855	26.3551282051	3.77586206897	-0.06	-8.70687022901
972	0.486	23.5115384615	-3.48275862069	-1.52	-7.29236641221
973	0.4865	46.2602564103	-2.03103448276	2.86	-7.29236641221
974	0.487	20.6679487179	-0.579310344828	2.86	1.19465648855
975	0.4875	27.7769230769	-0.579310344828	-4.44	-11.5358778626
976	0.488	26.3551282051	0.872413793103	13.08	-4.46335877863
977	0.4885	27.7769230769	-4.93448275862	-7.36	-5.87786259542
978	0.489	30.6205128205	13.9379310345	1.4	-4.46335877863
979	0.4895	27.7769230769	-6.38620689655	-1.52	-3.04885496183
980	0.49	23.5115384615	-2.03103448276	-1.52	-3.04885496183
981	0.4905	23.5115384615	-2.03103448276	-0.06	-7.29236641221
982	0.491	27.7769230769	-0.579310344828	4.32	8.26717557252
983	0.4915	26.3551282051	-2.03103448276	20.38	-3.04885496183
984	0.492	29.1987179487	-4.93448275862	2.86	-1.63435114504
985	0.4925	30.6205128205	5.2275862069	-0.06	-1.63435114504
986	0.493	33.4641025641	-2.03103448276	-0.06	-0.219847328244
987	0.4935	16.4025641026	-2.03103448276	-1.52	-1.63435114504
988	0.494	46.2602564103	-3.48275862069	-0.06	-5.87786259542
989	0.4945	29.1987179487	-0.579310344828	2.86	2.60916030534
990	0.495	30.6205128205	2.32413793103	-0.06	-7.29236641221
991	0.4955	29.1987179487	-7.83793103448	2.86	1.19465648855
992	0.496	29.1987179487	8.13103448276	1.4	-3.04885496183
993	0.4965	26.3551282051	-6.38620689655	1.4	1.19465648855
994	0.497	33.4641025641	0.872413793103	1.4	-3.04885496183
995	0.4975	19.2461538462	0.872413793103	-0.06	-0.219847328244
996	0.498	27.7769230769	-0.579310344828	-1.52	-10.1213740458
997	0.4985	27.7769230769	0.872413793103	-7.36	1.19465648855
998	0.499	29.1987179487	-0.579310344828	-1.52	-0.219847328244
999	0.4995	27.7769230769	3.77586206897	2.86	1.19465648855
1000	0.5	27.7769230769	-9.28965517241	2.86	1.19465648855
1001	0.5005	14.9807692308	-0.579310344828	1.4	1.19465648855
1002	0.501	16.4025641026	2.32413793103	1.4	-7.29236641221
1003	0.5015	27.7769230769	0.872413793103	-1.52	6.85267175573
1004	0.502	24.9333333333	-2.03103448276	-10.28	-1.63435114504
1005	0.5025	23.5115384615	-0.579310344828	-8.82	-1.63435114504
1006	0.503	24.9333333333	-6.38620689655	-0.06	-0.219847328244
1007	0.5035	23.5115384615	-3.48275862069	-0.06	-0.219847328244
1008	0.504	26.3551282051	-2.03103448276	-0.06	1.19465648855
1009	0.5045	19.2461538462	-2.03103448276	1.4	1.19465648855
1010	0.505	23.5115384615	-3.48275862069	1.4	-8.70687022901
1011	0.5055	23.5115384615	-0.579310344828	-5.9	2.60916030534
1012	0.506	24.9333333333	-0.579310344828	14.54	4.02366412214
1013	0.5065	24.9333333333	3.77586206897	4.32	2.60916030534
1014	0.507	22.0897435897	3.77586206897	1.4	-0.219847328244
1015	0.5075	29.1987179487	-0.579310344828	-0.06	-1.63435114504
1016	0.508	40.5730769231	-0.579310344828	1.4	2.60916030534
1017	0.5085	22.0897435897	-0.579310344828	2.86	-10.1213740458
1018	0.509	24.9333333333	-2.03103448276	-0.06	-0.219847328244
1019	0.5095	24.9333333333	0.872413793103	-1.52	-1.63435114504
1020	0.51	24.9333333333	2.32413793103	-1.52	-3.04885496183
1021	0.5105	22.0897435897	-7.83793103448	-0.06	1.19465648855
1022	0.511	19.2461538462	-2.03103448276	-0.06	-0.219847328244
1023	0.5115	27.7769230769	-2.03103448276	4.32	-10.1213740458
1024	0.512	23.5115384615	-2.03103448276	-0.06	8.26717557252
1025	0.5125	23.5115384615	-2.03103448276	16.0	-1.63435114504
1026	0.513	26.3551282051	-3.48275862069	-8.82	-3.04885496183
1027	0.5135	23.5115384615	0.872413793103	-1.52	-1.63435114504
1028	0.514	27.7769230769	13.9379310345	1.4	-1.63435114504
1029	0.5145	29.1987179487	-4.93448275862	1.4	2.60916030534
1030	0.515	16.4025641026	0.872413793103	2.86	-10.1213740458
1031	0.5155	24.9333333333	-2.03103448276	-0.06	-5.87786259542
1032	0.516	27.7769230769	-0.579310344828	8.7	2.60916030534
1033	0.5165	27.7769230769	-2.03103448276	-4.44	4.02366412214
1034	0.517	26.3551282051	0.872413793103	-0.06	2.60916030534
1035	0.5175	27.7769230769	-7.83793103448	2.86	2.60916030534
1036	0.518	27.7769230769	5.2275862069	-0.06	2.60916030534
1037	0.5185	39.1512820513	-2.03103448276	-1.52	5.43816793893
1038	0.519	24.9333333333	-2.03103448276	1.4	-3.04885496183
1039	0.5195	27.7769230769	0.872413793103	-0.06	4.02366412214
1040	0.52	26.3551282051	-2.03103448276	-4.44	4.02366412214
1041	0.5205	27.7769230769	-10.7413793103	4.32	1.19465648855
1042	0.521	23.5115384615	-0.579310344828	-0.06	1.19465648855
1043	0.5215	26.3551282051	-10.7413793103	2.86	5.43816793893
1044	0.522	37.7294871795	-0.579310344828	4.32	1.19465648855
1045	0.5225	27.7769230769	-2.03103448276	2.86	1.19465648855
1046	0.523	26.3551282051	0.872413793103	10.16	2.60916030534
1047	0.5235	26.3551282051	-2.03103448276	-1.52	5.43816793893
1048	0.524	26.3551282051	13.9379310345	2.86	4.02366412214
1049	0.5245	22.0897435897	-4.93448275862	4.32	4.02366412214
1050	0.525	27.7769230769	-0.579310344828	2.86	5.43816793893
1051	0.5255	37.7294871795	-0.579310344828	-1.52	1.19465648855
1052	0.526	26.3551282051	-0.579310344828	-1.52	12.5106870229
1053	0.5265	23.5115384615	-0.579310344828	16.0	5.43816793893
1054	0.527	26.3551282051	-3.48275862069	-0.06	4.02366412214
1055	0.5275	26.3551282051	-6.38620689655	1.4	5.43816793893
1056	0.528	24.9333333333	6.67931034483	-0.06	5.43816793893
1057	0.5285	37.7294871795	-0.579310344828	-0.06	-7.29236641221
1058	0.529	24.9333333333	-0.579310344828	-2.98	20.9977099237
1059	0.5295	24.9333333333	-0.579310344828	-1.52	2.60916030534
1060	0.53	26.3551282051	-0.579310344828	5.78	4.02366412214
1061	0.5305	24.9333333333	0.872413793103	-0.06	2.60916030534
1062	0.531	24.9333333333	-13.6448275862	1.4	1.19465648855
1063	0.5315	20.6679487179	15.3896551724	-1.52	-0.219847328244
1064	0.532	33.4641025641	-0.579310344828	1.4	4.02366412214
1065	0.5325	23.5115384615	-2.03103448276	2.86	6.85267175573
1066	0.533	23.5115384615	-3.48275862069	-8.82	-1.63435114504
1067	0.5335	23.5115384615	0.872413793103	-8.82	1.19465648855
1068	0.534	22.0897435897	0.872413793103	2.86	1.19465648855
1069	0.5345	20.6679487179	-7.83793103448	2.86	1.19465648855
1070	0.535	19.2461538462	-0.579310344828	-0.06	1.19465648855
1071	0.5355	26.3551282051	-3.48275862069	-1.52	-4.46335877863
1072	0.536	19.2461538462	-0.579310344828	-0.06	16.7541984733
1073	0.5365	19.2461538462	0.872413793103	20.38	1.19465648855
1074	0.537	23.5115384615	-3.48275862069	-0.06	4.02366412214
1075	0.5375	23.5115384615	-13.6448275862	-0.06	2.60916030534
1076	0.538	24.9333333333	16.8413793103	-1.52	2.60916030534
1077	0.5385	19.2461538462	-2.03103448276	-1.52	5.43816793893
1078	0.539	13.558974359	-0.579310344828	4.32	-7.29236641221
1079	0.5395	22.0897435897	-2.03103448276	1.4	-7.29236641221
1080	0.54	22.0897435897	-2.03103448276	-5.9	2.60916030534
1081	0.5405	23.5115384615	-0.579310344828	17.46	4.02366412214
1082	0.541	22.0897435897	-2.03103448276	2.86	5.43816793893
1083	0.5415	17.8243589744	-3.48275862069	1.4	2.60916030534
1084	0.542	24.9333333333	-2.03103448276	-0.06	4.02366412214
1085	0.5425	40.5730769231	-2.03103448276	1.4	6.85267175573
1086	0.543	12.1371794872	-4.93448275862	2.86	20.9977099237
1087	0.5435	22.0897435897	-2.03103448276	-0.06	-1.63435114504
1088	0.544	20.6679487179	-2.03103448276	13.08	2.60916030534
1089	0.5445	20.6679487179	2.32413793103	-4.44	5.43816793893
1090	0.545	17.8243589744	18.2931034483	-1.52	2.60916030534
1091	0.5455	22.0897435897	-10.7413793103	-1.52	5.43816793893
1092	0.546	17.8243589744	-2.03103448276	2.86	5.43816793893
1093	0.5465	22.0897435897	-0.579310344828	2.86	6.85267175573
1094	0.547	20.6679487179	-0.579310344828	20.38	4.02366412214
1095	0.5475	17.8243589744	-2.03103448276	-7.36	9.68167938931
1096	0.548	20.6679487179	-4.93448275862	-1.52	5.43816793893
1097	0.5485	22.0897435897	13.9379310345	1.4	8.26717557252
1098	0.549	2.18461538462	0.872413793103	-0.06	5.43816793893
1099	0.5495	37.7294871795	-2.03103448276	1.4	-0.219847328244
1100	0.55	17.8243589744	0.872413793103	4.32	9.68167938931
1101	0.5505	20.6679487179	-2.03103448276	-7.36	8.26717557252
1102	0.551	16.4025641026	-0.579310344828	-4.44	8.26717557252
1103	0.5515	19.2461538462	16.8413793103	-0.06	11.0961832061
1104	0.552	19.2461538462	-7.83793103448	-0.06	9.68167938931
1105	0.5525	10.7153846154	-3.48275862069	1.4	8.26717557252
1106	0.553	33.4641025641	-2.03103448276	2.86	-0.219847328244
1107	0.5535	17.8243589744	0.872413793103	1.4	29.4847328244
1108	0.554	19.2461538462	-2.03103448276	11.62	12.5106870229
1109	0.5545	19.2461538462	-0.579310344828	-1.52	12.5106870229
1110	0.555	20.6679487179	11.0344827586	-1.52	9.68167938931
1111	0.5555	22.0897435897	-6.38620689655	2.86	8.26717557252
1112	0.556	27.7769230769	0.872413793103	1.4	6.85267175573
1113	0.5565	39.1512820513	2.32413793103	2.86	8.26717557252
1114	0.557	24.9333333333	-0.579310344828	-4.44	6.85267175573
1115	0.5575	23.5115384615	2.32413793103	8.7	12.5106870229
1116	0.558	23.5115384615	-0.579310344828	-0.06	6.85267175573
1117	0.5585	23.5115384615	-12.1931034483	-0.06	5.43816793893
1118	0.559	24.9333333333	18.2931034483	1.4	5.43816793893
1119	0.5595	16.4025641026	-0.579310344828	4.32	5.43816793893
1120	0.56	33.4641025641	-0.579310344828	2.86	4.02366412214
1121	0.5605	17.8243589744	-3.48275862069	-2.98	18.1687022901
1122	0.561	23.5115384615	-2.03103448276	17.46	5.43816793893
1123	0.5615	23.5115384615	0.872413793103	-4.44	5.43816793893
1124	0.562	23.5115384615	-7.83793103448	-0.06	5.43816793893
1125	0.5625	26.3551282051	-6.38620689655	1.4	6.85267175573
1126	0.563	12.1371794872	-4.93448275862	1.4	9.68167938931
1127	0.5635	14.9807692308	-0.579310344828	-1.52	1.19465648855
1128	0.564	23.5115384615	-0.579310344828	-0.06	6.85267175573
1129	0.5645	26.3551282051	-0.579310344828	4.32	5.43816793893
1130	0.565	23.5115384615	-2.03103448276	1.4	12.5106870229
1131	0.5655	23.5115384615	-15.0965517241	1.4	9.68167938931
1132	0.566	26.3551282051	-12.1931034483	4.32	13.9251908397
1133	0.5665	19.2461538462	0.872413793103	4.32	9.68167938931
1134	0.567	19.2461538462	0.872413793103	-0.06	20.9977099237
1135	0.5675	23.5115384615	-0.579310344828	4.32	12.5106870229
1136	0.568	22.0897435897	-0.579310344828	16.0	8.26717557252
1137	0.5685	20.6679487179	-3.48275862069	-8.82	9.68167938931
1138	0.569	20.6679487179	-13.6448275862	-1.52	9.68167938931
1139	0.5695	24.9333333333	-0.579310344828	-0.06	13.9251908397
1140	0.57	12.1371794872	-2.03103448276	1.4	6.85267175573
1141	0.5705	17.8243589744	-3.48275862069	-1.52	12.5106870229
1142	0.571	23.5115384615	-3.48275862069	2.86	6.85267175573
1143	0.5715	24.9333333333	-2.03103448276	18.92	8.26717557252
1144	0.572	23.5115384615	-12.1931034483	1.4	6.85267175573
1145	0.5725	29.1987179487	9.58275862069	2.86	8.26717557252
1146	0.573	26.3551282051	-0.579310344828	1.4	6.85267175573
1147	0.5735	36.3076923077	-0.579310344828	-0.06	9.68167938931
1148	0.574	16.4025641026	2.32413793103	4.32	-1.63435114504
1149	0.5745	22.0897435897	0.872413793103	-1.52	5.43816793893
1150	0.575	24.9333333333	0.872413793103	4.32	8.26717557252
1151	0.5755	23.5115384615	5.2275862069	-0.06	8.26717557252
1152	0.576	23.5115384615	18.2931034483	-0.06	11.0961832061
1153	0.5765	12.1371794872	-0.579310344828	-0.06	9.68167938931
1154	0.577	36.3076923077	-2.03103448276	-2.98	9.68167938931
1155	0.5775	12.1371794872	-2.03103448276	4.32	25.241221374
1156	0.578	20.6679487179	-2.03103448276	-1.52	4.02366412214
1157	0.5785	20.6679487179	-0.579310344828	-1.52	6.85267175573
1158	0.579	17.8243589744	-10.7413793103	-1.52	8.26717557252
1159	0.5795	19.2461538462	-0.579310344828	1.4	6.85267175573
1160	0.58	20.6679487179	-6.38620689655	1.4	8.26717557252
1161	0.5805	27.7769230769	-0.579310344828	4.32	4.02366412214
1162	0.581	13.558974359	-2.03103448276	1.4	1.19465648855
1163	0.5815	19.2461538462	0.872413793103	-1.52	18.1687022901
1164	0.582	23.5115384615	-2.03103448276	16.0	6.85267175573
1165	0.5825	26.3551282051	2.32413793103	-0.06	6.85267175573
1166	0.583	23.5115384615	16.8413793103	2.86	6.85267175573
1167	0.5835	19.2461538462	-10.7413793103	-0.06	5.43816793893
1168	0.584	30.6205128205	-0.579310344828	1.4	5.43816793893
1169	0.5845	12.1371794872	-3.48275862069	4.32	9.68167938931
1170	0.585	20.6679487179	-0.579310344828	-5.9	1.19465648855
1171	0.5855	19.2461538462	2.32413793103	17.46	1.19465648855
1172	0.586	17.8243589744	-2.03103448276	1.4	1.19465648855
1173	0.5865	23.5115384615	16.8413793103	1.4	1.19465648855
1174	0.587	20.6679487179	-9.28965517241	-1.52	-0.219847328244
1175	0.5875	20.6679487179	0.872413793103	-0.06	-0.219847328244
1176	0.588	14.9807692308	-0.579310344828	1.4	2.60916030534
1177	0.5885	23.5115384615	-0.579310344828	-0.06	1.19465648855
1178	0.589	19.2461538462	0.872413793103	7.24	1.19465648855
1179	0.5895	17.8243589744	-0.579310344828	-2.98	1.19465648855
1180	0.59	19.2461538462	-7.83793103448	-1.52	-0.219847328244
1181	0.5905	17.8243589744	0.872413793103	1.4	-0.219847328244
1182	0.591	13.558974359	0.872413793103	1.4	-0.219847328244
1183	0.5915	24.9333333333	0.872413793103	2.86	4.02366412214
1184	0.592	20.6679487179	0.872413793103	4.32	-5.87786259542
1185	0.5925	20.6679487179	0.872413793103	-10.28	-3.04885496183
1186	0.593	17.8243589744	2.32413793103	1.4	-3.04885496183
1187	0.5935	22.0897435897	-4.93448275862	2.86	-3.04885496183
1188	0.594	20.6679487179	3.77586206897	-1.52	-3.04885496183
1189	0.5945	34.8858974359	0.872413793103	1.4	-14.3648854962
1190	0.595	20.6679487179	0.872413793103	-0.06	9.68167938931
1191	0.5955	19.2461538462	0.872413793103	-1.52	-3.04885496183
1192	0.596	22.0897435897	-2.03103448276	4.32	-3.04885496183
1193	0.5965	20.6679487179	0.872413793103	-2.98	-4.46335877863
1194	0.597	23.5115384615	-9.28965517241	1.4	-4.46335877863
1195	0.5975	17.8243589744	-0.579310344828	1.4	-1.63435114504
1196	0.598	22.0897435897	-7.83793103448	2.86	-0.219847328244
1197	0.5985	16.4025641026	-2.03103448276	2.86	16.7541984733
1198	0.599	20.6679487179	-0.579310344828	-4.44	4.02366412214
1199	0.5995	20.6679487179	0.872413793103	2.86	6.85267175573
1200	0.6	17.8243589744	-0.579310344828	-0.06	8.26717557252
1201	0.6005	17.8243589744	-18.0	2.86	9.68167938931
1202	0.601	22.0897435897	-0.579310344828	-1.52	8.26717557252
1203	0.6015	16.4025641026	-4.93448275862	-1.52	15.3396946565
1204	0.602	16.4025641026	-4.93448275862	4.32	29.4847328244
1205	0.6025	19.2461538462	-4.93448275862	4.32	6.85267175573
1206	0.603	19.2461538462	-3.48275862069	1.4	16.7541984733
1207	0.6035	20.6679487179	-16.5482758621	2.86	15.3396946565
1208	0.604	19.2461538462	15.3896551724	-0.06	18.1687022901
1209	0.6045	17.8243589744	-13.6448275862	-0.06	20.9977099237
1210	0.605	24.9333333333	-4.93448275862	1.4	19.5832061069
1211	0.6055	17.8243589744	-2.03103448276	-0.06	19.5832061069
1212	0.606	16.4025641026	-2.03103448276	-11.74	20.9977099237
1213	0.6065	16.4025641026	-2.03103448276	16.0	23.8267175573
1214	0.607	17.8243589744	-0.579310344828	1.4	23.8267175573
1215	0.6075	17.8243589744	-9.28965517241	-1.52	22.4122137405
1216	0.608	24.9333333333	-3.48275862069	1.4	30.8992366412
1217	0.6085	16.4025641026	-2.03103448276	2.86	29.4847328244
1218	0.609	16.4025641026	-2.03103448276	-0.06	40.8007633588
1219	0.6095	20.6679487179	-2.03103448276	2.86	33.7282442748
1220	0.61	17.8243589744	-0.579310344828	-8.82	36.5572519084
1221	0.6105	20.6679487179	-2.03103448276	1.4	43.6297709924
1222	0.611	20.6679487179	-9.28965517241	-1.52	45.0442748092
1223	0.6115	14.9807692308	-6.38620689655	-1.52	50.7022900763
1224	0.612	30.6205128205	-6.38620689655	-0.06	45.0442748092
1225	0.6125	19.2461538462	-4.93448275862	-1.52	78.9923664122
1226	0.613	20.6679487179	-4.93448275862	1.4	64.8473282443
1227	0.6135	17.8243589744	-6.38620689655	-0.06	69.0908396947
1228	0.614	19.2461538462	-4.93448275862	1.4	71.9198473282
1229	0.6145	17.8243589744	-0.579310344828	-1.52	76.1633587786
1230	0.615	16.4025641026	-0.579310344828	-1.52	78.9923664122
1231	0.6155	29.1987179487	-4.93448275862	-0.06	69.0908396947
1232	0.616	13.558974359	-6.38620689655	-2.98	98.7954198473
1233	0.6165	16.4025641026	-4.93448275862	2.86	83.2358778626
1234	0.617	17.8243589744	-4.93448275862	16.0	81.8213740458
1235	0.6175	17.8243589744	-7.83793103448	-5.9	83.2358778626
1236	0.618	16.4025641026	-6.38620689655	-0.06	84.6503816794
1237	0.6185	20.6679487179	-6.38620689655	-0.06	83.2358778626
1238	0.619	5.02820512821	-6.38620689655	-0.06	87.479389313
1239	0.6195	7.87179487179	-9.28965517241	-0.06	77.5778625954
1240	0.62	17.8243589744	-7.83793103448	-1.52	94.5519083969
1241	0.6205	20.6679487179	-6.38620689655	-0.06	83.2358778626
1242	0.621	19.2461538462	-2.03103448276	-0.06	83.2358778626
1243	0.6215	22.0897435897	15.3896551724	1.4	78.9923664122
1244	0.622	24.9333333333	-2.03103448276	-0.06	77.5778625954
1245	0.6225	26.3551282051	-2.03103448276	1.4	66.2618320611
1246	0.623	23.5115384615	-0.579310344828	-1.52	87.479389313
1247	0.6235	26.3551282051	-0.579310344828	-0.06	67.6763358779
1248	0.624	27.7769230769	0.872413793103	8.7	64.8473282443
1249	0.6245	30.6205128205	18.2931034483	2.86	60.6038167939
1250	0.625	33.4641025641	-7.83793103448	5.78	60.6038167939
1251	0.6255	33.4641025641	2.32413793103	2.86	59.1893129771
1252	0.626	34.8858974359	0.872413793103	1.4	50.7022900763
1253	0.6265	32.0423076923	2.32413793103	-0.06	66.2618320611
1254	0.627	34.8858974359	3.77586206897	17.46	53.5312977099
1255	0.6275	37.7294871795	0.872413793103	-1.52	54.9458015267
1256	0.628	34.8858974359	2.32413793103	-1.52	60.6038167939
1257	0.6285	37.7294871795	-0.579310344828	-4.44	64.8473282443
1258	0.629	41.9948717949	-0.579310344828	-1.52	66.2618320611
1259	0.6295	29.1987179487	5.2275862069	1.4	83.2358778626
1260	0.63	39.1512820513	2.32413793103	-0.06	66.2618320611
1261	0.6305	40.5730769231	5.2275862069	-0.06	76.1633587786
1262	0.631	40.5730769231	2.32413793103	1.4	78.9923664122
1263	0.6315	41.9948717949	11.0344827586	-0.06	78.9923664122
1264	0.632	37.7294871795	0.872413793103	-1.52	90.3083969466
1265	0.6325	27.7769230769	0.872413793103	-1.52	87.479389313
1266	0.633	60.4782051282	3.77586206897	-1.52	88.8938931298
1267	0.6335	41.9948717949	2.32413793103	1.4	91.7229007634
1268	0.634	41.9948717949	3.77586206897	-1.52	86.0648854962
1269	0.6345	40.5730769231	0.872413793103	-7.36	90.3083969466
1270	0.635	44.8384615385	6.67931034483	-1.52	88.8938931298
1271	0.6355	40.5730769231	-4.93448275862	-1.52	90.3083969466
1272	0.636	32.0423076923	-2.03103448276	-1.52	84.6503816794
1273	0.6365	61.9	0.872413793103	-1.52	83.2358778626
1274	0.637	46.2602564103	-0.579310344828	-2.98	91.7229007634
1275	0.6375	46.2602564103	0.872413793103	5.78	78.9923664122
1276	0.638	47.6820512821	5.2275862069	-4.44	77.5778625954
1277	0.6385	49.1038461538	-9.28965517241	-0.06	76.1633587786
1278	0.639	50.5256410256	-6.38620689655	-0.06	73.334351145
1279	0.6395	36.3076923077	2.32413793103	1.4	71.9198473282
1280	0.64	39.1512820513	0.872413793103	-0.06	66.2618320611
1281	0.6405	49.1038461538	-2.03103448276	-1.52	56.3603053435
1282	0.641	49.1038461538	0.872413793103	4.32	59.1893129771
1283	0.6415	53.3692307692	6.67931034483	-1.52	53.5312977099
1284	0.642	51.9474358974	19.7448275862	-1.52	47.8732824427
1285	0.6425	46.2602564103	-9.28965517241	-0.06	40.8007633588
1286	0.643	46.2602564103	-0.579310344828	2.86	40.8007633588
1287	0.6435	56.2128205128	0.872413793103	1.4	30.8992366412
1288	0.644	47.6820512821	0.872413793103	-0.06	43.6297709924
1289	0.6445	50.5256410256	2.32413793103	20.38	30.8992366412
1290	0.645	47.6820512821	-0.579310344828	-0.06	28.0702290076
1291	0.6455	46.2602564103	-10.7413793103	-0.06	26.6557251908
1292	0.646	46.2602564103	16.8413793103	-0.06	23.8267175573
1293	0.6465	46.2602564103	0.872413793103	1.4	16.7541984733
1294	0.647	43.4166666667	-0.579310344828	2.86	30.8992366412
1295	0.6475	44.8384615385	0.872413793103	5.78	18.1687022901
1296	0.648	44.8384615385	0.872413793103	20.38	16.7541984733
1297	0.6485	43.4166666667	0.872413793103	-4.44	15.3396946565
1298	0.649	43.4166666667	-6.38620689655	-0.06	13.9251908397
1299	0.6495	47.6820512821	0.872413793103	1.4	13.9251908397
1300	0.65	32.0423076923	-2.03103448276	-0.06	8.26717557252
1301	0.6505	56.2128205128	0.872413793103	4.32	2.60916030534
1302	0.651	41.9948717949	-2.03103448276	2.86	6.85267175573
1303	0.6515	44.8384615385	-0.579310344828	-8.82	1.19465648855
1304	0.652	41.9948717949	0.872413793103	-2.98	2.60916030534
1305	0.6525	43.4166666667	-9.28965517241	1.4	-0.219847328244
1306	0.653	43.4166666667	-6.38620689655	2.86	-1.63435114504
1307	0.6535	54.791025641	2.32413793103	-0.06	-12.9503816794
1308	0.654	41.9948717949	-0.579310344828	-0.06	12.5106870229
1309	0.6545	41.9948717949	-2.03103448276	-1.52	-4.46335877863
1310	0.655	40.5730769231	2.32413793103	1.4	-7.29236641221
1311	0.6555	40.5730769231	3.77586206897	-0.06	-8.70687022901
1312	0.656	40.5730769231	-12.1931034483	1.4	-8.70687022901
1313	0.6565	39.1512820513	-0.579310344828	1.4	-10.1213740458
1314	0.657	54.791025641	-0.579310344828	2.86	-24.2664122137
1315	0.6575	40.5730769231	-0.579310344828	1.4	-0.219847328244
1316	0.658	39.1512820513	-0.579310344828	-1.52	-12.9503816794
1317	0.6585	40.5730769231	0.872413793103	7.24	-12.9503816794
1318	0.659	40.5730769231	-10.7413793103	-2.98	-14.3648854962
1319	0.6595	41.9948717949	21.1965517241	-2.98	-17.1938931298
1320	0.66	40.5730769231	-2.03103448276	-1.52	-15.779389313
1321	0.6605	36.3076923077	-0.579310344828	1.4	-15.779389313
1322	0.661	40.5730769231	0.872413793103	-0.06	-25.6809160305
1323	0.6615	41.9948717949	-0.579310344828	-10.28	-18.6083969466
1324	0.662	43.4166666667	2.32413793103	18.92	-21.4374045802
1325	0.6625	41.9948717949	-7.83793103448	-0.06	-20.0229007634
1326	0.663	41.9948717949	5.2275862069	2.86	-20.0229007634
1327	0.6635	43.4166666667	0.872413793103	2.86	-21.4374045802
1328	0.664	57.6346153846	-2.03103448276	-0.06	-18.6083969466
1329	0.6645	32.0423076923	-0.579310344828	2.86	-7.29236641221
1330	0.665	43.4166666667	0.872413793103	-4.44	-28.5099236641
1331	0.6655	43.4166666667	-2.03103448276	8.7	-24.2664122137
1332	0.666	41.9948717949	-9.28965517241	2.86	-24.2664122137
1333	0.6665	40.5730769231	19.7448275862	2.86	-24.2664122137
1334	0.667	41.9948717949	-7.83793103448	-0.06	-25.6809160305
1335	0.6675	47.6820512821	0.872413793103	2.86	-31.3389312977
1336	0.668	39.1512820513	0.872413793103	1.4	-32.7534351145
1337	0.6685	40.5730769231	-0.579310344828	-4.44	-25.6809160305
1338	0.669	39.1512820513	-2.03103448276	1.4	-24.2664122137
1339	0.6695	40.5730769231	-13.6448275862	-1.52	-24.2664122137
1340	0.67	43.4166666667	-7.83793103448	2.86	-27.0954198473
1341	0.6705	44.8384615385	0.872413793103	1.4	-29.9244274809
1342	0.671	60.4782051282	0.872413793103	-0.06	-25.6809160305
1343	0.6715	39.1512820513	-0.579310344828	-0.06	-20.0229007634
1344	0.672	40.5730769231	-3.48275862069	4.32	-35.5824427481
1345	0.6725	44.8384615385	-0.579310344828	-7.36	-27.0954198473
1346	0.673	43.4166666667	8.13103448276	-0.06	-28.5099236641
1347	0.6735	40.5730769231	0.872413793103	1.4	-28.5099236641
1348	0.674	39.1512820513	0.872413793103	1.4	-27.0954198473
1349	0.6745	43.4166666667	2.32413793103	4.32	-41.2404580153
1350	0.675	43.4166666667	0.872413793103	-5.9	-31.3389312977
1351	0.6755	47.6820512821	-0.579310344828	11.62	-32.7534351145
1352	0.676	43.4166666667	0.872413793103	4.32	-34.1679389313
1353	0.6765	43.4166666667	-13.6448275862	-1.52	-32.7534351145
1354	0.677	46.2602564103	-10.7413793103	-0.06	-32.7534351145
1355	0.6775	37.7294871795	-3.48275862069	-1.52	-32.7534351145
1356	0.678	46.2602564103	-4.93448275862	-0.06	-31.3389312977
1357	0.6785	40.5730769231	-4.93448275862	-1.52	-42.6549618321
1358	0.679	37.7294871795	-3.48275862069	5.78	-32.7534351145
1359	0.6795	39.1512820513	-0.579310344828	-0.06	-32.7534351145
1360	0.68	41.9948717949	18.2931034483	1.4	-34.1679389313
1361	0.6805	41.9948717949	-6.38620689655	2.86	-32.7534351145
1362	0.681	49.1038461538	-2.03103448276	-1.52	-32.7534351145
1363	0.6815	33.4641025641	-2.03103448276	1.4	-28.5099236641
1364	0.682	39.1512820513	0.872413793103	-0.06	-34.1679389313
1365	0.6825	39.1512820513	2.32413793103	-5.9	-32.7534351145
1366	0.683	39.1512820513	0.872413793103	1.4	-29.9244274809
1367	0.6835	37.7294871795	-0.579310344828	-2.98	-28.5099236641
1368	0.684	40.5730769231	-0.579310344828	-0.06	-29.9244274809
1369	0.6845	32.0423076923	-2.03103448276	1.4	-28.5099236641
1370	0.685	33.4641025641	-4.93448275862	2.86	-39.8259541985
1371	0.6855	37.7294871795	-2.03103448276	-7.36	-28.5099236641
1372	0.686	39.1512820513	-2.03103448276	13.08	-31.3389312977
1373	0.6865	36.3076923077	-0.579310344828	1.4	-31.3389312977
1374	0.687	34.8858974359	-12.1931034483	1.4	-32.7534351145
1375	0.6875	32.0423076923	-3.48275862069	-0.06	-28.5099236641
1376	0.688	33.4641025641	-0.579310344828	2.86	-39.8259541985
1377	0.6885	34.8858974359	-4.93448275862	-1.52	-36.9969465649
1378	0.689	34.8858974359	0.872413793103	-1.52	-28.5099236641
1379	0.6895	34.8858974359	0.872413793103	2.86	-28.5099236641
1380	0.69	33.4641025641	3.77586206897	-0.06	-28.5099236641
1381	0.6905	34.8858974359	-7.83793103448	-0.06	-31.3389312977
1382	0.691	29.1987179487	-0.579310344828	1.4	-32.7534351145
1383	0.6915	49.1038461538	-2.03103448276	1.4	-41.2404580153
1384	0.692	34.8858974359	0.872413793103	2.86	-17.1938931298
1385	0.6925	34.8858974359	0.872413793103	1.4	-29.9244274809
1386	0.693	32.0423076923	-4.93448275862	-4.44	-32.7534351145
1387	0.6935	33.4641025641	-0.579310344828	1.4	-29.9244274809
1388	0.694	32.0423076923	-9.28965517241	1.4	-34.1679389313
1389	0.6945	23.5115384615	-2.03103448276	-0.06	-34.1679389313
1390	0.695	50.5256410256	-2.03103448276	-0.06	-41.2404580153
1391	0.6955	34.8858974359	-2.03103448276	-4.44	-22.8519083969
1392	0.696	33.4641025641	-3.48275862069	-8.82	-34.1679389313
1393	0.6965	33.4641025641	-0.579310344828	-1.52	-29.9244274809
1394	0.697	33.4641025641	-6.38620689655	2.86	-31.3389312977
1395	0.6975	33.4641025641	3.77586206897	-1.52	-28.5099236641
1396	0.698	16.4025641026	0.872413793103	2.86	-28.5099236641
1397	0.6985	32.0423076923	0.872413793103	-1.52	-11.5358778626
1398	0.699	32.0423076923	0.872413793103	-1.52	-27.0954198473
1399	0.6995	33.4641025641	-2.03103448276	4.32	-29.9244274809
1400	0.7	34.8858974359	3.77586206897	1.4	-28.5099236641
1401	0.7005	33.4641025641	-10.7413793103	-0.06	-27.0954198473
1402	0.701	29.1987179487	-2.03103448276	1.4	-28.5099236641
1403	0.7015	40.5730769231	-2.03103448276	1.4	-38.4114503817
1404	0.702	36.3076923077	-3.48275862069	-4.44	-14.3648854962
1405	0.7025	36.3076923077	-2.03103448276	-0.06	-27.0954198473
1406	0.703	34.8858974359	-2.03103448276	7.24	-25.6809160305
1407	0.7035	33.4641025641	3.77586206897	-1.52	-25.6809160305
1408	0.704	34.8858974359	-13.6448275862	-1.52	-24.2664122137
1409	0.7045	34.8858974359	11.0344827586	-1.52	-25.6809160305
1410	0.705	39.1512820513	-0.579310344828	1.4	-24.2664122137
1411	0.7055	33.4641025641	-0.579310344828	1.4	-12.9503816794
1412	0.706	36.3076923077	-0.579310344828	-1.52	-35.5824427481
1413	0.7065	39.1512820513	-0.579310344828	4.32	-8.70687022901
1414	0.707	37.7294871795	-4.93448275862	-0.06	-24.2664122137
1415	0.7075	36.3076923077	8.13103448276	2.86	-22.8519083969
1416	0.708	34.8858974359	-0.579310344828	1.4	-21.4374045802
1417	0.7085	47.6820512821	2.32413793103	2.86	-21.4374045802
1418	0.709	30.6205128205	0.872413793103	1.4	-10.1213740458
1419	0.7095	34.8858974359	0.872413793103	4.32	-32.7534351145
1420	0.71	37.7294871795	-3.48275862069	-5.9	-24.2664122137
1421	0.7105	34.8858974359	-4.93448275862	2.86	-24.2664122137
1422	0.711	33.4641025641	13.9379310345	1.4	-22.8519083969
1423	0.7115	30.6205128205	-0.579310344828	-0.06	-21.4374045802
1424	0.712	23.5115384615	0.872413793103	1.4	-22.8519083969
1425	0.7125	30.6205128205	-2.03103448276	2.86	-24.2664122137
1426	0.713	30.6205128205	-0.579310344828	-7.36	-24.2664122137
1427	0.7135	30.6205128205	0.872413793103	17.46	-24.2664122137
1428	0.714	27.7769230769	-0.579310344828	1.4	-21.4374045802
1429	0.7145	29.1987179487	15.3896551724	2.86	-21.4374045802
1430	0.715	27.7769230769	-0.579310344828	-0.06	-20.0229007634
1431	0.7155	19.2461538462	0.872413793103	1.4	-20.0229007634
1432	0.716	27.7769230769	-2.03103448276	-1.52	-29.9244274809
1433	0.7165	30.6205128205	0.872413793103	1.4	-4.46335877863
1434	0.717	30.6205128205	0.872413793103	20.38	-21.4374045802
1435	0.7175	29.1987179487	-3.48275862069	-4.44	-17.1938931298
1436	0.718	27.7769230769	-9.28965517241	-0.06	-21.4374045802
1437	0.7185	29.1987179487	-6.38620689655	-0.06	-18.6083969466
1438	0.719	29.1987179487	-12.1931034483	1.4	-18.6083969466
1439	0.7195	17.8243589744	-3.48275862069	2.86	-3.04885496183
1440	0.72	24.9333333333	-3.48275862069	-1.52	-24.2664122137
1441	0.7205	26.3551282051	-0.579310344828	14.54	-18.6083969466
1442	0.721	27.7769230769	0.872413793103	-5.9	-18.6083969466
1443	0.7215	27.7769230769	11.0344827586	2.86	-20.0229007634
1444	0.722	27.7769230769	-4.93448275862	1.4	-17.1938931298
1445	0.7225	13.558974359	-0.579310344828	1.4	-18.6083969466
1446	0.723	24.9333333333	0.872413793103	1.4	-15.779389313
1447	0.7235	26.3551282051	0.872413793103	-4.44	-14.3648854962
1448	0.724	26.3551282051	2.32413793103	-1.52	-14.3648854962
1449	0.7245	26.3551282051	0.872413793103	1.4	-17.1938931298
1450	0.725	27.7769230769	-6.38620689655	-0.06	-15.779389313
1451	0.7255	27.7769230769	0.872413793103	1.4	-20.0229007634
1452	0.726	39.1512820513	-0.579310344828	-0.06	-28.5099236641
1453	0.7265	29.1987179487	-0.579310344828	-1.52	-3.04885496183
1454	0.727	29.1987179487	-0.579310344828	1.4	-17.1938931298
1455	0.7275	30.6205128205	0.872413793103	4.32	-17.1938931298
1456	0.728	29.1987179487	-12.1931034483	1.4	-17.1938931298
1457	0.7285	30.6205128205	-9.28965517241	-0.06	-20.0229007634
1458	0.729	27.7769230769	-0.579310344828	-1.52	-17.1938931298
1459	0.7295	30.6205128205	-0.579310344828	-1.52	-24.2664122137
1460	0.73	27.7769230769	0.872413793103	-0.06	-4.46335877863
1461	0.7305	29.1987179487	-2.03103448276	4.32	-27.0954198473
1462	0.731	29.1987179487	-0.579310344828	-2.98	-20.0229007634
1463	0.7315	26.3551282051	-9.28965517241	1.4	-18.6083969466
1464	0.732	29.1987179487	-4.93448275862	-1.52	-17.1938931298
1465	0.7325	34.8858974359	0.872413793103	-0.06	-18.6083969466
1466	0.733	19.2461538462	0.872413793103	-1.52	-22.8519083969
1467	0.7335	30.6205128205	0.872413793103	-0.06	-18.6083969466
1468	0.734	32.0423076923	-2.03103448276	13.08	-15.779389313
1469	0.7345	30.6205128205	-4.93448275862	-7.36	-17.1938931298
1470	0.735	27.7769230769	15.3896551724	-1.52	-18.6083969466
1471	0.7355	27.7769230769	-10.7413793103	-2.98	-18.6083969466
1472	0.736	27.7769230769	-2.03103448276	-0.06	-20.0229007634
1473	0.7365	43.4166666667	-0.579310344828	4.32	-20.0229007634
1474	0.737	23.5115384615	-2.03103448276	-0.06	-12.9503816794
1475	0.7375	27.7769230769	-2.03103448276	5.78	-7.29236641221
1476	0.738	29.1987179487	-3.48275862069	-10.28	-20.0229007634
1477	0.7385	24.9333333333	16.8413793103	2.86	-17.1938931298
1478	0.739	26.3551282051	-12.1931034483	1.4	-18.6083969466
1479	0.7395	30.6205128205	-0.579310344828	1.4	-18.6083969466
1480	0.74	41.9948717949	-0.579310344828	2.86	-15.779389313
1481	0.7405	23.5115384615	0.872413793103	1.4	-7.29236641221
1482	0.741	30.6205128205	-0.579310344828	-8.82	-20.0229007634
1483	0.7415	30.6205128205	-3.48275862069	20.38	-18.6083969466
1484	0.742	30.6205128205	-6.38620689655	4.32	-17.1938931298
1485	0.7425	30.6205128205	15.3896551724	-0.06	-17.1938931298
1486	0.743	29.1987179487	-0.579310344828	1.4	-18.6083969466
1487	0.7435	40.5730769231	-0.579310344828	-0.06	-17.1938931298
1488	0.744	29.1987179487	-2.03103448276	1.4	-31.3389312977
1489	0.7445	29.1987179487	0.872413793103	-4.44	-17.1938931298
1490	0.745	29.1987179487	-2.03103448276	5.78	-21.4374045802
1491	0.7455	29.1987179487	2.32413793103	1.4	-18.6083969466
1492	0.746	24.9333333333	-12.1931034483	1.4	-21.4374045802
1493	0.7465	26.3551282051	-0.579310344828	-0.06	-21.4374045802
1494	0.747	32.0423076923	-0.579310344828	2.86	-18.6083969466
1495	0.7475	27.7769230769	-2.03103448276	4.32	-22.8519083969
1496	0.748	26.3551282051	-0.579310344828	-8.82	-21.4374045802
1497	0.7485	27.7769230769	3.77586206897	-4.44	-21.4374045802
1498	0.749	27.7769230769	2.32413793103	1.4	-21.4374045802
1499	0.7495	26.3551282051	-2.03103448276	1.4	-22.8519083969
1500	0.75	19.2461538462	0.872413793103	1.4	-21.4374045802
1501	0.7505	40.5730769231	-0.579310344828	-1.52	-32.7534351145
1502	0.751	26.3551282051	0.872413793103	-1.52	-7.29236641221
1503	0.7515	26.3551282051	0.872413793103	2.86	-20.0229007634
1504	0.752	27.7769230769	-0.579310344828	18.92	-20.0229007634
1505	0.7525	27.7769230769	-4.93448275862	-7.36	-22.8519083969
1506	0.753	30.6205128205	0.872413793103	-0.06	-20.0229007634
1507	0.7535	34.8858974359	-3.48275862069	1.4	-22.8519083969
1508	0.754	16.4025641026	-2.03103448276	-1.52	-20.0229007634
1509	0.7545	23.5115384615	2.32413793103	2.86	-22.8519083969
1510	0.755	30.6205128205	0.872413793103	7.24	-21.4374045802
1511	0.7555	30.6205128205	-0.579310344828	-2.98	-22.8519083969
1512	0.756	30.6205128205	5.2275862069	-1.52	-22.8519083969
1513	0.7565	29.1987179487	18.2931034483	1.4	-24.2664122137
1514	0.757	27.7769230769	-9.28965517241	2.86	-25.6809160305
1515	0.7575	34.8858974359	0.872413793103	1.4	-27.0954198473
1516	0.758	23.5115384615	-0.579310344828	-0.06	-25.6809160305
1517	0.7585	29.1987179487	0.872413793103	-8.82	-25.6809160305
1518	0.759	29.1987179487	0.872413793103	20.38	-25.6809160305
1519	0.7595	29.1987179487	-0.579310344828	1.4	-25.6809160305
1520	0.76	27.7769230769	8.13103448276	-1.52	-25.6809160305
1521	0.7605	30.6205128205	-0.579310344828	-0.06	-25.6809160305
1522	0.761	41.9948717949	-2.03103448276	-0.06	-21.4374045802
1523	0.7615	19.2461538462	-2.03103448276	2.86	-14.3648854962
1524	0.762	29.1987179487	-0.579310344828	-5.9	-29.9244274809
1525	0.7625	26.3551282051	-6.38620689655	-2.98	-24.2664122137
1526	0.763	26.3551282051	-10.7413793103	-0.06	-24.2664122137
1527	0.7635	24.9333333333	5.2275862069	1.4	-25.6809160305
1528	0.764	27.7769230769	2.32413793103	-1.52	-22.8519083969
1529	0.7645	43.4166666667	0.872413793103	1.4	-21.4374045802
1530	0.765	16.4025641026	-2.03103448276	-0.06	-11.5358778626
1531	0.7655	23.5115384615	0.872413793103	-0.06	-20.0229007634
1532	0.766	23.5115384615	3.77586206897	1.4	-22.8519083969
1533	0.7665	24.9333333333	-10.7413793103	1.4	-18.6083969466
1534	0.767	24.9333333333	6.67931034483	1.4	-18.6083969466
1535	0.7675	27.7769230769	-0.579310344828	2.86	-21.4374045802
1536	0.768	17.8243589744	-0.579310344828	1.4	-20.0229007634
1537	0.7685	22.0897435897	-0.579310344828	-1.52	-22.8519083969
1538	0.769	22.0897435897	-2.03103448276	-1.52	-27.0954198473
1539	0.7695	22.0897435897	0.872413793103	1.4	-21.4374045802
1540	0.77	22.0897435897	-12.1931034483	-0.06	-20.0229007634
1541	0.7705	23.5115384615	-10.7413793103	1.4	-24.2664122137
1542	0.771	29.1987179487	-4.93448275862	1.4	-31.3389312977
1543	0.7715	22.0897435897	-0.579310344828	-0.06	-8.70687022901
1544	0.772	23.5115384615	-2.03103448276	4.32	-22.8519083969
1545	0.7725	23.5115384615	-2.03103448276	16.0	-21.4374045802
1546	0.773	22.0897435897	-2.03103448276	-2.98	-20.0229007634
1547	0.7735	24.9333333333	-4.93448275862	2.86	-17.1938931298
1548	0.774	20.6679487179	-0.579310344828	-1.52	-20.0229007634
1549	0.7745	10.7153846154	-0.579310344828	-0.06	-22.8519083969
1550	0.775	41.9948717949	-0.579310344828	1.4	-22.8519083969
1551	0.7755	26.3551282051	-0.579310344828	-1.52	-11.5358778626
1552	0.776	22.0897435897	-4.93448275862	-7.36	-28.5099236641
1553	0.7765	19.2461538462	-4.93448275862	-2.98	-25.6809160305
1554	0.777	22.0897435897	-13.6448275862	-0.06	-25.6809160305
1555	0.7775	20.6679487179	-2.03103448276	-0.06	-25.6809160305
1556	0.778	17.8243589744	-7.83793103448	1.4	-24.2664122137
1557	0.7785	19.2461538462	-2.03103448276	-0.06	-29.9244274809
1558	0.779	20.6679487179	-2.03103448276	-8.82	-27.0954198473
1559	0.7795	23.5115384615	0.872413793103	20.38	-25.6809160305
1560	0.78	20.6679487179	-6.38620689655	2.86	-24.2664122137
1561	0.7805	23.5115384615	0.872413793103	-0.06	-27.0954198473
1562	0.781	22.0897435897	-0.579310344828	-0.06	-24.2664122137
1563	0.7815	3.60641025641	-0.579310344828	1.4	-24.2664122137
1564	0.782	10.7153846154	-2.03103448276	4.32	-29.9244274809
1565	0.7825	17.8243589744	-0.579310344828	4.32	-21.4374045802
1566	0.783	20.6679487179	-3.48275862069	-2.98	-25.6809160305
1567	0.7835	20.6679487179	5.2275862069	1.4	-25.6809160305
1568	0.784	23.5115384615	2.32413793103	-0.06	-27.0954198473
1569	0.7845	19.2461538462	-6.38620689655	4.32	-25.6809160305
1570	0.785	40.5730769231	-2.03103448276	-1.52	-28.5099236641
1571	0.7855	16.4025641026	-4.93448275862	1.4	-25.6809160305
1572	0.786	20.6679487179	-2.03103448276	-0.06	-34.1679389313
1573	0.7865	17.8243589744	0.872413793103	1.4	-28.5099236641
1574	0.787	16.4025641026	-0.579310344828	-4.44	-28.5099236641
1575	0.7875	17.8243589744	16.8413793103	-0.06	-27.0954198473
1576	0.788	17.8243589744	-9.28965517241	-4.44	-25.6809160305
1577	0.7885	16.4025641026	-6.38620689655	1.4	-35.5824427481
1578	0.789	17.8243589744	-2.03103448276	-2.98	-34.1679389313
1579	0.7895	19.2461538462	0.872413793103	-8.82	-22.8519083969
1580	0.79	14.9807692308	-2.03103448276	16.0	-22.8519083969
1581	0.7905	17.8243589744	0.872413793103	-0.06	-22.8519083969
1582	0.791	14.9807692308	0.872413793103	-1.52	-27.0954198473
1583	0.7915	22.0897435897	-0.579310344828	1.4	-28.5099236641
1584	0.792	5.02820512821	-0.579310344828	-0.06	-25.6809160305
1585	0.7925	16.4025641026	0.872413793103	-0.06	-28.5099236641
1586	0.793	16.4025641026	0.872413793103	-8.82	-25.6809160305
1587	0.7935	14.9807692308	-0.579310344828	-7.36	-27.0954198473
1588	0.794	13.558974359	-0.579310344828	2.86	-25.6809160305
1589	0.7945	13.558974359	9.58275862069	-0.06	-28.5099236641
1590	0.795	14.9807692308	-0.579310344828	-0.06	-29.9244274809
1591	0.7955	27.7769230769	0.872413793103	-0.06	-25.6809160305
1592	0.796	2.18461538462	-2.03103448276	-1.52	-18.6083969466
1593	0.7965	14.9807692308	-2.03103448276	5.78	-32.7534351145
1594	0.797	12.1371794872	-2.03103448276	-11.74	-31.3389312977
1595	0.7975	13.558974359	2.32413793103	-0.06	-25.6809160305
1596	0.798	10.7153846154	-6.38620689655	-1.52	-25.6809160305
1597	0.7985	13.558974359	2.32413793103	2.86	-27.0954198473
1598	0.799	3.60641025641	0.872413793103	1.4	-24.2664122137
1599	0.7995	10.7153846154	2.32413793103	2.86	-35.5824427481
1600	0.8	10.7153846154	0.872413793103	8.7	-29.9244274809
1601	0.8005	12.1371794872	-2.03103448276	-2.98	-29.9244274809
1602	0.801	14.9807692308	0.872413793103	-1.52	-29.9244274809
1603	0.8015	10.7153846154	-4.93448275862	-0.06	-29.9244274809
1604	0.802	13.558974359	-6.38620689655	-1.52	-29.9244274809
1605	0.8025	-0.658974358974	-2.03103448276	-1.52	-27.0954198473
1606	0.803	9.29358974359	-2.03103448276	-1.52	-35.5824427481
1607	0.8035	9.29358974359	0.872413793103	5.78	-32.7534351145
1608	0.804	9.29358974359	-13.6448275862	-1.52	-29.9244274809
1609	0.8045	7.87179487179	0.872413793103	-0.06	-28.5099236641
1610	0.805	5.02820512821	-10.7413793103	1.4	-31.3389312977
1611	0.8055	0.762820512821	0.872413793103	1.4	-27.0954198473
1612	0.806	0.762820512821	0.872413793103	1.4	-39.8259541985
1613	0.8065	9.29358974359	0.872413793103	-7.36	-27.0954198473
1614	0.807	7.87179487179	2.32413793103	8.7	-27.0954198473
1615	0.8075	7.87179487179	3.77586206897	-0.06	-25.6809160305
1616	0.808	9.29358974359	16.8413793103	-1.52	-29.9244274809
1617	0.8085	10.7153846154	-0.579310344828	-0.06	-28.5099236641
1618	0.809	13.558974359	0.872413793103	4.32	-38.4114503817
1619	0.8095	5.02820512821	-2.03103448276	-1.52	-14.3648854962
1620	0.81	3.60641025641	0.872413793103	-0.06	-29.9244274809
1621	0.8105	3.60641025641	0.872413793103	7.24	-29.9244274809
1622	0.811	7.87179487179	-9.28965517241	2.86	-29.9244274809
1623	0.8115	5.02820512821	-7.83793103448	-0.06	-31.3389312977
1624	0.812	9.29358974359	-2.03103448276	-0.06	-31.3389312977
1625	0.8125	-4.92435897436	0.872413793103	-2.98	-31.3389312977
1626	0.813	2.18461538462	-0.579310344828	-0.06	-36.9969465649
1627	0.8135	2.18461538462	0.872413793103	18.92	-32.7534351145
1628	0.814	3.60641025641	-0.579310344828	-7.36	-32.7534351145
1629	0.8145	0.762820512821	2.32413793103	-0.06	-34.1679389313
1630	0.815	2.18461538462	9.58275862069	-0.06	-31.3389312977
1631	0.8155	10.7153846154	-0.579310344828	-0.06	-29.9244274809
1632	0.816	-2.08076923077	-2.03103448276	2.86	-44.0694656489
1633	0.8165	0.762820512821	0.872413793103	-1.52	-42.6549618321
1634	0.817	-2.08076923077	0.872413793103	-4.44	-35.5824427481
1635	0.8175	-0.658974358974	0.872413793103	7.24	-38.4114503817
1636	0.818	-0.658974358974	-0.579310344828	-5.9	-39.8259541985
1637	0.8185	-0.658974358974	-4.93448275862	1.4	-38.4114503817
1638	0.819	-14.8769230769	-3.48275862069	-0.06	-36.9969465649
1639	0.8195	19.2461538462	-2.03103448276	-1.52	-36.9969465649
1640	0.82	0.762820512821	-0.579310344828	-2.98	-24.2664122137
1641	0.8205	-0.658974358974	-2.03103448276	-1.52	-42.6549618321
1642	0.821	-0.658974358974	0.872413793103	-5.9	-36.9969465649
1643	0.8215	-2.08076923077	-12.1931034483	-1.52	-36.9969465649
1644	0.822	0.762820512821	-4.93448275862	2.86	-35.5824427481
1645	0.8225	-13.4551282051	0.872413793103	1.4	-34.1679389313
1646	0.823	19.2461538462	-0.579310344828	-1.52	-35.5824427481
1647	0.8235	-2.08076923077	0.872413793103	1.4	-35.5824427481
1648	0.824	0.762820512821	2.32413793103	18.92	-39.8259541985
1649	0.8245	0.762820512821	-0.579310344828	2.86	-36.9969465649
1650	0.825	0.762820512821	2.32413793103	4.32	-38.4114503817
1651	0.8255	-4.92435897436	-6.38620689655	4.32	-36.9969465649
1652	0.826	19.2461538462	-0.579310344828	2.86	-38.4114503817
1653	0.8265	-7.76794871795	0.872413793103	-0.06	-41.2404580153
1654	0.827	-2.08076923077	-3.48275862069	-13.2	-39.8259541985
1655	0.8275	0.762820512821	-0.579310344828	18.92	-39.8259541985
1656	0.828	-2.08076923077	-2.03103448276	1.4	-38.4114503817
1657	0.8285	0.762820512821	-2.03103448276	2.86	-38.4114503817
1658	0.829	3.60641025641	0.872413793103	-1.52	-41.2404580153
1659	0.8295	20.6679487179	-0.579310344828	1.4	-36.9969465649
1660	0.83	-10.6115384615	0.872413793103	1.4	-39.8259541985
1661	0.8305	0.762820512821	2.32413793103	4.32	-42.6549618321
1662	0.831	0.762820512821	0.872413793103	-11.74	-42.6549618321
1663	0.8315	0.762820512821	3.77586206897	2.86	-39.8259541985
1664	0.832	0.762820512821	-3.48275862069	-0.06	-38.4114503817
1665	0.8325	2.18461538462	-4.93448275862	-1.52	-39.8259541985
1666	0.833	19.2461538462	-0.579310344828	1.4	-36.9969465649
1667	0.8335	-3.50256410256	-0.579310344828	-4.44	-45.4839694656
1668	0.834	-4.92435897436	-0.579310344828	11.62	-44.0694656489
1669	0.8345	-2.08076923077	-2.03103448276	-13.2	-45.4839694656
1670	0.835	-3.50256410256	9.58275862069	-1.52	-41.2404580153
1671	0.8355	-2.08076923077	-3.48275862069	-0.06	-39.8259541985
1672	0.836	-16.2987179487	0.872413793103	-0.06	-38.4114503817
1673	0.8365	14.9807692308	-3.48275862069	1.4	-39.8259541985
1674	0.837	-4.92435897436	-2.03103448276	-2.98	-45.4839694656
1675	0.8375	-2.08076923077	-3.48275862069	17.46	-38.4114503817
1676	0.838	-3.50256410256	-2.03103448276	-1.52	-36.9969465649
1677	0.8385	-3.50256410256	9.58275862069	-0.06	-38.4114503817
1678	0.839	-2.08076923077	-2.03103448276	1.4	-34.1679389313
1679	0.8395	-6.34615384615	-0.579310344828	1.4	-38.4114503817
1680	0.84	-4.92435897436	-2.03103448276	-0.06	-20.0229007634
1681	0.8405	-3.50256410256	0.872413793103	5.78	-34.1679389313
1682	0.841	-3.50256410256	0.872413793103	-0.06	-42.6549618321
1683	0.8415	-4.92435897436	-7.83793103448	2.86	-36.9969465649
1684	0.842	-2.08076923077	15.3896551724	1.4	-34.1679389313
1685	0.8425	-12.0333333333	0.872413793103	2.86	-35.5824427481
1686	0.843	19.2461538462	-0.579310344828	-0.06	-31.3389312977
1687	0.8435	-13.4551282051	-2.03103448276	1.4	-29.9244274809
1688	0.844	-2.08076923077	-2.03103448276	4.32	-32.7534351145
1689	0.8445	-2.08076923077	-2.03103448276	-0.06	-29.9244274809
1690	0.845	-2.08076923077	-13.6448275862	-0.06	-31.3389312977
1691	0.8455	0.762820512821	16.8413793103	1.4	-31.3389312977
1692	0.846	0.762820512821	-2.03103448276	-1.52	-31.3389312977
1693	0.8465	-0.658974358974	2.32413793103	1.4	-31.3389312977
1694	0.847	-2.08076923077	-0.579310344828	-10.28	-31.3389312977
1695	0.8475	-0.658974358974	2.32413793103	18.92	-31.3389312977
1696	0.848	-3.50256410256	2.32413793103	13.08	-28.5099236641
1697	0.8485	-0.658974358974	-6.38620689655	-1.52	-28.5099236641
1698	0.849	3.60641025641	0.872413793103	-1.52	-31.3389312977
1699	0.8495	19.2461538462	-0.579310344828	-1.52	-27.0954198473
1700	0.85	-6.34615384615	-0.579310344828	1.4	-15.779389313
1701	0.8505	0.762820512821	2.32413793103	-1.52	-36.9969465649
1702	0.851	0.762820512821	2.32413793103	5.78	-32.7534351145
1703	0.8515	0.762820512821	-4.93448275862	-1.52	-28.5099236641
1704	0.852	-0.658974358974	5.2275862069	-2.98	-29.9244274809
1705	0.8525	0.762820512821	-2.03103448276	-0.06	-29.9244274809
1706	0.853	20.6679487179	-0.579310344828	-0.06	-24.2664122137
1707	0.8535	-7.76794871795	-2.03103448276	1.4	-25.6809160305
1708	0.854	0.762820512821	0.872413793103	1.4	-24.2664122137
1709	0.8545	0.762820512821	-0.579310344828	14.54	-24.2664122137
1710	0.855	3.60641025641	3.77586206897	-4.44	-22.8519083969
1711	0.8555	0.762820512821	21.1965517241	-0.06	-24.2664122137
1712	0.856	0.762820512821	-7.83793103448	-1.52	-25.6809160305
1713	0.8565	2.18461538462	0.872413793103	1.4	-24.2664122137
1714	0.857	-2.08076923077	-2.03103448276	-0.06	-20.0229007634
1715	0.8575	2.18461538462	0.872413793103	2.86	-21.4374045802
1716	0.858	3.60641025641	0.872413793103	20.38	-21.4374045802
1717	0.8585	3.60641025641	-0.579310344828	1.4	-20.0229007634
1718	0.859	3.60641025641	6.67931034483	1.4	-21.4374045802
1719	0.8595	7.87179487179	-6.38620689655	-0.06	-20.0229007634
1720	0.86	-3.50256410256	0.872413793103	1.4	-25.6809160305
1721	0.8605	0.762820512821	0.872413793103	-1.52	-8.70687022901
1722	0.861	0.762820512821	-0.579310344828	-4.44	-10.1213740458
1723	0.8615	0.762820512821	0.872413793103	-0.06	-22.8519083969
1724	0.862	0.762820512821	-10.7413793103	-0.06	-22.8519083969
1725	0.8625	3.60641025641	-9.28965517241	1.4	-18.6083969466
1726	0.863	5.02820512821	0.872413793103	-1.52	-20.0229007634
1727	0.8635	-4.92435897436	-0.579310344828	1.4	-15.779389313
1728	0.864	-0.658974358974	-2.03103448276	-1.52	-21.4374045802
1729	0.8645	-0.658974358974	0.872413793103	2.86	-17.1938931298
1730	0.865	3.60641025641	-3.48275862069	4.32	-12.9503816794
1731	0.8655	2.18461538462	2.32413793103	-1.52	-14.3648854962
1732	0.866	0.762820512821	-0.579310344828	-0.06	-11.5358778626
1733	0.8665	-7.76794871795	-2.03103448276	-0.06	-11.5358778626
1734	0.867	14.9807692308	0.872413793103	4.32	-10.1213740458
1735	0.8675	-4.92435897436	-0.579310344828	1.4	-10.1213740458
1736	0.868	0.762820512821	-0.579310344828	-11.74	-11.5358778626
1737	0.8685	-2.08076923077	0.872413793103	-7.36	-12.9503816794
1738	0.869	-0.658974358974	-4.93448275862	-0.06	-11.5358778626
1739	0.8695	3.60641025641	3.77586206897	-1.52	-11.5358778626
1740	0.87	9.29358974359	2.32413793103	-0.06	-10.1213740458
1741	0.8705	-10.6115384615	-3.48275862069	1.4	-7.29236641221
1742	0.871	5.02820512821	-3.48275862069	-1.52	6.85267175573
1743	0.8715	7.87179487179	-3.48275862069	1.4	-5.87786259542
1744	0.872	5.02820512821	0.872413793103	7.24	-8.70687022901
1745	0.8725	5.02820512821	0.872413793103	-1.52	-10.1213740458
1746	0.873	5.02820512821	-10.7413793103	-0.06	-11.5358778626
1747	0.8735	10.7153846154	-0.579310344828	2.86	-5.87786259542
1748	0.874	-10.6115384615	0.872413793103	-0.06	-7.29236641221
1749	0.8745	-7.76794871795	-2.03103448276	1.4	-20.0229007634
1750	0.875	3.60641025641	-0.579310344828	-0.06	-24.2664122137
1751	0.8755	3.60641025641	-2.03103448276	14.54	-11.5358778626
1752	0.876	3.60641025641	-2.03103448276	4.32	-10.1213740458
1753	0.8765	5.02820512821	3.77586206897	1.4	-12.9503816794
1754	0.877	7.87179487179	-0.579310344828	-1.52	-17.1938931298
1755	0.8775	-6.34615384615	-4.93448275862	1.4	-12.9503816794
1756	0.878	24.9333333333	-0.579310344828	-0.06	-17.1938931298
1757	0.8785	7.87179487179	-0.579310344828	1.4	2.60916030534
1758	0.879	5.02820512821	-0.579310344828	1.4	-22.8519083969
1759	0.8795	6.45	-3.48275862069	-4.44	-15.779389313
1760	0.88	5.02820512821	-3.48275862069	-7.36	-15.779389313
1761	0.8805	9.29358974359	5.2275862069	1.4	-17.1938931298
1762	0.881	-6.34615384615	-3.48275862069	-0.06	-17.1938931298
1763	0.8815	19.2461538462	-2.03103448276	2.86	-17.1938931298
1764	0.882	5.02820512821	-0.579310344828	-1.52	-0.219847328244
1765	0.8825	5.02820512821	-2.03103448276	1.4	-20.0229007634
1766	0.883	9.29358974359	0.872413793103	-2.98	-14.3648854962
1767	0.8835	7.87179487179	-7.83793103448	4.32	-10.1213740458
1768	0.884	12.1371794872	-6.38620689655	-0.06	-11.5358778626
1769	0.8845	-6.34615384615	-0.579310344828	-0.06	-14.3648854962
1770	0.885	26.3551282051	-0.579310344828	-2.98	-12.9503816794
1771	0.8855	-3.50256410256	-2.03103448276	-0.06	-14.3648854962
1772	0.886	5.02820512821	-2.03103448276	7.24	-15.779389313
1773	0.8865	3.60641025641	-2.03103448276	4.32	-14.3648854962
1774	0.887	5.02820512821	0.872413793103	-0.06	-17.1938931298
1775	0.8875	3.60641025641	-4.93448275862	-0.06	-15.779389313
1776	0.888	3.60641025641	-0.579310344828	-0.06	-15.779389313
1777	0.8885	23.5115384615	0.872413793103	-0.06	-11.5358778626
1778	0.889	-2.08076923077	-0.579310344828	1.4	-17.1938931298
1779	0.8895	5.02820512821	2.32413793103	11.62	-17.1938931298
1780	0.89	5.02820512821	-3.48275862069	-1.52	-12.9503816794
1781	0.8905	7.87179487179	-9.28965517241	2.86	-14.3648854962
1782	0.891	5.02820512821	11.0344827586	1.4	-17.1938931298
1783	0.8915	10.7153846154	0.872413793103	2.86	-15.779389313
1784	0.892	27.7769230769	-0.579310344828	2.86	-12.9503816794
1785	0.8925	3.60641025641	-0.579310344828	1.4	-20.0229007634
1786	0.893	5.02820512821	-0.579310344828	-1.52	-14.3648854962
1787	0.8935	7.87179487179	-3.48275862069	-1.52	-15.779389313
1788	0.894	3.60641025641	19.7448275862	-1.52	-12.9503816794
1789	0.8945	0.762820512821	-10.7413793103	-0.06	-11.5358778626
1790	0.895	3.60641025641	-2.03103448276	1.4	-11.5358778626
1791	0.8955	9.29358974359	-0.579310344828	-0.06	-15.779389313
1792	0.896	3.60641025641	-0.579310344828	-4.44	-0.219847328244
1793	0.8965	3.60641025641	0.872413793103	21.84	-11.5358778626
1794	0.897	2.18461538462	-3.48275862069	-8.82	-8.70687022901
1795	0.8975	3.60641025641	0.872413793103	-5.9	-10.1213740458
1796	0.898	0.762820512821	-0.579310344828	4.32	-11.5358778626
1797	0.8985	3.60641025641	-0.579310344828	2.86	-8.70687022901
1798	0.899	-4.92435897436	-0.579310344828	2.86	5.43816793893
1799	0.8995	0.762820512821	0.872413793103	1.4	-18.6083969466
1800	0.9	0.762820512821	-0.579310344828	-10.28	-7.29236641221
1801	0.9005	-0.658974358974	2.32413793103	-7.36	-7.29236641221
1802	0.901	0.762820512821	-2.03103448276	-0.06	-10.1213740458
1803	0.9015	-0.658974358974	-10.7413793103	-1.52	-8.70687022901
1804	0.902	-9.18974358974	-0.579310344828	-0.06	-5.87786259542
1805	0.9025	-2.08076923077	-0.579310344828	1.4	-15.779389313
1806	0.903	0.762820512821	0.872413793103	-1.52	-15.779389313
1807	0.9035	0.762820512821	0.872413793103	-8.82	-7.29236641221
1808	0.904	-0.658974358974	-0.579310344828	4.32	-7.29236641221
1809	0.9045	-0.658974358974	15.3896551724	-1.52	-8.70687022901
1810	0.905	-0.658974358974	-6.38620689655	-0.06	-7.29236641221
1811	0.9055	0.762820512821	2.32413793103	2.86	-11.5358778626
1812	0.906	14.9807692308	-0.579310344828	-0.06	-7.29236641221
1813	0.9065	-3.50256410256	0.872413793103	-2.98	-12.9503816794
1814	0.907	-2.08076923077	0.872413793103	8.7	-8.70687022901
1815	0.9075	-0.658974358974	-0.579310344828	-1.52	-8.70687022901
1816	0.908	-0.658974358974	-9.28965517241	1.4	-5.87786259542
1817	0.9085	-3.50256410256	11.0344827586	-0.06	-8.70687022901
1818	0.909	2.18461538462	-0.579310344828	1.4	-8.70687022901
1819	0.9095	-3.50256410256	-0.579310344828	4.32	-0.219847328244
1820	0.91	-2.08076923077	-0.579310344828	1.4	-17.1938931298
1821	0.9105	-2.08076923077	-3.48275862069	-8.82	-8.70687022901
1822	0.911	-2.08076923077	3.77586206897	-7.36	-5.87786259542
1823	0.9115	-2.08076923077	2.32413793103	-1.52	-5.87786259542
1824	0.912	-2.08076923077	-6.38620689655	1.4	-5.87786259542
1825	0.9125	-3.50256410256	13.9379310345	-0.06	-5.87786259542
1826	0.913	0.762820512821	-0.579310344828	4.32	-0.219847328244
1827	0.9135	-3.50256410256	0.872413793103	2.86	-3.04885496183
1828	0.914	-0.658974358974	0.872413793103	-11.74	-1.63435114504
1829	0.9145	-3.50256410256	-0.579310344828	-8.82	-3.04885496183
1830	0.915	-2.08076923077	0.872413793103	2.86	-4.46335877863
1831	0.9155	0.762820512821	-3.48275862069	2.86	-3.04885496183
1832	0.916	-6.34615384615	-2.03103448276	-0.06	-3.04885496183
1833	0.9165	-3.50256410256	0.872413793103	-0.06	-11.5358778626
1834	0.917	-0.658974358974	0.872413793103	-1.52	-8.70687022901
1835	0.9175	-2.08076923077	-2.03103448276	-11.74	-3.04885496183
1836	0.918	-0.658974358974	0.872413793103	23.3	-3.04885496183
1837	0.9185	0.762820512821	-9.28965517241	1.4	-4.46335877863
1838	0.919	0.762820512821	8.13103448276	1.4	-3.04885496183
1839	0.9195	3.60641025641	-4.93448275862	-0.06	-1.63435114504
1840	0.92	-14.8769230769	-0.579310344828	-1.52	-7.29236641221
1841	0.9205	-0.658974358974	-0.579310344828	-1.52	6.85267175573
1842	0.921	-3.50256410256	-2.03103448276	-5.9	-8.70687022901
1843	0.9215	-4.92435897436	0.872413793103	2.86	-8.70687022901
1844	0.922	-0.658974358974	3.77586206897	-0.06	-7.29236641221
1845	0.9225	-2.08076923077	-12.1931034483	1.4	-4.46335877863
1846	0.923	2.18461538462	-0.579310344828	2.86	-7.29236641221
1847	0.9235	-12.0333333333	0.872413793103	-1.52	-4.46335877863
1848	0.924	-7.76794871795	2.32413793103	2.86	-5.87786259542
1849	0.9245	-2.08076923077	0.872413793103	2.86	-4.46335877863
1850	0.925	-2.08076923077	-2.03103448276	17.46	-3.04885496183
1851	0.9255	-4.92435897436	2.32413793103	-8.82	-3.04885496183
1852	0.926	-3.50256410256	12.4862068966	-0.06	-7.29236641221
1853	0.9265	-0.658974358974	-6.38620689655	-1.52	-3.04885496183
1854	0.927	-14.8769230769	0.872413793103	-1.52	-0.219847328244
1855	0.9275	-12.0333333333	-0.579310344828	1.4	-14.3648854962
1856	0.928	-4.92435897436	-0.579310344828	-7.36	-1.63435114504
1857	0.9285	-4.92435897436	-0.579310344828	-7.36	-3.04885496183
1858	0.929	-3.50256410256	-7.83793103448	1.4	-1.63435114504
1859	0.9295	-2.08076923077	12.4862068966	1.4	-0.219847328244
1860	0.93	-6.34615384615	-2.03103448276	-0.06	-1.63435114504
1861	0.9305	-13.4551282051	3.77586206897	2.86	-3.04885496183
1862	0.931	-0.658974358974	-0.579310344828	1.4	-3.04885496183
1863	0.9315	-2.08076923077	0.872413793103	-5.9	-1.63435114504
1864	0.932	-2.08076923077	0.872413793103	14.54	2.60916030534
1865	0.9325	-3.50256410256	-3.48275862069	2.86	-0.219847328244
1866	0.933	-3.50256410256	15.3896551724	2.86	1.19465648855
1867	0.9335	-3.50256410256	-0.579310344828	1.4	-0.219847328244
1868	0.934	13.558974359	-2.03103448276	-0.06	2.60916030534
1869	0.9345	-12.0333333333	-3.48275862069	1.4	-11.5358778626
1870	0.935	-4.92435897436	-3.48275862069	-1.52	-4.46335877863
1871	0.9355	-3.50256410256	-3.48275862069	-2.98	2.60916030534
1872	0.936	-3.50256410256	-3.48275862069	5.78	-1.63435114504
1873	0.9365	-2.08076923077	-3.48275862069	1.4	-0.219847328244
1874	0.937	-6.34615384615	-4.93448275862	-0.06	-0.219847328244
1875	0.9375	0.762820512821	-2.03103448276	-0.06	-0.219847328244
1876	0.938	16.4025641026	-2.03103448276	1.4	-0.219847328244
1877	0.9385	-0.658974358974	-2.03103448276	-2.98	1.19465648855
1878	0.939	-2.08076923077	-0.579310344828	5.78	-0.219847328244
1879	0.9395	-0.658974358974	0.872413793103	-4.44	-0.219847328244
1880	0.94	-0.658974358974	-12.1931034483	-1.52	1.19465648855
1881	0.9405	2.18461538462	-3.48275862069	-0.06	-1.63435114504
1882	0.941	7.87179487179	-0.579310344828	-0.06	-0.219847328244
1883	0.9415	-7.76794871795	0.872413793103	1.4	-10.1213740458
1884	0.942	3.60641025641	-2.03103448276	2.86	-7.29236641221
1885	0.9425	3.60641025641	-0.579310344828	-0.06	2.60916030534
1886	0.943	0.762820512821	2.32413793103	-4.44	-0.219847328244
1887	0.9435	0.762820512821	-12.1931034483	-0.06	-0.219847328244
1888	0.944	9.29358974359	18.2931034483	-0.06	-0.219847328244
1889	0.9445	0.762820512821	-2.03103448276	-1.52	2.60916030534
1890	0.945	5.02820512821	0.872413793103	-0.06	-0.219847328244
1891	0.9455	0.762820512821	-2.03103448276	-1.52	-0.219847328244
1892	0.946	2.18461538462	-2.03103448276	-11.74	-0.219847328244
1893	0.9465	0.762820512821	0.872413793103	-5.9	-1.63435114504
1894	0.947	5.02820512821	-0.579310344828	2.86	1.19465648855
1895	0.9475	5.02820512821	-6.38620689655	-0.06	-0.219847328244
1896	0.948	0.762820512821	-6.38620689655	2.86	-1.63435114504
1897	0.9485	12.1371794872	-2.03103448276	1.4	-0.219847328244
1898	0.949	7.87179487179	-2.03103448276	-0.06	-0.219847328244
1899	0.9495	5.02820512821	-0.579310344828	4.32	-0.219847328244
1900	0.95	7.87179487179	-0.579310344828	-8.82	-1.63435114504
1901	0.9505	3.60641025641	-0.579310344828	20.38	-0.219847328244
1902	0.951	5.02820512821	-2.03103448276	-8.82	2.60916030534
1903	0.9515	2.18461538462	-3.48275862069	-1.52	1.19465648855
1904	0.952	0.762820512821	-4.93448275862	-1.52	2.60916030534
1905	0.9525	9.29358974359	-3.48275862069	2.86	4.02366412214
1906	0.953	3.60641025641	-2.03103448276	-0.06	1.19465648855
1907	0.9535	5.02820512821	-3.48275862069	-11.74	5.43816793893
1908	0.954	5.02820512821	-0.579310344828	-8.82	2.60916030534
1909	0.9545	7.87179487179	-6.38620689655	1.4	-0.219847328244
1910	0.955	7.87179487179	-4.93448275862	-0.06	4.02366412214
1911	0.9555	5.02820512821	0.872413793103	1.4	2.60916030534
1912	0.956	17.8243589744	0.872413793103	-0.06	1.19465648855
1913	0.9565	5.02820512821	0.872413793103	8.7	19.5832061069
1914	0.957	5.02820512821	0.872413793103	18.92	4.02366412214
1915	0.9575	7.87179487179	0.872413793103	-2.98	2.60916030534
1916	0.958	9.29358974359	-7.83793103448	-0.06	4.02366412214
1917	0.9585	3.60641025641	15.3896551724	1.4	6.85267175573
1918	0.959	12.1371794872	-0.579310344828	1.4	2.60916030534
1919	0.9595	-3.50256410256	-0.579310344828	-0.06	4.02366412214
1920	0.96	10.7153846154	-2.03103448276	4.32	-1.63435114504
1921	0.9605	5.02820512821	0.872413793103	14.54	4.02366412214
1922	0.961	9.29358974359	-0.579310344828	-8.82	2.60916030534
1923	0.9615	10.7153846154	0.872413793103	-0.06	4.02366412214
1924	0.962	5.02820512821	-2.03103448276	-2.98	2.60916030534
1925	0.9625	0.762820512821	-2.03103448276	-1.52	4.02366412214
1926	0.963	12.1371794872	-0.579310344828	-1.52	-3.04885496183
1927	0.9635	7.87179487179	-2.03103448276	-1.52	-4.46335877863
1928	0.964	10.7153846154	0.872413793103	17.46	2.60916030534
1929	0.9645	10.7153846154	-2.03103448276	-1.52	1.19465648855
1930	0.965	5.02820512821	-10.7413793103	-1.52	4.02366412214
1931	0.9655	16.4025641026	18.2931034483	1.4	5.43816793893
1932	0.966	10.7153846154	-0.579310344828	1.4	5.43816793893
1933	0.9665	22.0897435897	-0.579310344828	1.4	4.02366412214
1934	0.967	5.02820512821	0.872413793103	1.4	8.26717557252
1935	0.9675	10.7153846154	-0.579310344828	13.08	5.43816793893
1936	0.968	10.7153846154	-3.48275862069	-1.52	6.85267175573
1937	0.9685	7.87179487179	-12.1931034483	-0.06	6.85267175573
1938	0.969	10.7153846154	16.8413793103	-0.06	6.85267175573
1939	0.9695	7.87179487179	0.872413793103	-1.52	9.68167938931
1940	0.97	14.9807692308	-0.579310344828	-1.52	12.5106870229
1941	0.9705	9.29358974359	-3.48275862069	-1.52	4.02366412214
1942	0.971	10.7153846154	-2.03103448276	-10.28	8.26717557252
1943	0.9715	5.02820512821	-0.579310344828	-1.52	12.5106870229
1944	0.972	7.87179487179	0.872413793103	-0.06	9.68167938931
1945	0.9725	12.1371794872	-9.28965517241	1.4	9.68167938931
1946	0.973	5.02820512821	15.3896551724	-0.06	9.68167938931
1947	0.9735	-4.92435897436	2.32413793103	1.4	8.26717557252
1948	0.974	27.7769230769	-0.579310344828	2.86	-1.63435114504
1949	0.9745	10.7153846154	0.872413793103	-0.06	29.4847328244
1950	0.975	12.1371794872	-0.579310344828	11.62	16.7541984733
1951	0.9755	12.1371794872	0.872413793103	-1.52	13.9251908397
1952	0.976	10.7153846154	-7.83793103448	-0.06	15.3396946565
1953	0.9765	10.7153846154	-2.03103448276	-1.52	13.9251908397
1954	0.977	-3.50256410256	-0.579310344828	-1.52	13.9251908397
1955	0.9775	26.3551282051	-0.579310344828	1.4	13.9251908397
1956	0.978	9.29358974359	0.872413793103	-1.52	25.241221374
1957	0.9785	12.1371794872	0.872413793103	16.0	15.3396946565
1958	0.979	12.1371794872	-4.93448275862	-0.06	13.9251908397
1959	0.9795	10.7153846154	-15.0965517241	1.4	12.5106870229
1960	0.98	12.1371794872	16.8413793103	-0.06	15.3396946565
1961	0.9805	7.87179487179	-0.579310344828	4.32	16.7541984733
1962	0.981	3.60641025641	0.872413793103	1.4	13.9251908397
1963	0.9815	10.7153846154	-0.579310344828	4.32	9.68167938931
1964	0.982	14.9807692308	0.872413793103	8.7	13.9251908397
1965	0.9825	13.558974359	0.872413793103	-0.06	13.9251908397
1966	0.983	10.7153846154	3.77586206897	-2.98	12.5106870229
1967	0.9835	12.1371794872	-12.1931034483	1.4	8.26717557252
1968	0.984	14.9807692308	-0.579310344828	-0.06	9.68167938931
1969	0.9845	2.18461538462	2.32413793103	-1.52	9.68167938931
1970	0.985	3.60641025641	-2.03103448276	-0.06	8.26717557252
1971	0.9855	13.558974359	-3.48275862069	1.4	18.1687022901
1972	0.986	10.7153846154	-4.93448275862	-1.52	11.0961832061
1973	0.9865	10.7153846154	0.872413793103	-4.44	12.5106870229
1974	0.987	12.1371794872	-12.1931034483	-0.06	12.5106870229
1975	0.9875	12.1371794872	-9.28965517241	-0.06	13.9251908397
1976	0.988	-2.08076923077	-0.579310344828	-1.52	13.9251908397
1977	0.9885	0.762820512821	2.32413793103	-0.06	1.19465648855
1978	0.989	12.1371794872	0.872413793103	-1.52	1.19465648855
1979	0.9895	12.1371794872	0.872413793103	1.4	29.4847328244
1980	0.99	10.7153846154	2.32413793103	14.54	13.9251908397
1981	0.9905	16.4025641026	-2.03103448276	-4.44	12.5106870229
1982	0.991	13.558974359	6.67931034483	-0.06	9.68167938931
1983	0.9915	2.18461538462	-4.93448275862	1.4	15.3396946565
1984	0.992	22.0897435897	0.872413793103	1.4	13.9251908397
1985	0.9925	12.1371794872	-2.03103448276	5.78	9.68167938931
1986	0.993	14.9807692308	0.872413793103	11.62	15.3396946565
1987	0.9935	12.1371794872	-2.03103448276	-0.06	13.9251908397
1988	0.994	13.558974359	2.32413793103	-0.06	15.3396946565
1989	0.9945	12.1371794872	8.13103448276	2.86	16.7541984733
1990	0.995	17.8243589744	-0.579310344828	-1.52	16.7541984733
1991	0.9955	26.3551282051	-2.03103448276	-1.52	16.7541984733
1992	0.996	5.02820512821	0.872413793103	-0.06	30.8992366412
1993	0.9965	12.1371794872	-2.03103448276	4.32	8.26717557252
1994	0.997	13.558974359	-2.03103448276	-4.44	16.7541984733
1995	0.9975	12.1371794872	2.32413793103	1.4	16.7541984733
