	Time	Channel 1	Channel 2	Channel 3	Channel 4
0	0.0	11505.8	1.54603773585	-0.662406015038	-5.248
1	0.0005	11505.8	17.0456603774	-2.07142857143	-3.84
2	0.001	11505.8	-5.49924528302	-2.07142857143	0.384
3	0.0015	11505.8	-1.2720754717	-0.662406015038	-10.88
4	0.002	11505.8	-2.68113207547	20.4729323308	-3.84
5	0.0025	11505.8	-4.09018867925	-3.48045112782	-5.248
6	0.003	11505.8	-4.09018867925	-2.07142857143	-3.84
7	0.0035	11505.8	-6.90830188679	2.15563909774	-5.248
8	0.004	11505.8	-4.09018867925	-2.07142857143	-5.248
9	0.0045	11505.8	-2.68113207547	-0.662406015038	-5.248
10	0.005	11505.8	-2.68113207547	0.746616541353	-13.696
11	0.0055	11505.8	-2.68113207547	0.746616541353	7.424
12	0.006	11505.8	-15.3626415094	-2.07142857143	-6.656
13	0.0065	11505.8	17.0456603774	-0.662406015038	-8.064
14	0.007	11505.8	-9.72641509434	-2.07142857143	-5.248
15	0.0075	11505.8	0.136981132075	-0.662406015038	-6.656
16	0.008	11505.8	-2.68113207547	0.746616541353	-13.696
17	0.0085	11505.8	-1.2720754717	-9.11654135338	-8.064
18	0.009	11505.8	0.136981132075	16.2458646617	-6.656
19	0.0095	11505.8	-4.09018867925	-0.662406015038	-6.656
20	0.01	11505.8	-9.72641509434	2.15563909774	-6.656
21	0.0105	11505.8	-2.68113207547	2.15563909774	-9.472
22	0.011	11505.8	0.136981132075	2.15563909774	-10.88
23	0.0115	11505.8	-2.68113207547	0.746616541353	-10.88
24	0.012	11505.8	-1.2720754717	3.56466165414	-1.024
25	0.0125	11505.8	-1.2720754717	-6.2984962406	-10.88
26	0.013	11505.8	0.136981132075	-2.07142857143	-10.88
27	0.0135	11505.8	-9.72641509434	-0.662406015038	-13.696
28	0.014	11505.8	-6.90830188679	-0.662406015038	-12.288
29	0.0145	11505.8	21.2728301887	-2.07142857143	-13.696
30	0.015	11505.8	1.54603773585	0.746616541353	-15.104
31	0.0155	11505.8	-1.2720754717	0.746616541353	-3.84
32	0.016	11505.8	-1.2720754717	-0.662406015038	-2.432
33	0.0165	11505.8	-1.2720754717	-2.07142857143	-23.552
34	0.017	11505.8	0.136981132075	14.8368421053	-16.512
35	0.0175	11505.8	-8.31735849057	0.746616541353	-16.512
36	0.018	11505.8	-2.68113207547	3.56466165414	-16.512
37	0.0185	11505.8	1.54603773585	-0.662406015038	-10.88
38	0.019	11505.8	0.136981132075	0.746616541353	-17.92
39	0.0195	11505.8	0.136981132075	0.746616541353	0.384
40	0.02	11505.8	-1.2720754717	16.2458646617	-15.104
41	0.0205	11505.8	-2.68113207547	2.15563909774	-16.512
42	0.021	11505.8	-9.72641509434	0.746616541353	-17.92
43	0.0215	11505.8	-4.09018867925	-2.07142857143	-16.512
44	0.022	11505.8	-4.09018867925	-0.662406015038	-16.512
45	0.0225	11505.8	-1.2720754717	-0.662406015038	-16.512
46	0.023	11505.8	-2.68113207547	2.15563909774	-19.328
47	0.0235	11505.8	-4.09018867925	-10.5255639098	-19.328
48	0.024	11505.8	-2.68113207547	-2.07142857143	-19.328
49	0.0245	11505.8	-13.9535849057	2.15563909774	-16.512
50	0.025	11505.8	-11.1354716981	-0.662406015038	-16.512
51	0.0255	11505.8	-2.68113207547	-0.662406015038	-16.512
52	0.026	11505.8	0.136981132075	0.746616541353	-15.104
53	0.0265	11505.8	-4.09018867925	-0.662406015038	-15.104
54	0.027	11505.8	-1.2720754717	-4.88947368421	-23.552
55	0.0275	11505.8	-1.2720754717	-0.662406015038	-17.92
56	0.028	11505.8	-9.72641509434	0.746616541353	-17.92
57	0.0285	11505.8	4.3641509434	-0.662406015038	-19.328
58	0.029	11505.8	-5.49924528302	0.746616541353	-17.92
59	0.0295	11505.8	-2.68113207547	-0.662406015038	-20.736
60	0.03	11505.8	-2.68113207547	0.746616541353	-17.92
61	0.0305	11505.8	-5.49924528302	2.15563909774	-15.104
62	0.031	11505.8	-4.09018867925	-0.662406015038	-22.144
63	0.0315	11505.8	-1.2720754717	2.15563909774	-23.552
64	0.032	11505.8	-1.2720754717	-0.662406015038	-17.92
65	0.0325	11505.8	1.54603773585	-0.662406015038	-22.144
66	0.033	11505.8	0.136981132075	0.746616541353	-23.552
67	0.0335	11505.8	1.54603773585	0.746616541353	-26.368
68	0.034	11505.8	1.54603773585	-4.88947368421	-17.92
69	0.0345	11505.8	4.3641509434	0.746616541353	-19.328
70	0.035	11505.8	5.77320754717	-2.07142857143	-22.144
71	0.0355	11505.8	-12.5445283019	0.746616541353	-20.736
72	0.036	11505.8	10.0003773585	0.746616541353	-20.736
73	0.0365	11505.8	-2.68113207547	-0.662406015038	-22.144
74	0.037	11505.8	-6.90830188679	2.15563909774	-17.92
75	0.0375	11505.8	-2.68113207547	0.746616541353	-30.592
76	0.038	11505.8	0.136981132075	-10.5255639098	-22.144
77	0.0385	11505.8	4.3641509434	-0.662406015038	-23.552
78	0.039	11505.8	-11.1354716981	0.746616541353	-23.552
79	0.0395	11505.8	-9.72641509434	-0.662406015038	-24.96
80	0.04	11505.8	-1.2720754717	2.15563909774	-23.552
81	0.0405	11505.8	-4.09018867925	-0.662406015038	-24.96
82	0.041	11505.8	-4.09018867925	3.56466165414	-24.96
83	0.0415	11505.8	-2.68113207547	4.97368421053	-24.96
84	0.042	11505.8	-1.2720754717	-0.662406015038	-23.552
85	0.0425	11505.8	-11.1354716981	-0.662406015038	-23.552
86	0.043	11505.8	-5.49924528302	-0.662406015038	-20.736
87	0.0435	11505.8	-11.1354716981	2.15563909774	-22.144
88	0.044	11505.8	-1.2720754717	0.746616541353	-22.144
89	0.0445	11505.8	-4.09018867925	-2.07142857143	-24.96
90	0.045	11505.8	0.136981132075	14.8368421053	-19.328
91	0.0455	11505.8	-5.49924528302	-0.662406015038	-22.144
92	0.046	11505.8	-13.9535849057	0.746616541353	-22.144
93	0.0465	11505.8	17.0456603774	3.56466165414	-22.144
94	0.047	11505.8	-1.2720754717	0.746616541353	-20.736
95	0.0475	11505.8	-2.68113207547	0.746616541353	-17.92
96	0.048	11505.8	-1.2720754717	2.15563909774	-12.288
97	0.0485	11505.8	-2.68113207547	-10.5255639098	-17.92
98	0.049	11505.8	2.95509433962	-3.48045112782	-20.736
99	0.0495	11505.8	-1.2720754717	-7.70751879699	-23.552
100	0.05	11505.8	19.8637735849	-2.07142857143	-23.552
101	0.0505	11505.8	-2.68113207547	0.746616541353	-22.144
102	0.051	11505.8	-1.2720754717	2.15563909774	-30.592
103	0.0515	11505.8	-1.2720754717	-0.662406015038	-27.776
104	0.052	11505.8	1.54603773585	-7.70751879699	-17.92
105	0.0525	11505.8	0.136981132075	12.0187969925	-20.736
106	0.053	11505.8	-6.90830188679	-6.2984962406	-22.144
107	0.0535	11505.8	-1.2720754717	0.746616541353	-20.736
108	0.054	11505.8	-2.68113207547	0.746616541353	-20.736
109	0.0545	11505.8	0.136981132075	0.746616541353	-22.144
110	0.055	11505.8	-1.2720754717	-0.662406015038	-6.656
111	0.0555	11505.8	-2.68113207547	-0.662406015038	-20.736
112	0.056	11505.8	0.136981132075	7.79172932331	-20.736
113	0.0565	11505.8	0.136981132075	-3.48045112782	-20.736
114	0.057	11505.8	-8.31735849057	0.746616541353	-20.736
115	0.0575	11505.8	8.59132075472	0.746616541353	-17.92
116	0.058	11505.8	-2.68113207547	0.746616541353	-17.92
117	0.0585	11505.8	-5.49924528302	2.15563909774	-3.84
118	0.059	11505.8	-2.68113207547	-2.07142857143	-27.776
119	0.0595	11505.8	-2.68113207547	3.56466165414	-20.736
120	0.06	11505.8	-1.2720754717	2.15563909774	-16.512
121	0.0605	11505.8	15.6366037736	-0.662406015038	-17.92
122	0.061	11505.8	-4.09018867925	2.15563909774	-17.92
123	0.0615	11505.8	-2.68113207547	0.746616541353	-19.328
124	0.062	11505.8	-2.68113207547	3.56466165414	-19.328
125	0.0625	11505.8	0.136981132075	4.97368421053	-23.552
126	0.063	11505.8	-2.68113207547	12.0187969925	-22.144
127	0.0635	11505.8	-4.09018867925	0.746616541353	-22.144
128	0.064	11505.8	-11.1354716981	2.15563909774	-20.736
129	0.0645	11505.8	15.6366037736	-0.662406015038	-20.736
130	0.065	11505.8	-1.2720754717	-0.662406015038	-22.144
131	0.0655	11505.8	0.136981132075	2.15563909774	-19.328
132	0.066	11505.8	0.136981132075	2.15563909774	-6.656
133	0.0665	11505.8	1.54603773585	0.746616541353	-27.776
134	0.067	11505.8	2.95509433962	-4.88947368421	-16.512
135	0.0675	11505.8	-1.2720754717	2.15563909774	-16.512
136	0.068	11505.8	-1.2720754717	4.97368421053	-16.512
137	0.0685	11505.8	4.3641509434	0.746616541353	-16.512
138	0.069	11505.8	0.136981132075	0.746616541353	-13.696
139	0.0695	11505.8	-4.09018867925	3.56466165414	-16.512
140	0.07	11505.8	-2.68113207547	-7.70751879699	-16.512
141	0.0705	11505.8	1.54603773585	-4.88947368421	-16.512
142	0.071	11505.8	2.95509433962	2.15563909774	-12.288
143	0.0715	11505.8	-12.5445283019	-0.662406015038	-13.696
144	0.072	11505.8	14.2275471698	-0.662406015038	-13.696
145	0.0725	11505.8	-1.2720754717	0.746616541353	-13.696
146	0.073	11505.8	-2.68113207547	3.56466165414	-6.656
147	0.0735	11505.8	-4.09018867925	4.97368421053	-15.104
148	0.074	11505.8	-4.09018867925	-11.9345864662	-10.88
149	0.0745	11505.8	-4.09018867925	19.0639097744	-10.88
150	0.075	11505.8	-5.49924528302	-6.2984962406	-12.288
151	0.0755	11505.8	-2.68113207547	0.746616541353	-12.288
152	0.076	11505.8	-1.2720754717	-0.662406015038	-12.288
153	0.0765	11505.8	-1.2720754717	0.746616541353	-10.88
154	0.077	11505.8	0.136981132075	2.15563909774	-6.656
155	0.0775	11505.8	-1.2720754717	-7.70751879699	-10.88
156	0.078	11505.8	-2.68113207547	-9.11654135338	-10.88
157	0.0785	11505.8	-12.5445283019	0.746616541353	-10.88
158	0.079	11505.8	-6.90830188679	0.746616541353	-9.472
159	0.0795	11505.8	-4.09018867925	0.746616541353	-12.288
160	0.08	11505.8	-1.2720754717	0.746616541353	-20.736
161	0.0805	11505.8	0.136981132075	-2.07142857143	4.608
162	0.081	11505.8	1.54603773585	3.56466165414	-23.552
163	0.0815	11505.8	0.136981132075	-7.70751879699	-15.104
164	0.082	11505.8	-4.09018867925	0.746616541353	-16.512
165	0.0825	11505.8	-2.68113207547	2.15563909774	-16.512
166	0.083	11505.8	-1.2720754717	0.746616541353	-15.104
167	0.0835	11505.8	2.95509433962	0.746616541353	-15.104
168	0.084	11505.8	-1.2720754717	-0.662406015038	-22.144
169	0.0845	11505.8	0.136981132075	-4.88947368421	-10.88
170	0.085	11505.8	-1.2720754717	12.0187969925	-12.288
171	0.0855	11505.8	-4.09018867925	-0.662406015038	-10.88
172	0.086	11505.8	-2.68113207547	-0.662406015038	-9.472
173	0.0865	11505.8	-4.09018867925	-0.662406015038	-10.88
174	0.087	11505.8	-4.09018867925	-0.662406015038	-2.432
175	0.0875	11505.8	-2.68113207547	2.15563909774	6.016
176	0.088	11505.8	-4.09018867925	4.97368421053	-16.512
177	0.0885	11505.8	-2.68113207547	-7.70751879699	-8.064
178	0.089	11505.8	-4.09018867925	14.8368421053	-9.472
179	0.0895	11505.8	-2.68113207547	2.15563909774	-6.656
180	0.09	11505.8	1.54603773585	2.15563909774	-8.064
181	0.0905	11505.8	-4.09018867925	2.15563909774	-6.656
182	0.091	11505.8	-4.09018867925	2.15563909774	-5.248
183	0.0915	11505.8	-2.68113207547	2.15563909774	-20.736
184	0.092	11505.8	-1.2720754717	-7.70751879699	-8.064
185	0.0925	11505.8	0.136981132075	2.15563909774	-9.472
186	0.093	11505.8	-6.90830188679	2.15563909774	-6.656
187	0.0935	11505.8	-8.31735849057	2.15563909774	-8.064
188	0.094	11505.8	-2.68113207547	0.746616541353	-5.248
189	0.0945	11505.8	-1.2720754717	-2.07142857143	-5.248
190	0.095	11505.8	0.136981132075	2.15563909774	-5.248
191	0.0955	11505.8	-1.2720754717	17.654887218	-8.064
192	0.096	11505.8	-1.2720754717	-6.2984962406	-8.064
193	0.0965	11505.8	-9.72641509434	-0.662406015038	-6.656
194	0.097	11505.8	-1.2720754717	2.15563909774	-5.248
195	0.0975	11505.8	2.95509433962	-0.662406015038	-8.064
196	0.098	11505.8	1.54603773585	2.15563909774	-6.656
197	0.0985	11505.8	-1.2720754717	2.15563909774	-1.024
198	0.099	11505.8	-2.68113207547	-0.662406015038	-8.064
199	0.0995	11505.8	5.77320754717	0.746616541353	-9.472
200	0.1	11505.8	18.4547169811	0.746616541353	-5.248
201	0.1005	11505.8	-11.1354716981	2.15563909774	-6.656
202	0.101	11505.8	-1.2720754717	2.15563909774	-6.656
203	0.1015	11505.8	-1.2720754717	2.15563909774	-8.064
204	0.102	11505.8	-1.2720754717	-2.07142857143	-12.288
205	0.1025	11505.8	0.136981132075	3.56466165414	-10.88
206	0.103	11505.8	-5.49924528302	-0.662406015038	-5.248
207	0.1035	11505.8	8.59132075472	-0.662406015038	-2.432
208	0.104	11505.8	-4.09018867925	3.56466165414	-1.024
209	0.1045	11505.8	0.136981132075	0.746616541353	-2.432
210	0.105	11505.8	1.54603773585	-0.662406015038	-13.696
211	0.1055	11505.8	-1.2720754717	-2.07142857143	15.872
212	0.106	11505.8	-1.2720754717	2.15563909774	-9.472
213	0.1065	11505.8	-1.2720754717	-6.2984962406	-1.024
214	0.107	11505.8	-5.49924528302	0.746616541353	-2.432
215	0.1075	11505.8	0.136981132075	-0.662406015038	-1.024
216	0.108	11505.8	-8.31735849057	-3.48045112782	-1.024
217	0.1085	11505.8	-2.68113207547	0.746616541353	-5.248
218	0.109	11505.8	-4.09018867925	0.746616541353	3.2
219	0.1095	11505.8	-2.68113207547	-7.70751879699	-3.84
220	0.11	11505.8	-4.09018867925	12.0187969925	0.384
221	0.1105	11505.8	0.136981132075	-0.662406015038	0.384
222	0.111	11505.8	14.2275471698	0.746616541353	0.384
223	0.1115	11505.8	-1.2720754717	-0.662406015038	-1.024
224	0.112	11505.8	-2.68113207547	0.746616541353	-3.84
225	0.1125	11505.8	0.136981132075	0.746616541353	-10.88
226	0.113	11505.8	-2.68113207547	-0.662406015038	17.28
227	0.1135	11505.8	-4.09018867925	3.56466165414	-5.248
228	0.114	11505.8	1.54603773585	-9.11654135338	-1.024
229	0.1145	11505.8	-2.68113207547	0.746616541353	-1.024
230	0.115	11505.8	-15.3626415094	0.746616541353	-1.024
231	0.1155	11505.8	-4.09018867925	0.746616541353	1.792
232	0.116	11505.8	-4.09018867925	0.746616541353	-1.024
233	0.1165	11505.8	-2.68113207547	0.746616541353	6.016
234	0.117	11505.8	0.136981132075	4.97368421053	1.792
235	0.1175	11505.8	0.136981132075	16.2458646617	3.2
236	0.118	11505.8	-1.2720754717	-6.2984962406	1.792
237	0.1185	11505.8	-4.09018867925	2.15563909774	-1.024
238	0.119	11505.8	-6.90830188679	0.746616541353	0.384
239	0.1195	11505.8	1.54603773585	2.15563909774	0.384
240	0.12	11505.8	0.136981132075	2.15563909774	4.608
241	0.1205	11505.8	-1.2720754717	4.97368421053	4.608
242	0.121	11505.8	-1.2720754717	3.56466165414	0.384
243	0.1215	11505.8	1.54603773585	-2.07142857143	0.384
244	0.122	11505.8	15.6366037736	-0.662406015038	0.384
245	0.1225	11505.8	-6.90830188679	3.56466165414	0.384
246	0.123	11505.8	-2.68113207547	-0.662406015038	0.384
247	0.1235	11505.8	-1.2720754717	2.15563909774	4.608
248	0.124	11505.8	0.136981132075	4.97368421053	20.096
249	0.1245	11505.8	0.136981132075	2.15563909774	-9.472
250	0.125	11505.8	0.136981132075	-7.70751879699	-2.432
251	0.1255	11505.8	-4.09018867925	2.15563909774	-1.024
252	0.126	11505.8	-13.9535849057	0.746616541353	-3.84
253	0.1265	11505.8	-4.09018867925	0.746616541353	-2.432
254	0.127	11505.8	-5.49924528302	2.15563909774	-2.432
255	0.1275	11505.8	-4.09018867925	2.15563909774	-13.696
256	0.128	11505.8	-4.09018867925	2.15563909774	-10.88
257	0.1285	11505.8	-1.2720754717	-4.88947368421	3.2
258	0.129	11505.8	0.136981132075	-3.48045112782	-2.432
259	0.1295	11505.8	-12.5445283019	2.15563909774	-3.84
260	0.13	11505.8	-2.68113207547	3.56466165414	-2.432
261	0.1305	11505.8	-1.2720754717	0.746616541353	-3.84
262	0.131	11505.8	-2.68113207547	0.746616541353	-9.472
263	0.1315	11505.8	-4.09018867925	4.97368421053	1.792
264	0.132	11505.8	-4.09018867925	0.746616541353	-9.472
265	0.1325	11505.8	0.136981132075	0.746616541353	-9.472
266	0.133	11505.8	-13.9535849057	0.746616541353	-9.472
267	0.1335	11505.8	-9.72641509434	-2.07142857143	-9.472
268	0.134	11505.8	0.136981132075	-0.662406015038	-8.064
269	0.1345	11505.8	-4.09018867925	2.15563909774	-5.248
270	0.135	11505.8	2.95509433962	3.56466165414	-8.064
271	0.1355	11505.8	1.54603773585	14.8368421053	-10.88
272	0.136	11505.8	2.95509433962	-6.2984962406	-8.064
273	0.1365	11505.8	2.95509433962	2.15563909774	-6.656
274	0.137	11505.8	-5.49924528302	0.746616541353	-9.472
275	0.1375	11505.8	1.54603773585	0.746616541353	-5.248
276	0.138	11505.8	0.136981132075	4.97368421053	-13.696
277	0.1385	11505.8	-1.2720754717	-0.662406015038	-12.288
278	0.139	11505.8	-4.09018867925	-9.11654135338	-8.064
279	0.1395	11505.8	-1.2720754717	-0.662406015038	-6.656
280	0.14	11505.8	-8.31735849057	0.746616541353	-8.064
281	0.1405	11505.8	-1.2720754717	-0.662406015038	-8.064
282	0.141	11505.8	-2.68113207547	-0.662406015038	-9.472
283	0.1415	11505.8	-2.68113207547	2.15563909774	-8.064
284	0.142	11505.8	-2.68113207547	-6.2984962406	-15.104
285	0.1425	11505.8	-2.68113207547	13.4278195489	-8.064
286	0.143	11505.8	-5.49924528302	0.746616541353	-8.064
287	0.1435	11505.8	-5.49924528302	0.746616541353	-9.472
288	0.144	11505.8	-4.09018867925	0.746616541353	-8.064
289	0.1445	11505.8	0.136981132075	3.56466165414	-5.248
290	0.145	11505.8	0.136981132075	3.56466165414	-6.656
291	0.1455	11505.8	-1.2720754717	4.97368421053	-6.656
292	0.146	11505.8	1.54603773585	-7.70751879699	-9.472
293	0.1465	11505.8	0.136981132075	3.56466165414	-8.064
294	0.147	11505.8	-5.49924528302	0.746616541353	-8.064
295	0.1475	11505.8	-9.72641509434	-0.662406015038	-6.656
296	0.148	11505.8	-1.2720754717	-0.662406015038	-8.064
297	0.1485	11505.8	-1.2720754717	2.15563909774	-19.328
298	0.149	11505.8	-1.2720754717	-6.2984962406	-10.88
299	0.1495	11505.8	-1.2720754717	16.2458646617	-10.88
300	0.15	11505.8	-4.09018867925	0.746616541353	-9.472
301	0.1505	11505.8	-1.2720754717	0.746616541353	-10.88
302	0.151	11505.8	8.59132075472	2.15563909774	-9.472
303	0.1515	11505.8	0.136981132075	-0.662406015038	-8.064
304	0.152	11505.8	1.54603773585	0.746616541353	-10.88
305	0.1525	11505.8	0.136981132075	0.746616541353	-15.104
306	0.153	11505.8	-1.2720754717	-7.70751879699	-8.064
307	0.1535	11505.8	-1.2720754717	0.746616541353	-6.656
308	0.154	11505.8	-2.68113207547	0.746616541353	-8.064
309	0.1545	11505.8	-5.49924528302	-0.662406015038	-5.248
310	0.155	11505.8	-2.68113207547	3.56466165414	-6.656
311	0.1555	11505.8	-1.2720754717	2.15563909774	-15.104
312	0.156	11505.8	-2.68113207547	0.746616541353	4.608
313	0.1565	11505.8	-1.2720754717	3.56466165414	-8.064
314	0.157	11505.8	-1.2720754717	0.746616541353	-8.064
315	0.1575	11505.8	-13.9535849057	0.746616541353	-6.656
316	0.158	11505.8	-9.72641509434	0.746616541353	-5.248
317	0.1585	11505.8	-2.68113207547	-0.662406015038	-6.656
318	0.159	11505.8	0.136981132075	3.56466165414	-3.84
319	0.1595	11505.8	-2.68113207547	-9.11654135338	-5.248
320	0.16	11505.8	1.54603773585	-7.70751879699	-8.064
321	0.1605	11505.8	-6.90830188679	-0.662406015038	-3.84
322	0.161	11505.8	2.95509433962	2.15563909774	-2.432
323	0.1615	11505.8	-6.90830188679	-0.662406015038	-5.248
324	0.162	11505.8	-4.09018867925	0.746616541353	-2.432
325	0.1625	11505.8	0.136981132075	0.746616541353	-1.024
326	0.163	11505.8	0.136981132075	3.56466165414	-6.656
327	0.1635	11505.8	-1.2720754717	16.2458646617	-3.84
328	0.164	11505.8	1.54603773585	-0.662406015038	-3.84
329	0.1645	11505.8	10.0003773585	0.746616541353	-3.84
330	0.165	11505.8	-2.68113207547	2.15563909774	-3.84
331	0.1655	11505.8	0.136981132075	2.15563909774	-3.84
332	0.166	11505.8	0.136981132075	0.746616541353	-10.88
333	0.1665	11505.8	-2.68113207547	-3.48045112782	3.2
334	0.167	11505.8	0.136981132075	4.97368421053	1.792
335	0.1675	11505.8	-2.68113207547	-3.48045112782	-1.024
336	0.168	11505.8	17.0456603774	0.746616541353	0.384
337	0.1685	11505.8	-9.72641509434	3.56466165414	-1.024
338	0.169	11505.8	-1.2720754717	0.746616541353	-2.432
339	0.1695	11505.8	-1.2720754717	-0.662406015038	-8.064
340	0.17	11505.8	-2.68113207547	-7.70751879699	-3.84
341	0.1705	11505.8	-4.09018867925	16.2458646617	-3.84
342	0.171	11505.8	-6.90830188679	0.746616541353	-2.432
343	0.1715	11505.8	1.54603773585	2.15563909774	-2.432
344	0.172	11505.8	-5.49924528302	2.15563909774	-1.024
345	0.1725	11505.8	-4.09018867925	0.746616541353	-2.432
346	0.173	11505.8	-1.2720754717	2.15563909774	13.056
347	0.1735	11505.8	-1.2720754717	-0.662406015038	-9.472
348	0.174	11505.8	0.136981132075	9.2007518797	-2.432
349	0.1745	11505.8	-2.68113207547	-2.07142857143	-1.024
350	0.175	11505.8	17.0456603774	0.746616541353	-2.432
351	0.1755	11505.8	-1.2720754717	2.15563909774	-1.024
352	0.176	11505.8	-2.68113207547	2.15563909774	1.792
353	0.1765	11505.8	-1.2720754717	2.15563909774	4.608
354	0.177	11505.8	-1.2720754717	2.15563909774	-6.656
355	0.1775	11505.8	0.136981132075	-9.11654135338	1.792
356	0.178	11505.8	-2.68113207547	2.15563909774	-1.024
357	0.1785	11505.8	10.0003773585	-0.662406015038	-1.024
358	0.179	11505.8	-5.49924528302	2.15563909774	-3.84
359	0.1795	11505.8	-1.2720754717	2.15563909774	-3.84
360	0.18	11505.8	0.136981132075	0.746616541353	-2.432
361	0.1805	11505.8	-2.68113207547	2.15563909774	-2.432
362	0.181	11505.8	-5.49924528302	-4.88947368421	-6.656
363	0.1815	11505.8	1.54603773585	0.746616541353	-5.248
364	0.182	11505.8	8.59132075472	3.56466165414	-3.84
365	0.1825	11505.8	-4.09018867925	0.746616541353	-1.024
366	0.183	11505.8	1.54603773585	2.15563909774	0.384
367	0.1835	11505.8	-1.2720754717	2.15563909774	-8.064
368	0.184	11505.8	1.54603773585	3.56466165414	4.608
369	0.1845	11505.8	2.95509433962	-3.48045112782	0.384
370	0.185	11505.8	2.95509433962	3.56466165414	1.792
371	0.1855	11505.8	14.2275471698	-0.662406015038	0.384
372	0.186	11505.8	1.54603773585	2.15563909774	3.2
373	0.1865	11505.8	1.54603773585	2.15563909774	-8.064
374	0.187	11505.8	0.136981132075	-0.662406015038	18.688
375	0.1875	11505.8	0.136981132075	2.15563909774	3.2
376	0.188	11505.8	-1.2720754717	0.746616541353	-2.432
377	0.1885	11505.8	0.136981132075	2.15563909774	4.608
378	0.189	11505.8	0.136981132075	-0.662406015038	3.2
379	0.1895	11505.8	-1.2720754717	-2.07142857143	1.792
380	0.19	11505.8	1.54603773585	2.15563909774	1.792
381	0.1905	11505.8	0.136981132075	-2.07142857143	4.608
382	0.191	11505.8	1.54603773585	-11.9345864662	3.2
383	0.1915	11505.8	1.54603773585	0.746616541353	4.608
384	0.192	11505.8	-9.72641509434	0.746616541353	4.608
385	0.1925	11505.8	-9.72641509434	3.56466165414	1.792
386	0.193	11505.8	-4.09018867925	0.746616541353	0.384
387	0.1935	11505.8	-4.09018867925	-0.662406015038	-8.064
388	0.194	11505.8	-2.68113207547	-0.662406015038	18.688
389	0.1945	11505.8	-2.68113207547	-3.48045112782	-6.656
390	0.195	11505.8	1.54603773585	-3.48045112782	-1.024
391	0.1955	11505.8	-11.1354716981	0.746616541353	-1.024
392	0.196	11505.8	-9.72641509434	0.746616541353	-2.432
393	0.1965	11505.8	-1.2720754717	-0.662406015038	1.792
394	0.197	11505.8	-2.68113207547	-0.662406015038	-6.656
395	0.1975	11505.8	-1.2720754717	-2.07142857143	-8.064
396	0.198	11505.8	-1.2720754717	17.654887218	-6.656
397	0.1985	11505.8	-4.09018867925	-7.70751879699	-3.84
398	0.199	11505.8	0.136981132075	-0.662406015038	-2.432
399	0.1995	11505.8	-8.31735849057	-2.07142857143	-3.84
400	0.2	11505.8	-1.2720754717	2.15563909774	-5.248
401	0.2005	11505.8	-1.2720754717	0.746616541353	1.792
402	0.201	11505.8	-1.2720754717	4.97368421053	-2.432
403	0.2015	11505.8	-4.09018867925	20.4729323308	-2.432
404	0.202	11505.8	-6.90830188679	-7.70751879699	0.384
405	0.2025	11505.8	-2.68113207547	4.97368421053	0.384
406	0.203	11505.8	2.95509433962	0.746616541353	1.792
407	0.2035	11505.8	-5.49924528302	0.746616541353	1.792
408	0.204	11505.8	-1.2720754717	2.15563909774	0.384
409	0.2045	11505.8	0.136981132075	2.15563909774	3.2
410	0.205	11505.8	-1.2720754717	-3.48045112782	1.792
411	0.2055	11505.8	-2.68113207547	-4.88947368421	4.608
412	0.206	11505.8	-9.72641509434	3.56466165414	0.384
413	0.2065	11505.8	-1.2720754717	0.746616541353	4.608
414	0.207	11505.8	-1.2720754717	-0.662406015038	1.792
415	0.2075	11505.8	-2.68113207547	0.746616541353	1.792
416	0.208	11505.8	-1.2720754717	0.746616541353	3.2
417	0.2085	11505.8	-2.68113207547	-0.662406015038	-10.88
418	0.209	11505.8	-2.68113207547	-2.07142857143	13.056
419	0.2095	11505.8	5.77320754717	2.15563909774	-2.432
420	0.21	11505.8	-2.68113207547	0.746616541353	-1.024
421	0.2105	11505.8	-4.09018867925	0.746616541353	-1.024
422	0.211	11505.8	-1.2720754717	-0.662406015038	-1.024
423	0.2115	11505.8	-1.2720754717	-0.662406015038	-9.472
424	0.212	11505.8	-2.68113207547	-2.07142857143	-2.432
425	0.2125	11505.8	-1.2720754717	12.0187969925	-2.432
426	0.213	11505.8	1.54603773585	3.56466165414	-1.024
427	0.2135	11505.8	12.818490566	-0.662406015038	-2.432
428	0.214	11505.8	-8.31735849057	-0.662406015038	0.384
429	0.2145	11505.8	-1.2720754717	-0.662406015038	0.384
430	0.215	11505.8	-4.09018867925	-3.48045112782	-6.656
431	0.2155	11505.8	-4.09018867925	-7.70751879699	1.792
432	0.216	11505.8	-1.2720754717	14.8368421053	0.384
433	0.2165	11505.8	1.54603773585	2.15563909774	0.384
434	0.217	11505.8	14.2275471698	-0.662406015038	1.792
435	0.2175	11505.8	-5.49924528302	2.15563909774	-3.84
436	0.218	11505.8	0.136981132075	2.15563909774	0.384
437	0.2185	11505.8	0.136981132075	2.15563909774	15.872
438	0.219	11505.8	-1.2720754717	-0.662406015038	-8.064
439	0.2195	11505.8	-2.68113207547	-2.07142857143	-1.024
440	0.22	11505.8	0.136981132075	-6.2984962406	0.384
441	0.2205	11505.8	2.95509433962	-0.662406015038	0.384
442	0.221	11505.8	-2.68113207547	0.746616541353	0.384
443	0.2215	11505.8	0.136981132075	0.746616541353	-2.432
444	0.222	11505.8	-1.2720754717	-0.662406015038	0.384
445	0.2225	11505.8	-1.2720754717	2.15563909774	17.28
446	0.223	11505.8	0.136981132075	-0.662406015038	0.384
447	0.2235	11505.8	-4.09018867925	-0.662406015038	3.2
448	0.224	11505.8	14.2275471698	-0.662406015038	-1.024
449	0.2245	11505.8	-12.5445283019	0.746616541353	-2.432
450	0.225	11505.8	-2.68113207547	-0.662406015038	-3.84
451	0.2255	11505.8	-4.09018867925	0.746616541353	-3.84
452	0.226	11505.8	-4.09018867925	0.746616541353	-1.024
453	0.2265	11505.8	-1.2720754717	7.79172932331	-1.024
454	0.227	11505.8	-4.09018867925	-2.07142857143	-1.024
455	0.2275	11505.8	-13.9535849057	0.746616541353	-2.432
456	0.228	11505.8	17.0456603774	-0.662406015038	-2.432
457	0.2285	11505.8	-1.2720754717	-0.662406015038	-5.248
458	0.229	11505.8	-1.2720754717	2.15563909774	-15.104
459	0.2295	11505.8	0.136981132075	-0.662406015038	17.28
460	0.23	11505.8	-1.2720754717	2.15563909774	-10.88
461	0.2305	11505.8	-1.2720754717	-4.88947368421	1.792
462	0.231	11505.8	-5.49924528302	-0.662406015038	1.792
463	0.2315	11505.8	4.3641509434	-0.662406015038	1.792
464	0.232	11505.8	-4.09018867925	3.56466165414	4.608
465	0.2325	11505.8	0.136981132075	2.15563909774	-1.024
466	0.233	11505.8	-1.2720754717	0.746616541353	20.096
467	0.2335	11505.8	-1.2720754717	0.746616541353	3.2
468	0.234	11505.8	0.136981132075	12.0187969925	6.016
469	0.2345	11505.8	-2.68113207547	-4.88947368421	6.016
470	0.235	11505.8	-6.90830188679	-0.662406015038	4.608
471	0.2355	11505.8	0.136981132075	2.15563909774	6.016
472	0.236	11505.8	-2.68113207547	0.746616541353	8.832
473	0.2365	11505.8	0.136981132075	4.97368421053	-1.024
474	0.237	11505.8	-2.68113207547	-0.662406015038	25.728
475	0.2375	11505.8	0.136981132075	19.0639097744	6.016
476	0.238	11505.8	-1.2720754717	-6.2984962406	10.24
477	0.2385	11505.8	-4.09018867925	-0.662406015038	7.424
478	0.239	11505.8	5.77320754717	3.56466165414	7.424
479	0.2395	11505.8	-9.72641509434	2.15563909774	7.424
480	0.24	11505.8	-4.09018867925	2.15563909774	8.832
481	0.2405	11505.8	-4.09018867925	4.97368421053	6.016
482	0.241	11505.8	-2.68113207547	14.8368421053	6.016
483	0.2415	11505.8	-2.68113207547	-7.70751879699	8.832
484	0.242	11505.8	1.54603773585	2.15563909774	6.016
485	0.2425	11505.8	14.2275471698	-0.662406015038	7.424
486	0.243	11505.8	-6.90830188679	3.56466165414	7.424
487	0.2435	11505.8	-2.68113207547	3.56466165414	6.016
488	0.244	11505.8	-2.68113207547	0.746616541353	13.056
489	0.2445	11505.8	-4.09018867925	-3.48045112782	0.384
490	0.245	11505.8	-1.2720754717	4.97368421053	6.016
491	0.2455	11505.8	-2.68113207547	-2.07142857143	6.016
492	0.246	11505.8	-11.1354716981	2.15563909774	4.608
493	0.2465	11505.8	-4.09018867925	2.15563909774	8.832
494	0.247	11505.8	-4.09018867925	0.746616541353	6.016
495	0.2475	11505.8	-2.68113207547	-0.662406015038	-1.024
496	0.248	11505.8	-2.68113207547	2.15563909774	14.464
497	0.2485	11505.8	-1.2720754717	-9.11654135338	3.2
498	0.249	11505.8	-2.68113207547	4.97368421053	22.912
499	0.2495	11505.8	-9.72641509434	0.746616541353	6.016
500	0.25	11505.8	8.59132075472	-0.662406015038	6.016
501	0.2505	11505.8	-4.09018867925	0.746616541353	8.832
502	0.251	11505.8	0.136981132075	3.56466165414	6.016
503	0.2515	11505.8	1.54603773585	0.746616541353	1.792
504	0.252	11505.8	-2.68113207547	-7.70751879699	13.056
505	0.2525	11505.8	-4.09018867925	20.4729323308	8.832
506	0.253	11505.8	-6.90830188679	3.56466165414	11.648
507	0.2535	11505.8	11.4094339623	-0.662406015038	11.648
508	0.254	11505.8	-1.2720754717	-0.662406015038	10.24
509	0.2545	11505.8	-6.90830188679	2.15563909774	13.056
510	0.255	11505.8	-2.68113207547	3.56466165414	20.096
511	0.2555	11505.8	-1.2720754717	2.15563909774	10.24
512	0.256	11505.8	-1.2720754717	19.0639097744	8.832
513	0.2565	11505.8	-5.49924528302	-6.2984962406	7.424
514	0.257	11505.8	-1.2720754717	3.56466165414	8.832
515	0.2575	11505.8	-9.72641509434	-0.662406015038	13.056
516	0.258	11505.8	-1.2720754717	0.746616541353	15.872
517	0.2585	11505.8	-2.68113207547	3.56466165414	-3.84
518	0.259	11505.8	-1.2720754717	2.15563909774	3.2
519	0.2595	11505.8	2.95509433962	-3.48045112782	8.832
520	0.26	11505.8	1.54603773585	9.2007518797	13.056
521	0.2605	11505.8	1.54603773585	-0.662406015038	13.056
522	0.261	11505.8	-8.31735849057	-2.07142857143	14.464
523	0.2615	11505.8	0.136981132075	-0.662406015038	7.424
524	0.262	11505.8	-2.68113207547	3.56466165414	13.056
525	0.2625	11505.8	-1.2720754717	2.15563909774	17.28
526	0.263	11505.8	-2.68113207547	13.4278195489	14.464
527	0.2635	11505.8	-8.31735849057	-6.2984962406	15.872
528	0.264	11505.8	-4.09018867925	0.746616541353	17.28
529	0.2645	11505.8	8.59132075472	-2.07142857143	13.056
530	0.265	11505.8	-1.2720754717	-0.662406015038	8.832
531	0.2655	11505.8	-1.2720754717	2.15563909774	3.2
532	0.266	11505.8	-4.09018867925	-0.662406015038	22.912
533	0.2665	11505.8	-4.09018867925	4.97368421053	10.24
534	0.267	11505.8	-2.68113207547	-9.11654135338	4.608
535	0.2675	11505.8	-4.09018867925	2.15563909774	13.056
536	0.268	11505.8	-9.72641509434	4.97368421053	8.832
537	0.2685	11505.8	-5.49924528302	3.56466165414	7.424
538	0.269	11505.8	-1.2720754717	3.56466165414	13.056
539	0.2695	11505.8	-2.68113207547	4.97368421053	13.056
540	0.27	11505.8	-1.2720754717	4.97368421053	6.016
541	0.2705	11505.8	-1.2720754717	-7.70751879699	10.24
542	0.271	11505.8	1.54603773585	2.15563909774	13.056
543	0.2715	11505.8	-8.31735849057	2.15563909774	15.872
544	0.272	11505.8	-8.31735849057	2.15563909774	13.056
545	0.2725	11505.8	-4.09018867925	2.15563909774	0.384
546	0.273	11505.8	0.136981132075	-0.662406015038	28.544
547	0.2735	11505.8	-2.68113207547	3.56466165414	10.24
548	0.274	11505.8	-2.68113207547	14.8368421053	10.24
549	0.2745	11505.8	1.54603773585	-0.662406015038	13.056
550	0.275	11505.8	-13.9535849057	-0.662406015038	15.872
551	0.2755	11505.8	-4.09018867925	3.56466165414	14.464
552	0.276	11505.8	0.136981132075	2.15563909774	14.464
553	0.2765	11505.8	1.54603773585	2.15563909774	17.28
554	0.277	11505.8	-1.2720754717	6.38270676692	6.016
555	0.2775	11505.8	0.136981132075	-11.9345864662	13.056
556	0.278	11505.8	-2.68113207547	3.56466165414	13.056
557	0.2785	11505.8	-8.31735849057	3.56466165414	10.24
558	0.279	11505.8	-8.31735849057	2.15563909774	14.464
559	0.2795	11505.8	-1.2720754717	2.15563909774	8.832
560	0.28	11505.8	-1.2720754717	3.56466165414	17.28
561	0.2805	11505.8	-2.68113207547	2.15563909774	10.24
562	0.281	11505.8	0.136981132075	9.2007518797	7.424
563	0.2815	11505.8	-5.49924528302	-6.2984962406	7.424
564	0.282	11505.8	-11.1354716981	2.15563909774	6.016
565	0.2825	11505.8	-4.09018867925	2.15563909774	7.424
566	0.283	11505.8	-1.2720754717	0.746616541353	7.424
567	0.2835	11505.8	0.136981132075	3.56466165414	4.608
568	0.284	11505.8	-4.09018867925	-3.48045112782	-1.024
569	0.2845	11505.8	-1.2720754717	16.2458646617	6.016
570	0.285	11505.8	-4.09018867925	-0.662406015038	8.832
571	0.2855	11505.8	-12.5445283019	2.15563909774	8.832
572	0.286	11505.8	8.59132075472	0.746616541353	7.424
573	0.2865	11505.8	-4.09018867925	-0.662406015038	10.24
574	0.287	11505.8	1.54603773585	4.97368421053	24.32
575	0.2875	11505.8	-1.2720754717	3.56466165414	0.384
576	0.288	11505.8	0.136981132075	3.56466165414	7.424
577	0.2885	11505.8	-11.1354716981	2.15563909774	10.24
578	0.289	11505.8	14.2275471698	0.746616541353	7.424
579	0.2895	11505.8	-8.31735849057	0.746616541353	10.24
580	0.29	11505.8	0.136981132075	0.746616541353	8.832
581	0.2905	11505.8	1.54603773585	2.15563909774	8.832
582	0.291	11505.8	1.54603773585	0.746616541353	7.424
583	0.2915	11505.8	2.95509433962	-4.88947368421	10.24
584	0.292	11505.8	2.95509433962	-0.662406015038	14.464
585	0.2925	11505.8	-4.09018867925	-6.2984962406	13.056
586	0.293	11505.8	0.136981132075	0.746616541353	13.056
587	0.2935	11505.8	0.136981132075	2.15563909774	15.872
588	0.294	11505.8	1.54603773585	3.56466165414	21.504
589	0.2945	11505.8	-1.2720754717	3.56466165414	13.056
590	0.295	11505.8	-1.2720754717	-7.70751879699	14.464
591	0.2955	11505.8	1.54603773585	-3.48045112782	13.056
592	0.296	11505.8	-2.68113207547	0.746616541353	13.056
593	0.2965	11505.8	-6.90830188679	-0.662406015038	14.464
594	0.297	11505.8	-1.2720754717	0.746616541353	8.832
595	0.2975	11505.8	-5.49924528302	0.746616541353	0.384
596	0.298	11505.8	-5.49924528302	-0.662406015038	34.176
597	0.2985	11505.8	-1.2720754717	0.746616541353	8.832
598	0.299	11505.8	0.136981132075	-3.48045112782	17.28
599	0.2995	11505.8	-13.9535849057	0.746616541353	13.056
600	0.3	11505.8	-11.1354716981	0.746616541353	15.872
601	0.3005	11505.8	-4.09018867925	2.15563909774	17.28
602	0.301	11505.8	-2.68113207547	4.97368421053	24.32
603	0.3015	11505.8	-6.90830188679	4.97368421053	10.24
604	0.302	11505.8	-8.31735849057	-9.11654135338	18.688
605	0.3025	11505.8	-5.49924528302	-3.48045112782	18.688
606	0.303	11505.8	1.54603773585	2.15563909774	21.504
607	0.3035	11505.8	-6.90830188679	2.15563909774	20.096
608	0.304	11505.8	-4.09018867925	2.15563909774	15.872
609	0.3045	11505.8	-1.2720754717	2.15563909774	17.28
610	0.305	11505.8	0.136981132075	3.56466165414	22.912
611	0.3055	11505.8	-2.68113207547	14.8368421053	18.688
612	0.306	11505.8	-4.09018867925	-7.70751879699	15.872
613	0.3065	11505.8	-2.68113207547	0.746616541353	20.096
614	0.307	11505.8	-11.1354716981	-0.662406015038	17.28
615	0.3075	11505.8	-5.49924528302	3.56466165414	17.28
616	0.308	11505.8	-1.2720754717	0.746616541353	17.28
617	0.3085	11505.8	0.136981132075	3.56466165414	4.608
618	0.309	11505.8	-1.2720754717	-2.07142857143	15.872
619	0.3095	11505.8	0.136981132075	-2.07142857143	13.056
620	0.31	11505.8	-9.72641509434	3.56466165414	15.872
621	0.3105	11505.8	-1.2720754717	2.15563909774	17.28
622	0.311	11505.8	-2.68113207547	0.746616541353	15.872
623	0.3115	11505.8	0.136981132075	3.56466165414	6.016
624	0.312	11505.8	0.136981132075	-0.662406015038	31.36
625	0.3125	11505.8	0.136981132075	-0.662406015038	6.016
626	0.313	11505.8	0.136981132075	-4.88947368421	14.464
627	0.3135	11505.8	-11.1354716981	-0.662406015038	17.28
628	0.314	11505.8	-8.31735849057	2.15563909774	14.464
629	0.3145	11505.8	-2.68113207547	-0.662406015038	13.056
630	0.315	11505.8	-4.09018867925	3.56466165414	13.056
631	0.3155	11505.8	-5.49924528302	2.15563909774	7.424
632	0.316	11505.8	-1.2720754717	17.654887218	8.832
633	0.3165	11505.8	-4.09018867925	-9.11654135338	8.832
634	0.317	11505.8	-1.2720754717	0.746616541353	8.832
635	0.3175	11505.8	-1.2720754717	2.15563909774	10.24
636	0.318	11505.8	-2.68113207547	0.746616541353	10.24
637	0.3185	11505.8	-4.09018867925	3.56466165414	13.056
638	0.319	11505.8	-4.09018867925	4.97368421053	14.464
639	0.3195	11505.8	-1.2720754717	-9.11654135338	10.24
640	0.32	11505.8	-6.90830188679	17.654887218	8.832
641	0.3205	11505.8	-8.31735849057	0.746616541353	10.24
642	0.321	11505.8	1.54603773585	0.746616541353	7.424
643	0.3215	11505.8	-4.09018867925	2.15563909774	8.832
644	0.322	11505.8	-2.68113207547	2.15563909774	-1.024
645	0.3225	11505.8	-4.09018867925	-2.07142857143	1.792
646	0.323	11505.8	-4.09018867925	2.15563909774	11.648
647	0.3235	11505.8	0.136981132075	0.746616541353	10.24
648	0.324	11505.8	17.0456603774	0.746616541353	10.24
649	0.3245	11505.8	-9.72641509434	0.746616541353	14.464
650	0.325	11505.8	0.136981132075	0.746616541353	10.24
651	0.3255	11505.8	-2.68113207547	0.746616541353	17.28
652	0.326	11505.8	-4.09018867925	6.38270676692	15.872
653	0.3265	11505.8	0.136981132075	12.0187969925	11.648
654	0.327	11505.8	-4.09018867925	14.8368421053	14.464
655	0.3275	11505.8	14.2275471698	-0.662406015038	13.056
656	0.328	11505.8	-4.09018867925	3.56466165414	13.056
657	0.3285	11505.8	-4.09018867925	2.15563909774	17.28
658	0.329	11505.8	0.136981132075	3.56466165414	22.912
659	0.3295	11505.8	0.136981132075	4.97368421053	10.24
660	0.33	11505.8	-2.68113207547	-9.11654135338	15.872
661	0.3305	11505.8	-1.2720754717	2.15563909774	14.464
662	0.331	11505.8	1.54603773585	2.15563909774	14.464
663	0.3315	11505.8	-4.09018867925	-0.662406015038	13.056
664	0.332	11505.8	1.54603773585	2.15563909774	17.28
665	0.3325	11505.8	1.54603773585	2.15563909774	15.872
666	0.333	11505.8	1.54603773585	-0.662406015038	29.952
667	0.3335	11505.8	-1.2720754717	2.15563909774	13.056
668	0.334	11505.8	1.54603773585	-3.48045112782	15.872
669	0.3345	11505.8	-11.1354716981	3.56466165414	17.28
670	0.335	11505.8	-6.90830188679	2.15563909774	17.28
671	0.3355	11505.8	0.136981132075	0.746616541353	17.28
672	0.336	11505.8	1.54603773585	-0.662406015038	17.28
673	0.3365	11505.8	1.54603773585	0.746616541353	20.096
674	0.337	11505.8	1.54603773585	-9.11654135338	20.096
675	0.3375	11505.8	-1.2720754717	-6.2984962406	15.872
676	0.338	11505.8	-4.09018867925	13.4278195489	17.28
677	0.3385	11505.8	-11.1354716981	-0.662406015038	15.872
678	0.339	11505.8	-2.68113207547	3.56466165414	15.872
679	0.3395	11505.8	-1.2720754717	-2.07142857143	15.872
680	0.34	11505.8	-1.2720754717	0.746616541353	13.056
681	0.3405	11505.8	-4.09018867925	-6.2984962406	8.832
682	0.341	11505.8	0.136981132075	7.79172932331	13.056
683	0.3415	11505.8	5.77320754717	-2.07142857143	13.056
684	0.342	11505.8	18.4547169811	-0.662406015038	14.464
685	0.3425	11505.8	0.136981132075	-0.662406015038	14.464
686	0.343	11505.8	0.136981132075	0.746616541353	4.608
687	0.3435	11505.8	1.54603773585	0.746616541353	28.544
688	0.344	11505.8	0.136981132075	4.97368421053	1.792
689	0.3445	11505.8	-2.68113207547	-4.88947368421	7.424
690	0.345	11505.8	-4.09018867925	2.15563909774	6.016
691	0.3455	11505.8	8.59132075472	4.97368421053	7.424
692	0.346	11505.8	-4.09018867925	3.56466165414	8.832
693	0.3465	11505.8	-1.2720754717	-0.662406015038	10.24
694	0.347	11505.8	-2.68113207547	2.15563909774	21.504
695	0.3475	11505.8	-2.68113207547	-4.88947368421	4.608
696	0.348	11505.8	0.136981132075	4.97368421053	8.832
697	0.3485	11505.8	-2.68113207547	0.746616541353	8.832
698	0.349	11505.8	17.0456603774	0.746616541353	8.832
699	0.3495	11505.8	0.136981132075	-0.662406015038	8.832
700	0.35	11505.8	0.136981132075	2.15563909774	13.056
701	0.3505	11505.8	-2.68113207547	3.56466165414	20.096
702	0.351	11505.8	0.136981132075	3.56466165414	8.832
703	0.3515	11505.8	0.136981132075	-11.9345864662	10.24
704	0.352	11505.8	0.136981132075	21.8819548872	6.016
705	0.3525	11505.8	-8.31735849057	0.746616541353	7.424
706	0.353	11505.8	-1.2720754717	0.746616541353	8.832
707	0.3535	11505.8	0.136981132075	0.746616541353	6.016
708	0.354	11505.8	0.136981132075	2.15563909774	8.832
709	0.3545	11505.8	2.95509433962	3.56466165414	-1.024
710	0.355	11505.8	0.136981132075	-3.48045112782	6.016
711	0.3555	11505.8	-1.2720754717	-3.48045112782	6.016
712	0.356	11505.8	-6.90830188679	0.746616541353	7.424
713	0.3565	11505.8	17.0456603774	-0.662406015038	7.424
714	0.357	11505.8	0.136981132075	0.746616541353	7.424
715	0.3575	11505.8	-2.68113207547	0.746616541353	8.832
716	0.358	11505.8	-1.2720754717	2.15563909774	20.096
717	0.3585	11505.8	-1.2720754717	-4.88947368421	1.792
718	0.359	11505.8	-5.49924528302	16.2458646617	6.016
719	0.3595	11505.8	-12.5445283019	0.746616541353	3.2
720	0.36	11505.8	11.4094339623	0.746616541353	3.2
721	0.3605	11505.8	-8.31735849057	2.15563909774	4.608
722	0.361	11505.8	-1.2720754717	3.56466165414	1.792
723	0.3615	11505.8	-2.68113207547	0.746616541353	7.424
724	0.362	11505.8	-1.2720754717	2.15563909774	-10.88
725	0.3625	11505.8	0.136981132075	-7.70751879699	3.2
726	0.363	11505.8	-5.49924528302	2.15563909774	0.384
727	0.3635	11505.8	2.95509433962	0.746616541353	1.792
728	0.364	11505.8	-2.68113207547	0.746616541353	-1.024
729	0.3645	11505.8	-4.09018867925	-2.07142857143	1.792
730	0.365	11505.8	-1.2720754717	0.746616541353	6.016
731	0.3655	11505.8	-5.49924528302	-7.70751879699	-3.84
732	0.366	11505.8	1.54603773585	17.654887218	-1.024
733	0.3665	11505.8	-4.09018867925	-10.5255639098	-2.432
734	0.367	11505.8	14.2275471698	0.746616541353	-2.432
735	0.3675	11505.8	4.3641509434	0.746616541353	-1.024
736	0.368	11505.8	1.54603773585	2.15563909774	1.792
737	0.3685	11505.8	-2.68113207547	4.97368421053	14.464
738	0.369	11505.8	0.136981132075	-4.88947368421	-3.84
739	0.3695	11505.8	-2.68113207547	-2.07142857143	-3.84
740	0.37	11505.8	-12.5445283019	2.15563909774	0.384
741	0.3705	11505.8	15.6366037736	3.56466165414	3.2
742	0.371	11505.8	0.136981132075	2.15563909774	1.792
743	0.3715	11505.8	1.54603773585	-0.662406015038	4.608
744	0.372	11505.8	2.95509433962	0.746616541353	1.792
745	0.3725	11505.8	0.136981132075	3.56466165414	-1.024
746	0.373	11505.8	0.136981132075	16.2458646617	0.384
747	0.3735	11505.8	0.136981132075	-2.07142857143	1.792
748	0.374	11505.8	-8.31735849057	0.746616541353	1.792
749	0.3745	11505.8	17.0456603774	0.746616541353	3.2
750	0.375	11505.8	-1.2720754717	0.746616541353	6.016
751	0.3755	11505.8	-1.2720754717	2.15563909774	1.792
752	0.376	11505.8	-2.68113207547	4.97368421053	7.424
753	0.3765	11505.8	0.136981132075	-6.2984962406	4.608
754	0.377	11505.8	-5.49924528302	0.746616541353	4.608
755	0.3775	11505.8	0.136981132075	-3.48045112782	1.792
756	0.378	11505.8	-1.2720754717	2.15563909774	4.608
757	0.3785	11505.8	0.136981132075	2.15563909774	1.792
758	0.379	11505.8	-2.68113207547	2.15563909774	13.056
759	0.3795	11505.8	1.54603773585	6.38270676692	-1.024
760	0.38	11505.8	1.54603773585	-7.70751879699	6.016
761	0.3805	11505.8	-2.68113207547	0.746616541353	6.016
762	0.381	11505.8	5.77320754717	-0.662406015038	6.016
763	0.3815	11505.8	-2.68113207547	-2.07142857143	6.016
764	0.382	11505.8	0.136981132075	0.746616541353	7.424
765	0.3825	11505.8	-2.68113207547	2.15563909774	18.688
766	0.383	11505.8	-4.09018867925	-4.88947368421	-1.024
767	0.3835	11505.8	-2.68113207547	12.0187969925	7.424
768	0.384	11505.8	0.136981132075	-7.70751879699	7.424
769	0.3845	11505.8	11.4094339623	0.746616541353	8.832
770	0.385	11505.8	-6.90830188679	2.15563909774	7.424
771	0.3855	11505.8	-1.2720754717	2.15563909774	6.016
772	0.386	11505.8	-2.68113207547	3.56466165414	6.016
773	0.3865	11505.8	-1.2720754717	4.97368421053	4.608
774	0.387	11505.8	0.136981132075	0.746616541353	3.2
775	0.3875	11505.8	1.54603773585	0.746616541353	6.016
776	0.388	11505.8	-12.5445283019	-0.662406015038	4.608
777	0.3885	11505.8	-1.2720754717	2.15563909774	4.608
778	0.389	11505.8	-1.2720754717	-0.662406015038	4.608
779	0.3895	11505.8	-2.68113207547	3.56466165414	-5.248
780	0.39	11505.8	0.136981132075	-0.662406015038	22.912
781	0.3905	11505.8	1.54603773585	14.8368421053	4.608
782	0.391	11505.8	0.136981132075	-6.2984962406	6.016
783	0.3915	11505.8	-11.1354716981	0.746616541353	4.608
784	0.392	11505.8	-5.49924528302	3.56466165414	8.832
785	0.3925	11505.8	-4.09018867925	2.15563909774	8.832
786	0.393	11505.8	-4.09018867925	2.15563909774	7.424
787	0.3935	11505.8	-4.09018867925	0.746616541353	8.832
788	0.394	11505.8	1.54603773585	9.2007518797	8.832
789	0.3945	11505.8	-4.09018867925	-0.662406015038	10.24
790	0.395	11505.8	1.54603773585	-4.88947368421	13.056
791	0.3955	11505.8	-9.72641509434	2.15563909774	13.056
792	0.396	11505.8	0.136981132075	2.15563909774	8.832
793	0.3965	11505.8	-1.2720754717	2.15563909774	0.384
794	0.397	11505.8	-1.2720754717	0.746616541353	25.728
795	0.3975	11505.8	-1.2720754717	2.15563909774	1.792
796	0.398	11505.8	-2.68113207547	-9.11654135338	10.24
797	0.3985	11505.8	-2.68113207547	2.15563909774	13.056
798	0.399	11505.8	7.18226415094	0.746616541353	15.872
799	0.3995	11505.8	0.136981132075	-0.662406015038	13.056
800	0.4	11505.8	0.136981132075	-0.662406015038	18.688
801	0.4005	11505.8	1.54603773585	0.746616541353	29.952
802	0.401	11505.8	1.54603773585	3.56466165414	6.016
803	0.4015	11505.8	0.136981132075	-9.11654135338	17.28
804	0.402	11505.8	-5.49924528302	3.56466165414	14.464
805	0.4025	11505.8	2.95509433962	0.746616541353	15.872
806	0.403	11505.8	-4.09018867925	0.746616541353	10.24
807	0.4035	11505.8	0.136981132075	2.15563909774	13.056
808	0.404	11505.8	-2.68113207547	0.746616541353	28.544
809	0.4045	11505.8	-1.2720754717	4.97368421053	8.832
810	0.405	11505.8	-1.2720754717	10.6097744361	10.24
811	0.4055	11505.8	0.136981132075	-3.48045112782	10.24
812	0.406	11505.8	-5.49924528302	0.746616541353	8.832
813	0.4065	11505.8	-1.2720754717	2.15563909774	7.424
814	0.407	11505.8	0.136981132075	0.746616541353	8.832
815	0.4075	11505.8	1.54603773585	-0.662406015038	0.384
816	0.408	11505.8	1.54603773585	2.15563909774	14.464
817	0.4085	11505.8	0.136981132075	-9.11654135338	6.016
818	0.409	11505.8	1.54603773585	20.4729323308	6.016
819	0.4095	11505.8	-8.31735849057	-0.662406015038	4.608
820	0.41	11505.8	7.18226415094	3.56466165414	4.608
821	0.4105	11505.8	-2.68113207547	2.15563909774	4.608
822	0.411	11505.8	-1.2720754717	4.97368421053	13.056
823	0.4115	11505.8	-1.2720754717	4.97368421053	-1.024
824	0.412	11505.8	-2.68113207547	-10.5255639098	0.384
825	0.4125	11505.8	0.136981132075	-7.70751879699	0.384
826	0.413	11505.8	-5.49924528302	3.56466165414	-2.432
827	0.4135	11505.8	2.95509433962	2.15563909774	-1.024
828	0.414	11505.8	0.136981132075	-0.662406015038	-1.024
829	0.4145	11505.8	0.136981132075	0.746616541353	-10.88
830	0.415	11505.8	0.136981132075	0.746616541353	-12.288
831	0.4155	11505.8	-1.2720754717	-4.88947368421	-6.656
832	0.416	11505.8	-1.2720754717	14.8368421053	-8.064
833	0.4165	11505.8	-4.09018867925	-6.2984962406	-3.84
834	0.417	11505.8	-9.72641509434	3.56466165414	-5.248
835	0.4175	11505.8	10.0003773585	2.15563909774	-3.84
836	0.418	11505.8	-5.49924528302	2.15563909774	-2.432
837	0.4185	11505.8	-2.68113207547	0.746616541353	1.792
838	0.419	11505.8	-4.09018867925	-6.2984962406	-10.88
839	0.4195	11505.8	-4.09018867925	17.654887218	-8.064
840	0.42	11505.8	-13.9535849057	2.15563909774	-6.656
841	0.4205	11505.8	11.4094339623	4.97368421053	-8.064
842	0.421	11505.8	-8.31735849057	3.56466165414	-5.248
843	0.4215	11505.8	-1.2720754717	3.56466165414	-5.248
844	0.422	11505.8	-2.68113207547	2.15563909774	-2.432
845	0.4225	11505.8	-5.49924528302	3.56466165414	-12.288
846	0.423	11505.8	-1.2720754717	16.2458646617	-9.472
847	0.4235	11505.8	1.54603773585	-6.2984962406	-9.472
848	0.424	11505.8	17.0456603774	2.15563909774	-6.656
849	0.4245	11505.8	-8.31735849057	3.56466165414	-6.656
850	0.425	11505.8	-2.68113207547	0.746616541353	-5.248
851	0.4255	11505.8	0.136981132075	3.56466165414	-5.248
852	0.426	11505.8	-1.2720754717	4.97368421053	0.384
853	0.4265	11505.8	0.136981132075	-4.88947368421	-5.248
854	0.427	11505.8	-1.2720754717	-2.07142857143	-2.432
855	0.4275	11505.8	-11.1354716981	2.15563909774	0.384
856	0.428	11505.8	-8.31735849057	3.56466165414	-2.432
857	0.4285	11505.8	-1.2720754717	2.15563909774	-1.024
858	0.429	11505.8	0.136981132075	0.746616541353	3.2
859	0.4295	11505.8	0.136981132075	0.746616541353	-2.432
860	0.43	11505.8	-2.68113207547	-4.88947368421	-5.248
861	0.4305	11505.8	0.136981132075	3.56466165414	1.792
862	0.431	11505.8	0.136981132075	-3.48045112782	3.2
863	0.4315	11505.8	-1.2720754717	2.15563909774	0.384
864	0.432	11505.8	-8.31735849057	0.746616541353	7.424
865	0.4325	11505.8	-5.49924528302	0.746616541353	7.424
866	0.433	11505.8	-4.09018867925	0.746616541353	0.384
867	0.4335	11505.8	-4.09018867925	-2.07142857143	32.768
868	0.434	11505.8	1.54603773585	19.0639097744	24.32
869	0.4345	11505.8	-1.2720754717	3.56466165414	28.544
870	0.435	11505.8	-9.72641509434	0.746616541353	31.36
871	0.4355	11505.8	10.0003773585	-0.662406015038	34.176
872	0.436	11505.8	-1.2720754717	0.746616541353	36.992
873	0.4365	11505.8	-4.09018867925	0.746616541353	42.624
874	0.437	11505.8	-4.09018867925	4.97368421053	41.216
875	0.4375	11505.8	0.136981132075	14.8368421053	48.256
876	0.438	11505.8	-5.49924528302	-2.07142857143	51.072
877	0.4385	11505.8	-1.2720754717	2.15563909774	53.888
878	0.439	11505.8	10.0003773585	-0.662406015038	56.704
879	0.4395	11505.8	-5.49924528302	-0.662406015038	56.704
880	0.44	11505.8	-5.49924528302	-0.662406015038	62.336
881	0.4405	11505.8	-4.09018867925	0.746616541353	69.376
882	0.441	11505.8	-2.68113207547	4.97368421053	60.928
883	0.4415	11505.8	-2.68113207547	-10.5255639098	62.336
884	0.442	11505.8	0.136981132075	-0.662406015038	65.152
885	0.4425	11505.8	5.77320754717	0.746616541353	66.56
886	0.443	11505.8	-11.1354716981	3.56466165414	67.968
887	0.4435	11505.8	-5.49924528302	0.746616541353	69.376
888	0.444	11505.8	-8.31735849057	0.746616541353	72.192
889	0.4445	11505.8	-6.90830188679	3.56466165414	86.272
890	0.445	11505.8	-8.31735849057	-2.07142857143	62.336
891	0.4455	11505.8	-8.31735849057	19.0639097744	72.192
892	0.446	11505.8	-5.49924528302	20.4729323308	70.784
893	0.4465	11505.8	-1.2720754717	0.746616541353	67.968
894	0.447	11505.8	-11.1354716981	0.746616541353	66.56
895	0.4475	11505.8	-5.49924528302	-0.662406015038	63.744
896	0.448	11505.8	-2.68113207547	2.15563909774	66.56
897	0.4485	11505.8	-5.49924528302	2.15563909774	60.928
898	0.449	11505.8	-1.2720754717	4.97368421053	65.152
899	0.4495	11505.8	-4.09018867925	-6.2984962406	66.56
900	0.45	11505.8	-12.5445283019	-0.662406015038	62.336
901	0.4505	11505.8	5.77320754717	-0.662406015038	63.744
902	0.451	11505.8	-4.09018867925	0.746616541353	58.112
903	0.4515	11505.8	-4.09018867925	-0.662406015038	51.072
904	0.452	11505.8	-4.09018867925	-2.07142857143	76.416
905	0.4525	11505.8	-1.2720754717	0.746616541353	66.56
906	0.453	11505.8	-4.09018867925	19.0639097744	73.6
907	0.4535	11505.8	-5.49924528302	0.746616541353	77.824
908	0.454	11505.8	7.18226415094	-0.662406015038	80.64
909	0.4545	11505.8	-6.90830188679	-0.662406015038	83.456
910	0.455	11505.8	0.136981132075	0.746616541353	86.272
911	0.4555	11505.8	-2.68113207547	-2.07142857143	86.272
912	0.456	11505.8	-4.09018867925	-6.2984962406	89.088
913	0.4565	11505.8	-1.2720754717	0.746616541353	97.536
914	0.457	11505.8	-4.09018867925	-4.88947368421	103.168
915	0.4575	11505.8	-11.1354716981	-0.662406015038	103.168
916	0.458	11505.8	-4.09018867925	-0.662406015038	105.984
917	0.4585	11505.8	-1.2720754717	-0.662406015038	105.984
918	0.459	11505.8	0.136981132075	-0.662406015038	110.208
919	0.4595	11505.8	0.136981132075	-0.662406015038	110.208
920	0.46	11505.8	-1.2720754717	-9.11654135338	96.128
921	0.4605	11505.8	-2.68113207547	-7.70751879699	101.76
922	0.461	11505.8	-1.2720754717	-0.662406015038	103.168
923	0.4615	11505.8	-4.09018867925	-0.662406015038	100.352
924	0.462	11505.8	1.54603773585	2.15563909774	97.536
925	0.4625	11505.8	0.136981132075	0.746616541353	98.944
926	0.463	11505.8	0.136981132075	3.56466165414	93.312
927	0.4635	11505.8	1.54603773585	-9.11654135338	79.232
928	0.464	11505.8	2.95509433962	-7.70751879699	80.64
929	0.4645	11505.8	-1.2720754717	2.15563909774	76.416
930	0.465	11505.8	1.54603773585	0.746616541353	70.784
931	0.4655	11505.8	4.3641509434	0.746616541353	67.968
932	0.466	11505.8	1.54603773585	-0.662406015038	60.928
933	0.4665	11505.8	4.3641509434	-0.662406015038	55.296
934	0.467	11505.8	1.54603773585	-2.07142857143	66.56
935	0.4675	11505.8	4.3641509434	17.654887218	42.624
936	0.468	11505.8	0.136981132075	-4.88947368421	38.4
937	0.4685	11505.8	8.59132075472	3.56466165414	35.584
938	0.469	11505.8	-4.09018867925	3.56466165414	32.768
939	0.4695	11505.8	0.136981132075	0.746616541353	32.768
940	0.47	11505.8	-1.2720754717	2.15563909774	17.28
941	0.4705	11505.8	-4.09018867925	-0.662406015038	14.464
942	0.471	11505.8	2.95509433962	20.4729323308	20.096
943	0.4715	11505.8	0.136981132075	17.654887218	20.096
944	0.472	11505.8	-5.49924528302	2.15563909774	17.28
945	0.4725	11505.8	-5.49924528302	0.746616541353	13.056
946	0.473	11505.8	0.136981132075	0.746616541353	17.28
947	0.4735	11505.8	-1.2720754717	3.56466165414	1.792
948	0.474	11505.8	-1.2720754717	-0.662406015038	6.016
949	0.4745	11505.8	-1.2720754717	-10.5255639098	6.016
950	0.475	11505.8	2.95509433962	0.746616541353	4.608
951	0.4755	11505.8	-9.72641509434	2.15563909774	4.608
952	0.476	11505.8	8.59132075472	4.97368421053	1.792
953	0.4765	11505.8	-2.68113207547	2.15563909774	-1.024
954	0.477	11505.8	-4.09018867925	0.746616541353	0.384
955	0.4775	11505.8	0.136981132075	6.38270676692	-12.288
956	0.478	11505.8	1.54603773585	-7.70751879699	-13.696
957	0.4785	11505.8	2.95509433962	-4.88947368421	-10.88
958	0.479	11505.8	0.136981132075	3.56466165414	-9.472
959	0.4795	11505.8	0.136981132075	2.15563909774	-13.696
960	0.48	11505.8	8.59132075472	0.746616541353	-15.104
961	0.4805	11505.8	1.54603773585	3.56466165414	-22.144
962	0.481	11505.8	0.136981132075	0.746616541353	-16.512
963	0.4815	11505.8	2.95509433962	-7.70751879699	-19.328
964	0.482	11505.8	1.54603773585	14.8368421053	-16.512
965	0.4825	11505.8	-1.2720754717	-4.88947368421	-15.104
966	0.483	11505.8	18.4547169811	-0.662406015038	-13.696
967	0.4835	11505.8	-8.31735849057	0.746616541353	-15.104
968	0.484	11505.8	-2.68113207547	2.15563909774	-12.288
969	0.4845	11505.8	-4.09018867925	4.97368421053	-1.024
970	0.485	11505.8	-1.2720754717	4.97368421053	-26.368
971	0.4855	11505.8	0.136981132075	-2.07142857143	-16.512
972	0.486	11505.8	0.136981132075	-3.48045112782	-17.92
973	0.4865	11505.8	2.95509433962	2.15563909774	-16.512
974	0.487	11505.8	-5.49924528302	0.746616541353	-16.512
975	0.4875	11505.8	1.54603773585	2.15563909774	-19.328
976	0.488	11505.8	0.136981132075	2.15563909774	-19.328
977	0.4885	11505.8	1.54603773585	3.56466165414	-5.248
978	0.489	11505.8	0.136981132075	14.8368421053	-23.552
979	0.4895	11505.8	0.136981132075	-4.88947368421	-20.736
980	0.49	11505.8	-5.49924528302	2.15563909774	-23.552
981	0.4905	11505.8	-2.68113207547	2.15563909774	-23.552
982	0.491	11505.8	-2.68113207547	2.15563909774	-23.552
983	0.4915	11505.8	0.136981132075	0.746616541353	-23.552
984	0.492	11505.8	-1.2720754717	-0.662406015038	-27.776
985	0.4925	11505.8	2.95509433962	9.2007518797	-22.144
986	0.493	11505.8	0.136981132075	3.56466165414	-22.144
987	0.4935	11505.8	-9.72641509434	2.15563909774	-22.144
988	0.494	11505.8	18.4547169811	0.746616541353	-20.736
989	0.4945	11505.8	1.54603773585	2.15563909774	-23.552
990	0.495	11505.8	1.54603773585	-0.662406015038	-22.144
991	0.4955	11505.8	-2.68113207547	0.746616541353	-30.592
992	0.496	11505.8	-2.68113207547	13.4278195489	-24.96
993	0.4965	11505.8	-2.68113207547	-2.07142857143	-24.96
994	0.497	11505.8	0.136981132075	0.746616541353	-23.552
995	0.4975	11505.8	-9.72641509434	0.746616541353	-26.368
996	0.498	11505.8	-2.68113207547	-0.662406015038	-24.96
997	0.4985	11505.8	-2.68113207547	0.746616541353	-30.592
998	0.499	11505.8	-4.09018867925	-0.662406015038	-27.776
999	0.4995	11505.8	-1.2720754717	-11.9345864662	-24.96
1000	0.5	11505.8	0.136981132075	2.15563909774	-23.552
1001	0.5005	11505.8	0.136981132075	0.746616541353	-26.368
1002	0.501	11505.8	-4.09018867925	3.56466165414	-24.96
1003	0.5015	11505.8	-2.68113207547	2.15563909774	-22.144
1004	0.502	11505.8	0.136981132075	2.15563909774	-23.552
1005	0.5025	11505.8	0.136981132075	3.56466165414	-23.552
1006	0.503	11505.8	1.54603773585	0.746616541353	-29.184
1007	0.5035	11505.8	-1.2720754717	17.654887218	-24.96
1008	0.504	11505.8	-11.1354716981	3.56466165414	-23.552
1009	0.5045	11505.8	10.0003773585	2.15563909774	-24.96
1010	0.505	11505.8	-4.09018867925	0.746616541353	-24.96
1011	0.5055	11505.8	1.54603773585	3.56466165414	-23.552
1012	0.506	11505.8	-2.68113207547	3.56466165414	-23.552
1013	0.5065	11505.8	0.136981132075	-6.2984962406	-26.368
1014	0.507	11505.8	4.3641509434	0.746616541353	-26.368
1015	0.5075	11505.8	-9.72641509434	3.56466165414	-27.776
1016	0.508	11505.8	-6.90830188679	2.15563909774	-27.776
1017	0.5085	11505.8	-2.68113207547	2.15563909774	-23.552
1018	0.509	11505.8	0.136981132075	3.56466165414	-22.144
1019	0.5095	11505.8	-2.68113207547	-0.662406015038	-37.632
1020	0.51	11505.8	-2.68113207547	-7.70751879699	-26.368
1021	0.5105	11505.8	0.136981132075	20.4729323308	-26.368
1022	0.511	11505.8	-2.68113207547	2.15563909774	-26.368
1023	0.5115	11505.8	-8.31735849057	2.15563909774	-24.96
1024	0.512	11505.8	1.54603773585	2.15563909774	-23.552
1025	0.5125	11505.8	1.54603773585	3.56466165414	-26.368
1026	0.513	11505.8	1.54603773585	3.56466165414	-30.592
1027	0.5135	11505.8	-1.2720754717	0.746616541353	-30.592
1028	0.514	11505.8	-2.68113207547	3.56466165414	-24.96
1029	0.5145	11505.8	0.136981132075	0.746616541353	-27.776
1030	0.515	11505.8	14.2275471698	-0.662406015038	-23.552
1031	0.5155	11505.8	-9.72641509434	0.746616541353	-23.552
1032	0.516	11505.8	-1.2720754717	2.15563909774	-22.144
1033	0.5165	11505.8	-5.49924528302	4.97368421053	-22.144
1034	0.517	11505.8	-1.2720754717	-0.662406015038	-29.184
1035	0.5175	11505.8	0.136981132075	6.38270676692	-22.144
1036	0.518	11505.8	1.54603773585	0.746616541353	-20.736
1037	0.5185	11505.8	19.8637735849	2.15563909774	-19.328
1038	0.519	11505.8	-1.2720754717	2.15563909774	-16.512
1039	0.5195	11505.8	-1.2720754717	0.746616541353	-20.736
1040	0.52	11505.8	-1.2720754717	2.15563909774	-19.328
1041	0.5205	11505.8	-4.09018867925	2.15563909774	-27.776
1042	0.521	11505.8	-2.68113207547	17.654887218	-23.552
1043	0.5215	11505.8	-1.2720754717	-7.70751879699	-26.368
1044	0.522	11505.8	15.6366037736	2.15563909774	-19.328
1045	0.5225	11505.8	-8.31735849057	3.56466165414	-20.736
1046	0.523	11505.8	-9.72641509434	-0.662406015038	-22.144
1047	0.5235	11505.8	-4.09018867925	2.15563909774	-15.104
1048	0.524	11505.8	-4.09018867925	-2.07142857143	-27.776
1049	0.5245	11505.8	-1.2720754717	3.56466165414	-26.368
1050	0.525	11505.8	-6.90830188679	3.56466165414	-23.552
1051	0.5255	11505.8	4.3641509434	-0.662406015038	-20.736
1052	0.526	11505.8	-4.09018867925	3.56466165414	-23.552
1053	0.5265	11505.8	-1.2720754717	0.746616541353	-23.552
1054	0.527	11505.8	-2.68113207547	2.15563909774	-22.144
1055	0.5275	11505.8	-2.68113207547	3.56466165414	-40.448
1056	0.528	11505.8	1.54603773585	-7.70751879699	-29.184
1057	0.5285	11505.8	1.54603773585	3.56466165414	-27.776
1058	0.529	11505.8	-11.1354716981	2.15563909774	-27.776
1059	0.5295	11505.8	-5.49924528302	2.15563909774	-27.776
1060	0.53	11505.8	2.95509433962	3.56466165414	-23.552
1061	0.5305	11505.8	1.54603773585	0.746616541353	-24.96
1062	0.531	11505.8	-1.2720754717	3.56466165414	-30.592
1063	0.5315	11505.8	-1.2720754717	-3.48045112782	-29.184
1064	0.532	11505.8	4.3641509434	-0.662406015038	-27.776
1065	0.5325	11505.8	-2.68113207547	2.15563909774	-26.368
1066	0.533	11505.8	0.136981132075	0.746616541353	-27.776
1067	0.5335	11505.8	0.136981132075	2.15563909774	-29.184
1068	0.534	11505.8	-1.2720754717	3.56466165414	-34.816
1069	0.5345	11505.8	1.54603773585	0.746616541353	-33.408
1070	0.535	11505.8	-1.2720754717	-0.662406015038	-22.144
1071	0.5355	11505.8	2.95509433962	7.79172932331	-32.0
1072	0.536	11505.8	-2.68113207547	3.56466165414	-27.776
1073	0.5365	11505.8	1.54603773585	0.746616541353	-26.368
1074	0.537	11505.8	1.54603773585	2.15563909774	-24.96
1075	0.5375	11505.8	1.54603773585	2.15563909774	-27.776
1076	0.538	11505.8	2.95509433962	3.56466165414	-23.552
1077	0.5385	11505.8	0.136981132075	13.4278195489	-24.96
1078	0.539	11505.8	2.95509433962	-7.70751879699	-32.0
1079	0.5395	11505.8	11.4094339623	3.56466165414	-24.96
1080	0.54	11505.8	-9.72641509434	2.15563909774	-23.552
1081	0.5405	11505.8	-9.72641509434	2.15563909774	-22.144
1082	0.541	11505.8	0.136981132075	2.15563909774	-22.144
1083	0.5415	11505.8	-2.68113207547	-0.662406015038	-23.552
1084	0.542	11505.8	-4.09018867925	0.746616541353	-30.592
1085	0.5425	11505.8	1.54603773585	0.746616541353	-22.144
1086	0.543	11505.8	-11.1354716981	0.746616541353	-20.736
1087	0.5435	11505.8	-8.31735849057	0.746616541353	-19.328
1088	0.544	11505.8	0.136981132075	0.746616541353	-17.92
1089	0.5445	11505.8	0.136981132075	2.15563909774	-17.92
1090	0.545	11505.8	1.54603773585	-0.662406015038	-24.96
1091	0.5455	11505.8	-1.2720754717	7.79172932331	-13.696
1092	0.546	11505.8	-2.68113207547	-0.662406015038	-15.104
1093	0.5465	11505.8	-12.5445283019	3.56466165414	-17.92
1094	0.547	11505.8	7.18226415094	0.746616541353	-16.512
1095	0.5475	11505.8	-4.09018867925	2.15563909774	-12.288
1096	0.548	11505.8	-4.09018867925	-0.662406015038	-26.368
1097	0.5485	11505.8	-1.2720754717	-0.662406015038	1.792
1098	0.549	11505.8	-2.68113207547	-0.662406015038	-13.696
1099	0.5495	11505.8	1.54603773585	9.2007518797	-15.104
1100	0.55	11505.8	-9.72641509434	-3.48045112782	-16.512
1101	0.5505	11505.8	-4.09018867925	-2.07142857143	-15.104
1102	0.551	11505.8	-4.09018867925	0.746616541353	-15.104
1103	0.5515	11505.8	0.136981132075	-0.662406015038	-16.512
1104	0.552	11505.8	-4.09018867925	2.15563909774	-24.96
1105	0.5525	11505.8	-1.2720754717	2.15563909774	-17.92
1106	0.553	11505.8	-4.09018867925	3.56466165414	-20.736
1107	0.5535	11505.8	0.136981132075	2.15563909774	-19.328
1108	0.554	11505.8	10.0003773585	-0.662406015038	-20.736
1109	0.5545	11505.8	-8.31735849057	2.15563909774	-20.736
1110	0.555	11505.8	-1.2720754717	0.746616541353	-16.512
1111	0.5555	11505.8	-2.68113207547	-0.662406015038	-24.96
1112	0.556	11505.8	-4.09018867925	-10.5255639098	-16.512
1113	0.5565	11505.8	-2.68113207547	-10.5255639098	-22.144
1114	0.557	11505.8	-4.09018867925	16.2458646617	-16.512
1115	0.5575	11505.8	17.0456603774	0.746616541353	-16.512
1116	0.558	11505.8	-9.72641509434	0.746616541353	-16.512
1117	0.5585	11505.8	0.136981132075	3.56466165414	-15.104
1118	0.559	11505.8	1.54603773585	3.56466165414	0.384
1119	0.5595	11505.8	1.54603773585	3.56466165414	-26.368
1120	0.56	11505.8	1.54603773585	-4.88947368421	-27.776
1121	0.5605	11505.8	2.95509433962	20.4729323308	-16.512
1122	0.561	11505.8	-2.68113207547	-7.70751879699	-16.512
1123	0.5615	11505.8	-1.2720754717	2.15563909774	-15.104
1124	0.562	11505.8	0.136981132075	0.746616541353	-17.92
1125	0.5625	11505.8	0.136981132075	0.746616541353	-17.92
1126	0.563	11505.8	-1.2720754717	-0.662406015038	-5.248
1127	0.5635	11505.8	-2.68113207547	-0.662406015038	-16.512
1128	0.564	11505.8	-2.68113207547	9.2007518797	-19.328
1129	0.5645	11505.8	-5.49924528302	0.746616541353	-19.328
1130	0.565	11505.8	0.136981132075	-0.662406015038	-16.512
1131	0.5655	11505.8	1.54603773585	0.746616541353	-20.736
1132	0.566	11505.8	1.54603773585	2.15563909774	-17.92
1133	0.5665	11505.8	-1.2720754717	0.746616541353	-5.248
1134	0.567	11505.8	-1.2720754717	4.97368421053	-15.104
1135	0.5675	11505.8	-1.2720754717	19.0639097744	-13.696
1136	0.568	11505.8	4.3641509434	2.15563909774	-13.696
1137	0.5685	11505.8	19.8637735849	2.15563909774	-13.696
1138	0.569	11505.8	-8.31735849057	3.56466165414	-13.696
1139	0.5695	11505.8	1.54603773585	3.56466165414	-16.512
1140	0.57	11505.8	2.95509433962	0.746616541353	-10.88
1141	0.5705	11505.8	1.54603773585	-6.2984962406	-15.104
1142	0.571	11505.8	0.136981132075	12.0187969925	-8.064
1143	0.5715	11505.8	-9.72641509434	2.15563909774	-10.88
1144	0.572	11505.8	-1.2720754717	0.746616541353	-10.88
1145	0.5725	11505.8	-2.68113207547	0.746616541353	-10.88
1146	0.573	11505.8	1.54603773585	0.746616541353	-6.656
1147	0.5735	11505.8	1.54603773585	2.15563909774	-20.736
1148	0.574	11505.8	0.136981132075	-2.07142857143	6.016
1149	0.5745	11505.8	2.95509433962	14.8368421053	-10.88
1150	0.575	11505.8	-1.2720754717	0.746616541353	-9.472
1151	0.5755	11505.8	4.3641509434	0.746616541353	-6.656
1152	0.576	11505.8	0.136981132075	0.746616541353	-8.064
1153	0.5765	11505.8	0.136981132075	0.746616541353	-2.432
1154	0.577	11505.8	0.136981132075	2.15563909774	7.424
1155	0.5775	11505.8	-1.2720754717	2.15563909774	-15.104
1156	0.578	11505.8	-1.2720754717	-2.07142857143	-13.696
1157	0.5785	11505.8	-2.68113207547	13.4278195489	-8.064
1158	0.579	11505.8	-4.09018867925	-2.07142857143	-8.064
1159	0.5795	11505.8	-1.2720754717	-0.662406015038	-9.472
1160	0.58	11505.8	-1.2720754717	2.15563909774	-5.248
1161	0.5805	11505.8	-1.2720754717	2.15563909774	3.2
1162	0.581	11505.8	-1.2720754717	-3.48045112782	-12.288
1163	0.5815	11505.8	-2.68113207547	13.4278195489	-10.88
1164	0.582	11505.8	-15.3626415094	2.15563909774	-9.472
1165	0.5825	11505.8	15.6366037736	0.746616541353	-6.656
1166	0.583	11505.8	-8.31735849057	0.746616541353	-3.84
1167	0.5835	11505.8	-5.49924528302	2.15563909774	-3.84
1168	0.584	11505.8	-2.68113207547	3.56466165414	-16.512
1169	0.5845	11505.8	-4.09018867925	-6.2984962406	-2.432
1170	0.585	11505.8	-1.2720754717	-4.88947368421	-2.432
1171	0.5855	11505.8	-9.72641509434	3.56466165414	-3.84
1172	0.586	11505.8	8.59132075472	2.15563909774	-1.024
1173	0.5865	11505.8	0.136981132075	2.15563909774	-1.024
1174	0.587	11505.8	1.54603773585	2.15563909774	-1.024
1175	0.5875	11505.8	-2.68113207547	0.746616541353	6.016
1176	0.588	11505.8	0.136981132075	-2.07142857143	-5.248
1177	0.5885	11505.8	-1.2720754717	13.4278195489	3.2
1178	0.589	11505.8	-9.72641509434	2.15563909774	0.384
1179	0.5895	11505.8	15.6366037736	0.746616541353	-2.432
1180	0.59	11505.8	0.136981132075	0.746616541353	-1.024
1181	0.5905	11505.8	-1.2720754717	2.15563909774	1.792
1182	0.591	11505.8	-4.09018867925	4.97368421053	-1.024
1183	0.5915	11505.8	0.136981132075	16.2458646617	-2.432
1184	0.592	11505.8	0.136981132075	-4.88947368421	-2.432
1185	0.5925	11505.8	-9.72641509434	2.15563909774	-2.432
1186	0.593	11505.8	-1.2720754717	0.746616541353	-5.248
1187	0.5935	11505.8	-1.2720754717	2.15563909774	-2.432
1188	0.594	11505.8	0.136981132075	4.97368421053	13.056
1189	0.5945	11505.8	0.136981132075	0.746616541353	-10.88
1190	0.595	11505.8	-1.2720754717	-4.88947368421	-12.288
1191	0.5955	11505.8	-2.68113207547	0.746616541353	-6.656
1192	0.596	11505.8	-11.1354716981	4.97368421053	-6.656
1193	0.5965	11505.8	-9.72641509434	-0.662406015038	-6.656
1194	0.597	11505.8	-1.2720754717	0.746616541353	-6.656
1195	0.5975	11505.8	-2.68113207547	0.746616541353	-1.024
1196	0.598	11505.8	-1.2720754717	-3.48045112782	-13.696
1197	0.5985	11505.8	-2.68113207547	0.746616541353	-12.288
1198	0.599	11505.8	-4.09018867925	-3.48045112782	0.384
1199	0.5995	11505.8	7.18226415094	0.746616541353	-6.656
1200	0.6	11505.8	-5.49924528302	-0.662406015038	-6.656
1201	0.6005	11505.8	0.136981132075	-2.07142857143	-6.656
1202	0.601	11505.8	0.136981132075	4.97368421053	-8.064
1203	0.6015	11505.8	-1.2720754717	2.15563909774	-13.696
1204	0.602	11505.8	-1.2720754717	2.15563909774	0.384
1205	0.6025	11505.8	-4.09018867925	14.8368421053	-8.064
1206	0.603	11505.8	2.95509433962	-6.2984962406	-6.656
1207	0.6035	11505.8	-8.31735849057	0.746616541353	-8.064
1208	0.604	11505.8	-2.68113207547	3.56466165414	-6.656
1209	0.6045	11505.8	-1.2720754717	0.746616541353	-3.84
1210	0.605	11505.8	-1.2720754717	2.15563909774	-5.248
1211	0.6055	11505.8	-1.2720754717	6.38270676692	-6.656
1212	0.606	11505.8	-1.2720754717	6.38270676692	-5.248
1213	0.6065	11505.8	1.54603773585	-3.48045112782	-5.248
1214	0.607	11505.8	-8.31735849057	-0.662406015038	-5.248
1215	0.6075	11505.8	-4.09018867925	-0.662406015038	-5.248
1216	0.608	11505.8	-1.2720754717	4.97368421053	8.832
1217	0.6085	11505.8	-1.2720754717	4.97368421053	-10.88
1218	0.609	11505.8	0.136981132075	-7.70751879699	-5.248
1219	0.6095	11505.8	2.95509433962	-3.48045112782	-2.432
1220	0.61	11505.8	1.54603773585	2.15563909774	-3.84
1221	0.6105	11505.8	8.59132075472	0.746616541353	-5.248
1222	0.611	11505.8	2.95509433962	3.56466165414	-3.84
1223	0.6115	11505.8	1.54603773585	2.15563909774	14.464
1224	0.612	11505.8	-1.2720754717	4.97368421053	-12.288
1225	0.6125	11505.8	-1.2720754717	-0.662406015038	-10.88
1226	0.613	11505.8	-1.2720754717	-3.48045112782	-2.432
1227	0.6135	11505.8	-9.72641509434	2.15563909774	-1.024
1228	0.614	11505.8	-4.09018867925	2.15563909774	-1.024
1229	0.6145	11505.8	-1.2720754717	0.746616541353	1.792
1230	0.615	11505.8	-2.68113207547	2.15563909774	-13.696
1231	0.6155	11505.8	-2.68113207547	0.746616541353	-10.88
1232	0.616	11505.8	-2.68113207547	-3.48045112782	-2.432
1233	0.6165	11505.8	-5.49924528302	-2.07142857143	13.056
1234	0.617	11505.8	-2.68113207547	3.56466165414	-1.024
1235	0.6175	11505.8	1.54603773585	0.746616541353	0.384
1236	0.618	11505.8	-1.2720754717	3.56466165414	-1.024
1237	0.6185	11505.8	0.136981132075	4.97368421053	-2.432
1238	0.619	11505.8	1.54603773585	3.56466165414	-2.432
1239	0.6195	11505.8	-1.2720754717	-0.662406015038	-1.024
1240	0.62	11505.8	1.54603773585	2.15563909774	-2.432
1241	0.6205	11505.8	7.18226415094	0.746616541353	-3.84
1242	0.621	11505.8	-16.7716981132	0.746616541353	-3.84
1243	0.6215	11505.8	-5.49924528302	2.15563909774	-2.432
1244	0.622	11505.8	-1.2720754717	2.15563909774	-15.104
1245	0.6225	11505.8	-1.2720754717	-3.48045112782	-16.512
1246	0.623	11505.8	0.136981132075	-9.11654135338	-3.84
1247	0.6235	11505.8	2.95509433962	2.15563909774	-2.432
1248	0.624	11505.8	-11.1354716981	0.746616541353	-2.432
1249	0.6245	11505.8	-8.31735849057	0.746616541353	-3.84
1250	0.625	11505.8	0.136981132075	0.746616541353	-2.432
1251	0.6255	11505.8	-2.68113207547	2.15563909774	-2.432
1252	0.626	11505.8	-2.68113207547	3.56466165414	-6.656
1253	0.6265	11505.8	-4.09018867925	2.15563909774	-5.248
1254	0.627	11505.8	0.136981132075	-3.48045112782	-9.472
1255	0.6275	11505.8	-8.31735849057	2.15563909774	-10.88
1256	0.628	11505.8	-1.2720754717	0.746616541353	-10.88
1257	0.6285	11505.8	1.54603773585	0.746616541353	-8.064
1258	0.629	11505.8	1.54603773585	-0.662406015038	-10.88
1259	0.6295	11505.8	1.54603773585	-0.662406015038	-20.736
1260	0.63	11505.8	2.95509433962	-0.662406015038	-12.288
1261	0.6305	11505.8	-1.2720754717	6.38270676692	-13.696
1262	0.631	11505.8	0.136981132075	6.38270676692	-13.696
1263	0.6315	11505.8	-1.2720754717	-0.662406015038	-12.288
1264	0.632	11505.8	-2.68113207547	-0.662406015038	-12.288
1265	0.6325	11505.8	-1.2720754717	0.746616541353	-10.88
1266	0.633	11505.8	-1.2720754717	0.746616541353	4.608
1267	0.6335	11505.8	0.136981132075	4.97368421053	-20.736
1268	0.634	11505.8	-2.68113207547	-7.70751879699	-9.472
1269	0.6345	11505.8	0.136981132075	-0.662406015038	-12.288
1270	0.635	11505.8	-9.72641509434	2.15563909774	-10.88
1271	0.6355	11505.8	-9.72641509434	0.746616541353	-10.88
1272	0.636	11505.8	0.136981132075	2.15563909774	-10.88
1273	0.6365	11505.8	1.54603773585	2.15563909774	0.384
1274	0.637	11505.8	-1.2720754717	-6.2984962406	-13.696
1275	0.6375	11505.8	1.54603773585	13.4278195489	-15.104
1276	0.638	11505.8	0.136981132075	19.0639097744	-10.88
1277	0.6385	11505.8	18.4547169811	2.15563909774	-12.288
1278	0.639	11505.8	-1.2720754717	0.746616541353	-9.472
1279	0.6395	11505.8	-1.2720754717	0.746616541353	-9.472
1280	0.64	11505.8	-2.68113207547	0.746616541353	-12.288
1281	0.6405	11505.8	0.136981132075	-3.48045112782	-10.88
1282	0.641	11505.8	-2.68113207547	-0.662406015038	-16.512
1283	0.6415	11505.8	1.54603773585	-2.07142857143	-9.472
1284	0.642	11505.8	-13.9535849057	-0.662406015038	-8.064
1285	0.6425	11505.8	-5.49924528302	3.56466165414	-10.88
1286	0.643	11505.8	-5.49924528302	2.15563909774	-2.432
1287	0.6435	11505.8	-1.2720754717	2.15563909774	7.424
1288	0.644	11505.8	-2.68113207547	4.97368421053	-13.696
1289	0.6445	11505.8	-1.2720754717	0.746616541353	-17.92
1290	0.645	11505.8	1.54603773585	3.56466165414	-5.248
1291	0.6455	11505.8	-12.5445283019	0.746616541353	-5.248
1292	0.646	11505.8	-13.9535849057	2.15563909774	-6.656
1293	0.6465	11505.8	-2.68113207547	0.746616541353	-6.656
1294	0.647	11505.8	-1.2720754717	0.746616541353	-10.88
1295	0.6475	11505.8	-2.68113207547	2.15563909774	1.792
1296	0.648	11505.8	-4.09018867925	-4.88947368421	-1.024
1297	0.6485	11505.8	1.54603773585	-2.07142857143	-10.88
1298	0.649	11505.8	-2.68113207547	-2.07142857143	-9.472
1299	0.6495	11505.8	-5.49924528302	2.15563909774	-10.88
1300	0.65	11505.8	-1.2720754717	-0.662406015038	-15.104
1301	0.6505	11505.8	0.136981132075	-0.662406015038	-16.512
1302	0.651	11505.8	0.136981132075	2.15563909774	0.384
1303	0.6515	11505.8	1.54603773585	-2.07142857143	1.792
1304	0.652	11505.8	0.136981132075	-2.07142857143	-10.88
1305	0.6525	11505.8	-11.1354716981	2.15563909774	-10.88
1306	0.653	11505.8	-5.49924528302	-0.662406015038	-8.064
1307	0.6535	11505.8	-6.90830188679	0.746616541353	-6.656
1308	0.654	11505.8	-4.09018867925	-0.662406015038	-9.472
1309	0.6545	11505.8	0.136981132075	-0.662406015038	-16.512
1310	0.655	11505.8	-1.2720754717	-2.07142857143	6.016
1311	0.6555	11505.8	1.54603773585	16.2458646617	-13.696
1312	0.656	11505.8	-8.31735849057	2.15563909774	-10.88
1313	0.6565	11505.8	-5.49924528302	0.746616541353	-10.88
1314	0.657	11505.8	-4.09018867925	0.746616541353	-12.288
1315	0.6575	11505.8	-4.09018867925	-0.662406015038	-19.328
1316	0.658	11505.8	-2.68113207547	0.746616541353	-5.248
1317	0.6585	11505.8	0.136981132075	14.8368421053	-15.104
1318	0.659	11505.8	-4.09018867925	-0.662406015038	-12.288
1319	0.6595	11505.8	-1.2720754717	-3.48045112782	-13.696
1320	0.66	11505.8	1.54603773585	2.15563909774	-13.696
1321	0.6605	11505.8	-4.09018867925	2.15563909774	-13.696
1322	0.661	11505.8	-1.2720754717	2.15563909774	-12.288
1323	0.6615	11505.8	-2.68113207547	0.746616541353	0.384
1324	0.662	11505.8	-2.68113207547	-0.662406015038	-2.432
1325	0.6625	11505.8	-1.2720754717	2.15563909774	-15.104
1326	0.663	11505.8	-2.68113207547	6.38270676692	-10.88
1327	0.6635	11505.8	-6.90830188679	0.746616541353	-10.88
1328	0.664	11505.8	0.136981132075	4.97368421053	-10.88
1329	0.6645	11505.8	0.136981132075	2.15563909774	-12.288
1330	0.665	11505.8	2.95509433962	-3.48045112782	-6.656
1331	0.6655	11505.8	-1.2720754717	13.4278195489	-6.656
1332	0.666	11505.8	0.136981132075	3.56466165414	-5.248
1333	0.6665	11505.8	4.3641509434	0.746616541353	-6.656
1334	0.667	11505.8	-4.09018867925	-0.662406015038	-5.248
1335	0.6675	11505.8	-1.2720754717	0.746616541353	-6.656
1336	0.668	11505.8	0.136981132075	3.56466165414	4.608
1337	0.6685	11505.8	1.54603773585	-3.48045112782	-10.88
1338	0.669	11505.8	1.54603773585	13.4278195489	-12.288
1339	0.6695	11505.8	-1.2720754717	-2.07142857143	-9.472
1340	0.67	11505.8	4.3641509434	2.15563909774	-9.472
1341	0.6705	11505.8	1.54603773585	0.746616541353	-10.88
1342	0.671	11505.8	0.136981132075	2.15563909774	-6.656
1343	0.6715	11505.8	1.54603773585	2.15563909774	-9.472
1344	0.672	11505.8	-1.2720754717	-0.662406015038	-13.696
1345	0.6725	11505.8	-1.2720754717	17.654887218	-10.88
1346	0.673	11505.8	-5.49924528302	-6.2984962406	-8.064
1347	0.6735	11505.8	10.0003773585	0.746616541353	-9.472
1348	0.674	11505.8	-9.72641509434	2.15563909774	-6.656
1349	0.6745	11505.8	-1.2720754717	0.746616541353	-13.696
1350	0.675	11505.8	-1.2720754717	0.746616541353	-19.328
1351	0.6755	11505.8	-4.09018867925	-6.2984962406	-9.472
1352	0.676	11505.8	-1.2720754717	13.4278195489	-8.064
1353	0.6765	11505.8	1.54603773585	2.15563909774	-10.88
1354	0.677	11505.8	-8.31735849057	2.15563909774	-10.88
1355	0.6775	11505.8	-1.2720754717	0.746616541353	-9.472
1356	0.678	11505.8	0.136981132075	3.56466165414	-10.88
1357	0.6785	11505.8	0.136981132075	2.15563909774	-3.84
1358	0.679	11505.8	-4.09018867925	-7.70751879699	-9.472
1359	0.6795	11505.8	1.54603773585	-0.662406015038	-6.656
1360	0.68	11505.8	-12.5445283019	0.746616541353	-8.064
1361	0.6805	11505.8	-11.1354716981	-0.662406015038	-10.88
1362	0.681	11505.8	-5.49924528302	-0.662406015038	-6.656
1363	0.6815	11505.8	-5.49924528302	0.746616541353	-10.88
1364	0.682	11505.8	-2.68113207547	-3.48045112782	-12.288
1365	0.6825	11505.8	0.136981132075	14.8368421053	-10.88
1366	0.683	11505.8	-1.2720754717	-0.662406015038	-9.472
1367	0.6835	11505.8	-4.09018867925	-10.5255639098	-10.88
1368	0.684	11505.8	-1.2720754717	2.15563909774	-12.288
1369	0.6845	11505.8	-2.68113207547	-0.662406015038	-15.104
1370	0.685	11505.8	-4.09018867925	4.97368421053	-12.288
1371	0.6855	11505.8	-1.2720754717	3.56466165414	-20.736
1372	0.686	11505.8	-1.2720754717	-9.11654135338	-15.104
1373	0.6865	11505.8	0.136981132075	3.56466165414	-16.512
1374	0.687	11505.8	7.18226415094	0.746616541353	-17.92
1375	0.6875	11505.8	-4.09018867925	-0.662406015038	-13.696
1376	0.688	11505.8	-1.2720754717	4.97368421053	-12.288
1377	0.6885	11505.8	0.136981132075	2.15563909774	-30.592
1378	0.689	11505.8	-2.68113207547	-0.662406015038	-24.96
1379	0.6895	11505.8	-1.2720754717	-7.70751879699	-19.328
1380	0.69	11505.8	-4.09018867925	3.56466165414	-16.512
1381	0.6905	11505.8	-1.2720754717	0.746616541353	-16.512
1382	0.691	11505.8	-4.09018867925	2.15563909774	-17.92
1383	0.6915	11505.8	-1.2720754717	-0.662406015038	-16.512
1384	0.692	11505.8	1.54603773585	0.746616541353	-22.144
1385	0.6925	11505.8	1.54603773585	-6.2984962406	-12.288
1386	0.693	11505.8	-1.2720754717	14.8368421053	-12.288
1387	0.6935	11505.8	-1.2720754717	7.79172932331	-12.288
1388	0.694	11505.8	-5.49924528302	2.15563909774	-13.696
1389	0.6945	11505.8	-4.09018867925	2.15563909774	-16.512
1390	0.695	11505.8	0.136981132075	2.15563909774	-15.104
1391	0.6955	11505.8	-1.2720754717	0.746616541353	-15.104
1392	0.696	11505.8	1.54603773585	2.15563909774	-22.144
1393	0.6965	11505.8	-2.68113207547	-0.662406015038	-17.92
1394	0.697	11505.8	-12.5445283019	3.56466165414	-17.92
1395	0.6975	11505.8	17.0456603774	-2.07142857143	-20.736
1396	0.698	11505.8	0.136981132075	-0.662406015038	-22.144
1397	0.6985	11505.8	-1.2720754717	0.746616541353	-16.512
1398	0.699	11505.8	1.54603773585	4.97368421053	-26.368
1399	0.6995	11505.8	-2.68113207547	-7.70751879699	-17.92
1400	0.7	11505.8	1.54603773585	-6.2984962406	-17.92
1401	0.7005	11505.8	-6.90830188679	2.15563909774	-17.92
1402	0.701	11505.8	5.77320754717	2.15563909774	-17.92
1403	0.7015	11505.8	-6.90830188679	0.746616541353	-19.328
1404	0.702	11505.8	-1.2720754717	3.56466165414	-15.104
1405	0.7025	11505.8	-2.68113207547	2.15563909774	-27.776
1406	0.703	11505.8	1.54603773585	-6.2984962406	-17.92
1407	0.7035	11505.8	0.136981132075	-0.662406015038	-13.696
1408	0.704	11505.8	0.136981132075	0.746616541353	-13.696
1409	0.7045	11505.8	-6.90830188679	0.746616541353	-10.88
1410	0.705	11505.8	-2.68113207547	0.746616541353	-13.696
1411	0.7055	11505.8	-2.68113207547	-0.662406015038	-13.696
1412	0.706	11505.8	-4.09018867925	2.15563909774	-10.88
1413	0.7065	11505.8	0.136981132075	9.2007518797	-15.104
1414	0.707	11505.8	-15.3626415094	-0.662406015038	-9.472
1415	0.7075	11505.8	14.2275471698	2.15563909774	-10.88
1416	0.708	11505.8	-2.68113207547	-0.662406015038	-10.88
1417	0.7085	11505.8	0.136981132075	0.746616541353	-10.88
1418	0.709	11505.8	0.136981132075	3.56466165414	-6.656
1419	0.7095	11505.8	-1.2720754717	0.746616541353	-22.144
1420	0.71	11505.8	-4.09018867925	2.15563909774	3.2
1421	0.7105	11505.8	-6.90830188679	0.746616541353	-10.88
1422	0.711	11505.8	8.59132075472	0.746616541353	-12.288
1423	0.7115	11505.8	0.136981132075	2.15563909774	-13.696
1424	0.712	11505.8	0.136981132075	3.56466165414	-9.472
1425	0.7125	11505.8	-1.2720754717	3.56466165414	-16.512
1426	0.713	11505.8	0.136981132075	6.38270676692	-16.512
1427	0.7135	11505.8	-4.09018867925	-7.70751879699	-13.696
1428	0.714	11505.8	-4.09018867925	0.746616541353	-15.104
1429	0.7145	11505.8	1.54603773585	-0.662406015038	-13.696
1430	0.715	11505.8	-1.2720754717	0.746616541353	-10.88
1431	0.7155	11505.8	-1.2720754717	2.15563909774	-12.288
1432	0.716	11505.8	0.136981132075	0.746616541353	-15.104
1433	0.7165	11505.8	-2.68113207547	4.97368421053	-2.432
1434	0.717	11505.8	-1.2720754717	19.0639097744	-13.696
1435	0.7175	11505.8	0.136981132075	2.15563909774	-13.696
1436	0.718	11505.8	-2.68113207547	2.15563909774	-12.288
1437	0.7185	11505.8	-5.49924528302	0.746616541353	-9.472
1438	0.719	11505.8	-5.49924528302	4.97368421053	-9.472
1439	0.7195	11505.8	-1.2720754717	4.97368421053	-23.552
1440	0.72	11505.8	0.136981132075	-6.2984962406	-15.104
1441	0.7205	11505.8	-2.68113207547	2.15563909774	-13.696
1442	0.721	11505.8	5.77320754717	2.15563909774	-9.472
1443	0.7215	11505.8	1.54603773585	0.746616541353	-6.656
1444	0.722	11505.8	1.54603773585	2.15563909774	-12.288
1445	0.7225	11505.8	1.54603773585	-0.662406015038	7.424
1446	0.723	11505.8	1.54603773585	3.56466165414	7.424
1447	0.7235	11505.8	0.136981132075	16.2458646617	-2.432
1448	0.724	11505.8	0.136981132075	-4.88947368421	-5.248
1449	0.7245	11505.8	4.3641509434	0.746616541353	-6.656
1450	0.725	11505.8	-1.2720754717	3.56466165414	-8.064
1451	0.7255	11505.8	-2.68113207547	-0.662406015038	-5.248
1452	0.726	11505.8	0.136981132075	4.97368421053	-5.248
1453	0.7265	11505.8	0.136981132075	3.56466165414	-12.288
1454	0.727	11505.8	1.54603773585	-2.07142857143	-5.248
1455	0.7275	11505.8	-4.09018867925	3.56466165414	-3.84
1456	0.728	11505.8	8.59132075472	2.15563909774	-5.248
1457	0.7285	11505.8	-2.68113207547	-0.662406015038	-3.84
1458	0.729	11505.8	-2.68113207547	2.15563909774	-3.84
1459	0.7295	11505.8	-1.2720754717	2.15563909774	-3.84
1460	0.73	11505.8	1.54603773585	-6.2984962406	-3.84
1461	0.7305	11505.8	0.136981132075	-6.2984962406	-5.248
1462	0.731	11505.8	-5.49924528302	0.746616541353	-5.248
1463	0.7315	11505.8	14.2275471698	3.56466165414	-6.656
1464	0.732	11505.8	-2.68113207547	2.15563909774	-5.248
1465	0.7325	11505.8	1.54603773585	2.15563909774	-2.432
1466	0.733	11505.8	0.136981132075	3.56466165414	3.2
1467	0.7335	11505.8	-1.2720754717	-10.5255639098	-6.656
1468	0.734	11505.8	0.136981132075	-7.70751879699	-1.024
1469	0.7345	11505.8	-11.1354716981	4.97368421053	0.384
1470	0.735	11505.8	15.6366037736	0.746616541353	-1.024
1471	0.7355	11505.8	0.136981132075	2.15563909774	-1.024
1472	0.736	11505.8	-1.2720754717	4.97368421053	0.384
1473	0.7365	11505.8	-2.68113207547	2.15563909774	7.424
1474	0.737	11505.8	-2.68113207547	-6.2984962406	1.792
1475	0.7375	11505.8	1.54603773585	-3.48045112782	0.384
1476	0.738	11505.8	18.4547169811	0.746616541353	1.792
1477	0.7385	11505.8	-9.72641509434	-0.662406015038	-1.024
1478	0.739	11505.8	-1.2720754717	6.38270676692	0.384
1479	0.7395	11505.8	-5.49924528302	0.746616541353	-2.432
1480	0.74	11505.8	-2.68113207547	0.746616541353	-3.84
1481	0.7405	11505.8	-2.68113207547	3.56466165414	7.424
1482	0.741	11505.8	-4.09018867925	-10.5255639098	-8.064
1483	0.7415	11505.8	15.6366037736	0.746616541353	-2.432
1484	0.742	11505.8	-11.1354716981	0.746616541353	-3.84
1485	0.7425	11505.8	-6.90830188679	0.746616541353	-3.84
1486	0.743	11505.8	-2.68113207547	3.56466165414	-8.064
1487	0.7435	11505.8	-4.09018867925	0.746616541353	-1.024
1488	0.744	11505.8	-4.09018867925	6.38270676692	4.608
1489	0.7445	11505.8	-4.09018867925	-9.11654135338	-5.248
1490	0.745	11505.8	18.4547169811	2.15563909774	-5.248
1491	0.7455	11505.8	-8.31735849057	0.746616541353	-3.84
1492	0.746	11505.8	0.136981132075	2.15563909774	-5.248
1493	0.7465	11505.8	0.136981132075	2.15563909774	-8.064
1494	0.747	11505.8	1.54603773585	-6.2984962406	-3.84
1495	0.7475	11505.8	2.95509433962	-2.07142857143	-3.84
1496	0.748	11505.8	4.3641509434	0.746616541353	-3.84
1497	0.7485	11505.8	-9.72641509434	0.746616541353	-2.432
1498	0.749	11505.8	-4.09018867925	0.746616541353	-3.84
1499	0.7495	11505.8	1.54603773585	0.746616541353	-5.248
1500	0.75	11505.8	1.54603773585	-2.07142857143	4.608
1501	0.7505	11505.8	0.136981132075	4.97368421053	14.464
1502	0.751	11505.8	-1.2720754717	-0.662406015038	-13.696
1503	0.7515	11505.8	0.136981132075	-0.662406015038	-2.432
1504	0.752	11505.8	2.95509433962	2.15563909774	-1.024
1505	0.7525	11505.8	-4.09018867925	2.15563909774	-2.432
1506	0.753	11505.8	1.54603773585	2.15563909774	0.384
1507	0.7535	11505.8	1.54603773585	2.15563909774	3.2
1508	0.754	11505.8	-4.09018867925	3.56466165414	-10.88
1509	0.7545	11505.8	-5.49924528302	2.15563909774	-3.84
1510	0.755	11505.8	-9.72641509434	3.56466165414	-3.84
1511	0.7555	11505.8	10.0003773585	6.38270676692	-1.024
1512	0.756	11505.8	-1.2720754717	2.15563909774	-3.84
1513	0.7565	11505.8	-1.2720754717	0.746616541353	-2.432
1514	0.757	11505.8	0.136981132075	2.15563909774	6.016
1515	0.7575	11505.8	1.54603773585	-6.2984962406	-6.656
1516	0.758	11505.8	1.54603773585	16.2458646617	-6.656
1517	0.7585	11505.8	-15.3626415094	4.97368421053	-3.84
1518	0.759	11505.8	-2.68113207547	3.56466165414	-3.84
1519	0.7595	11505.8	-15.3626415094	0.746616541353	-3.84
1520	0.76	11505.8	-6.90830188679	3.56466165414	3.2
1521	0.7605	11505.8	-1.2720754717	3.56466165414	-8.064
1522	0.761	11505.8	-4.09018867925	-7.70751879699	-5.248
1523	0.7615	11505.8	1.54603773585	-6.2984962406	-5.248
1524	0.762	11505.8	-2.68113207547	4.97368421053	-5.248
1525	0.7625	11505.8	-6.90830188679	2.15563909774	-5.248
1526	0.763	11505.8	-2.68113207547	0.746616541353	-6.656
1527	0.7635	11505.8	-4.09018867925	2.15563909774	-8.064
1528	0.764	11505.8	-2.68113207547	0.746616541353	-10.88
1529	0.7645	11505.8	0.136981132075	0.746616541353	-5.248
1530	0.765	11505.8	-6.90830188679	-0.662406015038	-6.656
1531	0.7655	11505.8	-15.3626415094	2.15563909774	-5.248
1532	0.766	11505.8	17.0456603774	-0.662406015038	-6.656
1533	0.7665	11505.8	-1.2720754717	-0.662406015038	-3.84
1534	0.767	11505.8	-1.2720754717	-0.662406015038	-10.88
1535	0.7675	11505.8	-1.2720754717	0.746616541353	3.2
1536	0.768	11505.8	0.136981132075	-3.48045112782	0.384
1537	0.7685	11505.8	-1.2720754717	9.2007518797	-8.064
1538	0.769	11505.8	-1.2720754717	-2.07142857143	-9.472
1539	0.7695	11505.8	-12.5445283019	2.15563909774	-8.064
1540	0.77	11505.8	14.2275471698	2.15563909774	-9.472
1541	0.7705	11505.8	-4.09018867925	0.746616541353	-9.472
1542	0.771	11505.8	-2.68113207547	0.746616541353	-1.024
1543	0.7715	11505.8	0.136981132075	-11.9345864662	-6.656
1544	0.772	11505.8	1.54603773585	17.654887218	-5.248
1545	0.7725	11505.8	0.136981132075	0.746616541353	-6.656
1546	0.773	11505.8	1.54603773585	3.56466165414	-10.88
1547	0.7735	11505.8	0.136981132075	-0.662406015038	-10.88
1548	0.774	11505.8	-1.2720754717	2.15563909774	-9.472
1549	0.7745	11505.8	-1.2720754717	-0.662406015038	-2.432
1550	0.775	11505.8	-1.2720754717	-11.9345864662	-10.88
1551	0.7755	11505.8	-5.49924528302	19.0639097744	-10.88
1552	0.776	11505.8	-8.31735849057	2.15563909774	-8.064
1553	0.7765	11505.8	10.0003773585	0.746616541353	-8.064
1554	0.777	11505.8	-1.2720754717	0.746616541353	-5.248
1555	0.7775	11505.8	-2.68113207547	3.56466165414	-1.024
1556	0.778	11505.8	-2.68113207547	2.15563909774	-9.472
1557	0.7785	11505.8	-2.68113207547	4.97368421053	-10.88
1558	0.779	11505.8	-1.2720754717	9.2007518797	-5.248
1559	0.7795	11505.8	14.2275471698	0.746616541353	-3.84
1560	0.78	11505.8	-1.2720754717	2.15563909774	-5.248
1561	0.7805	11505.8	2.95509433962	0.746616541353	-8.064
1562	0.781	11505.8	2.95509433962	3.56466165414	-10.88
1563	0.7815	11505.8	0.136981132075	2.15563909774	-9.472
1564	0.782	11505.8	0.136981132075	-7.70751879699	1.792
1565	0.7825	11505.8	2.95509433962	0.746616541353	-6.656
1566	0.783	11505.8	-12.5445283019	2.15563909774	-3.84
1567	0.7835	11505.8	-2.68113207547	-0.662406015038	-5.248
1568	0.784	11505.8	1.54603773585	0.746616541353	-5.248
1569	0.7845	11505.8	-1.2720754717	0.746616541353	-5.248
1570	0.785	11505.8	-1.2720754717	0.746616541353	-1.024
1571	0.7855	11505.8	0.136981132075	-7.70751879699	-6.656
1572	0.786	11505.8	-1.2720754717	20.4729323308	-8.064
1573	0.7865	11505.8	-8.31735849057	2.15563909774	-5.248
1574	0.787	11505.8	-1.2720754717	2.15563909774	-3.84
1575	0.7875	11505.8	1.54603773585	4.97368421053	-8.064
1576	0.788	11505.8	0.136981132075	3.56466165414	-2.432
1577	0.7885	11505.8	0.136981132075	2.15563909774	-2.432
1578	0.789	11505.8	-2.68113207547	-0.662406015038	-3.84
1579	0.7895	11505.8	0.136981132075	2.15563909774	-3.84
1580	0.79	11505.8	1.54603773585	2.15563909774	-5.248
1581	0.7905	11505.8	0.136981132075	2.15563909774	-2.432
1582	0.791	11505.8	0.136981132075	-0.662406015038	-3.84
1583	0.7915	11505.8	1.54603773585	2.15563909774	-3.84
1584	0.792	11505.8	-1.2720754717	-4.88947368421	-8.064
1585	0.7925	11505.8	2.95509433962	-2.07142857143	-2.432
1586	0.793	11505.8	-11.1354716981	3.56466165414	-2.432
1587	0.7935	11505.8	18.4547169811	2.15563909774	-6.656
1588	0.794	11505.8	11.4094339623	3.56466165414	-8.064
1589	0.7945	11505.8	-1.2720754717	0.746616541353	-1.024
1590	0.795	11505.8	-2.68113207547	3.56466165414	-9.472
1591	0.7955	11505.8	0.136981132075	-10.5255639098	-10.88
1592	0.796	11505.8	-1.2720754717	-7.70751879699	-2.432
1593	0.7965	11505.8	14.2275471698	2.15563909774	-2.432
1594	0.797	11505.8	-6.90830188679	-0.662406015038	-1.024
1595	0.7975	11505.8	0.136981132075	-0.662406015038	-3.84
1596	0.798	11505.8	-1.2720754717	-0.662406015038	-6.656
1597	0.7985	11505.8	0.136981132075	-9.11654135338	-12.288
1598	0.799	11505.8	-1.2720754717	21.8819548872	-8.064
1599	0.7995	11505.8	-4.09018867925	0.746616541353	-6.656
1600	0.8	11505.8	-9.72641509434	3.56466165414	-6.656
1601	0.8005	11505.8	8.59132075472	0.746616541353	-9.472
1602	0.801	11505.8	0.136981132075	2.15563909774	-8.064
1603	0.8015	11505.8	-1.2720754717	3.56466165414	-8.064
1604	0.802	11505.8	-4.09018867925	2.15563909774	-12.288
1605	0.8025	11505.8	1.54603773585	20.4729323308	-9.472
1606	0.803	11505.8	-4.09018867925	-0.662406015038	-8.064
1607	0.8035	11505.8	1.54603773585	2.15563909774	-6.656
1608	0.804	11505.8	-1.2720754717	3.56466165414	-8.064
1609	0.8045	11505.8	0.136981132075	2.15563909774	-9.472
1610	0.805	11505.8	-1.2720754717	0.746616541353	-6.656
1611	0.8055	11505.8	-4.09018867925	-2.07142857143	-13.696
1612	0.806	11505.8	-2.68113207547	12.0187969925	-9.472
1613	0.8065	11505.8	-4.09018867925	-2.07142857143	-9.472
1614	0.807	11505.8	-12.5445283019	0.746616541353	-9.472
1615	0.8075	11505.8	-2.68113207547	-0.662406015038	-8.064
1616	0.808	11505.8	-5.49924528302	-0.662406015038	-5.248
1617	0.8085	11505.8	-4.09018867925	2.15563909774	4.608
1618	0.809	11505.8	-4.09018867925	3.56466165414	-10.88
1619	0.8095	11505.8	-5.49924528302	-4.88947368421	-3.84
1620	0.81	11505.8	-1.2720754717	3.56466165414	-5.248
1621	0.8105	11505.8	8.59132075472	0.746616541353	-5.248
1622	0.811	11505.8	-6.90830188679	2.15563909774	-2.432
1623	0.8115	11505.8	0.136981132075	0.746616541353	1.792
1624	0.812	11505.8	0.136981132075	9.2007518797	-12.288
1625	0.8125	11505.8	-4.09018867925	-0.662406015038	13.056
1626	0.813	11505.8	-2.68113207547	4.97368421053	-2.432
1627	0.8135	11505.8	1.54603773585	-0.662406015038	-5.248
1628	0.814	11505.8	15.6366037736	-0.662406015038	-1.024
1629	0.8145	11505.8	-9.72641509434	2.15563909774	-3.84
1630	0.815	11505.8	-1.2720754717	0.746616541353	-10.88
1631	0.8155	11505.8	-2.68113207547	0.746616541353	1.792
1632	0.816	11505.8	-1.2720754717	-9.11654135338	-3.84
1633	0.8165	11505.8	0.136981132075	-6.2984962406	-2.432
1634	0.817	11505.8	0.136981132075	0.746616541353	-5.248
1635	0.8175	11505.8	-4.09018867925	-0.662406015038	-3.84
1636	0.818	11505.8	1.54603773585	4.97368421053	-5.248
1637	0.8185	11505.8	1.54603773585	2.15563909774	-13.696
1638	0.819	11505.8	0.136981132075	-0.662406015038	-10.88
1639	0.8195	11505.8	0.136981132075	-0.662406015038	-2.432
1640	0.82	11505.8	-2.68113207547	4.97368421053	-2.432
1641	0.8205	11505.8	12.818490566	-0.662406015038	-2.432
1642	0.821	11505.8	-11.1354716981	0.746616541353	-2.432
1643	0.8215	11505.8	-4.09018867925	-0.662406015038	-1.024
1644	0.822	11505.8	-1.2720754717	-0.662406015038	-10.88
1645	0.8225	11505.8	-1.2720754717	-3.48045112782	-8.064
1646	0.823	11505.8	-4.09018867925	-3.48045112782	10.24
1647	0.8235	11505.8	4.3641509434	-4.88947368421	-2.432
1648	0.824	11505.8	-2.68113207547	-0.662406015038	0.384
1649	0.8245	11505.8	0.136981132075	3.56466165414	1.792
1650	0.825	11505.8	-2.68113207547	2.15563909774	1.792
1651	0.8255	11505.8	-4.09018867925	2.15563909774	1.792
1652	0.826	11505.8	-8.31735849057	3.56466165414	6.016
1653	0.8265	11505.8	-5.49924528302	0.746616541353	1.792
1654	0.827	11505.8	0.136981132075	-0.662406015038	1.792
1655	0.8275	11505.8	-9.72641509434	2.15563909774	-1.024
1656	0.828	11505.8	-1.2720754717	0.746616541353	0.384
1657	0.8285	11505.8	0.136981132075	0.746616541353	-2.432
1658	0.829	11505.8	-2.68113207547	-0.662406015038	14.464
1659	0.8295	11505.8	-2.68113207547	0.746616541353	14.464
1660	0.83	11505.8	1.54603773585	13.4278195489	-2.432
1661	0.8305	11505.8	1.54603773585	-3.48045112782	-5.248
1662	0.831	11505.8	1.54603773585	0.746616541353	-8.064
1663	0.8315	11505.8	0.136981132075	-0.662406015038	-3.84
1664	0.832	11505.8	-4.09018867925	0.746616541353	-5.248
1665	0.8325	11505.8	1.54603773585	3.56466165414	-9.472
1666	0.833	11505.8	-4.09018867925	0.746616541353	-12.288
1667	0.8335	11505.8	-4.09018867925	-9.11654135338	-10.88
1668	0.834	11505.8	-2.68113207547	16.2458646617	-10.88
1669	0.8345	11505.8	-15.3626415094	0.746616541353	-9.472
1670	0.835	11505.8	-4.09018867925	0.746616541353	-8.064
1671	0.8355	11505.8	-1.2720754717	0.746616541353	-6.656
1672	0.836	11505.8	0.136981132075	2.15563909774	-17.92
1673	0.8365	11505.8	1.54603773585	3.56466165414	-17.92
1674	0.837	11505.8	0.136981132075	0.746616541353	3.2
1675	0.8375	11505.8	0.136981132075	-3.48045112782	-16.512
1676	0.838	11505.8	5.77320754717	3.56466165414	-12.288
1677	0.8385	11505.8	-2.68113207547	-0.662406015038	-16.512
1678	0.839	11505.8	0.136981132075	0.746616541353	-10.88
1679	0.8395	11505.8	0.136981132075	0.746616541353	-19.328
1680	0.84	11505.8	-1.2720754717	-9.11654135338	-15.104
1681	0.8405	11505.8	-1.2720754717	17.654887218	-15.104
1682	0.841	11505.8	-2.68113207547	9.2007518797	-16.512
1683	0.8415	11505.8	-5.49924528302	0.746616541353	-13.696
1684	0.842	11505.8	-4.09018867925	3.56466165414	-12.288
1685	0.8425	11505.8	-1.2720754717	-0.662406015038	-12.288
1686	0.843	11505.8	-1.2720754717	3.56466165414	-12.288
1687	0.8435	11505.8	-2.68113207547	-7.70751879699	-12.288
1688	0.844	11505.8	-4.09018867925	13.4278195489	-12.288
1689	0.8445	11505.8	-5.49924528302	3.56466165414	-9.472
1690	0.845	11505.8	7.18226415094	2.15563909774	-6.656
1691	0.8455	11505.8	-4.09018867925	-0.662406015038	-5.248
1692	0.846	11505.8	-4.09018867925	3.56466165414	-1.024
1693	0.8465	11505.8	-6.90830188679	2.15563909774	-6.656
1694	0.847	11505.8	-5.49924528302	2.15563909774	-3.84
1695	0.8475	11505.8	-6.90830188679	-0.662406015038	-1.024
1696	0.848	11505.8	-4.09018867925	-7.70751879699	-3.84
1697	0.8485	11505.8	-11.1354716981	0.746616541353	-5.248
1698	0.849	11505.8	-4.09018867925	0.746616541353	-8.064
1699	0.8495	11505.8	-4.09018867925	-0.662406015038	-13.696
1700	0.85	11505.8	-2.68113207547	-2.07142857143	15.872
1701	0.8505	11505.8	-1.2720754717	0.746616541353	8.832
1702	0.851	11505.8	-1.2720754717	-2.07142857143	0.384
1703	0.8515	11505.8	-1.2720754717	-3.48045112782	0.384
1704	0.852	11505.8	17.0456603774	2.15563909774	0.384
1705	0.8525	11505.8	-2.68113207547	2.15563909774	-1.024
1706	0.853	11505.8	-1.2720754717	2.15563909774	-8.064
1707	0.8535	11505.8	1.54603773585	2.15563909774	-12.288
1708	0.854	11505.8	-1.2720754717	4.97368421053	-9.472
1709	0.8545	11505.8	-1.2720754717	-3.48045112782	-12.288
1710	0.855	11505.8	4.3641509434	3.56466165414	-12.288
1711	0.8555	11505.8	0.136981132075	3.56466165414	-9.472
1712	0.856	11505.8	1.54603773585	0.746616541353	-13.696
1713	0.8565	11505.8	-4.09018867925	-0.662406015038	-10.88
1714	0.857	11505.8	-1.2720754717	-0.662406015038	4.608
1715	0.8575	11505.8	1.54603773585	2.15563909774	6.016
1716	0.858	11505.8	1.54603773585	-4.88947368421	-17.92
1717	0.8585	11505.8	2.95509433962	14.8368421053	-5.248
1718	0.859	11505.8	-4.09018867925	2.15563909774	-6.656
1719	0.8595	11505.8	1.54603773585	0.746616541353	-6.656
1720	0.86	11505.8	1.54603773585	2.15563909774	-16.512
1721	0.8605	11505.8	1.54603773585	0.746616541353	13.056
1722	0.861	11505.8	1.54603773585	-0.662406015038	7.424
1723	0.8615	11505.8	2.95509433962	-2.07142857143	-8.064
1724	0.862	11505.8	-6.90830188679	2.15563909774	-5.248
1725	0.8625	11505.8	-6.90830188679	0.746616541353	-3.84
1726	0.863	11505.8	1.54603773585	3.56466165414	-2.432
1727	0.8635	11505.8	-1.2720754717	0.746616541353	-2.432
1728	0.864	11505.8	-4.09018867925	0.746616541353	-10.88
1729	0.8645	11505.8	-5.49924528302	-10.5255639098	-5.248
1730	0.865	11505.8	1.54603773585	2.15563909774	-6.656
1731	0.8655	11505.8	19.8637735849	-0.662406015038	-6.656
1732	0.866	11505.8	-6.90830188679	2.15563909774	-8.064
1733	0.8665	11505.8	1.54603773585	-0.662406015038	-8.064
1734	0.867	11505.8	2.95509433962	3.56466165414	-9.472
1735	0.8675	11505.8	0.136981132075	0.746616541353	4.608
1736	0.868	11505.8	0.136981132075	20.4729323308	-15.104
1737	0.8685	11505.8	-2.68113207547	2.15563909774	-9.472
1738	0.869	11505.8	-5.49924528302	2.15563909774	-12.288
1739	0.8695	11505.8	14.2275471698	2.15563909774	-12.288
1740	0.87	11505.8	-5.49924528302	2.15563909774	-10.88
1741	0.8705	11505.8	-1.2720754717	3.56466165414	-9.472
1742	0.871	11505.8	2.95509433962	-9.11654135338	-13.696
1743	0.8715	11505.8	1.54603773585	19.0639097744	-12.288
1744	0.872	11505.8	0.136981132075	17.654887218	-10.88
1745	0.8725	11505.8	-1.2720754717	0.746616541353	-9.472
1746	0.873	11505.8	-2.68113207547	-0.662406015038	-10.88
1747	0.8735	11505.8	1.54603773585	0.746616541353	-10.88
1748	0.874	11505.8	-1.2720754717	3.56466165414	-20.736
1749	0.8745	11505.8	-1.2720754717	0.746616541353	4.608
1750	0.875	11505.8	-2.68113207547	3.56466165414	-17.92
1751	0.8755	11505.8	-5.49924528302	0.746616541353	-10.88
1752	0.876	11505.8	0.136981132075	-0.662406015038	-13.696
1753	0.8765	11505.8	-5.49924528302	0.746616541353	-12.288
1754	0.877	11505.8	-5.49924528302	0.746616541353	-13.696
1755	0.8775	11505.8	-4.09018867925	-0.662406015038	-20.736
1756	0.878	11505.8	-2.68113207547	-7.70751879699	-10.88
1757	0.8785	11505.8	1.54603773585	2.15563909774	-2.432
1758	0.879	11505.8	1.54603773585	-3.48045112782	-10.88
1759	0.8795	11505.8	-8.31735849057	2.15563909774	-10.88
1760	0.88	11505.8	8.59132075472	3.56466165414	-8.064
1761	0.8805	11505.8	-1.2720754717	2.15563909774	-19.328
1762	0.881	11505.8	-2.68113207547	-0.662406015038	10.24
1763	0.8815	11505.8	-5.49924528302	3.56466165414	8.832
1764	0.882	11505.8	-5.49924528302	16.2458646617	-6.656
1765	0.8825	11505.8	-6.90830188679	-4.88947368421	-9.472
1766	0.883	11505.8	-2.68113207547	-0.662406015038	-8.064
1767	0.8835	11505.8	-2.68113207547	2.15563909774	-8.064
1768	0.884	11505.8	0.136981132075	3.56466165414	-19.328
1769	0.8845	11505.8	0.136981132075	0.746616541353	7.424
1770	0.885	11505.8	-1.2720754717	0.746616541353	-9.472
1771	0.8855	11505.8	-2.68113207547	9.2007518797	-8.064
1772	0.886	11505.8	-2.68113207547	-3.48045112782	-6.656
1773	0.8865	11505.8	-13.9535849057	0.746616541353	-6.656
1774	0.887	11505.8	-2.68113207547	3.56466165414	-6.656
1775	0.8875	11505.8	-2.68113207547	0.746616541353	-9.472
1776	0.888	11505.8	-1.2720754717	3.56466165414	-13.696
1777	0.8885	11505.8	-1.2720754717	2.15563909774	-12.288
1778	0.889	11505.8	-1.2720754717	6.38270676692	-12.288
1779	0.8895	11505.8	1.54603773585	0.746616541353	-15.104
1780	0.89	11505.8	5.77320754717	0.746616541353	-13.696
1781	0.8905	11505.8	-1.2720754717	0.746616541353	-12.288
1782	0.891	11505.8	0.136981132075	3.56466165414	-9.472
1783	0.8915	11505.8	0.136981132075	2.15563909774	0.384
1784	0.892	11505.8	1.54603773585	-2.07142857143	-16.512
1785	0.8925	11505.8	2.95509433962	7.79172932331	-12.288
1786	0.893	11505.8	-1.2720754717	-2.07142857143	-9.472
1787	0.8935	11505.8	7.18226415094	-0.662406015038	-10.88
1788	0.894	11505.8	1.54603773585	0.746616541353	-10.88
1789	0.8945	11505.8	-1.2720754717	3.56466165414	-8.064
1790	0.895	11505.8	0.136981132075	0.746616541353	0.384
1791	0.8955	11505.8	0.136981132075	-3.48045112782	-12.288
1792	0.896	11505.8	1.54603773585	7.79172932331	-9.472
1793	0.8965	11505.8	-11.1354716981	2.15563909774	-5.248
1794	0.897	11505.8	14.2275471698	2.15563909774	-5.248
1795	0.8975	11505.8	-2.68113207547	0.746616541353	-2.432
1796	0.898	11505.8	0.136981132075	-0.662406015038	-5.248
1797	0.8985	11505.8	0.136981132075	0.746616541353	-2.432
1798	0.899	11505.8	0.136981132075	-3.48045112782	6.016
1799	0.8995	11505.8	0.136981132075	-0.662406015038	-1.024
1800	0.9	11505.8	2.95509433962	0.746616541353	0.384
1801	0.9005	11505.8	-11.1354716981	0.746616541353	0.384
1802	0.901	11505.8	0.136981132075	2.15563909774	-1.024
1803	0.9015	11505.8	-1.2720754717	0.746616541353	-9.472
1804	0.902	11505.8	-2.68113207547	-0.662406015038	14.464
1805	0.9025	11505.8	-1.2720754717	2.15563909774	-2.432
1806	0.903	11505.8	-1.2720754717	9.2007518797	-1.024
1807	0.9035	11505.8	5.77320754717	2.15563909774	-3.84
1808	0.904	11505.8	-4.09018867925	0.746616541353	-6.656
1809	0.9045	11505.8	-4.09018867925	2.15563909774	-5.248
1810	0.905	11505.8	-1.2720754717	2.15563909774	0.384
1811	0.9055	11505.8	-1.2720754717	2.15563909774	10.24
1812	0.906	11505.8	0.136981132075	3.56466165414	-12.288
1813	0.9065	11505.8	-4.09018867925	-9.11654135338	-2.432
1814	0.907	11505.8	-2.68113207547	0.746616541353	-3.84
1815	0.9075	11505.8	5.77320754717	-2.07142857143	-2.432
1816	0.908	11505.8	-4.09018867925	-2.07142857143	-3.84
1817	0.9085	11505.8	1.54603773585	-0.662406015038	-1.024
1818	0.909	11505.8	0.136981132075	0.746616541353	-3.84
1819	0.9095	11505.8	0.136981132075	-10.5255639098	-2.432
1820	0.91	11505.8	0.136981132075	4.97368421053	-13.696
1821	0.9105	11505.8	-2.68113207547	3.56466165414	-6.656
1822	0.911	11505.8	11.4094339623	2.15563909774	-6.656
1823	0.9115	11505.8	-5.49924528302	0.746616541353	-9.472
1824	0.912	11505.8	-2.68113207547	0.746616541353	-9.472
1825	0.9125	11505.8	-1.2720754717	2.15563909774	-19.328
1826	0.913	11505.8	-1.2720754717	-11.9345864662	-9.472
1827	0.9135	11505.8	1.54603773585	-11.9345864662	-12.288
1828	0.914	11505.8	1.54603773585	-2.07142857143	-10.88
1829	0.9145	11505.8	-13.9535849057	-0.662406015038	-9.472
1830	0.915	11505.8	-1.2720754717	2.15563909774	-9.472
1831	0.9155	11505.8	1.54603773585	2.15563909774	-10.88
1832	0.916	11505.8	1.54603773585	-0.662406015038	-12.288
1833	0.9165	11505.8	-1.2720754717	-0.662406015038	-8.064
1834	0.917	11505.8	0.136981132075	3.56466165414	-20.736
1835	0.9175	11505.8	-5.49924528302	0.746616541353	-15.104
1836	0.918	11505.8	-1.2720754717	0.746616541353	-10.88
1837	0.9185	11505.8	-6.90830188679	2.15563909774	-9.472
1838	0.919	11505.8	-1.2720754717	2.15563909774	-10.88
1839	0.9195	11505.8	1.54603773585	3.56466165414	-12.288
1840	0.92	11505.8	0.136981132075	3.56466165414	-13.696
1841	0.9205	11505.8	-1.2720754717	13.4278195489	-9.472
1842	0.921	11505.8	-4.09018867925	0.746616541353	-9.472
1843	0.9215	11505.8	17.0456603774	3.56466165414	-6.656
1844	0.922	11505.8	-12.5445283019	-0.662406015038	-9.472
1845	0.9225	11505.8	-1.2720754717	0.746616541353	-10.88
1846	0.923	11505.8	1.54603773585	2.15563909774	-6.656
1847	0.9235	11505.8	1.54603773585	-0.662406015038	-13.696
1848	0.924	11505.8	0.136981132075	0.746616541353	-12.288
1849	0.9245	11505.8	-2.68113207547	-0.662406015038	-8.064
1850	0.925	11505.8	4.3641509434	2.15563909774	-8.064
1851	0.9255	11505.8	-5.49924528302	2.15563909774	-6.656
1852	0.926	11505.8	-1.2720754717	3.56466165414	-10.88
1853	0.9265	11505.8	-2.68113207547	-0.662406015038	-13.696
1854	0.927	11505.8	-1.2720754717	0.746616541353	1.792
1855	0.9275	11505.8	-1.2720754717	12.0187969925	-16.512
1856	0.928	11505.8	-2.68113207547	-0.662406015038	-16.512
1857	0.9285	11505.8	-11.1354716981	2.15563909774	-17.92
1858	0.929	11505.8	-4.09018867925	2.15563909774	-13.696
1859	0.9295	11505.8	-2.68113207547	-0.662406015038	-16.512
1860	0.93	11505.8	-2.68113207547	-0.662406015038	-19.328
1861	0.9305	11505.8	-1.2720754717	-0.662406015038	-19.328
1862	0.931	11505.8	-2.68113207547	12.0187969925	-22.144
1863	0.9315	11505.8	-1.2720754717	-6.2984962406	-23.552
1864	0.932	11505.8	-2.68113207547	3.56466165414	-23.552
1865	0.9325	11505.8	-4.09018867925	-0.662406015038	-22.144
1866	0.933	11505.8	-1.2720754717	0.746616541353	-27.776
1867	0.9335	11505.8	0.136981132075	3.56466165414	-32.0
1868	0.934	11505.8	1.54603773585	2.15563909774	-15.104
1869	0.9345	11505.8	1.54603773585	-7.70751879699	-26.368
1870	0.935	11505.8	2.95509433962	17.654887218	-24.96
1871	0.9355	11505.8	-1.2720754717	-7.70751879699	-24.96
1872	0.936	11505.8	1.54603773585	0.746616541353	-22.144
1873	0.9365	11505.8	0.136981132075	3.56466165414	-23.552
1874	0.937	11505.8	1.54603773585	4.97368421053	-10.88
1875	0.9375	11505.8	1.54603773585	4.97368421053	-32.0
1876	0.938	11505.8	0.136981132075	-3.48045112782	-30.592
1877	0.9385	11505.8	-1.2720754717	-2.07142857143	-22.144
1878	0.939	11505.8	2.95509433962	2.15563909774	-24.96
1879	0.9395	11505.8	-4.09018867925	-0.662406015038	-20.736
1880	0.94	11505.8	1.54603773585	2.15563909774	-17.92
1881	0.9405	11505.8	-1.2720754717	2.15563909774	-2.432
1882	0.941	11505.8	1.54603773585	3.56466165414	-29.184
1883	0.9415	11505.8	-2.68113207547	-7.70751879699	-20.736
1884	0.942	11505.8	0.136981132075	-4.88947368421	-22.144
1885	0.9425	11505.8	1.54603773585	2.15563909774	-19.328
1886	0.943	11505.8	-6.90830188679	3.56466165414	-16.512
1887	0.9435	11505.8	-2.68113207547	3.56466165414	-12.288
1888	0.944	11505.8	-4.09018867925	3.56466165414	-26.368
1889	0.9445	11505.8	-1.2720754717	4.97368421053	-19.328
1890	0.945	11505.8	-2.68113207547	20.4729323308	-17.92
1891	0.9455	11505.8	-2.68113207547	0.746616541353	-19.328
1892	0.946	11505.8	-5.49924528302	-4.88947368421	-16.512
1893	0.9465	11505.8	-5.49924528302	0.746616541353	-17.92
1894	0.947	11505.8	-9.72641509434	3.56466165414	-17.92
1895	0.9475	11505.8	-1.2720754717	0.746616541353	-19.328
1896	0.948	11505.8	0.136981132075	-6.2984962406	-22.144
1897	0.9485	11505.8	2.95509433962	12.0187969925	-20.736
1898	0.949	11505.8	0.136981132075	-2.07142857143	-16.512
1899	0.9495	11505.8	-12.5445283019	2.15563909774	-17.92
1900	0.95	11505.8	19.8637735849	0.746616541353	-17.92
1901	0.9505	11505.8	-6.90830188679	2.15563909774	-20.736
1902	0.951	11505.8	2.95509433962	0.746616541353	-13.696
1903	0.9515	11505.8	1.54603773585	-9.11654135338	-20.736
1904	0.952	11505.8	1.54603773585	17.654887218	-22.144
1905	0.9525	11505.8	-2.68113207547	0.746616541353	-16.512
1906	0.953	11505.8	15.6366037736	2.15563909774	-16.512
1907	0.9535	11505.8	0.136981132075	2.15563909774	-16.512
1908	0.954	11505.8	1.54603773585	4.97368421053	-16.512
1909	0.9545	11505.8	0.136981132075	6.38270676692	-16.512
1910	0.955	11505.8	-2.68113207547	-0.662406015038	-8.064
1911	0.9555	11505.8	-1.2720754717	0.746616541353	-17.92
1912	0.956	11505.8	-1.2720754717	0.746616541353	-17.92
1913	0.9565	11505.8	-8.31735849057	0.746616541353	-22.144
1914	0.957	11505.8	-2.68113207547	2.15563909774	-17.92
1915	0.9575	11505.8	-1.2720754717	2.15563909774	-19.328
1916	0.958	11505.8	0.136981132075	2.15563909774	-29.184
1917	0.9585	11505.8	-1.2720754717	0.746616541353	-9.472
1918	0.959	11505.8	-1.2720754717	-3.48045112782	-24.96
1919	0.9595	11505.8	1.54603773585	-2.07142857143	-22.144
1920	0.96	11505.8	-2.68113207547	-0.662406015038	-17.92
1921	0.9605	11505.8	0.136981132075	3.56466165414	-19.328
1922	0.961	11505.8	0.136981132075	0.746616541353	-15.104
1923	0.9615	11505.8	0.136981132075	4.97368421053	-6.656
1924	0.962	11505.8	0.136981132075	4.97368421053	-10.88
1925	0.9625	11505.8	-1.2720754717	0.746616541353	-13.696
1926	0.963	11505.8	4.3641509434	0.746616541353	-15.104
1927	0.9635	11505.8	2.95509433962	-2.07142857143	-12.288
1928	0.964	11505.8	-4.09018867925	0.746616541353	-12.288
1929	0.9645	11505.8	1.54603773585	-2.07142857143	-9.472
1930	0.965	11505.8	1.54603773585	3.56466165414	3.2
1931	0.9655	11505.8	2.95509433962	3.56466165414	-22.144
1932	0.966	11505.8	2.95509433962	-11.9345864662	-20.736
1933	0.9665	11505.8	2.95509433962	-0.662406015038	-15.104
1934	0.967	11505.8	-5.49924528302	3.56466165414	-16.512
1935	0.9675	11505.8	-5.49924528302	3.56466165414	-16.512
1936	0.968	11505.8	0.136981132075	2.15563909774	-22.144
1937	0.9685	11505.8	-2.68113207547	3.56466165414	-20.736
1938	0.969	11505.8	-1.2720754717	3.56466165414	-9.472
1939	0.9695	11505.8	-2.68113207547	17.654887218	-22.144
1940	0.97	11505.8	0.136981132075	-4.88947368421	-22.144
1941	0.9705	11505.8	14.2275471698	0.746616541353	-23.552
1942	0.971	11505.8	-9.72641509434	2.15563909774	-20.736
1943	0.9715	11505.8	-6.90830188679	0.746616541353	-20.736
1944	0.972	11505.8	-8.31735849057	3.56466165414	-33.408
1945	0.9725	11505.8	-5.49924528302	-0.662406015038	-32.0
1946	0.973	11505.8	-5.49924528302	-6.2984962406	-26.368
1947	0.9735	11505.8	-2.68113207547	2.15563909774	-23.552
1948	0.974	11505.8	7.18226415094	0.746616541353	-22.144
1949	0.9745	11505.8	-9.72641509434	0.746616541353	-23.552
1950	0.975	11505.8	0.136981132075	2.15563909774	-20.736
1951	0.9755	11505.8	2.95509433962	3.56466165414	-9.472
1952	0.976	11505.8	2.95509433962	-0.662406015038	-27.776
1953	0.9765	11505.8	-1.2720754717	13.4278195489	-22.144
1954	0.977	11505.8	-4.09018867925	0.746616541353	-22.144
1955	0.9775	11505.8	18.4547169811	2.15563909774	-22.144
1956	0.978	11505.8	-2.68113207547	2.15563909774	-20.736
1957	0.9785	11505.8	-2.68113207547	0.746616541353	-19.328
1958	0.979	11505.8	-2.68113207547	0.746616541353	-13.696
1959	0.9795	11505.8	-4.09018867925	6.38270676692	-29.184
1960	0.98	11505.8	-4.09018867925	-6.2984962406	-22.144
1961	0.9805	11505.8	-1.2720754717	2.15563909774	-23.552
1962	0.981	11505.8	2.95509433962	2.15563909774	-24.96
1963	0.9815	11505.8	-4.09018867925	0.746616541353	-22.144
1964	0.982	11505.8	2.95509433962	2.15563909774	-24.96
1965	0.9825	11505.8	1.54603773585	0.746616541353	-8.064
1966	0.983	11505.8	1.54603773585	-0.662406015038	-10.88
1967	0.9835	11505.8	1.54603773585	7.79172932331	-17.92
1968	0.984	11505.8	1.54603773585	-0.662406015038	-22.144
1969	0.9845	11505.8	-6.90830188679	2.15563909774	-20.736
1970	0.985	11505.8	1.54603773585	3.56466165414	-23.552
1971	0.9855	11505.8	0.136981132075	0.746616541353	-19.328
1972	0.986	11505.8	1.54603773585	4.97368421053	-19.328
1973	0.9865	11505.8	0.136981132075	-0.662406015038	-26.368
1974	0.987	11505.8	-1.2720754717	-0.662406015038	-17.92
1975	0.9875	11505.8	-1.2720754717	7.79172932331	-17.92
1976	0.988	11505.8	15.6366037736	2.15563909774	-19.328
1977	0.9885	11505.8	-1.2720754717	0.746616541353	-19.328
1978	0.989	11505.8	-1.2720754717	0.746616541353	-29.184
1979	0.9895	11505.8	-1.2720754717	-2.07142857143	-6.656
1980	0.99	11505.8	-1.2720754717	4.97368421053	-6.656
1981	0.9905	11505.8	-2.68113207547	17.654887218	-22.144
1982	0.991	11505.8	-4.09018867925	-6.2984962406	-22.144
1983	0.9915	11505.8	-6.90830188679	2.15563909774	-24.96
1984	0.992	11505.8	-1.2720754717	0.746616541353	-23.552
1985	0.9925	11505.8	-1.2720754717	0.746616541353	-29.184
1986	0.993	11505.8	-1.2720754717	0.746616541353	-10.88
1987	0.9935	11505.8	0.136981132075	4.97368421053	-6.656
1988	0.994	11505.8	-2.68113207547	17.654887218	-20.736
1989	0.9945	11505.8	0.136981132075	-7.70751879699	-20.736
1990	0.995	11505.8	-5.49924528302	3.56466165414	-16.512
1991	0.9955	11505.8	-5.49924528302	0.746616541353	-16.512
1992	0.996	11505.8	-1.2720754717	0.746616541353	-16.512
1993	0.9965	11505.8	1.54603773585	2.15563909774	-27.776
1994	0.997	11505.8	-2.68113207547	0.746616541353	-2.432
1995	0.9975	11505.8	-1.2720754717	12.0187969925	-16.512
1996	0.998	11505.8	-2.68113207547	0.746616541353	-16.512
1997	0.9985	11505.8	10.0003773585	2.15563909774	-16.512
1998	0.999	11505.8	-1.2720754717	0.746616541353	-15.104
1999	0.9995	11505.8	-1.2720754717	-0.662406015038	-15.104
2000	1.0	11505.8	0.136981132075	2.15563909774	-6.656
2001	1.0005	11505.8	1.54603773585	-3.48045112782	-22.144
2002	1.001	11505.8	1.54603773585	3.56466165414	-8.064
2003	1.0015	11505.8	-11.1354716981	3.56466165414	-10.88
2004	1.002	11505.8	22.6818867925	2.15563909774	-12.288
2005	1.0025	11505.8	1.54603773585	2.15563909774	-9.472
2006	1.003	11505.8	2.95509433962	0.746616541353	-10.88
2007	1.0035	11505.8	2.95509433962	3.56466165414	-17.92
2008	1.004	11505.8	0.136981132075	7.79172932331	-10.88
2009	1.0045	11505.8	-2.68113207547	-3.48045112782	-10.88
2010	1.005	11505.8	2.95509433962	0.746616541353	-13.696
2011	1.0055	11505.8	18.4547169811	0.746616541353	-10.88
2012	1.006	11505.8	-2.68113207547	0.746616541353	-13.696
2013	1.0065	11505.8	-1.2720754717	3.56466165414	-23.552
2014	1.007	11505.8	-1.2720754717	0.746616541353	-22.144
2015	1.0075	11505.8	0.136981132075	-9.11654135338	-13.696
2016	1.008	11505.8	-2.68113207547	14.8368421053	-15.104
2017	1.0085	11505.8	0.136981132075	0.746616541353	-15.104
2018	1.009	11505.8	-2.68113207547	0.746616541353	-13.696
2019	1.0095	11505.8	-2.68113207547	2.15563909774	-16.512
2020	1.01	11505.8	-1.2720754717	2.15563909774	-20.736
2021	1.0105	11505.8	-2.68113207547	0.746616541353	-16.512
2022	1.011	11505.8	-4.09018867925	-10.5255639098	-12.288
2023	1.0115	11505.8	-5.49924528302	14.8368421053	-12.288
2024	1.012	11505.8	7.18226415094	-0.662406015038	-12.288
2025	1.0125	11505.8	-6.90830188679	2.15563909774	-13.696
2026	1.013	11505.8	-1.2720754717	3.56466165414	-13.696
2027	1.0135	11505.8	-2.68113207547	0.746616541353	-16.512
2028	1.014	11505.8	-2.68113207547	-6.2984962406	-19.328
2029	1.0145	11505.8	2.95509433962	14.8368421053	-16.512
2030	1.015	11505.8	-1.2720754717	-10.5255639098	-19.328
2031	1.0155	11505.8	17.0456603774	3.56466165414	-13.696
2032	1.016	11505.8	-9.72641509434	0.746616541353	-13.696
2033	1.0165	11505.8	-1.2720754717	0.746616541353	-16.512
2034	1.017	11505.8	-1.2720754717	3.56466165414	-26.368
2035	1.0175	11505.8	-2.68113207547	-2.07142857143	0.384
2036	1.018	11505.8	-1.2720754717	14.8368421053	-15.104
2037	1.0185	11505.8	-1.2720754717	-2.07142857143	-13.696
2038	1.019	11505.8	-4.09018867925	2.15563909774	-16.512
2039	1.0195	11505.8	-2.68113207547	-0.662406015038	-12.288
2040	1.02	11505.8	-1.2720754717	2.15563909774	-6.656
2041	1.0205	11505.8	0.136981132075	3.56466165414	-8.064
2042	1.021	11505.8	1.54603773585	2.15563909774	3.2
2043	1.0215	11505.8	1.54603773585	7.79172932331	-6.656
2044	1.022	11505.8	4.3641509434	0.746616541353	-10.88
2045	1.0225	11505.8	18.4547169811	-0.662406015038	-10.88
2046	1.023	11505.8	-5.49924528302	-0.662406015038	-10.88
2047	1.0235	11505.8	0.136981132075	2.15563909774	-17.92
2048	1.024	11505.8	0.136981132075	0.746616541353	0.384
2049	1.0245	11505.8	1.54603773585	-0.662406015038	-10.88
2050	1.025	11505.8	1.54603773585	0.746616541353	-10.88
2051	1.0255	11505.8	5.77320754717	-0.662406015038	-10.88
2052	1.026	11505.8	-9.72641509434	2.15563909774	-10.88
2053	1.0265	11505.8	0.136981132075	0.746616541353	-15.104
2054	1.027	11505.8	0.136981132075	4.97368421053	-15.104
2055	1.0275	11505.8	-1.2720754717	3.56466165414	-10.88
2056	1.028	11505.8	0.136981132075	-7.70751879699	-13.696
2057	1.0285	11505.8	1.54603773585	19.0639097744	-10.88
2058	1.029	11505.8	-1.2720754717	2.15563909774	-12.288
2059	1.0295	11505.8	-9.72641509434	2.15563909774	-13.696
2060	1.03	11505.8	-4.09018867925	2.15563909774	-12.288
2061	1.0305	11505.8	0.136981132075	-0.662406015038	-20.736
2062	1.031	11505.8	2.95509433962	-0.662406015038	1.792
2063	1.0315	11505.8	1.54603773585	3.56466165414	4.608
2064	1.032	11505.8	-1.2720754717	-3.48045112782	-10.88
2065	1.0325	11505.8	-4.09018867925	-0.662406015038	-10.88
2066	1.033	11505.8	-2.68113207547	-0.662406015038	-8.064
2067	1.0335	11505.8	-4.09018867925	-0.662406015038	-6.656
2068	1.034	11505.8	1.54603773585	3.56466165414	-6.656
2069	1.0345	11505.8	0.136981132075	0.746616541353	-10.88
2070	1.035	11505.8	-1.2720754717	3.56466165414	-6.656
2071	1.0355	11505.8	-1.2720754717	-2.07142857143	-6.656
2072	1.036	11505.8	17.0456603774	2.15563909774	-5.248
2073	1.0365	11505.8	-15.3626415094	2.15563909774	-3.84
2074	1.037	11505.8	1.54603773585	2.15563909774	-1.024
2075	1.0375	11505.8	1.54603773585	0.746616541353	0.384
2076	1.038	11505.8	0.136981132075	-0.662406015038	-8.064
2077	1.0385	11505.8	0.136981132075	-3.48045112782	3.2
2078	1.039	11505.8	2.95509433962	12.0187969925	4.608
2079	1.0395	11505.8	2.95509433962	3.56466165414	1.792
2080	1.04	11505.8	-2.68113207547	0.746616541353	3.2
2081	1.0405	11505.8	0.136981132075	-0.662406015038	0.384
2082	1.041	11505.8	0.136981132075	0.746616541353	-1.024
2083	1.0415	11505.8	1.54603773585	0.746616541353	1.792
2084	1.042	11505.8	1.54603773585	12.0187969925	-1.024
2085	1.0425	11505.8	-1.2720754717	0.746616541353	6.016
2086	1.043	11505.8	-11.1354716981	2.15563909774	7.424
2087	1.0435	11505.8	18.4547169811	0.746616541353	6.016
2088	1.044	11505.8	-1.2720754717	4.97368421053	8.832
2089	1.0445	11505.8	-2.68113207547	0.746616541353	0.384
2090	1.045	11505.8	-1.2720754717	-0.662406015038	27.136
2091	1.0455	11505.8	0.136981132075	17.654887218	8.832
2092	1.046	11505.8	2.95509433962	0.746616541353	6.016
2093	1.0465	11505.8	11.4094339623	0.746616541353	3.2
2094	1.047	11505.8	-5.49924528302	0.746616541353	3.2
2095	1.0475	11505.8	-1.2720754717	-0.662406015038	-9.472
2096	1.048	11505.8	-4.09018867925	-0.662406015038	7.424
2097	1.0485	11505.8	-1.2720754717	-9.11654135338	-1.024
2098	1.049	11505.8	1.54603773585	19.0639097744	-1.024
2099	1.0495	11505.8	-9.72641509434	0.746616541353	0.384
2100	1.05	11505.8	5.77320754717	3.56466165414	0.384
2101	1.0505	11505.8	-2.68113207547	-0.662406015038	0.384
2102	1.051	11505.8	-1.2720754717	2.15563909774	3.2
2103	1.0515	11505.8	-1.2720754717	2.15563909774	8.832
2104	1.052	11505.8	-1.2720754717	0.746616541353	0.384
2105	1.0525	11505.8	-2.68113207547	0.746616541353	-2.432
2106	1.053	11505.8	0.136981132075	3.56466165414	-3.84
2107	1.0535	11505.8	-12.5445283019	0.746616541353	-1.024
2108	1.054	11505.8	-5.49924528302	2.15563909774	-1.024
2109	1.0545	11505.8	-5.49924528302	3.56466165414	-10.88
2110	1.055	11505.8	-5.49924528302	0.746616541353	-12.288
2111	1.0555	11505.8	-4.09018867925	-4.88947368421	-5.248
2112	1.056	11505.8	-2.68113207547	-2.07142857143	-10.88
2113	1.0565	11505.8	-11.1354716981	-3.48045112782	-3.84
2114	1.057	11505.8	-9.72641509434	0.746616541353	-2.432
2115	1.0575	11505.8	-4.09018867925	-0.662406015038	3.2
2116	1.058	11505.8	-1.2720754717	0.746616541353	3.2
2117	1.0585	11505.8	-4.09018867925	0.746616541353	6.016
2118	1.059	11505.8	-1.2720754717	-9.11654135338	1.792
2119	1.0595	11505.8	0.136981132075	20.4729323308	3.2
2120	1.06	11505.8	-2.68113207547	-3.48045112782	6.016
2121	1.0605	11505.8	4.3641509434	2.15563909774	6.016
2122	1.061	11505.8	0.136981132075	-0.662406015038	6.016
2123	1.0615	11505.8	0.136981132075	-0.662406015038	8.832
2124	1.062	11505.8	-1.2720754717	2.15563909774	4.608
2125	1.0625	11505.8	-4.09018867925	7.79172932331	6.016
2126	1.063	11505.8	-4.09018867925	-0.662406015038	8.832
2127	1.0635	11505.8	0.136981132075	0.746616541353	8.832
2128	1.064	11505.8	11.4094339623	0.746616541353	6.016
2129	1.0645	11505.8	-6.90830188679	2.15563909774	13.056
2130	1.065	11505.8	1.54603773585	2.15563909774	0.384
2131	1.0655	11505.8	-1.2720754717	0.746616541353	1.792
2132	1.066	11505.8	0.136981132075	-7.70751879699	6.016
2133	1.0665	11505.8	-1.2720754717	9.2007518797	4.608
2134	1.067	11505.8	1.54603773585	-0.662406015038	10.24
2135	1.0675	11505.8	-9.72641509434	0.746616541353	13.056
2136	1.068	11505.8	-2.68113207547	2.15563909774	10.24
2137	1.0685	11505.8	0.136981132075	0.746616541353	14.464
2138	1.069	11505.8	-4.09018867925	2.15563909774	15.872
2139	1.0695	11505.8	-2.68113207547	-7.70751879699	10.24
2140	1.07	11505.8	4.3641509434	2.15563909774	10.24
2141	1.0705	11505.8	-9.72641509434	2.15563909774	13.056
2142	1.071	11505.8	-6.90830188679	4.97368421053	15.872
2143	1.0715	11505.8	-2.68113207547	3.56466165414	14.464
2144	1.072	11505.8	-2.68113207547	2.15563909774	1.792
2145	1.0725	11505.8	-2.68113207547	-9.11654135338	15.872
2146	1.073	11505.8	0.136981132075	17.654887218	10.24
2147	1.0735	11505.8	-1.2720754717	16.2458646617	14.464
2148	1.074	11505.8	2.95509433962	2.15563909774	17.28
2149	1.0745	11505.8	1.54603773585	0.746616541353	13.056
2150	1.075	11505.8	-2.68113207547	2.15563909774	17.28
2151	1.0755	11505.8	-1.2720754717	3.56466165414	25.728
2152	1.076	11505.8	-5.49924528302	-0.662406015038	10.24
2153	1.0765	11505.8	-2.68113207547	9.2007518797	14.464
2154	1.077	11505.8	-1.2720754717	0.746616541353	8.832
2155	1.0775	11505.8	15.6366037736	0.746616541353	7.424
2156	1.078	11505.8	-8.31735849057	2.15563909774	7.424
2157	1.0785	11505.8	-1.2720754717	2.15563909774	4.608
2158	1.079	11505.8	1.54603773585	0.746616541353	4.608
2159	1.0795	11505.8	0.136981132075	3.56466165414	7.424
2160	1.08	11505.8	0.136981132075	-2.07142857143	7.424
2161	1.0805	11505.8	5.77320754717	2.15563909774	7.424
2162	1.081	11505.8	10.0003773585	0.746616541353	6.016
2163	1.0815	11505.8	-5.49924528302	2.15563909774	8.832
2164	1.082	11505.8	-2.68113207547	2.15563909774	10.24
2165	1.0825	11505.8	-4.09018867925	-0.662406015038	0.384
2166	1.083	11505.8	-4.09018867925	-0.662406015038	15.872
2167	1.0835	11505.8	-1.2720754717	0.746616541353	10.24
2168	1.084	11505.8	1.54603773585	0.746616541353	13.056
2169	1.0845	11505.8	-9.72641509434	2.15563909774	15.872
2170	1.085	11505.8	-1.2720754717	0.746616541353	13.056
2171	1.0855	11505.8	0.136981132075	2.15563909774	6.016
2172	1.086	11505.8	-1.2720754717	-0.662406015038	13.056
2173	1.0865	11505.8	1.54603773585	-7.70751879699	6.016
2174	1.087	11505.8	2.95509433962	13.4278195489	7.424
