	Time	Channel 1	Channel 2	Channel 3	Channel 4
0	0.0	-2.2	6.71935483871	-0.0827586206897	-6.93793103448
1	0.0005	-0.75	-3.41935483871	2.82068965517	-9.76206896552
2	0.001	2.15	-1.97096774194	-0.0827586206897	5.77068965517
3	0.0015	0.7	2.37419354839	-4.43793103448	-6.93793103448
4	0.002	18.1	-3.41935483871	-0.0827586206897	-4.11379310345
5	0.0025	0.7	-1.97096774194	-0.0827586206897	-5.52586206897
6	0.003	-0.75	-4.86774193548	-7.34137931034	-5.52586206897
7	0.0035	-2.2	-1.97096774194	-11.6965517241	-4.11379310345
8	0.004	-0.75	-1.97096774194	-4.43793103448	-2.70172413793
9	0.0045	21.0	-3.41935483871	1.36896551724	-6.93793103448
10	0.005	-2.2	-4.86774193548	2.82068965517	-16.8224137931
11	0.0055	-2.2	-3.41935483871	1.36896551724	1.53448275862
12	0.006	0.7	-6.31612903226	1.36896551724	-6.93793103448
13	0.0065	-10.9	-3.41935483871	-1.53448275862	-6.93793103448
14	0.007	-2.2	-1.97096774194	-2.98620689655	0.122413793103
15	0.0075	0.7	-6.31612903226	-0.0827586206897	-6.93793103448
16	0.008	-0.75	-3.41935483871	-4.43793103448	-8.35
17	0.0085	-0.75	-7.76451612903	1.36896551724	-6.93793103448
18	0.009	-2.2	9.61612903226	-0.0827586206897	-6.93793103448
19	0.0095	-2.2	-1.97096774194	1.36896551724	-9.76206896552
20	0.01	-10.9	-1.97096774194	2.82068965517	-4.11379310345
21	0.0105	0.7	-1.97096774194	4.2724137931	-16.8224137931
22	0.011	-2.2	-3.41935483871	-4.43793103448	-2.70172413793
23	0.0115	0.7	-0.522580645161	2.82068965517	-6.93793103448
24	0.012	-0.75	-3.41935483871	-1.53448275862	-9.76206896552
25	0.0125	-3.65	-10.6612903226	2.82068965517	-5.52586206897
26	0.013	-0.75	-3.41935483871	1.36896551724	-9.76206896552
27	0.0135	-0.75	-1.97096774194	1.36896551724	-4.11379310345
28	0.014	-3.65	-1.97096774194	4.2724137931	8.59482758621
29	0.0145	-0.75	-3.41935483871	14.4344827586	-4.11379310345
30	0.015	0.7	-12.1096774194	1.36896551724	-2.70172413793
31	0.0155	2.15	0.925806451613	1.36896551724	-2.70172413793
32	0.016	-6.55	0.925806451613	2.82068965517	-4.11379310345
33	0.0165	12.3	-4.86774193548	2.82068965517	-5.52586206897
34	0.017	2.15	-3.41935483871	1.36896551724	8.59482758621
35	0.0175	0.7	-3.41935483871	1.36896551724	12.8310344828
36	0.018	-0.75	0.925806451613	1.36896551724	-1.28965517241
37	0.0185	-0.75	15.4096774194	2.82068965517	-2.70172413793
38	0.019	-3.65	-6.31612903226	1.36896551724	-1.28965517241
39	0.0195	-9.45	-4.86774193548	1.36896551724	-2.70172413793
40	0.02	7.95	-1.97096774194	1.36896551724	-1.28965517241
41	0.0205	-0.75	-3.41935483871	-1.53448275862	-1.28965517241
42	0.021	0.7	-3.41935483871	15.8862068966	-5.52586206897
43	0.0215	0.7	-3.41935483871	4.2724137931	-4.11379310345
44	0.022	0.7	-7.76451612903	2.82068965517	-2.70172413793
45	0.0225	3.6	-1.97096774194	2.82068965517	-4.11379310345
46	0.023	19.55	-3.41935483871	2.82068965517	-6.93793103448
47	0.0235	0.7	-0.522580645161	-1.53448275862	-1.28965517241
48	0.024	0.7	-1.97096774194	15.8862068966	-4.11379310345
49	0.0245	0.7	0.925806451613	-0.0827586206897	-2.70172413793
50	0.025	0.7	-12.1096774194	-1.53448275862	-2.70172413793
51	0.0255	3.6	-9.21290322581	-1.53448275862	-2.70172413793
52	0.026	10.85	-1.97096774194	2.82068965517	-5.52586206897
53	0.0265	-3.65	-0.522580645161	1.36896551724	7.18275862069
54	0.027	-2.2	-1.97096774194	4.2724137931	15.6551724138
55	0.0275	0.7	-1.97096774194	18.7896551724	-2.70172413793
56	0.028	-0.75	-1.97096774194	20.2413793103	0.122413793103
57	0.0285	0.7	-12.1096774194	2.82068965517	0.122413793103
58	0.029	5.05	-3.41935483871	-0.0827586206897	-2.70172413793
59	0.0295	21.0	-3.41935483871	1.36896551724	-9.76206896552
60	0.03	-2.2	-0.522580645161	-1.53448275862	-4.11379310345
61	0.0305	-0.75	-1.97096774194	-8.79310344828	0.122413793103
62	0.031	0.7	0.925806451613	-0.0827586206897	0.122413793103
63	0.0315	-0.75	9.61612903226	1.36896551724	-2.70172413793
64	0.032	0.7	-7.76451612903	1.36896551724	0.122413793103
65	0.0325	-8.0	-0.522580645161	-0.0827586206897	-1.28965517241
66	0.033	10.85	-1.97096774194	-0.0827586206897	-2.70172413793
67	0.0335	-2.2	-1.97096774194	-4.43793103448	-11.174137931
68	0.034	-2.2	-1.97096774194	-4.43793103448	0.122413793103
69	0.0345	-2.2	-0.522580645161	4.2724137931	0.122413793103
70	0.035	-2.2	-9.21290322581	2.82068965517	2.94655172414
71	0.0355	-3.65	-4.86774193548	1.36896551724	4.35862068966
72	0.036	15.2	-3.41935483871	2.82068965517	-4.11379310345
73	0.0365	2.15	-3.41935483871	-0.0827586206897	-9.76206896552
74	0.037	0.7	-0.522580645161	-5.88965517241	-1.28965517241
75	0.0375	0.7	-0.522580645161	-5.88965517241	0.122413793103
76	0.038	0.7	15.4096774194	1.36896551724	0.122413793103
77	0.0385	0.7	-9.21290322581	4.2724137931	1.53448275862
78	0.039	16.65	-1.97096774194	2.82068965517	-8.35
79	0.0395	2.15	-3.41935483871	-1.53448275862	-8.35
80	0.04	2.15	-0.522580645161	-8.79310344828	1.53448275862
81	0.0405	0.7	-0.522580645161	-5.88965517241	0.122413793103
82	0.041	0.7	11.064516129	1.36896551724	1.53448275862
83	0.0415	-0.75	-1.97096774194	-0.0827586206897	0.122413793103
84	0.042	-12.35	0.925806451613	1.36896551724	1.53448275862
85	0.0425	-0.75	0.925806451613	-1.53448275862	-1.28965517241
86	0.043	0.7	-1.97096774194	-1.53448275862	12.8310344828
87	0.0435	0.7	-0.522580645161	8.6275862069	-5.52586206897
88	0.044	0.7	-3.41935483871	-7.34137931034	2.94655172414
89	0.0445	2.15	13.9612903226	-0.0827586206897	2.94655172414
90	0.045	-2.2	-10.6612903226	4.2724137931	1.53448275862
91	0.0455	18.1	-1.97096774194	1.36896551724	-8.35
92	0.046	-0.75	-0.522580645161	-1.53448275862	-4.11379310345
93	0.0465	2.15	-1.97096774194	-0.0827586206897	18.4793103448
94	0.047	0.7	-1.97096774194	4.2724137931	-6.93793103448
95	0.0475	0.7	-0.522580645161	-7.34137931034	0.122413793103
96	0.048	-0.75	0.925806451613	2.82068965517	-2.70172413793
97	0.0485	-0.75	-7.76451612903	-0.0827586206897	-4.11379310345
98	0.049	7.95	-0.522580645161	2.82068965517	-4.11379310345
99	0.0495	2.15	-3.41935483871	4.2724137931	-12.5862068966
100	0.05	3.6	-1.97096774194	-5.88965517241	-6.93793103448
101	0.0505	2.15	0.925806451613	-1.53448275862	-4.11379310345
102	0.051	0.7	11.064516129	-1.53448275862	-5.52586206897
103	0.0515	-0.75	-4.86774193548	1.36896551724	-5.52586206897
104	0.052	5.05	-4.86774193548	1.36896551724	-2.70172413793
105	0.0525	-2.2	-3.41935483871	1.36896551724	-5.52586206897
106	0.053	0.7	-1.97096774194	-7.34137931034	-1.28965517241
107	0.0535	0.7	-0.522580645161	-5.88965517241	-6.93793103448
108	0.054	-0.75	5.27096774194	1.36896551724	-2.70172413793
109	0.0545	2.15	-7.76451612903	1.36896551724	0.122413793103
110	0.055	2.15	0.925806451613	5.72413793103	-1.28965517241
111	0.0555	-9.45	0.925806451613	2.82068965517	0.122413793103
112	0.056	0.7	0.925806451613	4.2724137931	5.77068965517
113	0.0565	0.7	-0.522580645161	-1.53448275862	-1.28965517241
114	0.057	2.15	0.925806451613	-5.88965517241	0.122413793103
115	0.0575	2.15	0.925806451613	2.82068965517	-1.28965517241
116	0.058	2.15	-0.522580645161	1.36896551724	0.122413793103
117	0.0585	-6.55	-0.522580645161	-1.53448275862	-2.70172413793
118	0.059	12.3	-0.522580645161	-1.53448275862	-9.76206896552
119	0.0595	0.7	-0.522580645161	-1.53448275862	-6.93793103448
120	0.06	0.7	-0.522580645161	-14.6	-1.28965517241
121	0.0605	2.15	-6.31612903226	-7.34137931034	1.53448275862
122	0.061	5.05	11.064516129	1.36896551724	-1.28965517241
123	0.0615	0.7	-4.86774193548	1.36896551724	0.122413793103
124	0.062	-9.45	-0.522580645161	-1.53448275862	0.122413793103
125	0.0625	10.85	-4.86774193548	1.36896551724	-5.52586206897
126	0.063	0.7	-0.522580645161	-0.0827586206897	-11.174137931
127	0.0635	3.6	0.925806451613	-8.79310344828	0.122413793103
128	0.064	2.15	2.37419354839	2.82068965517	-1.28965517241
129	0.0645	0.7	15.4096774194	2.82068965517	0.122413793103
130	0.065	0.7	-4.86774193548	1.36896551724	-1.28965517241
131	0.0655	6.5	-0.522580645161	1.36896551724	-2.70172413793
132	0.066	2.15	0.925806451613	-0.0827586206897	-8.35
133	0.0665	5.05	-0.522580645161	-0.0827586206897	-9.76206896552
134	0.067	0.7	2.37419354839	-5.88965517241	-1.28965517241
135	0.0675	0.7	2.37419354839	2.82068965517	0.122413793103
136	0.068	-0.75	-3.41935483871	1.36896551724	-1.28965517241
137	0.0685	-2.2	-0.522580645161	-1.53448275862	-2.70172413793
138	0.069	-6.55	-0.522580645161	-0.0827586206897	0.122413793103
139	0.0695	2.15	-0.522580645161	2.82068965517	-8.35
140	0.07	2.15	0.925806451613	2.82068965517	1.53448275862
141	0.0705	6.5	-0.522580645161	2.82068965517	-2.70172413793
142	0.071	7.95	0.925806451613	-1.53448275862	-4.11379310345
143	0.0715	3.6	-6.31612903226	-1.53448275862	0.122413793103
144	0.072	3.6	-0.522580645161	-0.0827586206897	-4.11379310345
145	0.0725	2.15	2.37419354839	-4.43793103448	10.0068965517
146	0.073	0.7	0.925806451613	-13.1482758621	-5.52586206897
147	0.0735	2.15	-0.522580645161	5.72413793103	-8.35
148	0.074	0.7	-0.522580645161	2.82068965517	-1.28965517241
149	0.0745	5.05	6.71935483871	-1.53448275862	0.122413793103
150	0.075	2.15	2.37419354839	-2.98620689655	0.122413793103
151	0.0755	-9.45	-0.522580645161	1.36896551724	0.122413793103
152	0.076	-2.2	-1.97096774194	5.72413793103	8.59482758621
153	0.0765	-0.75	-4.86774193548	-0.0827586206897	5.77068965517
154	0.077	0.7	-0.522580645161	11.5310344828	-2.70172413793
155	0.0775	0.7	-3.41935483871	18.7896551724	-1.28965517241
156	0.078	2.15	-15.0064516129	2.82068965517	-1.28965517241
157	0.0785	5.05	-0.522580645161	-1.53448275862	-2.70172413793
158	0.079	-3.65	-1.97096774194	-1.53448275862	2.94655172414
159	0.0795	-0.75	-0.522580645161	1.36896551724	-1.28965517241
160	0.08	3.6	-0.522580645161	-1.53448275862	7.18275862069
161	0.0805	3.6	-1.97096774194	14.4344827586	-1.28965517241
162	0.081	0.7	0.925806451613	-1.53448275862	-1.28965517241
163	0.0815	3.6	-12.1096774194	-1.53448275862	-5.52586206897
164	0.082	7.95	-3.41935483871	1.36896551724	-6.93793103448
165	0.0825	12.3	-1.97096774194	1.36896551724	-11.174137931
166	0.083	-2.2	0.925806451613	2.82068965517	-5.52586206897
167	0.0835	5.05	-3.41935483871	20.2413793103	-5.52586206897
168	0.084	0.7	-3.41935483871	14.4344827586	-4.11379310345
169	0.0845	2.15	-10.6612903226	-1.53448275862	-9.76206896552
170	0.085	3.6	-6.31612903226	-1.53448275862	-9.76206896552
171	0.0855	-0.75	-1.97096774194	-1.53448275862	-6.93793103448
172	0.086	22.45	-3.41935483871	-1.53448275862	-8.35
173	0.0865	2.15	-1.97096774194	-11.6965517241	-8.35
174	0.087	2.15	0.925806451613	18.7896551724	-11.174137931
175	0.0875	2.15	-3.41935483871	12.9827586207	-5.52586206897
176	0.088	3.6	0.925806451613	4.2724137931	-4.11379310345
177	0.0885	3.6	-3.41935483871	5.72413793103	-5.52586206897
178	0.089	0.7	-1.97096774194	4.2724137931	-4.11379310345
179	0.0895	0.7	-4.86774193548	1.36896551724	-18.2344827586
180	0.09	0.7	-0.522580645161	-7.34137931034	-9.76206896552
181	0.0905	0.7	-3.41935483871	-4.43793103448	-5.52586206897
182	0.091	0.7	-10.6612903226	1.36896551724	-5.52586206897
183	0.0915	2.15	0.925806451613	1.36896551724	-6.93793103448
184	0.092	2.15	-0.522580645161	1.36896551724	-4.11379310345
185	0.0925	-5.1	-1.97096774194	-1.53448275862	-4.11379310345
186	0.093	3.6	-0.522580645161	-1.53448275862	-12.5862068966
187	0.0935	0.7	-0.522580645161	-11.6965517241	-6.93793103448
188	0.094	-0.75	-1.97096774194	-1.53448275862	-5.52586206897
189	0.0945	5.05	5.27096774194	-0.0827586206897	-6.93793103448
190	0.095	0.7	-3.41935483871	2.82068965517	-6.93793103448
191	0.0955	0.7	-0.522580645161	2.82068965517	-8.35
192	0.096	2.15	-0.522580645161	1.36896551724	7.18275862069
193	0.0965	0.7	-0.522580645161	-8.79310344828	-8.35
194	0.097	3.6	-0.522580645161	8.6275862069	-5.52586206897
195	0.0975	-2.2	-3.41935483871	2.82068965517	-4.11379310345
196	0.098	-3.65	-16.4548387097	1.36896551724	-2.70172413793
197	0.0985	3.6	-1.97096774194	-0.0827586206897	-4.11379310345
198	0.099	7.95	-1.97096774194	4.2724137931	0.122413793103
199	0.0995	-5.1	-0.522580645161	-0.0827586206897	15.6551724138
200	0.1	-0.75	-1.97096774194	-0.0827586206897	8.59482758621
201	0.1005	0.7	-1.97096774194	5.72413793103	-1.28965517241
202	0.101	0.7	-3.41935483871	2.82068965517	-1.28965517241
203	0.1015	0.7	-10.6612903226	-2.98620689655	-1.28965517241
204	0.102	2.15	-1.97096774194	1.36896551724	0.122413793103
205	0.1025	9.4	-3.41935483871	-0.0827586206897	0.122413793103
206	0.103	0.7	-3.41935483871	-1.53448275862	-8.35
207	0.1035	-0.75	0.925806451613	-0.0827586206897	14.2431034483
208	0.104	-2.2	2.37419354839	-0.0827586206897	0.122413793103
209	0.1045	0.7	-13.5580645161	1.36896551724	-2.70172413793
210	0.105	3.6	-10.6612903226	-0.0827586206897	-4.11379310345
211	0.1055	13.75	-3.41935483871	1.36896551724	-5.52586206897
212	0.106	9.4	-3.41935483871	-1.53448275862	-5.52586206897
213	0.1065	-2.2	-6.31612903226	-0.0827586206897	-13.9982758621
214	0.107	-2.2	-1.97096774194	-7.34137931034	-5.52586206897
215	0.1075	-0.75	-0.522580645161	-0.0827586206897	-5.52586206897
216	0.108	-0.75	8.16774193548	-0.0827586206897	-5.52586206897
217	0.1085	0.7	2.37419354839	-0.0827586206897	-8.35
218	0.109	3.6	-1.97096774194	2.82068965517	-6.93793103448
219	0.1095	12.3	-1.97096774194	1.36896551724	-9.76206896552
220	0.11	0.7	-3.41935483871	1.36896551724	4.35862068966
221	0.1105	-0.75	-0.522580645161	17.3379310345	-6.93793103448
222	0.111	0.7	-0.522580645161	2.82068965517	-6.93793103448
223	0.1115	0.7	-13.5580645161	-1.53448275862	-5.52586206897
224	0.112	3.6	-0.522580645161	-0.0827586206897	-4.11379310345
225	0.1125	18.1	-1.97096774194	1.36896551724	-4.11379310345
226	0.113	-3.65	-0.522580645161	1.36896551724	-5.52586206897
227	0.1135	-0.75	-1.97096774194	2.82068965517	-11.174137931
228	0.114	0.7	0.925806451613	-4.43793103448	-4.11379310345
229	0.1145	-0.75	0.925806451613	-0.0827586206897	-2.70172413793
230	0.115	-2.2	-10.6612903226	-1.53448275862	-2.70172413793
231	0.1155	5.05	-6.31612903226	-1.53448275862	-4.11379310345
232	0.116	15.2	-1.97096774194	-1.53448275862	-1.28965517241
233	0.1165	0.7	-0.522580645161	1.36896551724	0.122413793103
234	0.117	0.7	-0.522580645161	-0.0827586206897	-11.174137931
235	0.1175	-2.2	0.925806451613	-8.79310344828	-1.28965517241
236	0.118	-0.75	16.8580645161	2.82068965517	-2.70172413793
237	0.1185	-3.65	-0.522580645161	2.82068965517	-5.52586206897
238	0.119	-12.35	-0.522580645161	2.82068965517	-5.52586206897
239	0.1195	-3.65	-0.522580645161	1.36896551724	0.122413793103
240	0.12	0.7	-1.97096774194	2.82068965517	12.8310344828
241	0.1205	-0.75	-0.522580645161	21.6931034483	-2.70172413793
242	0.121	-0.75	-0.522580645161	1.36896551724	-1.28965517241
243	0.1215	2.15	5.27096774194	-0.0827586206897	-2.70172413793
244	0.122	-3.65	-9.21290322581	4.2724137931	-4.11379310345
245	0.1225	2.15	-3.41935483871	-1.53448275862	-2.70172413793
246	0.123	0.7	-0.522580645161	-1.53448275862	4.35862068966
247	0.1235	0.7	0.925806451613	-7.34137931034	-9.76206896552
248	0.124	-2.2	-0.522580645161	7.17586206897	-4.11379310345
249	0.1245	-3.65	-0.522580645161	-7.34137931034	-6.93793103448
250	0.125	0.7	18.3064516129	1.36896551724	-6.93793103448
251	0.1255	-5.1	21.2032258065	1.36896551724	-6.93793103448
252	0.126	-13.8	0.925806451613	2.82068965517	-5.52586206897
253	0.1265	-2.2	-1.97096774194	2.82068965517	-5.52586206897
254	0.127	0.7	-0.522580645161	1.36896551724	-9.76206896552
255	0.1275	0.7	-0.522580645161	-7.34137931034	-6.93793103448
256	0.128	-0.75	0.925806451613	-0.0827586206897	-8.35
257	0.1285	-2.2	-3.41935483871	-1.53448275862	-6.93793103448
258	0.129	-6.55	-0.522580645161	2.82068965517	-5.52586206897
259	0.1295	18.1	-3.41935483871	-0.0827586206897	-2.70172413793
260	0.13	-0.75	-0.522580645161	2.82068965517	1.53448275862
261	0.1305	0.7	-0.522580645161	1.36896551724	-11.174137931
262	0.131	-0.75	-0.522580645161	-5.88965517241	-4.11379310345
263	0.1315	-2.2	18.3064516129	-0.0827586206897	-2.70172413793
264	0.132	-0.75	-3.41935483871	-1.53448275862	-4.11379310345
265	0.1325	2.15	2.37419354839	-1.53448275862	-6.93793103448
266	0.133	-5.1	-0.522580645161	2.82068965517	-8.35
267	0.1335	0.7	0.925806451613	4.2724137931	-12.5862068966
268	0.134	0.7	0.925806451613	-10.2448275862	-15.4103448276
269	0.1345	-3.65	2.37419354839	-7.34137931034	-4.11379310345
270	0.135	0.7	16.8580645161	2.82068965517	-4.11379310345
271	0.1355	-2.2	-1.97096774194	2.82068965517	-5.52586206897
272	0.136	10.85	-0.522580645161	4.2724137931	-9.76206896552
273	0.1365	-8.0	-1.97096774194	2.82068965517	10.0068965517
274	0.137	-0.75	0.925806451613	-5.88965517241	-1.28965517241
275	0.1375	-0.75	0.925806451613	20.2413793103	-5.52586206897
276	0.138	0.7	-0.522580645161	5.72413793103	-5.52586206897
277	0.1385	3.6	2.37419354839	2.82068965517	-6.93793103448
278	0.139	-2.2	-0.522580645161	1.36896551724	-2.70172413793
279	0.1395	-10.9	0.925806451613	1.36896551724	0.122413793103
280	0.14	-8.0	0.925806451613	5.72413793103	-4.11379310345
281	0.1405	-2.2	-0.522580645161	4.2724137931	-5.52586206897
282	0.141	0.7	-0.522580645161	-4.43793103448	-9.76206896552
283	0.1415	-2.2	3.82258064516	1.36896551724	-5.52586206897
284	0.142	0.7	9.61612903226	2.82068965517	-6.93793103448
285	0.1425	-8.0	0.925806451613	1.36896551724	-5.52586206897
286	0.143	-5.1	0.925806451613	2.82068965517	-5.52586206897
287	0.1435	-6.55	-0.522580645161	-1.53448275862	0.122413793103
288	0.144	0.7	0.925806451613	2.82068965517	-9.76206896552
289	0.1445	-0.75	-1.97096774194	-2.98620689655	-8.35
290	0.145	-0.75	2.37419354839	1.36896551724	-8.35
291	0.1455	-2.2	0.925806451613	4.2724137931	-6.93793103448
292	0.146	2.15	-7.76451612903	2.82068965517	-11.174137931
293	0.1465	21.0	-1.97096774194	1.36896551724	-8.35
294	0.147	-2.2	-0.522580645161	4.2724137931	-11.174137931
295	0.1475	-2.2	2.37419354839	-1.53448275862	-21.0586206897
296	0.148	0.7	0.925806451613	-4.43793103448	-9.76206896552
297	0.1485	0.7	3.82258064516	-0.0827586206897	-12.5862068966
298	0.149	-2.2	-1.97096774194	-0.0827586206897	-9.76206896552
299	0.1495	0.7	-6.31612903226	1.36896551724	-9.76206896552
300	0.15	0.7	-0.522580645161	2.82068965517	-8.35
301	0.1505	-2.2	0.925806451613	1.36896551724	-16.8224137931
302	0.151	0.7	0.925806451613	2.82068965517	1.53448275862
303	0.1515	0.7	0.925806451613	-0.0827586206897	-15.4103448276
304	0.152	0.7	-6.31612903226	2.82068965517	-6.93793103448
305	0.1525	2.15	-10.6612903226	4.2724137931	-6.93793103448
306	0.153	0.7	-1.97096774194	4.2724137931	-8.35
307	0.1535	18.1	-1.97096774194	-1.53448275862	-13.9982758621
308	0.154	-3.65	-0.522580645161	-1.53448275862	-1.28965517241
309	0.1545	-0.75	-1.97096774194	2.82068965517	2.94655172414
310	0.155	-0.75	-3.41935483871	2.82068965517	-5.52586206897
311	0.1555	0.7	-6.31612903226	1.36896551724	-2.70172413793
312	0.156	5.05	-7.76451612903	2.82068965517	-2.70172413793
313	0.1565	3.6	-0.522580645161	2.82068965517	0.122413793103
314	0.157	-2.2	-0.522580645161	1.36896551724	-4.11379310345
315	0.1575	-2.2	-0.522580645161	-0.0827586206897	-5.52586206897
316	0.158	0.7	-1.97096774194	18.7896551724	0.122413793103
317	0.1585	-2.2	-0.522580645161	-0.0827586206897	-1.28965517241
318	0.159	0.7	-7.76451612903	4.2724137931	-4.11379310345
319	0.1595	0.7	-1.97096774194	2.82068965517	-6.93793103448
320	0.16	-6.55	-1.97096774194	1.36896551724	-2.70172413793
321	0.1605	-9.45	-1.97096774194	2.82068965517	8.59482758621
322	0.161	0.7	-0.522580645161	2.82068965517	-6.93793103448
323	0.1615	-0.75	2.37419354839	-0.0827586206897	-2.70172413793
324	0.162	-3.65	0.925806451613	-4.43793103448	-5.52586206897
325	0.1625	2.15	19.7548387097	1.36896551724	-5.52586206897
326	0.163	-0.75	15.4096774194	-0.0827586206897	-4.11379310345
327	0.1635	-10.9	-0.522580645161	2.82068965517	-1.28965517241
328	0.164	5.05	0.925806451613	-1.53448275862	-11.174137931
329	0.1645	-0.75	-4.86774193548	-7.34137931034	-16.8224137931
330	0.165	0.7	0.925806451613	-8.79310344828	-6.93793103448
331	0.1655	0.7	2.37419354839	-0.0827586206897	-6.93793103448
332	0.166	-0.75	0.925806451613	2.82068965517	-8.35
333	0.1665	-6.55	-0.522580645161	1.36896551724	-8.35
334	0.167	15.2	-0.522580645161	-0.0827586206897	-5.52586206897
335	0.1675	-0.75	-0.522580645161	1.36896551724	-9.76206896552
336	0.168	-2.2	2.37419354839	-0.0827586206897	-13.9982758621
337	0.1685	-0.75	-0.522580645161	-13.1482758621	-6.93793103448
338	0.169	-2.2	2.37419354839	-1.53448275862	-11.174137931
339	0.1695	-3.65	-3.41935483871	-1.53448275862	-11.174137931
340	0.17	-6.55	-0.522580645161	-0.0827586206897	-8.35
341	0.1705	9.4	-1.97096774194	1.36896551724	-12.5862068966
342	0.171	-0.75	-3.41935483871	5.72413793103	-2.70172413793
343	0.1715	-0.75	-0.522580645161	10.0793103448	-13.9982758621
344	0.172	-2.2	-0.522580645161	-8.79310344828	-13.9982758621
345	0.1725	-2.2	-10.6612903226	2.82068965517	-15.4103448276
346	0.173	0.7	-0.522580645161	2.82068965517	-16.8224137931
347	0.1735	-16.7	-0.522580645161	1.36896551724	-15.4103448276
348	0.174	-3.65	-3.41935483871	2.82068965517	-9.76206896552
349	0.1745	-2.2	-0.522580645161	1.36896551724	-12.5862068966
350	0.175	-0.75	0.925806451613	-10.2448275862	-12.5862068966
351	0.1755	-2.2	0.925806451613	-0.0827586206897	-13.9982758621
352	0.176	-3.65	-9.21290322581	-0.0827586206897	-9.76206896552
353	0.1765	-10.9	-0.522580645161	-0.0827586206897	-9.76206896552
354	0.177	-2.2	0.925806451613	-0.0827586206897	-5.52586206897
355	0.1775	-10.9	0.925806451613	-1.53448275862	8.59482758621
356	0.178	-2.2	-3.41935483871	2.82068965517	7.18275862069
357	0.1785	-2.2	-3.41935483871	-2.98620689655	-6.93793103448
358	0.179	-2.2	-1.97096774194	-2.98620689655	-5.52586206897
359	0.1795	-2.2	3.82258064516	1.36896551724	-4.11379310345
360	0.18	0.7	0.925806451613	1.36896551724	-5.52586206897
361	0.1805	7.95	0.925806451613	2.82068965517	-2.70172413793
362	0.181	-3.65	-1.97096774194	-0.0827586206897	-1.28965517241
363	0.1815	-2.2	0.925806451613	17.3379310345	-4.11379310345
364	0.182	-2.2	3.82258064516	-0.0827586206897	-4.11379310345
365	0.1825	-2.2	16.8580645161	-0.0827586206897	-6.93793103448
366	0.183	-5.1	-7.76451612903	2.82068965517	-6.93793103448
367	0.1835	15.2	-1.97096774194	-0.0827586206897	-13.9982758621
368	0.184	-2.2	-1.97096774194	2.82068965517	-2.70172413793
369	0.1845	-0.75	-1.97096774194	4.2724137931	-2.70172413793
370	0.185	-3.65	-0.522580645161	-1.53448275862	-2.70172413793
371	0.1855	-3.65	0.925806451613	-4.43793103448	-2.70172413793
372	0.186	-2.2	11.064516129	1.36896551724	-1.28965517241
373	0.1865	-3.65	-7.76451612903	1.36896551724	-1.28965517241
374	0.187	18.1	-1.97096774194	1.36896551724	-2.70172413793
375	0.1875	-5.1	-1.97096774194	1.36896551724	1.53448275862
376	0.188	-3.65	0.925806451613	14.4344827586	-2.70172413793
377	0.1885	-3.65	-1.97096774194	7.17586206897	-2.70172413793
378	0.189	0.7	-1.97096774194	-0.0827586206897	-4.11379310345
379	0.1895	-2.2	-6.31612903226	-0.0827586206897	-2.70172413793
380	0.19	-2.2	-7.76451612903	-0.0827586206897	-4.11379310345
381	0.1905	18.1	0.925806451613	1.36896551724	-16.8224137931
382	0.191	0.7	-0.522580645161	-1.53448275862	-2.70172413793
383	0.1915	-0.75	0.925806451613	14.4344827586	-8.35
384	0.192	0.7	0.925806451613	4.2724137931	-8.35
385	0.1925	0.7	0.925806451613	-7.34137931034	-9.76206896552
386	0.193	-0.75	0.925806451613	1.36896551724	-9.76206896552
387	0.1935	-12.35	-0.522580645161	-0.0827586206897	-9.76206896552
388	0.194	-5.1	-0.522580645161	-2.98620689655	-9.76206896552
389	0.1945	-2.2	-1.97096774194	-1.53448275862	-6.93793103448
390	0.195	-3.65	-0.522580645161	20.2413793103	-11.174137931
391	0.1955	-3.65	2.37419354839	1.36896551724	-12.5862068966
392	0.196	-0.75	11.064516129	1.36896551724	-13.9982758621
393	0.1965	-2.2	-4.86774193548	1.36896551724	-13.9982758621
394	0.197	15.2	0.925806451613	-0.0827586206897	-13.9982758621
395	0.1975	-3.65	0.925806451613	-1.53448275862	-6.93793103448
396	0.198	-2.2	0.925806451613	-8.79310344828	-19.6465517241
397	0.1985	-0.75	-0.522580645161	7.17586206897	-15.4103448276
398	0.199	2.15	-0.522580645161	-0.0827586206897	-12.5862068966
399	0.1995	-0.75	18.3064516129	1.36896551724	-12.5862068966
400	0.2	-3.65	16.8580645161	-1.53448275862	-13.9982758621
401	0.2005	-8.0	0.925806451613	-0.0827586206897	-1.28965517241
402	0.201	-0.75	0.925806451613	1.36896551724	-16.8224137931
403	0.2015	0.7	2.37419354839	5.72413793103	-12.5862068966
404	0.202	-0.75	-0.522580645161	-0.0827586206897	-11.174137931
405	0.2025	0.7	0.925806451613	-0.0827586206897	-13.9982758621
406	0.203	-2.2	-0.522580645161	-0.0827586206897	-15.4103448276
407	0.2035	-13.8	-3.41935483871	1.36896551724	-12.5862068966
408	0.204	-0.75	-1.97096774194	-0.0827586206897	-13.9982758621
409	0.2045	-2.2	0.925806451613	1.36896551724	-23.8827586207
410	0.205	-2.2	0.925806451613	1.36896551724	-22.4706896552
411	0.2055	-2.2	6.71935483871	-0.0827586206897	-18.2344827586
412	0.206	-0.75	21.2032258065	-1.53448275862	-19.6465517241
413	0.2065	-3.65	-0.522580645161	-0.0827586206897	-16.8224137931
414	0.207	-12.35	-0.522580645161	-0.0827586206897	-16.8224137931
415	0.2075	-6.55	-0.522580645161	-0.0827586206897	-11.174137931
416	0.208	0.7	0.925806451613	-1.53448275862	-2.70172413793
417	0.2085	0.7	0.925806451613	14.4344827586	-16.8224137931
418	0.209	-0.75	-12.1096774194	-0.0827586206897	-21.0586206897
419	0.2095	3.6	8.16774193548	-1.53448275862	-16.8224137931
420	0.21	-8.0	-1.97096774194	-1.53448275862	-22.4706896552
421	0.2105	16.65	-0.522580645161	-4.43793103448	-30.9431034483
422	0.211	0.7	0.925806451613	-5.88965517241	-28.1189655172
423	0.2115	-0.75	-1.97096774194	-4.43793103448	-12.5862068966
424	0.212	-0.75	3.82258064516	-7.34137931034	-16.8224137931
425	0.2125	-0.75	-3.41935483871	-8.79310344828	-18.2344827586
426	0.213	0.7	0.925806451613	-1.53448275862	-22.4706896552
427	0.2135	-9.45	-0.522580645161	-1.53448275862	-16.8224137931
428	0.214	-8.0	2.37419354839	1.36896551724	-18.2344827586
429	0.2145	0.7	0.925806451613	-2.98620689655	-9.76206896552
430	0.215	-0.75	-0.522580645161	8.6275862069	-19.6465517241
431	0.2155	-0.75	-4.86774193548	15.8862068966	-16.8224137931
432	0.216	0.7	-13.5580645161	-1.53448275862	-21.0586206897
433	0.2165	3.6	-1.97096774194	-1.53448275862	-16.8224137931
434	0.217	-2.2	-0.522580645161	-2.98620689655	-16.8224137931
435	0.2175	-8.0	-0.522580645161	-7.34137931034	-18.2344827586
436	0.218	0.7	-1.97096774194	-13.1482758621	-16.8224137931
437	0.2185	-3.65	-4.86774193548	-2.98620689655	-16.8224137931
438	0.219	-3.65	-0.522580645161	5.72413793103	-16.8224137931
439	0.2195	-2.2	-3.41935483871	-1.53448275862	-21.0586206897
440	0.22	2.15	-4.86774193548	-1.53448275862	-19.6465517241
441	0.2205	18.1	-1.97096774194	-1.53448275862	-18.2344827586
442	0.221	0.7	-3.41935483871	1.36896551724	-22.4706896552
443	0.2215	-0.75	-3.41935483871	-1.53448275862	-22.4706896552
444	0.222	0.7	-1.97096774194	-13.1482758621	-22.4706896552
445	0.2225	-2.2	0.925806451613	-10.2448275862	-21.0586206897
446	0.223	-3.65	6.71935483871	-1.53448275862	-23.8827586207
447	0.2235	-12.35	-1.97096774194	-0.0827586206897	-23.8827586207
448	0.224	10.85	-6.31612903226	-1.53448275862	-28.1189655172
449	0.2245	-0.75	-6.31612903226	-0.0827586206897	-28.1189655172
450	0.225	-2.2	-0.522580645161	11.5310344828	-33.7672413793
451	0.2255	-0.75	-0.522580645161	-7.34137931034	-33.7672413793
452	0.226	-2.2	-7.76451612903	-0.0827586206897	-35.1793103448
453	0.2265	-0.75	-13.5580645161	-2.98620689655	-33.7672413793
454	0.227	19.55	-4.86774193548	-0.0827586206897	-36.5913793103
455	0.2275	-8.0	-4.86774193548	-1.53448275862	-35.1793103448
456	0.228	-3.65	-7.76451612903	-1.53448275862	-43.6517241379
457	0.2285	-0.75	-6.31612903226	11.5310344828	-40.8275862069
458	0.229	0.7	-4.86774193548	-0.0827586206897	-42.2396551724
459	0.2295	-0.75	8.16774193548	2.82068965517	-45.0637931034
460	0.23	0.7	-12.1096774194	-0.0827586206897	-46.475862069
461	0.2305	16.65	-7.76451612903	-0.0827586206897	-53.5362068966
462	0.231	-8.0	-7.76451612903	-0.0827586206897	-49.3
463	0.2315	-0.75	-9.21290322581	2.82068965517	-56.3603448276
464	0.232	0.7	-6.31612903226	-5.88965517241	-53.5362068966
465	0.2325	-0.75	-7.76451612903	1.36896551724	-54.9482758621
466	0.233	-0.75	-4.86774193548	4.2724137931	-57.7724137931
467	0.2335	-3.65	-9.21290322581	2.82068965517	-60.5965517241
468	0.234	-13.8	-7.76451612903	4.2724137931	-63.4206896552
469	0.2345	-5.1	-10.6612903226	4.2724137931	-63.4206896552
470	0.235	0.7	-10.6612903226	4.2724137931	-64.8327586207
471	0.2355	2.15	-9.21290322581	-1.53448275862	-64.8327586207
472	0.236	-2.2	-10.6612903226	2.82068965517	-64.8327586207
473	0.2365	0.7	-20.8	2.82068965517	-67.6568965517
474	0.237	2.15	-10.6612903226	1.36896551724	-70.4810344828
475	0.2375	9.4	-9.21290322581	2.82068965517	-77.5413793103
476	0.238	-6.55	-9.21290322581	1.36896551724	-66.2448275862
477	0.2385	2.15	-6.31612903226	-0.0827586206897	-63.4206896552
478	0.239	-0.75	-7.76451612903	2.82068965517	-78.9534482759
479	0.2395	-0.75	-6.31612903226	2.82068965517	-78.9534482759
480	0.24	0.7	-15.0064516129	-0.0827586206897	-83.1896551724
481	0.2405	3.6	-7.76451612903	4.2724137931	-78.9534482759
482	0.241	-9.45	-6.31612903226	2.82068965517	-80.3655172414
483	0.2415	-2.2	-6.31612903226	-0.0827586206897	-81.7775862069
484	0.242	-0.75	-3.41935483871	7.17586206897	-73.3051724138
485	0.2425	0.7	-1.97096774194	-2.98620689655	-73.3051724138
486	0.243	3.6	-1.97096774194	-8.79310344828	-67.6568965517
487	0.2435	-0.75	-1.97096774194	2.82068965517	-66.2448275862
488	0.244	-10.9	-3.41935483871	2.82068965517	-63.4206896552
489	0.2445	-8.0	-3.41935483871	4.2724137931	-47.8879310345
490	0.245	0.7	-3.41935483871	4.2724137931	-57.7724137931
491	0.2455	0.7	-3.41935483871	1.36896551724	-42.2396551724
492	0.246	2.15	0.925806451613	5.72413793103	-32.3551724138
493	0.2465	-0.75	15.4096774194	5.72413793103	-23.8827586207
494	0.247	-8.0	-0.522580645161	7.17586206897	-16.8224137931
495	0.2475	-0.75	-0.522580645161	4.2724137931	-9.76206896552
496	0.248	-10.9	-0.522580645161	4.2724137931	-4.11379310345
497	0.2485	0.7	-1.97096774194	-4.43793103448	7.18275862069
498	0.249	2.15	-0.522580645161	5.72413793103	17.0672413793
499	0.2495	-2.2	-6.31612903226	7.17586206897	25.5396551724
500	0.25	2.15	11.064516129	7.17586206897	32.6
501	0.2505	0.7	-4.86774193548	8.6275862069	38.2482758621
502	0.251	22.45	2.37419354839	8.6275862069	42.4844827586
503	0.2515	0.7	2.37419354839	8.6275862069	41.0724137931
504	0.252	0.7	3.82258064516	8.6275862069	52.3689655172
505	0.2525	0.7	8.16774193548	4.2724137931	56.6051724138
506	0.253	-0.75	-0.522580645161	-2.98620689655	60.8413793103
507	0.2535	0.7	-0.522580645161	4.2724137931	63.6655172414
508	0.254	-10.9	2.37419354839	1.36896551724	69.3137931034
509	0.2545	-5.1	2.37419354839	4.2724137931	80.6103448276
510	0.255	2.15	2.37419354839	5.72413793103	66.4896551724
511	0.2555	-0.75	0.925806451613	2.82068965517	63.6655172414
512	0.256	-0.75	-6.31612903226	1.36896551724	69.3137931034
513	0.2565	2.15	13.9612903226	-0.0827586206897	69.3137931034
514	0.257	0.7	0.925806451613	-0.0827586206897	67.9017241379
515	0.2575	-12.35	3.82258064516	2.82068965517	63.6655172414
516	0.258	0.7	3.82258064516	4.2724137931	56.6051724138
517	0.2585	0.7	0.925806451613	-5.88965517241	56.6051724138
518	0.259	3.6	2.37419354839	-2.98620689655	48.1327586207
519	0.2595	0.7	-1.97096774194	-1.53448275862	42.4844827586
520	0.26	0.7	-7.76451612903	-1.53448275862	35.424137931
521	0.2605	3.6	2.37419354839	-0.0827586206897	28.3637931034
522	0.261	16.65	2.37419354839	-1.53448275862	22.7155172414
523	0.2615	-5.1	0.925806451613	-1.53448275862	35.424137931
524	0.262	2.15	2.37419354839	-13.1482758621	17.0672413793
525	0.2625	3.6	2.37419354839	-1.53448275862	14.2431034483
526	0.263	0.7	19.7548387097	-1.53448275862	7.18275862069
527	0.2635	-2.2	-3.41935483871	-1.53448275862	7.18275862069
528	0.264	-5.1	-0.522580645161	-1.53448275862	5.77068965517
529	0.2645	15.2	-0.522580645161	-0.0827586206897	0.122413793103
530	0.265	0.7	0.925806451613	-2.98620689655	2.94655172414
531	0.2655	0.7	0.925806451613	5.72413793103	-12.5862068966
532	0.266	-0.75	0.925806451613	-8.79310344828	-11.174137931
533	0.2665	0.7	0.925806451613	-8.79310344828	-11.174137931
534	0.267	2.15	0.925806451613	-2.98620689655	-12.5862068966
535	0.2675	-10.9	-0.522580645161	1.36896551724	-12.5862068966
536	0.268	2.15	-0.522580645161	1.36896551724	-22.4706896552
537	0.2685	0.7	-1.97096774194	1.36896551724	-29.5310344828
538	0.269	0.7	-4.86774193548	15.8862068966	-22.4706896552
539	0.2695	-0.75	-13.5580645161	-1.53448275862	-23.8827586207
540	0.27	0.7	-1.97096774194	1.36896551724	-28.1189655172
541	0.2705	0.7	-10.6612903226	1.36896551724	-23.8827586207
542	0.271	19.55	-3.41935483871	-0.0827586206897	-36.5913793103
543	0.2715	2.15	-1.97096774194	-1.53448275862	-29.5310344828
544	0.272	0.7	-1.97096774194	-2.98620689655	-18.2344827586
545	0.2725	2.15	-0.522580645161	-0.0827586206897	-39.4155172414
546	0.273	3.6	-12.1096774194	-0.0827586206897	-30.9431034483
547	0.2735	0.7	16.8580645161	-1.53448275862	-29.5310344828
548	0.274	5.05	-4.86774193548	-1.53448275862	-29.5310344828
549	0.2745	12.3	-1.97096774194	1.36896551724	-28.1189655172
550	0.275	3.6	-0.522580645161	-0.0827586206897	-26.7068965517
551	0.2755	3.6	0.925806451613	4.2724137931	-13.9982758621
552	0.276	2.15	-1.97096774194	-1.53448275862	-28.1189655172
553	0.2765	3.6	-10.6612903226	-1.53448275862	-29.5310344828
554	0.277	3.6	-4.86774193548	-0.0827586206897	-28.1189655172
555	0.2775	0.7	-0.522580645161	-4.43793103448	-28.1189655172
556	0.278	-6.55	0.925806451613	-1.53448275862	-38.0034482759
557	0.2785	2.15	-3.41935483871	-0.0827586206897	-36.5913793103
558	0.279	0.7	0.925806451613	8.6275862069	-32.3551724138
559	0.2795	3.6	-7.76451612903	-2.98620689655	-33.7672413793
560	0.28	2.15	-1.97096774194	-1.53448275862	-32.3551724138
561	0.2805	0.7	-9.21290322581	-1.53448275862	-33.7672413793
562	0.281	21.0	0.925806451613	-1.53448275862	-36.5913793103
563	0.2815	-0.75	0.925806451613	-2.98620689655	-29.5310344828
564	0.282	2.15	0.925806451613	-0.0827586206897	-28.1189655172
565	0.2825	2.15	-3.41935483871	2.82068965517	-33.7672413793
566	0.283	3.6	-7.76451612903	-1.53448275862	-33.7672413793
567	0.2835	3.6	-12.1096774194	-1.53448275862	-32.3551724138
568	0.284	5.05	-9.21290322581	-0.0827586206897	-32.3551724138
569	0.2845	18.1	-1.97096774194	1.36896551724	-33.7672413793
570	0.285	2.15	-1.97096774194	-10.2448275862	-36.5913793103
571	0.2855	3.6	-1.97096774194	11.5310344828	-30.9431034483
572	0.286	2.15	-1.97096774194	-4.43793103448	-32.3551724138
573	0.2865	3.6	-7.76451612903	-1.53448275862	-29.5310344828
574	0.287	2.15	0.925806451613	-1.53448275862	-26.7068965517
575	0.2875	-6.55	-0.522580645161	-0.0827586206897	-28.1189655172
576	0.288	-2.2	0.925806451613	1.36896551724	-28.1189655172
577	0.2885	0.7	-1.97096774194	1.36896551724	-19.6465517241
578	0.289	3.6	0.925806451613	11.5310344828	-29.5310344828
579	0.2895	2.15	-3.41935483871	18.7896551724	-25.2948275862
580	0.29	3.6	-9.21290322581	-1.53448275862	-28.1189655172
581	0.2905	9.4	-3.41935483871	-0.0827586206897	-33.7672413793
582	0.291	16.65	0.925806451613	2.82068965517	-35.1793103448
583	0.2915	-6.55	-4.86774193548	-0.0827586206897	-16.8224137931
584	0.292	0.7	-3.41935483871	-8.79310344828	-32.3551724138
585	0.2925	0.7	-1.97096774194	-8.79310344828	-29.5310344828
586	0.293	2.15	9.61612903226	-1.53448275862	-30.9431034483
587	0.2935	2.15	5.27096774194	-1.53448275862	-32.3551724138
588	0.294	0.7	-0.522580645161	1.36896551724	-28.1189655172
589	0.2945	-5.1	0.925806451613	2.82068965517	-25.2948275862
590	0.295	3.6	-3.41935483871	4.2724137931	-36.5913793103
591	0.2955	2.15	-1.97096774194	-7.34137931034	-21.0586206897
592	0.296	2.15	0.925806451613	1.36896551724	-29.5310344828
593	0.2965	0.7	-1.97096774194	1.36896551724	-29.5310344828
594	0.297	3.6	-9.21290322581	1.36896551724	-29.5310344828
595	0.2975	23.9	-0.522580645161	1.36896551724	-26.7068965517
596	0.298	-5.1	0.925806451613	-2.98620689655	-19.6465517241
597	0.2985	2.15	-1.97096774194	-7.34137931034	-30.9431034483
598	0.299	3.6	-0.522580645161	8.6275862069	-26.7068965517
599	0.2995	0.7	-7.76451612903	-0.0827586206897	-26.7068965517
600	0.3	5.05	16.8580645161	-1.53448275862	-28.1189655172
601	0.3005	-2.2	-0.522580645161	1.36896551724	-28.1189655172
602	0.301	-5.1	-1.97096774194	-1.53448275862	-33.7672413793
603	0.3015	-2.2	-0.522580645161	-1.53448275862	-28.1189655172
604	0.302	0.7	-0.522580645161	-0.0827586206897	-11.174137931
605	0.3025	0.7	-4.86774193548	-1.53448275862	-29.5310344828
606	0.303	2.15	-4.86774193548	-2.98620689655	-25.2948275862
607	0.3035	0.7	-0.522580645161	-0.0827586206897	-28.1189655172
608	0.304	0.7	-1.97096774194	-0.0827586206897	-30.9431034483
609	0.3045	19.55	-4.86774193548	2.82068965517	-36.5913793103
610	0.305	2.15	-1.97096774194	4.2724137931	-33.7672413793
611	0.3055	3.6	-4.86774193548	1.36896551724	-26.7068965517
612	0.306	2.15	-10.6612903226	1.36896551724	-28.1189655172
613	0.3065	3.6	6.71935483871	-0.0827586206897	-28.1189655172
614	0.307	0.7	-1.97096774194	1.36896551724	-28.1189655172
615	0.3075	-12.35	-3.41935483871	2.82068965517	-28.1189655172
616	0.308	-5.1	-1.97096774194	2.82068965517	-22.4706896552
617	0.3085	2.15	-1.97096774194	-1.53448275862	-26.7068965517
618	0.309	-0.75	-1.97096774194	11.5310344828	-32.3551724138
619	0.3095	0.7	-1.97096774194	15.8862068966	-29.5310344828
620	0.31	3.6	-12.1096774194	-0.0827586206897	-29.5310344828
621	0.3105	3.6	-1.97096774194	-1.53448275862	-30.9431034483
622	0.311	19.55	-3.41935483871	-0.0827586206897	-26.7068965517
623	0.3115	0.7	-1.97096774194	4.2724137931	-30.9431034483
624	0.312	2.15	-3.41935483871	2.82068965517	-26.7068965517
625	0.3125	0.7	-3.41935483871	-4.43793103448	-29.5310344828
626	0.313	3.6	16.8580645161	-0.0827586206897	-28.1189655172
627	0.3135	-0.75	-3.41935483871	1.36896551724	-25.2948275862
628	0.314	-8.0	-0.522580645161	1.36896551724	-29.5310344828
629	0.3145	0.7	-0.522580645161	-1.53448275862	-33.7672413793
630	0.315	-2.2	0.925806451613	-4.43793103448	-30.9431034483
631	0.3155	0.7	-0.522580645161	-8.79310344828	-30.9431034483
632	0.316	0.7	2.37419354839	1.36896551724	-32.3551724138
633	0.3165	-0.75	6.71935483871	-1.53448275862	-28.1189655172
634	0.317	0.7	-6.31612903226	-0.0827586206897	-29.5310344828
635	0.3175	3.6	-0.522580645161	-1.53448275862	-28.1189655172
636	0.318	-0.75	0.925806451613	-0.0827586206897	-35.1793103448
637	0.3185	-2.2	-0.522580645161	-1.53448275862	-26.7068965517
638	0.319	-2.2	-0.522580645161	14.4344827586	-25.2948275862
639	0.3195	-0.75	-10.6612903226	-0.0827586206897	-23.8827586207
640	0.32	0.7	16.8580645161	-1.53448275862	-25.2948275862
641	0.3205	-2.2	-4.86774193548	-0.0827586206897	-25.2948275862
642	0.321	-0.75	-0.522580645161	1.36896551724	-26.7068965517
643	0.3215	-6.55	-3.41935483871	2.82068965517	-29.5310344828
644	0.322	0.7	-0.522580645161	8.6275862069	-26.7068965517
645	0.3225	-0.75	-0.522580645161	17.3379310345	-26.7068965517
646	0.323	0.7	-10.6612903226	-2.98620689655	-25.2948275862
647	0.3235	3.6	-0.522580645161	-2.98620689655	-25.2948275862
648	0.324	-9.45	-0.522580645161	-1.53448275862	-22.4706896552
649	0.3245	12.3	-0.522580645161	-0.0827586206897	-29.5310344828
650	0.325	-2.2	-1.97096774194	2.82068965517	-36.5913793103
651	0.3255	0.7	-1.97096774194	-7.34137931034	-29.5310344828
652	0.326	0.7	-13.5580645161	1.36896551724	-28.1189655172
653	0.3265	0.7	8.16774193548	1.36896551724	-29.5310344828
654	0.327	2.15	-3.41935483871	-1.53448275862	-29.5310344828
655	0.3275	13.75	-3.41935483871	2.82068965517	-33.7672413793
656	0.328	-0.75	-3.41935483871	4.2724137931	-40.8275862069
657	0.3285	0.7	-3.41935483871	-7.34137931034	-32.3551724138
658	0.329	0.7	0.925806451613	-0.0827586206897	-29.5310344828
659	0.3295	2.15	-13.5580645161	-1.53448275862	-29.5310344828
660	0.33	-3.65	0.925806451613	1.36896551724	-29.5310344828
661	0.3305	6.5	-1.97096774194	1.36896551724	-30.9431034483
662	0.331	-8.0	0.925806451613	-0.0827586206897	-29.5310344828
663	0.3315	0.7	0.925806451613	4.2724137931	-36.5913793103
664	0.332	0.7	-3.41935483871	-2.98620689655	-32.3551724138
665	0.3325	0.7	-6.31612903226	-1.53448275862	-29.5310344828
666	0.333	-0.75	11.064516129	-2.98620689655	-29.5310344828
667	0.3335	-0.75	-1.97096774194	-0.0827586206897	-26.7068965517
668	0.334	-5.1	-3.41935483871	-0.0827586206897	-29.5310344828
669	0.3345	2.15	-4.86774193548	-0.0827586206897	-26.7068965517
670	0.335	0.7	-1.97096774194	-5.88965517241	-32.3551724138
671	0.3355	-0.75	0.925806451613	-11.6965517241	-30.9431034483
672	0.336	-2.2	16.8580645161	-0.0827586206897	-28.1189655172
673	0.3365	-5.1	-1.97096774194	-1.53448275862	-28.1189655172
674	0.337	-8.0	-0.522580645161	-1.53448275862	-29.5310344828
675	0.3375	10.85	-1.97096774194	-1.53448275862	-29.5310344828
676	0.338	0.7	-1.97096774194	-0.0827586206897	-29.5310344828
677	0.3385	-0.75	0.925806451613	14.4344827586	-28.1189655172
678	0.339	2.15	0.925806451613	-0.0827586206897	-25.2948275862
679	0.3395	-2.2	-10.6612903226	-1.53448275862	-25.2948275862
680	0.34	3.6	-0.522580645161	1.36896551724	-25.2948275862
681	0.3405	2.15	3.82258064516	2.82068965517	-26.7068965517
682	0.341	-6.55	0.925806451613	-0.0827586206897	-12.5862068966
683	0.3415	0.7	-0.522580645161	-10.2448275862	-28.1189655172
684	0.342	0.7	-0.522580645161	-7.34137931034	-29.5310344828
685	0.3425	0.7	6.71935483871	-1.53448275862	-25.2948275862
686	0.343	2.15	-7.76451612903	1.36896551724	-25.2948275862
687	0.3435	2.15	0.925806451613	1.36896551724	-28.1189655172
688	0.344	18.1	0.925806451613	4.2724137931	-38.0034482759
689	0.3445	0.7	-1.97096774194	-1.53448275862	-35.1793103448
690	0.345	0.7	-0.522580645161	-2.98620689655	-28.1189655172
691	0.3455	-0.75	0.925806451613	-1.53448275862	-28.1189655172
692	0.346	0.7	-0.522580645161	-1.53448275862	-29.5310344828
693	0.3465	0.7	2.37419354839	-0.0827586206897	-30.9431034483
694	0.347	19.55	0.925806451613	-0.0827586206897	-36.5913793103
695	0.3475	-3.65	-0.522580645161	-1.53448275862	-28.1189655172
696	0.348	0.7	0.925806451613	-4.43793103448	-28.1189655172
697	0.3485	3.6	-0.522580645161	15.8862068966	-29.5310344828
698	0.349	0.7	2.37419354839	-0.0827586206897	-28.1189655172
699	0.3495	-2.2	-9.21290322581	-1.53448275862	-26.7068965517
700	0.35	3.6	-1.97096774194	-1.53448275862	-25.2948275862
701	0.3505	10.85	0.925806451613	-1.53448275862	-26.7068965517
702	0.351	0.7	0.925806451613	-0.0827586206897	-33.7672413793
703	0.3515	-0.75	2.37419354839	-1.53448275862	-38.0034482759
704	0.352	-0.75	0.925806451613	-8.79310344828	-28.1189655172
705	0.3525	2.15	18.3064516129	-2.98620689655	-26.7068965517
706	0.353	-3.65	-3.41935483871	-0.0827586206897	-28.1189655172
707	0.3535	-8.0	-0.522580645161	-0.0827586206897	-29.5310344828
708	0.354	12.3	-0.522580645161	1.36896551724	-35.1793103448
709	0.3545	0.7	-0.522580645161	-1.53448275862	-35.1793103448
710	0.355	-0.75	-0.522580645161	-13.1482758621	-28.1189655172
711	0.3555	-2.2	3.82258064516	-1.53448275862	-28.1189655172
712	0.356	0.7	-6.31612903226	-4.43793103448	-28.1189655172
713	0.3565	2.15	-0.522580645161	-1.53448275862	-25.2948275862
714	0.357	-10.9	0.925806451613	-0.0827586206897	-26.7068965517
715	0.3575	-2.2	0.925806451613	2.82068965517	-26.7068965517
716	0.358	0.7	-0.522580645161	7.17586206897	-28.1189655172
717	0.3585	0.7	-1.97096774194	-7.34137931034	-25.2948275862
718	0.359	0.7	0.925806451613	1.36896551724	-28.1189655172
719	0.3595	-2.2	-3.41935483871	-0.0827586206897	-28.1189655172
720	0.36	0.7	0.925806451613	-1.53448275862	-26.7068965517
721	0.3605	-5.1	-0.522580645161	-0.0827586206897	-23.8827586207
722	0.361	-8.0	0.925806451613	1.36896551724	-22.4706896552
723	0.3615	-0.75	-0.522580645161	17.3379310345	-29.5310344828
724	0.362	-0.75	-1.97096774194	-1.53448275862	-29.5310344828
725	0.3625	-0.75	-6.31612903226	-0.0827586206897	-29.5310344828
726	0.363	-0.75	-1.97096774194	-1.53448275862	-29.5310344828
727	0.3635	-3.65	0.925806451613	1.36896551724	-32.3551724138
728	0.364	19.55	-0.522580645161	1.36896551724	-38.0034482759
729	0.3645	-2.2	-3.41935483871	1.36896551724	-25.2948275862
730	0.365	0.7	-0.522580645161	1.36896551724	-29.5310344828
731	0.3655	-0.75	-3.41935483871	1.36896551724	-29.5310344828
732	0.366	-0.75	-1.97096774194	-1.53448275862	-29.5310344828
733	0.3665	-0.75	-6.31612903226	-0.0827586206897	-25.2948275862
734	0.367	15.2	-0.522580645161	-1.53448275862	-26.7068965517
735	0.3675	9.4	-3.41935483871	-0.0827586206897	-38.0034482759
736	0.368	-0.75	-1.97096774194	5.72413793103	-35.1793103448
737	0.3685	0.7	-1.97096774194	4.2724137931	-28.1189655172
738	0.369	0.7	-10.6612903226	-0.0827586206897	-29.5310344828
739	0.3695	-2.2	8.16774193548	-1.53448275862	-29.5310344828
740	0.37	-3.65	-10.6612903226	-0.0827586206897	-29.5310344828
741	0.3705	3.6	-1.97096774194	1.36896551724	-30.9431034483
742	0.371	-5.1	-0.522580645161	1.36896551724	-32.3551724138
743	0.3715	-0.75	0.925806451613	2.82068965517	-42.2396551724
744	0.372	-3.65	-4.86774193548	-2.98620689655	-35.1793103448
745	0.3725	-0.75	-12.1096774194	2.82068965517	-32.3551724138
746	0.373	0.7	8.16774193548	1.36896551724	-33.7672413793
747	0.3735	-2.2	-4.86774193548	-1.53448275862	-32.3551724138
748	0.374	-12.35	-3.41935483871	-0.0827586206897	-30.9431034483
749	0.3745	10.85	-0.522580645161	1.36896551724	-43.6517241379
750	0.375	2.15	-0.522580645161	-2.98620689655	-21.0586206897
751	0.3755	0.7	0.925806451613	1.36896551724	-30.9431034483
752	0.376	-0.75	-1.97096774194	-1.53448275862	-29.5310344828
753	0.3765	0.7	-13.5580645161	-1.53448275862	-32.3551724138
754	0.377	7.95	0.925806451613	1.36896551724	-35.1793103448
755	0.3775	-3.65	0.925806451613	-1.53448275862	-35.1793103448
756	0.378	-10.9	-0.522580645161	-0.0827586206897	-25.2948275862
757	0.3785	-0.75	-1.97096774194	2.82068965517	-42.2396551724
758	0.379	0.7	-1.97096774194	-7.34137931034	-32.3551724138
759	0.3795	-0.75	0.925806451613	-7.34137931034	-33.7672413793
760	0.38	-3.65	-0.522580645161	-0.0827586206897	-33.7672413793
761	0.3805	-3.65	-6.31612903226	-0.0827586206897	-33.7672413793
762	0.381	-0.75	-0.522580645161	4.2724137931	-33.7672413793
763	0.3815	0.7	-1.97096774194	-4.43793103448	-36.5913793103
764	0.382	0.7	-1.97096774194	-7.34137931034	-30.9431034483
765	0.3825	0.7	-1.97096774194	12.9827586207	-29.5310344828
766	0.383	0.7	-1.97096774194	2.82068965517	-30.9431034483
767	0.3835	0.7	16.8580645161	2.82068965517	-26.7068965517
768	0.384	-13.8	-1.97096774194	-0.0827586206897	-28.1189655172
769	0.3845	5.05	0.925806451613	-0.0827586206897	-29.5310344828
770	0.385	-9.45	-1.97096774194	1.36896551724	-9.76206896552
771	0.3855	-2.2	-1.97096774194	-10.2448275862	-25.2948275862
772	0.386	-2.2	-0.522580645161	-1.53448275862	-25.2948275862
773	0.3865	-2.2	2.37419354839	-0.0827586206897	-25.2948275862
774	0.387	-0.75	16.8580645161	1.36896551724	-22.4706896552
775	0.3875	3.6	-3.41935483871	1.36896551724	-21.0586206897
776	0.388	-6.55	-3.41935483871	2.82068965517	-13.9982758621
777	0.3885	-2.2	-4.86774193548	2.82068965517	-23.8827586207
778	0.389	-0.75	-1.97096774194	4.2724137931	-18.2344827586
779	0.3895	-0.75	-1.97096774194	-8.79310344828	-16.8224137931
780	0.39	-2.2	-1.97096774194	-7.34137931034	-18.2344827586
781	0.3905	-0.75	0.925806451613	-0.0827586206897	-16.8224137931
782	0.391	-10.9	-1.97096774194	1.36896551724	-15.4103448276
783	0.3915	-12.35	0.925806451613	2.82068965517	-2.70172413793
784	0.392	-0.75	-0.522580645161	4.2724137931	-26.7068965517
785	0.3925	-3.65	-1.97096774194	-0.0827586206897	-16.8224137931
786	0.393	-2.2	-10.6612903226	1.36896551724	-16.8224137931
787	0.3935	-2.2	5.27096774194	2.82068965517	-18.2344827586
788	0.394	0.7	-7.76451612903	5.72413793103	-13.9982758621
789	0.3945	13.75	0.925806451613	5.72413793103	-26.7068965517
790	0.395	-2.2	-0.522580645161	7.17586206897	-16.8224137931
791	0.3955	-0.75	0.925806451613	11.5310344828	-15.4103448276
792	0.396	-2.2	-1.97096774194	-2.98620689655	-16.8224137931
793	0.3965	0.7	2.37419354839	-0.0827586206897	-16.8224137931
794	0.397	-2.2	-4.86774193548	2.82068965517	-16.8224137931
795	0.3975	-8.0	0.925806451613	-0.0827586206897	-13.9982758621
796	0.398	-3.65	-0.522580645161	1.36896551724	-16.8224137931
797	0.3985	-2.2	0.925806451613	2.82068965517	-16.8224137931
798	0.399	-2.2	2.37419354839	15.8862068966	-23.8827586207
799	0.3995	-2.2	2.37419354839	-4.43793103448	-22.4706896552
800	0.4	-3.65	-0.522580645161	-5.88965517241	-23.8827586207
801	0.4005	-3.65	-0.522580645161	-1.53448275862	-23.8827586207
802	0.401	-12.35	0.925806451613	2.82068965517	-25.2948275862
803	0.4015	12.3	-0.522580645161	2.82068965517	-35.1793103448
804	0.402	-2.2	-0.522580645161	4.2724137931	-35.1793103448
805	0.4025	-2.2	2.37419354839	18.7896551724	-23.8827586207
806	0.403	0.7	0.925806451613	10.0793103448	-25.2948275862
807	0.4035	-2.2	3.82258064516	1.36896551724	-22.4706896552
808	0.404	-3.65	2.37419354839	2.82068965517	-18.2344827586
809	0.4045	-13.8	0.925806451613	2.82068965517	-23.8827586207
810	0.405	-0.75	0.925806451613	1.36896551724	-21.0586206897
811	0.4055	-2.2	-1.97096774194	-4.43793103448	-22.4706896552
812	0.406	-0.75	0.925806451613	18.7896551724	-22.4706896552
813	0.4065	-0.75	5.27096774194	-1.53448275862	-21.0586206897
814	0.407	-3.65	6.71935483871	2.82068965517	-22.4706896552
815	0.4075	-2.2	3.82258064516	2.82068965517	-22.4706896552
816	0.408	-16.7	-0.522580645161	-1.53448275862	-21.0586206897
817	0.4085	9.4	0.925806451613	1.36896551724	-22.4706896552
818	0.409	-0.75	-0.522580645161	-7.34137931034	-19.6465517241
819	0.4095	-0.75	-3.41935483871	2.82068965517	-22.4706896552
820	0.41	2.15	-3.41935483871	1.36896551724	-21.0586206897
821	0.4105	-2.2	-16.4548387097	-1.53448275862	-23.8827586207
822	0.411	3.6	0.925806451613	-0.0827586206897	-22.4706896552
823	0.4115	-2.2	0.925806451613	-1.53448275862	-22.4706896552
824	0.412	-10.9	0.925806451613	-1.53448275862	-16.8224137931
825	0.4125	-0.75	0.925806451613	2.82068965517	-23.8827586207
826	0.413	-0.75	-0.522580645161	-1.53448275862	-19.6465517241
827	0.4135	0.7	-1.97096774194	1.36896551724	-18.2344827586
828	0.414	-2.2	15.4096774194	-1.53448275862	-19.6465517241
829	0.4145	-13.8	-0.522580645161	-2.98620689655	-18.2344827586
830	0.415	10.85	-0.522580645161	-1.53448275862	-16.8224137931
831	0.4155	-8.0	-1.97096774194	-1.53448275862	-15.4103448276
832	0.416	-0.75	-0.522580645161	14.4344827586	-19.6465517241
833	0.4165	0.7	-1.97096774194	4.2724137931	-18.2344827586
834	0.417	0.7	-6.31612903226	1.36896551724	-21.0586206897
835	0.4175	2.15	-6.31612903226	1.36896551724	-22.4706896552
836	0.418	2.15	2.37419354839	-1.53448275862	-22.4706896552
837	0.4185	19.55	-0.522580645161	-1.53448275862	-18.2344827586
838	0.419	-2.2	-1.97096774194	5.72413793103	-21.0586206897
839	0.4195	0.7	-1.97096774194	-0.0827586206897	-25.2948275862
840	0.42	0.7	-1.97096774194	12.9827586207	-25.2948275862
841	0.4205	3.6	-1.97096774194	-1.53448275862	-25.2948275862
842	0.421	0.7	-4.86774193548	-0.0827586206897	-22.4706896552
843	0.4215	-3.65	-6.31612903226	-2.98620689655	-23.8827586207
844	0.422	18.1	-0.522580645161	4.2724137931	-33.7672413793
845	0.4225	-0.75	-0.522580645161	-8.79310344828	-23.8827586207
846	0.423	-0.75	-1.97096774194	-2.98620689655	-22.4706896552
847	0.4235	0.7	-9.21290322581	-1.53448275862	-23.8827586207
848	0.424	0.7	8.16774193548	-1.53448275862	-23.8827586207
849	0.4245	-3.65	-12.1096774194	-1.53448275862	-22.4706896552
850	0.425	18.1	-1.97096774194	-1.53448275862	-35.1793103448
851	0.4255	-0.75	-3.41935483871	4.2724137931	-23.8827586207
852	0.426	-0.75	-4.86774193548	7.17586206897	-21.0586206897
853	0.4265	0.7	-1.97096774194	-4.43793103448	-21.0586206897
854	0.427	0.7	-3.41935483871	1.36896551724	-21.0586206897
855	0.4275	2.15	15.4096774194	1.36896551724	-21.0586206897
856	0.428	-12.35	-3.41935483871	-1.53448275862	-19.6465517241
857	0.4285	3.6	-4.86774193548	-0.0827586206897	-22.4706896552
858	0.429	-2.2	0.925806451613	-1.53448275862	-28.1189655172
859	0.4295	0.7	-1.97096774194	-8.79310344828	-21.0586206897
860	0.43	-0.75	-6.31612903226	-2.98620689655	-22.4706896552
861	0.4305	0.7	6.71935483871	-0.0827586206897	-23.8827586207
862	0.431	-3.65	-6.31612903226	-0.0827586206897	-23.8827586207
863	0.4315	-0.75	-0.522580645161	-1.53448275862	-25.2948275862
864	0.432	21.0	-4.86774193548	-0.0827586206897	-25.2948275862
865	0.4325	-3.65	-3.41935483871	-1.53448275862	-18.2344827586
866	0.433	-2.2	-0.522580645161	1.36896551724	-32.3551724138
867	0.4335	3.6	-4.86774193548	-8.79310344828	-23.8827586207
868	0.434	0.7	15.4096774194	-1.53448275862	-25.2948275862
869	0.4345	-0.75	-4.86774193548	-2.98620689655	-22.4706896552
870	0.435	-6.55	-1.97096774194	-1.53448275862	-28.1189655172
871	0.4355	-0.75	-3.41935483871	-1.53448275862	-35.1793103448
872	0.436	-0.75	-1.97096774194	-1.53448275862	-11.174137931
873	0.4365	0.7	-1.97096774194	-2.98620689655	-29.5310344828
874	0.437	-0.75	3.82258064516	-0.0827586206897	-25.2948275862
875	0.4375	-0.75	11.064516129	-1.53448275862	-26.7068965517
876	0.438	0.7	-1.97096774194	-1.53448275862	-25.2948275862
877	0.4385	-9.45	-3.41935483871	2.82068965517	-25.2948275862
878	0.439	-0.75	-1.97096774194	1.36896551724	-22.4706896552
879	0.4395	-0.75	-1.97096774194	-7.34137931034	-25.2948275862
880	0.44	-0.75	-0.522580645161	-1.53448275862	-29.5310344828
881	0.4405	-0.75	-12.1096774194	-1.53448275862	-25.2948275862
882	0.441	-2.2	-4.86774193548	-0.0827586206897	-28.1189655172
883	0.4415	7.95	-1.97096774194	-1.53448275862	-25.2948275862
884	0.442	-6.55	-1.97096774194	-0.0827586206897	-19.6465517241
885	0.4425	-0.75	-3.41935483871	2.82068965517	-33.7672413793
886	0.443	-0.75	-1.97096774194	-0.0827586206897	-23.8827586207
887	0.4435	-2.2	-6.31612903226	-0.0827586206897	-25.2948275862
888	0.444	-2.2	15.4096774194	-1.53448275862	-21.0586206897
889	0.4445	-0.75	-0.522580645161	1.36896551724	-19.6465517241
890	0.445	-13.8	-1.97096774194	-1.53448275862	-19.6465517241
891	0.4455	2.15	-1.97096774194	1.36896551724	-13.9982758621
892	0.446	3.6	-3.41935483871	-2.98620689655	-21.0586206897
893	0.4465	0.7	-1.97096774194	-11.6965517241	-22.4706896552
894	0.447	-0.75	18.3064516129	-1.53448275862	-22.4706896552
895	0.4475	-3.65	-0.522580645161	-0.0827586206897	-23.8827586207
896	0.448	-10.9	-0.522580645161	-0.0827586206897	-22.4706896552
897	0.4485	-3.65	-1.97096774194	1.36896551724	-28.1189655172
898	0.449	-0.75	-0.522580645161	-1.53448275862	-12.5862068966
899	0.4495	-0.75	0.925806451613	17.3379310345	-23.8827586207
900	0.45	0.7	3.82258064516	1.36896551724	-25.2948275862
901	0.4505	-0.75	15.4096774194	2.82068965517	-25.2948275862
902	0.451	-2.2	-0.522580645161	2.82068965517	-25.2948275862
903	0.4515	9.4	-6.31612903226	-0.0827586206897	-23.8827586207
904	0.452	-8.0	-0.522580645161	2.82068965517	-21.0586206897
905	0.4525	-0.75	0.925806451613	2.82068965517	-25.2948275862
906	0.453	0.7	-6.31612903226	14.4344827586	-25.2948275862
907	0.4535	-0.75	-9.21290322581	1.36896551724	-21.0586206897
908	0.454	0.7	-1.97096774194	2.82068965517	-23.8827586207
909	0.4545	-3.65	-0.522580645161	1.36896551724	-28.1189655172
910	0.455	18.1	0.925806451613	1.36896551724	-35.1793103448
911	0.4555	-3.65	0.925806451613	7.17586206897	-29.5310344828
912	0.456	0.7	-1.97096774194	17.3379310345	-26.7068965517
913	0.4565	-0.75	-1.97096774194	2.82068965517	-23.8827586207
914	0.457	0.7	9.61612903226	1.36896551724	-22.4706896552
915	0.4575	-2.2	5.27096774194	1.36896551724	-22.4706896552
916	0.458	-8.0	-1.97096774194	1.36896551724	-22.4706896552
917	0.4585	0.7	0.925806451613	-0.0827586206897	-9.76206896552
918	0.459	0.7	-0.522580645161	-0.0827586206897	-4.11379310345
919	0.4595	0.7	2.37419354839	15.8862068966	-19.6465517241
920	0.46	0.7	-3.41935483871	17.3379310345	-18.2344827586
921	0.4605	0.7	-7.76451612903	-1.53448275862	-18.2344827586
922	0.461	3.6	0.925806451613	-1.53448275862	-18.2344827586
923	0.4615	-13.8	-4.86774193548	-0.0827586206897	-16.8224137931
924	0.462	-2.2	0.925806451613	2.82068965517	-22.4706896552
925	0.4625	0.7	0.925806451613	-0.0827586206897	-25.2948275862
926	0.463	0.7	-0.522580645161	-8.79310344828	-16.8224137931
927	0.4635	-2.2	15.4096774194	-1.53448275862	-18.2344827586
928	0.464	-5.1	-9.21290322581	2.82068965517	-21.0586206897
929	0.4645	5.05	-1.97096774194	2.82068965517	-19.6465517241
930	0.465	-0.75	0.925806451613	-1.53448275862	-19.6465517241
931	0.4655	-0.75	-0.522580645161	-2.98620689655	-25.2948275862
932	0.466	0.7	-0.522580645161	20.2413793103	-19.6465517241
933	0.4665	-0.75	0.925806451613	-2.98620689655	-19.6465517241
934	0.467	2.15	-4.86774193548	-1.53448275862	-19.6465517241
935	0.4675	2.15	0.925806451613	-0.0827586206897	-16.8224137931
936	0.468	2.15	-0.522580645161	-0.0827586206897	-18.2344827586
937	0.4685	-9.45	-0.522580645161	-0.0827586206897	0.122413793103
938	0.469	0.7	-1.97096774194	-0.0827586206897	-2.70172413793
939	0.4695	-2.2	0.925806451613	-1.53448275862	-18.2344827586
940	0.47	0.7	9.61612903226	1.36896551724	-16.8224137931
941	0.4705	-2.2	3.82258064516	-0.0827586206897	-21.0586206897
942	0.471	2.15	16.8580645161	2.82068965517	-19.6465517241
943	0.4715	-10.9	-1.97096774194	2.82068965517	-8.35
944	0.472	-0.75	-0.522580645161	4.2724137931	-21.0586206897
945	0.4725	0.7	0.925806451613	-0.0827586206897	-6.93793103448
946	0.473	0.7	0.925806451613	2.82068965517	-19.6465517241
947	0.4735	-0.75	18.3064516129	1.36896551724	-18.2344827586
948	0.474	-0.75	-3.41935483871	2.82068965517	-16.8224137931
949	0.4745	-10.9	0.925806451613	-0.0827586206897	-16.8224137931
950	0.475	10.85	0.925806451613	1.36896551724	-18.2344827586
951	0.4755	-2.2	0.925806451613	-1.53448275862	-21.0586206897
952	0.476	0.7	2.37419354839	18.7896551724	-16.8224137931
953	0.4765	-0.75	-1.97096774194	14.4344827586	-19.6465517241
954	0.477	-2.2	-10.6612903226	-1.53448275862	-16.8224137931
955	0.4775	0.7	-1.97096774194	1.36896551724	-16.8224137931
956	0.478	-5.1	-3.41935483871	2.82068965517	-12.5862068966
957	0.4785	-9.45	-3.41935483871	-1.53448275862	-1.28965517241
958	0.479	0.7	-1.97096774194	-8.79310344828	-18.2344827586
959	0.4795	-0.75	0.925806451613	4.2724137931	-16.8224137931
960	0.48	-2.2	0.925806451613	8.6275862069	-16.8224137931
961	0.4805	2.15	9.61612903226	4.2724137931	-13.9982758621
962	0.481	0.7	0.925806451613	1.36896551724	-13.9982758621
963	0.4815	-8.0	0.925806451613	1.36896551724	-13.9982758621
964	0.482	0.7	-1.97096774194	2.82068965517	-13.9982758621
965	0.4825	3.6	2.37419354839	17.3379310345	-15.4103448276
966	0.483	-0.75	-3.41935483871	15.8862068966	-16.8224137931
967	0.4835	0.7	-1.97096774194	-1.53448275862	-18.2344827586
968	0.484	2.15	-0.522580645161	-0.0827586206897	-15.4103448276
969	0.4845	10.85	-0.522580645161	-0.0827586206897	-15.4103448276
970	0.485	12.3	0.925806451613	2.82068965517	-21.0586206897
971	0.4855	0.7	-0.522580645161	-2.98620689655	-18.2344827586
972	0.486	-0.75	-1.97096774194	-7.34137931034	-16.8224137931
973	0.4865	-0.75	-0.522580645161	1.36896551724	-16.8224137931
974	0.487	-0.75	-12.1096774194	-0.0827586206897	-18.2344827586
975	0.4875	2.15	-0.522580645161	2.82068965517	-15.4103448276
976	0.488	21.0	-3.41935483871	1.36896551724	-16.8224137931
977	0.4885	2.15	-1.97096774194	-4.43793103448	-22.4706896552
978	0.489	3.6	-0.522580645161	14.4344827586	-15.4103448276
979	0.4895	0.7	-3.41935483871	2.82068965517	-16.8224137931
980	0.49	-0.75	-10.6612903226	-1.53448275862	-18.2344827586
981	0.4905	0.7	18.3064516129	-1.53448275862	-15.4103448276
982	0.491	-10.9	-1.97096774194	-1.53448275862	-12.5862068966
983	0.4915	-9.45	-1.97096774194	2.82068965517	-1.28965517241
984	0.492	2.15	-0.522580645161	5.72413793103	-18.2344827586
985	0.4925	-0.75	-1.97096774194	8.6275862069	-16.8224137931
986	0.493	0.7	-9.21290322581	-0.0827586206897	-15.4103448276
987	0.4935	0.7	8.16774193548	-1.53448275862	-16.8224137931
988	0.494	-0.75	16.8580645161	1.36896551724	-18.2344827586
989	0.4945	-12.35	-0.522580645161	-0.0827586206897	-18.2344827586
990	0.495	-0.75	-1.97096774194	-0.0827586206897	-22.4706896552
991	0.4955	0.7	-0.522580645161	-2.98620689655	-25.2948275862
992	0.496	2.15	0.925806451613	-5.88965517241	-16.8224137931
993	0.4965	0.7	5.27096774194	-0.0827586206897	-16.8224137931
994	0.497	0.7	-10.6612903226	1.36896551724	-13.9982758621
995	0.4975	0.7	-12.1096774194	-0.0827586206897	-16.8224137931
996	0.498	18.1	-3.41935483871	1.36896551724	-15.4103448276
997	0.4985	0.7	-0.522580645161	-7.34137931034	-19.6465517241
998	0.499	-2.2	2.37419354839	-0.0827586206897	-23.8827586207
999	0.4995	2.15	-4.86774193548	-4.43793103448	-13.9982758621
1000	0.5	3.6	18.3064516129	1.36896551724	-13.9982758621
1001	0.5005	-0.75	3.82258064516	4.2724137931	-12.5862068966
1002	0.501	-0.75	-0.522580645161	-0.0827586206897	-12.5862068966
1003	0.5015	-0.75	-1.97096774194	-1.53448275862	-6.93793103448
1004	0.502	0.7	-0.522580645161	-0.0827586206897	-13.9982758621
1005	0.5025	0.7	-1.97096774194	-2.98620689655	-19.6465517241
1006	0.503	-2.2	-1.97096774194	1.36896551724	-9.76206896552
1007	0.5035	-2.2	15.4096774194	2.82068965517	-8.35
1008	0.504	-3.65	0.925806451613	-0.0827586206897	-6.93793103448
1009	0.5045	-13.8	-1.97096774194	-0.0827586206897	-5.52586206897
1010	0.505	-2.2	0.925806451613	4.2724137931	-6.93793103448
1011	0.5055	-2.2	-1.97096774194	4.2724137931	-6.93793103448
1012	0.506	0.7	0.925806451613	-5.88965517241	-6.93793103448
1013	0.5065	-0.75	0.925806451613	2.82068965517	-9.76206896552
1014	0.507	0.7	16.8580645161	1.36896551724	-5.52586206897
1015	0.5075	-12.35	-0.522580645161	2.82068965517	-5.52586206897
1016	0.508	16.65	-1.97096774194	1.36896551724	-13.9982758621
1017	0.5085	-3.65	-3.41935483871	2.82068965517	-13.9982758621
1018	0.509	0.7	-0.522580645161	-2.98620689655	-11.174137931
1019	0.5095	-0.75	0.925806451613	1.36896551724	-13.9982758621
1020	0.51	-0.75	-6.31612903226	-0.0827586206897	-12.5862068966
1021	0.5105	0.7	-12.1096774194	-1.53448275862	-11.174137931
1022	0.511	18.1	-0.522580645161	-0.0827586206897	-13.9982758621
1023	0.5115	-0.75	-1.97096774194	-1.53448275862	-9.76206896552
1024	0.512	2.15	-1.97096774194	-0.0827586206897	-6.93793103448
1025	0.5125	-2.2	-3.41935483871	-4.43793103448	-13.9982758621
1026	0.513	-2.2	-10.6612903226	1.36896551724	-12.5862068966
1027	0.5135	-2.2	0.925806451613	-2.98620689655	-13.9982758621
1028	0.514	0.7	-1.97096774194	1.36896551724	-13.9982758621
1029	0.5145	-6.55	-1.97096774194	-1.53448275862	-12.5862068966
1030	0.515	-3.65	-0.522580645161	-1.53448275862	-15.4103448276
1031	0.5155	0.7	-1.97096774194	-4.43793103448	-21.0586206897
1032	0.516	-2.2	-0.522580645161	-0.0827586206897	-11.174137931
1033	0.5165	0.7	18.3064516129	-1.53448275862	-9.76206896552
1034	0.517	-5.1	-0.522580645161	-1.53448275862	-9.76206896552
1035	0.5175	-15.25	0.925806451613	-2.98620689655	-8.35
1036	0.518	0.7	-0.522580645161	-1.53448275862	-12.5862068966
1037	0.5185	2.15	-1.97096774194	-1.53448275862	-15.4103448276
1038	0.519	-3.65	-0.522580645161	-7.34137931034	-12.5862068966
1039	0.5195	-2.2	0.925806451613	1.36896551724	-13.9982758621
1040	0.52	-5.1	-1.97096774194	-0.0827586206897	-16.8224137931
1041	0.5205	-12.35	0.925806451613	-0.0827586206897	-12.5862068966
1042	0.521	2.15	0.925806451613	-1.53448275862	-13.9982758621
1043	0.5215	-0.75	-0.522580645161	-4.43793103448	-12.5862068966
1044	0.522	0.7	2.37419354839	-1.53448275862	-9.76206896552
1045	0.5225	-2.2	0.925806451613	-1.53448275862	-9.76206896552
1046	0.523	-0.75	-6.31612903226	-1.53448275862	-9.76206896552
1047	0.5235	0.7	-12.1096774194	-1.53448275862	-6.93793103448
1048	0.524	12.3	-0.522580645161	-1.53448275862	-8.35
1049	0.5245	-6.55	2.37419354839	2.82068965517	8.59482758621
1050	0.525	-0.75	-0.522580645161	2.82068965517	-6.93793103448
1051	0.5255	-3.65	0.925806451613	17.3379310345	-4.11379310345
1052	0.526	-2.2	3.82258064516	-2.98620689655	-4.11379310345
1053	0.5265	-0.75	-1.97096774194	-0.0827586206897	-4.11379310345
1054	0.527	0.7	-1.97096774194	-1.53448275862	-1.28965517241
1055	0.5275	22.45	-3.41935483871	-0.0827586206897	1.53448275862
1056	0.528	2.15	-4.86774193548	2.82068965517	-1.28965517241
1057	0.5285	-0.75	-0.522580645161	4.2724137931	-6.93793103448
1058	0.529	-2.2	-3.41935483871	-7.34137931034	1.53448275862
1059	0.5295	-2.2	0.925806451613	-1.53448275862	0.122413793103
1060	0.53	0.7	8.16774193548	2.82068965517	2.94655172414
1061	0.5305	-10.9	-0.522580645161	-1.53448275862	5.77068965517
1062	0.531	7.95	-1.97096774194	-1.53448275862	7.18275862069
1063	0.5315	-9.45	-3.41935483871	-0.0827586206897	5.77068965517
1064	0.532	2.15	-3.41935483871	2.82068965517	-4.11379310345
1065	0.5325	0.7	-3.41935483871	-5.88965517241	4.35862068966
1066	0.533	3.6	3.82258064516	-0.0827586206897	5.77068965517
1067	0.5335	-2.2	-4.86774193548	1.36896551724	5.77068965517
1068	0.534	-0.75	-4.86774193548	-0.0827586206897	5.77068965517
1069	0.5345	19.55	-1.97096774194	2.82068965517	-5.52586206897
1070	0.535	-0.75	-1.97096774194	7.17586206897	5.77068965517
1071	0.5355	0.7	-1.97096774194	1.36896551724	19.8913793103
1072	0.536	0.7	0.925806451613	2.82068965517	2.94655172414
1073	0.5365	0.7	16.8580645161	-0.0827586206897	4.35862068966
1074	0.537	-3.65	-4.86774193548	1.36896551724	4.35862068966
1075	0.5375	-5.1	0.925806451613	-0.0827586206897	1.53448275862
1076	0.538	-8.0	-1.97096774194	-1.53448275862	21.3034482759
1077	0.5385	0.7	-1.97096774194	4.2724137931	5.77068965517
1078	0.539	-0.75	-0.522580645161	1.36896551724	7.18275862069
1079	0.5395	-0.75	-16.4548387097	-0.0827586206897	8.59482758621
1080	0.54	0.7	-1.97096774194	2.82068965517	8.59482758621
1081	0.5405	0.7	0.925806451613	-1.53448275862	10.0068965517
1082	0.541	-6.55	-0.522580645161	1.36896551724	12.8310344828
1083	0.5415	-10.9	0.925806451613	-1.53448275862	29.775862069
1084	0.542	-2.2	-0.522580645161	2.82068965517	28.3637931034
1085	0.5425	-0.75	-1.97096774194	-0.0827586206897	14.2431034483
1086	0.543	-0.75	-13.5580645161	1.36896551724	14.2431034483
1087	0.5435	2.15	-7.76451612903	-1.53448275862	12.8310344828
1088	0.544	3.6	0.925806451613	1.36896551724	11.4189655172
1089	0.5445	-3.65	-0.522580645161	2.82068965517	7.18275862069
1090	0.545	-2.2	-1.97096774194	2.82068965517	28.3637931034
1091	0.5455	-0.75	-4.86774193548	20.2413793103	15.6551724138
1092	0.546	-2.2	-10.6612903226	1.36896551724	14.2431034483
1093	0.5465	-2.2	2.37419354839	-1.53448275862	15.6551724138
1094	0.547	-3.65	-7.76451612903	1.36896551724	19.8913793103
1095	0.5475	19.55	-0.522580645161	1.36896551724	21.3034482759
1096	0.548	-9.45	0.925806451613	1.36896551724	26.9517241379
1097	0.5485	-3.65	-1.97096774194	-0.0827586206897	14.2431034483
1098	0.549	-2.2	-1.97096774194	-5.88965517241	22.7155172414
1099	0.5495	-0.75	2.37419354839	-1.53448275862	22.7155172414
1100	0.55	0.7	6.71935483871	-0.0827586206897	22.7155172414
1101	0.5505	0.7	-0.522580645161	-0.0827586206897	25.5396551724
1102	0.551	15.2	-0.522580645161	-0.0827586206897	24.1275862069
1103	0.5515	-0.75	0.925806451613	-1.53448275862	34.0120689655
1104	0.552	-0.75	2.37419354839	-7.34137931034	19.8913793103
1105	0.5525	-0.75	0.925806451613	-7.34137931034	24.1275862069
1106	0.553	-2.2	-0.522580645161	-4.43793103448	26.9517241379
1107	0.5535	-2.2	0.925806451613	-0.0827586206897	22.7155172414
1108	0.554	-10.9	0.925806451613	-0.0827586206897	25.5396551724
1109	0.5545	2.15	-0.522580645161	1.36896551724	21.3034482759
1110	0.555	0.7	0.925806451613	-0.0827586206897	17.0672413793
1111	0.5555	-2.2	2.37419354839	-1.53448275862	22.7155172414
1112	0.556	-2.2	0.925806451613	7.17586206897	24.1275862069
1113	0.5565	-0.75	-4.86774193548	2.82068965517	28.3637931034
1114	0.557	0.7	19.7548387097	2.82068965517	28.3637931034
1115	0.5575	5.05	-0.522580645161	1.36896551724	31.1879310345
1116	0.558	9.4	0.925806451613	-0.0827586206897	26.9517241379
1117	0.5585	2.15	0.925806451613	1.36896551724	21.3034482759
1118	0.559	0.7	-0.522580645161	-7.34137931034	26.9517241379
1119	0.5595	-0.75	2.37419354839	-7.34137931034	29.775862069
1120	0.56	-0.75	3.82258064516	-7.34137931034	28.3637931034
1121	0.5605	-0.75	18.3064516129	-0.0827586206897	28.3637931034
1122	0.561	-12.35	0.925806451613	2.82068965517	29.775862069
1123	0.5615	2.15	0.925806451613	1.36896551724	32.6
1124	0.562	-2.2	-1.97096774194	1.36896551724	46.7206896552
1125	0.5625	-0.75	-0.522580645161	-4.43793103448	29.775862069
1126	0.563	-0.75	0.925806451613	2.82068965517	31.1879310345
1127	0.5635	0.7	-1.97096774194	4.2724137931	32.6
1128	0.564	-0.75	-10.6612903226	2.82068965517	31.1879310345
1129	0.5645	2.15	-9.21290322581	4.2724137931	32.6
1130	0.565	-0.75	-0.522580645161	1.36896551724	28.3637931034
1131	0.5655	-0.75	-0.522580645161	-5.88965517241	39.6603448276
1132	0.566	0.7	-0.522580645161	2.82068965517	24.1275862069
1133	0.5665	-2.2	-6.31612903226	1.36896551724	32.6
1134	0.567	2.15	-7.76451612903	-0.0827586206897	34.0120689655
1135	0.5675	5.05	0.925806451613	2.82068965517	34.0120689655
1136	0.568	-5.1	-0.522580645161	1.36896551724	34.0120689655
1137	0.5685	-0.75	-0.522580645161	-0.0827586206897	25.5396551724
1138	0.569	-2.2	-1.97096774194	4.2724137931	32.6
1139	0.5695	-0.75	-1.97096774194	-8.79310344828	31.1879310345
1140	0.57	0.7	-1.97096774194	-7.34137931034	34.0120689655
1141	0.5705	-2.2	-1.97096774194	-1.53448275862	34.0120689655
1142	0.571	-5.1	0.925806451613	-1.53448275862	32.6
1143	0.5715	-6.55	0.925806451613	-1.53448275862	38.2482758621
1144	0.572	-0.75	-0.522580645161	4.2724137931	46.7206896552
1145	0.5725	-2.2	0.925806451613	7.17586206897	38.2482758621
1146	0.573	0.7	0.925806451613	-5.88965517241	36.8362068966
1147	0.5735	-0.75	-4.86774193548	-7.34137931034	36.8362068966
1148	0.574	-3.65	-0.522580645161	-0.0827586206897	36.8362068966
1149	0.5745	-13.8	-0.522580645161	-0.0827586206897	38.2482758621
1150	0.575	-8.0	-0.522580645161	2.82068965517	46.7206896552
1151	0.5755	-0.75	0.925806451613	2.82068965517	36.8362068966
1152	0.576	0.7	0.925806451613	-7.34137931034	39.6603448276
1153	0.5765	2.15	0.925806451613	-1.53448275862	36.8362068966
1154	0.577	-3.65	16.8580645161	2.82068965517	35.424137931
1155	0.5775	-5.1	-4.86774193548	1.36896551724	36.8362068966
1156	0.578	-5.1	-1.97096774194	-0.0827586206897	36.8362068966
1157	0.5785	15.2	-0.522580645161	2.82068965517	26.9517241379
1158	0.579	-2.2	-1.97096774194	-8.79310344828	26.9517241379
1159	0.5795	-0.75	0.925806451613	-8.79310344828	32.6
1160	0.58	-0.75	-1.97096774194	-1.53448275862	35.424137931
1161	0.5805	-0.75	-12.1096774194	2.82068965517	34.0120689655
1162	0.581	-2.2	-1.97096774194	1.36896551724	29.775862069
1163	0.5815	-10.9	-0.522580645161	1.36896551724	28.3637931034
1164	0.582	-2.2	0.925806451613	1.36896551724	29.775862069
1165	0.5825	-0.75	-0.522580645161	-4.43793103448	31.1879310345
1166	0.583	0.7	0.925806451613	15.8862068966	31.1879310345
1167	0.5835	0.7	-0.522580645161	18.7896551724	31.1879310345
1168	0.584	2.15	-6.31612903226	1.36896551724	32.6
1169	0.5845	2.15	0.925806451613	2.82068965517	34.0120689655
1170	0.585	13.75	-0.522580645161	2.82068965517	32.6
1171	0.5855	-0.75	-0.522580645161	2.82068965517	26.9517241379
1172	0.586	-0.75	-0.522580645161	-1.53448275862	34.0120689655
1173	0.5865	0.7	-0.522580645161	-5.88965517241	32.6
1174	0.587	-2.2	3.82258064516	-2.98620689655	34.0120689655
1175	0.5875	-3.65	-3.41935483871	1.36896551724	36.8362068966
1176	0.588	-12.35	0.925806451613	1.36896551724	34.0120689655
1177	0.5885	3.6	0.925806451613	1.36896551724	34.0120689655
1178	0.589	0.7	0.925806451613	-0.0827586206897	26.9517241379
1179	0.5895	-0.75	2.37419354839	-7.34137931034	34.0120689655
1180	0.59	-3.65	-0.522580645161	-0.0827586206897	36.8362068966
1181	0.5905	-0.75	-13.5580645161	-1.53448275862	36.8362068966
1182	0.591	0.7	-1.97096774194	4.2724137931	34.0120689655
1183	0.5915	13.75	0.925806451613	2.82068965517	28.3637931034
1184	0.592	-3.65	-0.522580645161	-1.53448275862	34.0120689655
1185	0.5925	0.7	-1.97096774194	-0.0827586206897	26.9517241379
1186	0.593	-0.75	-4.86774193548	-7.34137931034	38.2482758621
1187	0.5935	-0.75	0.925806451613	-5.88965517241	34.0120689655
1188	0.594	-0.75	16.8580645161	1.36896551724	34.0120689655
1189	0.5945	-12.35	0.925806451613	2.82068965517	34.0120689655
1190	0.595	10.85	-0.522580645161	1.36896551724	26.9517241379
1191	0.5955	-8.0	-1.97096774194	-0.0827586206897	31.1879310345
1192	0.596	-2.2	-0.522580645161	12.9827586207	32.6
1193	0.5965	-3.65	-4.86774193548	1.36896551724	32.6
1194	0.597	-0.75	-10.6612903226	-1.53448275862	29.775862069
1195	0.5975	-2.2	-4.86774193548	-0.0827586206897	28.3637931034
1196	0.598	3.6	-3.41935483871	-0.0827586206897	32.6
1197	0.5985	-2.2	-0.522580645161	-2.98620689655	35.424137931
1198	0.599	-0.75	-1.97096774194	-0.0827586206897	39.6603448276
1199	0.5995	-2.2	-0.522580645161	-2.98620689655	19.8913793103
1200	0.6	0.7	-1.97096774194	-8.79310344828	25.5396551724
1201	0.6005	0.7	18.3064516129	-1.53448275862	25.5396551724
1202	0.601	-3.65	-1.97096774194	-2.98620689655	25.5396551724
1203	0.6015	-13.8	-1.97096774194	-0.0827586206897	24.1275862069
1204	0.602	0.7	-0.522580645161	-0.0827586206897	21.3034482759
1205	0.6025	-0.75	-3.41935483871	-2.98620689655	24.1275862069
1206	0.603	0.7	-0.522580645161	-1.53448275862	19.8913793103
1207	0.6035	0.7	-1.97096774194	17.3379310345	22.7155172414
1208	0.604	2.15	16.8580645161	-0.0827586206897	21.3034482759
1209	0.6045	-2.2	-1.97096774194	-0.0827586206897	24.1275862069
1210	0.605	-8.0	0.925806451613	-0.0827586206897	14.2431034483
1211	0.6055	-3.65	0.925806451613	1.36896551724	18.4793103448
1212	0.606	0.7	-0.522580645161	-4.43793103448	24.1275862069
1213	0.6065	0.7	-1.97096774194	11.5310344828	24.1275862069
1214	0.607	-0.75	0.925806451613	11.5310344828	24.1275862069
1215	0.6075	-0.75	5.27096774194	-0.0827586206897	25.5396551724
1216	0.608	-0.75	-0.522580645161	1.36896551724	24.1275862069
1217	0.6085	21.0	-1.97096774194	1.36896551724	22.7155172414
1218	0.609	-2.2	-0.522580645161	-2.98620689655	12.8310344828
1219	0.6095	-0.75	0.925806451613	-1.53448275862	32.6
1220	0.61	-0.75	-0.522580645161	12.9827586207	24.1275862069
1221	0.6105	0.7	-9.21290322581	-1.53448275862	24.1275862069
1222	0.611	0.7	-4.86774193548	2.82068965517	24.1275862069
1223	0.6115	-5.1	-9.21290322581	-0.0827586206897	25.5396551724
1224	0.612	15.2	-3.41935483871	1.36896551724	22.7155172414
1225	0.6125	0.7	-4.86774193548	-10.2448275862	24.1275862069
1226	0.613	0.7	0.925806451613	-10.2448275862	22.7155172414
1227	0.6135	-2.2	2.37419354839	-2.98620689655	24.1275862069
1228	0.614	0.7	-4.86774193548	-7.34137931034	22.7155172414
1229	0.6145	-3.65	0.925806451613	-1.53448275862	22.7155172414
1230	0.615	-5.1	0.925806451613	-1.53448275862	21.3034482759
1231	0.6155	-0.75	0.925806451613	-2.98620689655	10.0068965517
1232	0.616	2.15	3.82258064516	-0.0827586206897	15.6551724138
1233	0.6165	-2.2	2.37419354839	-8.79310344828	14.2431034483
1234	0.617	-2.2	0.925806451613	1.36896551724	19.8913793103
1235	0.6175	2.15	-4.86774193548	-0.0827586206897	18.4793103448
1236	0.618	2.15	-0.522580645161	1.36896551724	15.6551724138
1237	0.6185	19.55	2.37419354839	2.82068965517	5.77068965517
1238	0.619	-0.75	0.925806451613	1.36896551724	22.7155172414
1239	0.6195	2.15	0.925806451613	2.82068965517	28.3637931034
1240	0.62	0.7	-4.86774193548	-1.53448275862	14.2431034483
1241	0.6205	-0.75	-1.97096774194	-2.98620689655	14.2431034483
1242	0.621	2.15	-0.522580645161	1.36896551724	12.8310344828
1243	0.6215	2.15	-7.76451612903	2.82068965517	14.2431034483
1244	0.622	16.65	0.925806451613	-0.0827586206897	-1.28965517241
1245	0.6225	-0.75	-0.522580645161	5.72413793103	4.35862068966
1246	0.623	-2.2	-0.522580645161	-5.88965517241	17.0672413793
1247	0.6235	0.7	-0.522580645161	8.6275862069	14.2431034483
1248	0.624	0.7	-3.41935483871	-0.0827586206897	10.0068965517
1249	0.6245	2.15	-9.21290322581	1.36896551724	8.59482758621
1250	0.625	3.6	-4.86774193548	-0.0827586206897	8.59482758621
1251	0.6255	-5.1	-1.97096774194	-0.0827586206897	8.59482758621
1252	0.626	0.7	-0.522580645161	-0.0827586206897	-2.70172413793
1253	0.6265	0.7	0.925806451613	-10.2448275862	5.77068965517
1254	0.627	0.7	3.82258064516	-1.53448275862	7.18275862069
1255	0.6275	0.7	13.9612903226	-2.98620689655	5.77068965517
1256	0.628	-0.75	-4.86774193548	-1.53448275862	7.18275862069
1257	0.6285	-3.65	-0.522580645161	-0.0827586206897	7.18275862069
1258	0.629	18.1	2.37419354839	4.2724137931	8.59482758621
1259	0.6295	0.7	-0.522580645161	-7.34137931034	8.59482758621
1260	0.63	-0.75	0.925806451613	-0.0827586206897	12.8310344828
1261	0.6305	0.7	-0.522580645161	17.3379310345	8.59482758621
1262	0.631	3.6	-7.76451612903	4.2724137931	7.18275862069
1263	0.6315	2.15	0.925806451613	-1.53448275862	7.18275862069
1264	0.632	13.75	2.37419354839	-1.53448275862	5.77068965517
1265	0.6325	-5.1	0.925806451613	-0.0827586206897	14.2431034483
1266	0.633	-2.2	-0.522580645161	-1.53448275862	0.122413793103
1267	0.6335	0.7	-0.522580645161	-10.2448275862	7.18275862069
1268	0.634	0.7	2.37419354839	-2.98620689655	5.77068965517
1269	0.6345	-2.2	-3.41935483871	-1.53448275862	7.18275862069
1270	0.635	-9.45	-1.97096774194	-1.53448275862	12.8310344828
1271	0.6355	5.05	-0.522580645161	1.36896551724	5.77068965517
1272	0.636	2.15	-1.97096774194	-1.53448275862	5.77068965517
1273	0.6365	2.15	-3.41935483871	-8.79310344828	12.8310344828
1274	0.637	0.7	2.37419354839	-0.0827586206897	10.0068965517
1275	0.6375	3.6	6.71935483871	1.36896551724	8.59482758621
1276	0.638	3.6	-9.21290322581	2.82068965517	8.59482758621
1277	0.6385	18.1	0.925806451613	1.36896551724	8.59482758621
1278	0.639	-6.55	-1.97096774194	2.82068965517	12.8310344828
1279	0.6395	-0.75	-1.97096774194	-1.53448275862	5.77068965517
1280	0.64	3.6	-0.522580645161	2.82068965517	1.53448275862
1281	0.6405	0.7	-13.5580645161	-0.0827586206897	10.0068965517
1282	0.641	2.15	-3.41935483871	-0.0827586206897	7.18275862069
1283	0.6415	3.6	-0.522580645161	-2.98620689655	5.77068965517
1284	0.642	-2.2	-1.97096774194	-0.0827586206897	5.77068965517
1285	0.6425	-2.2	-1.97096774194	-1.53448275862	-4.11379310345
1286	0.643	-0.75	-4.86774193548	4.2724137931	4.35862068966
1287	0.6435	0.7	0.925806451613	-7.34137931034	0.122413793103
1288	0.644	3.6	15.4096774194	1.36896551724	2.94655172414
1289	0.6445	-2.2	-4.86774193548	1.36896551724	-1.28965517241
1290	0.645	-5.1	-0.522580645161	1.36896551724	7.18275862069
1291	0.6455	16.65	-1.97096774194	1.36896551724	5.77068965517
1292	0.646	0.7	-0.522580645161	4.2724137931	14.2431034483
1293	0.6465	-3.65	0.925806451613	5.72413793103	2.94655172414
1294	0.647	-2.2	0.925806451613	-8.79310344828	1.53448275862
1295	0.6475	3.6	18.3064516129	-0.0827586206897	1.53448275862
1296	0.648	2.15	-4.86774193548	1.36896551724	2.94655172414
1297	0.6485	-3.65	-9.21290322581	1.36896551724	0.122413793103
1298	0.649	16.65	-3.41935483871	-1.53448275862	0.122413793103
1299	0.6495	2.15	-0.522580645161	1.36896551724	-2.70172413793
1300	0.65	-2.2	-0.522580645161	-13.1482758621	0.122413793103
1301	0.6505	-0.75	0.925806451613	-0.0827586206897	7.18275862069
1302	0.651	0.7	0.925806451613	1.36896551724	10.0068965517
1303	0.6515	2.15	-10.6612903226	1.36896551724	5.77068965517
1304	0.652	19.55	-0.522580645161	-0.0827586206897	10.0068965517
1305	0.6525	-6.55	-1.97096774194	-1.53448275862	17.0672413793
1306	0.653	-0.75	-1.97096774194	-1.53448275862	0.122413793103
1307	0.6535	-2.2	0.925806451613	-10.2448275862	1.53448275862
1308	0.654	-0.75	0.925806451613	-5.88965517241	10.0068965517
1309	0.6545	-0.75	15.4096774194	-1.53448275862	10.0068965517
1310	0.655	0.7	3.82258064516	-0.0827586206897	10.0068965517
1311	0.6555	0.7	-1.97096774194	2.82068965517	11.4189655172
1312	0.656	-8.0	-0.522580645161	-0.0827586206897	15.6551724138
1313	0.6565	0.7	-0.522580645161	2.82068965517	0.122413793103
1314	0.657	0.7	-4.86774193548	-5.88965517241	12.8310344828
1315	0.6575	-0.75	2.37419354839	4.2724137931	14.2431034483
1316	0.658	0.7	0.925806451613	4.2724137931	14.2431034483
1317	0.6585	-2.2	-1.97096774194	-1.53448275862	14.2431034483
1318	0.659	23.9	0.925806451613	1.36896551724	5.77068965517
1319	0.6595	0.7	0.925806451613	-1.53448275862	19.8913793103
1320	0.66	2.15	-0.522580645161	2.82068965517	31.1879310345
1321	0.6605	0.7	-1.97096774194	12.9827586207	21.3034482759
1322	0.661	0.7	-10.6612903226	2.82068965517	24.1275862069
1323	0.6615	0.7	-10.6612903226	1.36896551724	19.8913793103
1324	0.662	3.6	0.925806451613	-0.0827586206897	21.3034482759
1325	0.6625	13.75	-0.522580645161	1.36896551724	22.7155172414
1326	0.663	-0.75	-0.522580645161	-0.0827586206897	10.0068965517
1327	0.6635	0.7	-1.97096774194	18.7896551724	17.0672413793
1328	0.664	0.7	-0.522580645161	-1.53448275862	17.0672413793
1329	0.6645	-2.2	0.925806451613	-4.43793103448	14.2431034483
1330	0.665	2.15	11.064516129	2.82068965517	14.2431034483
1331	0.6655	-3.65	-0.522580645161	2.82068965517	14.2431034483
1332	0.666	21.0	-0.522580645161	2.82068965517	14.2431034483
1333	0.6665	-0.75	0.925806451613	2.82068965517	1.53448275862
1334	0.667	0.7	0.925806451613	-0.0827586206897	17.0672413793
1335	0.6675	-0.75	0.925806451613	4.2724137931	15.6551724138
1336	0.668	-0.75	5.27096774194	2.82068965517	15.6551724138
1337	0.6685	-0.75	-6.31612903226	2.82068965517	15.6551724138
1338	0.669	-5.1	-1.97096774194	2.82068965517	15.6551724138
1339	0.6695	-5.1	-0.522580645161	4.2724137931	29.775862069
1340	0.67	-0.75	-0.522580645161	4.2724137931	4.35862068966
1341	0.6705	2.15	-1.97096774194	-2.98620689655	17.0672413793
1342	0.671	-0.75	0.925806451613	-1.53448275862	18.4793103448
1343	0.6715	-3.65	0.925806451613	2.82068965517	18.4793103448
1344	0.672	-2.2	-7.76451612903	1.36896551724	19.8913793103
1345	0.6725	15.2	-1.97096774194	1.36896551724	8.59482758621
1346	0.673	0.7	-3.41935483871	-2.98620689655	15.6551724138
1347	0.6735	2.15	-3.41935483871	-10.2448275862	17.0672413793
1348	0.674	2.15	-1.97096774194	-7.34137931034	18.4793103448
1349	0.6745	0.7	-3.41935483871	4.2724137931	14.2431034483
1350	0.675	0.7	-6.31612903226	-0.0827586206897	14.2431034483
1351	0.6755	-3.65	-0.522580645161	-0.0827586206897	14.2431034483
1352	0.676	18.1	-0.522580645161	-2.98620689655	4.35862068966
1353	0.6765	0.7	-3.41935483871	-0.0827586206897	2.94655172414
1354	0.677	0.7	-3.41935483871	-7.34137931034	12.8310344828
1355	0.6775	-2.2	-1.97096774194	-7.34137931034	14.2431034483
1356	0.678	0.7	-6.31612903226	-7.34137931034	15.6551724138
1357	0.6785	-2.2	-3.41935483871	-0.0827586206897	17.0672413793
1358	0.679	-15.25	-0.522580645161	-2.98620689655	17.0672413793
1359	0.6795	3.6	-3.41935483871	-0.0827586206897	19.8913793103
1360	0.68	0.7	0.925806451613	1.36896551724	7.18275862069
1361	0.6805	-0.75	-0.522580645161	20.2413793103	18.4793103448
1362	0.681	-2.2	-4.86774193548	-1.53448275862	15.6551724138
1363	0.6815	2.15	-1.97096774194	-1.53448275862	18.4793103448
1364	0.682	2.15	-0.522580645161	1.36896551724	21.3034482759
1365	0.6825	-0.75	-4.86774193548	-0.0827586206897	21.3034482759
1366	0.683	-6.55	0.925806451613	1.36896551724	18.4793103448
1367	0.6835	0.7	-3.41935483871	-7.34137931034	21.3034482759
1368	0.684	-0.75	-3.41935483871	-4.43793103448	18.4793103448
1369	0.6845	-0.75	3.82258064516	4.2724137931	17.0672413793
1370	0.685	-2.2	-0.522580645161	1.36896551724	19.8913793103
1371	0.6855	-5.1	-1.97096774194	1.36896551724	15.6551724138
1372	0.686	15.2	-3.41935483871	4.2724137931	5.77068965517
1373	0.6865	-0.75	-1.97096774194	2.82068965517	2.94655172414
1374	0.687	0.7	-1.97096774194	4.2724137931	21.3034482759
1375	0.6875	-0.75	0.925806451613	-4.43793103448	10.0068965517
1376	0.688	-0.75	-0.522580645161	2.82068965517	10.0068965517
1377	0.6885	0.7	-7.76451612903	4.2724137931	7.18275862069
1378	0.689	2.15	0.925806451613	-2.98620689655	5.77068965517
1379	0.6895	22.45	-1.97096774194	-1.53448275862	-4.11379310345
1380	0.69	-5.1	-1.97096774194	-1.53448275862	1.53448275862
1381	0.6905	-0.75	-0.522580645161	-4.43793103448	-4.11379310345
1382	0.691	2.15	-1.97096774194	-5.88965517241	1.53448275862
1383	0.6915	-2.2	-3.41935483871	-7.34137931034	0.122413793103
1384	0.692	-0.75	-0.522580645161	-0.0827586206897	2.94655172414
1385	0.6925	-12.35	-0.522580645161	-1.53448275862	1.53448275862
1386	0.693	-3.65	-0.522580645161	-0.0827586206897	0.122413793103
1387	0.6935	0.7	-0.522580645161	-0.0827586206897	-5.52586206897
1388	0.694	-2.2	0.925806451613	-2.98620689655	2.94655172414
1389	0.6945	-0.75	0.925806451613	2.82068965517	2.94655172414
1390	0.695	2.15	-16.4548387097	2.82068965517	4.35862068966
1391	0.6955	3.6	-1.97096774194	-0.0827586206897	5.77068965517
1392	0.696	12.3	-0.522580645161	-0.0827586206897	5.77068965517
1393	0.6965	-5.1	-3.41935483871	-1.53448275862	24.1275862069
1394	0.697	2.15	-1.97096774194	-4.43793103448	15.6551724138
1395	0.6975	-0.75	-1.97096774194	-7.34137931034	12.8310344828
1396	0.698	-0.75	16.8580645161	-0.0827586206897	15.6551724138
1397	0.6985	-3.65	-10.6612903226	-1.53448275862	19.8913793103
1398	0.699	-10.9	-1.97096774194	-2.98620689655	18.4793103448
1399	0.6995	-5.1	-1.97096774194	-1.53448275862	21.3034482759
1400	0.7	-0.75	-1.97096774194	-1.53448275862	32.6
1401	0.7005	0.7	-3.41935483871	20.2413793103	17.0672413793
1402	0.701	-0.75	-13.5580645161	1.36896551724	21.3034482759
1403	0.7015	0.7	13.9612903226	2.82068965517	18.4793103448
1404	0.702	-0.75	-7.76451612903	-1.53448275862	18.4793103448
1405	0.7025	15.2	-0.522580645161	1.36896551724	15.6551724138
1406	0.703	-0.75	-3.41935483871	2.82068965517	7.18275862069
1407	0.7035	0.7	-0.522580645161	-1.53448275862	34.0120689655
1408	0.704	2.15	0.925806451613	-0.0827586206897	21.3034482759
1409	0.7045	-2.2	-6.31612903226	1.36896551724	14.2431034483
1410	0.705	2.15	6.71935483871	-0.0827586206897	15.6551724138
1411	0.7055	-2.2	-1.97096774194	4.2724137931	14.2431034483
1412	0.706	21.0	-0.522580645161	1.36896551724	15.6551724138
1413	0.7065	-3.65	-0.522580645161	7.17586206897	25.5396551724
1414	0.707	0.7	0.925806451613	14.4344827586	15.6551724138
1415	0.7075	0.7	-0.522580645161	-1.53448275862	18.4793103448
1416	0.708	0.7	18.3064516129	1.36896551724	18.4793103448
1417	0.7085	-3.65	-3.41935483871	2.82068965517	21.3034482759
1418	0.709	-10.9	-0.522580645161	2.82068965517	17.0672413793
1419	0.7095	-2.2	-0.522580645161	4.2724137931	8.59482758621
1420	0.71	0.7	-0.522580645161	-8.79310344828	17.0672413793
1421	0.7105	2.15	-0.522580645161	5.72413793103	24.1275862069
1422	0.711	0.7	-0.522580645161	20.2413793103	22.7155172414
1423	0.7115	0.7	-10.6612903226	2.82068965517	24.1275862069
1424	0.712	2.15	-0.522580645161	2.82068965517	22.7155172414
1425	0.7125	12.3	-0.522580645161	4.2724137931	22.7155172414
1426	0.713	-6.55	-1.97096774194	1.36896551724	21.3034482759
1427	0.7135	-2.2	-3.41935483871	-8.79310344828	24.1275862069
1428	0.714	-2.2	-6.31612903226	-0.0827586206897	26.9517241379
1429	0.7145	-2.2	-9.21290322581	2.82068965517	28.3637931034
1430	0.715	-2.2	-1.97096774194	-0.0827586206897	28.3637931034
1431	0.7155	-0.75	-1.97096774194	2.82068965517	26.9517241379
1432	0.716	18.1	-0.522580645161	2.82068965517	28.3637931034
1433	0.7165	-8.0	-0.522580645161	2.82068965517	39.6603448276
1434	0.717	-2.2	-1.97096774194	15.8862068966	25.5396551724
1435	0.7175	-2.2	-3.41935483871	20.2413793103	25.5396551724
1436	0.718	0.7	-12.1096774194	-0.0827586206897	21.3034482759
1437	0.7185	6.5	-1.97096774194	-2.98620689655	21.3034482759
1438	0.719	5.05	-1.97096774194	-1.53448275862	24.1275862069
1439	0.7195	13.75	0.925806451613	2.82068965517	19.8913793103
1440	0.72	-0.75	-0.522580645161	-0.0827586206897	34.0120689655
1441	0.7205	-2.2	0.925806451613	14.4344827586	19.8913793103
1442	0.721	0.7	-10.6612903226	-0.0827586206897	25.5396551724
1443	0.7215	0.7	-3.41935483871	-0.0827586206897	24.1275862069
1444	0.722	-2.2	-0.522580645161	-0.0827586206897	24.1275862069
1445	0.7225	-9.45	-1.97096774194	1.36896551724	12.8310344828
1446	0.723	-0.75	2.37419354839	-0.0827586206897	17.0672413793
1447	0.7235	-0.75	2.37419354839	-4.43793103448	34.0120689655
1448	0.724	-0.75	-1.97096774194	18.7896551724	18.4793103448
1449	0.7245	-2.2	-10.6612903226	2.82068965517	18.4793103448
1450	0.725	2.15	6.71935483871	1.36896551724	17.0672413793
1451	0.7255	-10.9	0.925806451613	1.36896551724	17.0672413793
1452	0.726	-5.1	0.925806451613	-1.53448275862	12.8310344828
1453	0.7265	0.7	-3.41935483871	-2.98620689655	4.35862068966
1454	0.727	-0.75	0.925806451613	-13.1482758621	12.8310344828
1455	0.7275	-0.75	-1.97096774194	1.36896551724	12.8310344828
1456	0.728	-0.75	9.61612903226	2.82068965517	11.4189655172
1457	0.7285	-0.75	-9.21290322581	2.82068965517	15.6551724138
1458	0.729	-3.65	0.925806451613	-0.0827586206897	12.8310344828
1459	0.7295	16.65	-1.97096774194	-0.0827586206897	0.122413793103
1460	0.73	-2.2	0.925806451613	-0.0827586206897	5.77068965517
1461	0.7305	-0.75	2.37419354839	-4.43793103448	15.6551724138
1462	0.731	-0.75	3.82258064516	-0.0827586206897	15.6551724138
1463	0.7315	-0.75	2.37419354839	1.36896551724	14.2431034483
1464	0.732	-3.65	-0.522580645161	1.36896551724	15.6551724138
1465	0.7325	-10.9	0.925806451613	-1.53448275862	18.4793103448
1466	0.733	-8.0	0.925806451613	-1.53448275862	28.3637931034
1467	0.7335	-2.2	-0.522580645161	-11.6965517241	14.2431034483
1468	0.734	0.7	-0.522580645161	11.5310344828	8.59482758621
1469	0.7345	-0.75	-7.76451612903	1.36896551724	14.2431034483
1470	0.735	0.7	9.61612903226	4.2724137931	14.2431034483
1471	0.7355	-0.75	-1.97096774194	-1.53448275862	18.4793103448
1472	0.736	-12.35	0.925806451613	1.36896551724	17.0672413793
1473	0.7365	0.7	-0.522580645161	1.36896551724	2.94655172414
1474	0.737	-2.2	-0.522580645161	-8.79310344828	18.4793103448
1475	0.7375	-3.65	0.925806451613	-1.53448275862	18.4793103448
1476	0.738	-2.2	-0.522580645161	2.82068965517	19.8913793103
1477	0.7385	-0.75	-7.76451612903	2.82068965517	19.8913793103
1478	0.739	0.7	2.37419354839	2.82068965517	15.6551724138
1479	0.7395	-8.0	2.37419354839	-0.0827586206897	31.1879310345
1480	0.74	-2.2	0.925806451613	1.36896551724	7.18275862069
1481	0.7405	-2.2	0.925806451613	-4.43793103448	19.8913793103
1482	0.741	0.7	-10.6612903226	-0.0827586206897	19.8913793103
1483	0.7415	2.15	6.71935483871	-0.0827586206897	21.3034482759
1484	0.742	-0.75	0.925806451613	-1.53448275862	22.7155172414
1485	0.7425	-16.7	-0.522580645161	-0.0827586206897	24.1275862069
1486	0.743	-6.55	-0.522580645161	1.36896551724	21.3034482759
1487	0.7435	-0.75	-3.41935483871	1.36896551724	34.0120689655
1488	0.744	0.7	0.925806451613	17.3379310345	17.0672413793
1489	0.7445	2.15	2.37419354839	-0.0827586206897	17.0672413793
1490	0.745	-0.75	-3.41935483871	-1.53448275862	17.0672413793
1491	0.7455	-0.75	-1.97096774194	-0.0827586206897	18.4793103448
1492	0.746	0.7	-1.97096774194	1.36896551724	15.6551724138
1493	0.7465	-3.65	0.925806451613	2.82068965517	1.53448275862
1494	0.747	0.7	-3.41935483871	-8.79310344828	8.59482758621
1495	0.7475	0.7	-1.97096774194	-2.98620689655	8.59482758621
1496	0.748	-2.2	-1.97096774194	1.36896551724	8.59482758621
1497	0.7485	0.7	-9.21290322581	-0.0827586206897	10.0068965517
1498	0.749	0.7	-0.522580645161	4.2724137931	8.59482758621
1499	0.7495	-6.55	-1.97096774194	4.2724137931	7.18275862069
1500	0.75	0.7	-3.41935483871	4.2724137931	10.0068965517
1501	0.7505	-0.75	-0.522580645161	4.2724137931	1.53448275862
1502	0.751	-2.2	-1.97096774194	1.36896551724	10.0068965517
1503	0.7515	2.15	13.9612903226	-0.0827586206897	15.6551724138
1504	0.752	-5.1	-1.97096774194	2.82068965517	15.6551724138
1505	0.7525	-12.35	-0.522580645161	-0.0827586206897	18.4793103448
1506	0.753	-5.1	-3.41935483871	1.36896551724	17.0672413793
1507	0.7535	-0.75	0.925806451613	4.2724137931	34.0120689655
1508	0.754	0.7	0.925806451613	1.36896551724	14.2431034483
1509	0.7545	0.7	-12.1096774194	-0.0827586206897	19.8913793103
1510	0.755	0.7	5.27096774194	-0.0827586206897	17.0672413793
1511	0.7555	-6.55	0.925806451613	-0.0827586206897	17.0672413793
1512	0.756	16.65	0.925806451613	-0.0827586206897	7.18275862069
1513	0.7565	-0.75	-0.522580645161	1.36896551724	5.77068965517
1514	0.757	0.7	-0.522580645161	-4.43793103448	21.3034482759
1515	0.7575	-0.75	-0.522580645161	1.36896551724	14.2431034483
1516	0.758	-2.2	-1.97096774194	4.2724137931	5.77068965517
1517	0.7585	2.15	-0.522580645161	5.72413793103	5.77068965517
1518	0.759	-0.75	0.925806451613	7.17586206897	4.35862068966
1519	0.7595	-9.45	0.925806451613	-1.53448275862	19.8913793103
1520	0.76	-2.2	-0.522580645161	-8.79310344828	0.122413793103
1521	0.7605	-2.2	0.925806451613	4.2724137931	4.35862068966
1522	0.761	-2.2	0.925806451613	15.8862068966	5.77068965517
1523	0.7615	-2.2	-15.0064516129	1.36896551724	5.77068965517
1524	0.762	3.6	-3.41935483871	-0.0827586206897	7.18275862069
1525	0.7625	15.2	-0.522580645161	-0.0827586206897	8.59482758621
1526	0.763	16.65	-0.522580645161	-0.0827586206897	10.0068965517
1527	0.7635	-0.75	2.37419354839	-8.79310344828	12.8310344828
1528	0.764	-2.2	-0.522580645161	4.2724137931	14.2431034483
1529	0.7645	0.7	-4.86774193548	-1.53448275862	12.8310344828
1530	0.765	-3.65	-7.76451612903	1.36896551724	17.0672413793
1531	0.7655	2.15	0.925806451613	1.36896551724	17.0672413793
1532	0.766	13.75	0.925806451613	2.82068965517	18.4793103448
1533	0.7665	0.7	-0.522580645161	-1.53448275862	29.775862069
1534	0.767	-0.75	-1.97096774194	2.82068965517	17.0672413793
1535	0.7675	-0.75	-3.41935483871	-0.0827586206897	18.4793103448
1536	0.768	-0.75	-9.21290322581	4.2724137931	17.0672413793
1537	0.7685	2.15	-0.522580645161	1.36896551724	15.6551724138
1538	0.769	9.4	-0.522580645161	2.82068965517	12.8310344828
1539	0.7695	-5.1	-1.97096774194	-1.53448275862	19.8913793103
1540	0.77	-0.75	-0.522580645161	7.17586206897	10.0068965517
1541	0.7705	2.15	-3.41935483871	2.82068965517	15.6551724138
1542	0.771	-2.2	-9.21290322581	4.2724137931	17.0672413793
1543	0.7715	2.15	5.27096774194	-0.0827586206897	12.8310344828
1544	0.772	-2.2	-1.97096774194	-0.0827586206897	14.2431034483
1545	0.7725	-8.0	-0.522580645161	1.36896551724	8.59482758621
1546	0.773	-0.75	0.925806451613	2.82068965517	2.94655172414
1547	0.7735	-0.75	0.925806451613	5.72413793103	1.53448275862
1548	0.774	2.15	2.37419354839	-5.88965517241	2.94655172414
1549	0.7745	-0.75	-10.6612903226	-1.53448275862	0.122413793103
1550	0.775	-2.2	11.064516129	1.36896551724	0.122413793103
1551	0.7755	-9.45	-1.97096774194	-0.0827586206897	0.122413793103
1552	0.776	13.75	0.925806451613	2.82068965517	-1.28965517241
1553	0.7765	-0.75	-0.522580645161	-11.6965517241	1.53448275862
1554	0.777	-2.2	0.925806451613	-2.98620689655	4.35862068966
1555	0.7775	0.7	-10.6612903226	1.36896551724	5.77068965517
1556	0.778	2.15	2.37419354839	-1.53448275862	8.59482758621
1557	0.7785	2.15	0.925806451613	-1.53448275862	10.0068965517
1558	0.779	-5.1	-0.522580645161	-1.53448275862	14.2431034483
1559	0.7795	2.15	-0.522580645161	1.36896551724	-2.70172413793
1560	0.78	0.7	-3.41935483871	-8.79310344828	10.0068965517
1561	0.7805	5.05	-3.41935483871	12.9827586207	7.18275862069
1562	0.781	0.7	-6.31612903226	-0.0827586206897	5.77068965517
1563	0.7815	3.6	-10.6612903226	4.2724137931	2.94655172414
1564	0.782	2.15	-3.41935483871	1.36896551724	2.94655172414
1565	0.7825	-3.65	-1.97096774194	-0.0827586206897	12.8310344828
1566	0.783	-0.75	-0.522580645161	-4.43793103448	0.122413793103
1567	0.7835	2.15	0.925806451613	14.4344827586	1.53448275862
1568	0.784	-0.75	-0.522580645161	1.36896551724	2.94655172414
1569	0.7845	-0.75	-13.5580645161	1.36896551724	1.53448275862
1570	0.785	5.05	0.925806451613	4.2724137931	-1.28965517241
1571	0.7855	15.2	-0.522580645161	2.82068965517	-5.52586206897
1572	0.786	-5.1	-0.522580645161	2.82068965517	4.35862068966
1573	0.7865	0.7	-1.97096774194	2.82068965517	10.0068965517
1574	0.787	-0.75	-0.522580645161	2.82068965517	-13.9982758621
1575	0.7875	2.15	0.925806451613	-2.98620689655	-4.11379310345
1576	0.788	0.7	3.82258064516	4.2724137931	-1.28965517241
1577	0.7885	-13.8	-1.97096774194	4.2724137931	0.122413793103
1578	0.789	-8.0	-1.97096774194	4.2724137931	4.35862068966
1579	0.7895	0.7	-1.97096774194	2.82068965517	-6.93793103448
1580	0.79	0.7	0.925806451613	-2.98620689655	-12.5862068966
1581	0.7905	0.7	-0.522580645161	-8.79310344828	-5.52586206897
1582	0.791	2.15	15.4096774194	-0.0827586206897	-4.11379310345
1583	0.7915	-2.2	-1.97096774194	-2.98620689655	-4.11379310345
1584	0.792	-12.35	-0.522580645161	2.82068965517	-5.52586206897
1585	0.7925	-0.75	-0.522580645161	2.82068965517	-11.174137931
1586	0.793	0.7	-1.97096774194	2.82068965517	-4.11379310345
1587	0.7935	3.6	-1.97096774194	-2.98620689655	0.122413793103
1588	0.794	0.7	-3.41935483871	-0.0827586206897	0.122413793103
1589	0.7945	0.7	13.9612903226	-1.53448275862	2.94655172414
1590	0.795	-8.0	-0.522580645161	4.2724137931	8.59482758621
1591	0.7955	-5.1	-0.522580645161	-0.0827586206897	4.35862068966
1592	0.796	-2.2	-1.97096774194	1.36896551724	0.122413793103
1593	0.7965	0.7	-1.97096774194	-5.88965517241	5.77068965517
1594	0.797	0.7	2.37419354839	2.82068965517	12.8310344828
1595	0.7975	-0.75	0.925806451613	4.2724137931	10.0068965517
1596	0.798	-5.1	-0.522580645161	1.36896551724	10.0068965517
1597	0.7985	-3.65	-0.522580645161	4.2724137931	10.0068965517
1598	0.799	-10.9	-0.522580645161	2.82068965517	28.3637931034
1599	0.7995	-0.75	-3.41935483871	4.2724137931	12.8310344828
1600	0.8	-0.75	-3.41935483871	2.82068965517	10.0068965517
1601	0.8005	-0.75	2.37419354839	14.4344827586	14.2431034483
1602	0.801	0.7	-6.31612903226	1.36896551724	12.8310344828
1603	0.8015	0.7	-0.522580645161	-1.53448275862	15.6551724138
1604	0.802	18.1	-0.522580645161	-1.53448275862	10.0068965517
1605	0.8025	0.7	-0.522580645161	4.2724137931	15.6551724138
1606	0.803	2.15	-0.522580645161	4.2724137931	5.77068965517
1607	0.8035	-0.75	0.925806451613	-1.53448275862	10.0068965517
1608	0.804	5.05	8.16774193548	1.36896551724	5.77068965517
1609	0.8045	-2.2	-10.6612903226	2.82068965517	4.35862068966
1610	0.805	-12.35	-1.97096774194	-0.0827586206897	0.122413793103
1611	0.8055	-3.65	-1.97096774194	1.36896551724	1.53448275862
1612	0.806	0.7	-0.522580645161	4.2724137931	0.122413793103
1613	0.8065	2.15	3.82258064516	-2.98620689655	4.35862068966
1614	0.807	0.7	0.925806451613	4.2724137931	4.35862068966
1615	0.8075	0.7	-12.1096774194	1.36896551724	1.53448275862
1616	0.808	5.05	0.925806451613	4.2724137931	4.35862068966
1617	0.8085	12.3	-0.522580645161	2.82068965517	7.18275862069
1618	0.809	-5.1	5.27096774194	4.2724137931	15.6551724138
1619	0.8095	-0.75	0.925806451613	15.8862068966	14.2431034483
1620	0.81	-0.75	-1.97096774194	-0.0827586206897	17.0672413793
1621	0.8105	2.15	-10.6612903226	1.36896551724	17.0672413793
1622	0.811	2.15	2.37419354839	1.36896551724	19.8913793103
1623	0.8115	0.7	-0.522580645161	-0.0827586206897	18.4793103448
1624	0.812	-5.1	0.925806451613	2.82068965517	8.59482758621
1625	0.8125	2.15	-0.522580645161	4.2724137931	8.59482758621
1626	0.813	5.05	0.925806451613	-10.2448275862	15.6551724138
1627	0.8135	5.05	2.37419354839	-7.34137931034	15.6551724138
1628	0.814	-0.75	8.16774193548	1.36896551724	18.4793103448
1629	0.8145	0.7	-10.6612903226	1.36896551724	17.0672413793
1630	0.815	5.05	-1.97096774194	1.36896551724	15.6551724138
1631	0.8155	15.2	-1.97096774194	1.36896551724	12.8310344828
1632	0.816	0.7	0.925806451613	4.2724137931	8.59482758621
1633	0.8165	3.6	0.925806451613	-4.43793103448	5.77068965517
1634	0.817	3.6	2.37419354839	-7.34137931034	15.6551724138
1635	0.8175	2.15	15.4096774194	4.2724137931	12.8310344828
1636	0.818	-0.75	-4.86774193548	1.36896551724	8.59482758621
1637	0.8185	-5.1	-0.522580645161	2.82068965517	12.8310344828
1638	0.819	15.2	0.925806451613	2.82068965517	1.53448275862
1639	0.8195	3.6	0.925806451613	-1.53448275862	21.3034482759
1640	0.82	3.6	0.925806451613	14.4344827586	1.53448275862
1641	0.8205	0.7	0.925806451613	2.82068965517	8.59482758621
1642	0.821	0.7	16.8580645161	1.36896551724	5.77068965517
1643	0.8215	-2.2	-0.522580645161	4.2724137931	10.0068965517
1644	0.822	-12.35	0.925806451613	4.2724137931	12.8310344828
1645	0.8225	0.7	-1.97096774194	2.82068965517	8.59482758621
1646	0.823	0.7	-0.522580645161	1.36896551724	2.94655172414
1647	0.8235	2.15	-1.97096774194	-4.43793103448	7.18275862069
1648	0.824	0.7	0.925806451613	-7.34137931034	7.18275862069
1649	0.8245	-0.75	13.9612903226	-0.0827586206897	5.77068965517
1650	0.825	-6.55	-4.86774193548	1.36896551724	7.18275862069
1651	0.8255	21.0	-0.522580645161	-0.0827586206897	5.77068965517
1652	0.826	-0.75	-4.86774193548	2.82068965517	4.35862068966
1653	0.8265	2.15	-1.97096774194	-1.53448275862	2.94655172414
1654	0.827	0.7	-0.522580645161	-5.88965517241	10.0068965517
1655	0.8275	2.15	0.925806451613	-5.88965517241	7.18275862069
1656	0.828	-0.75	-1.97096774194	-0.0827586206897	10.0068965517
1657	0.8285	-10.9	-1.97096774194	1.36896551724	5.77068965517
1658	0.829	5.05	-3.41935483871	-0.0827586206897	5.77068965517
1659	0.8295	0.7	-3.41935483871	2.82068965517	-8.35
1660	0.83	2.15	-4.86774193548	-1.53448275862	2.94655172414
1661	0.8305	0.7	-7.76451612903	4.2724137931	4.35862068966
1662	0.831	3.6	13.9612903226	1.36896551724	5.77068965517
1663	0.8315	-0.75	-6.31612903226	1.36896551724	5.77068965517
1664	0.832	9.4	-3.41935483871	4.2724137931	5.77068965517
1665	0.8325	-8.0	-3.41935483871	1.36896551724	21.3034482759
1666	0.833	2.15	-1.97096774194	-8.79310344828	1.53448275862
1667	0.8335	0.7	-1.97096774194	-1.53448275862	0.122413793103
1668	0.834	-2.2	-9.21290322581	1.36896551724	2.94655172414
1669	0.8345	3.6	15.4096774194	-0.0827586206897	5.77068965517
1670	0.835	3.6	-4.86774193548	1.36896551724	5.77068965517
1671	0.8355	12.3	-0.522580645161	1.36896551724	4.35862068966
1672	0.836	3.6	-1.97096774194	-2.98620689655	-1.28965517241
1673	0.8365	-0.75	-0.522580645161	-4.43793103448	1.53448275862
1674	0.837	-0.75	-1.97096774194	14.4344827586	4.35862068966
1675	0.8375	0.7	2.37419354839	-1.53448275862	1.53448275862
1676	0.838	-3.65	-9.21290322581	-1.53448275862	5.77068965517
1677	0.8385	-6.55	-1.97096774194	-0.0827586206897	4.35862068966
1678	0.839	-6.55	-1.97096774194	-0.0827586206897	4.35862068966
1679	0.8395	3.6	-1.97096774194	4.2724137931	-1.28965517241
1680	0.84	0.7	0.925806451613	-4.43793103448	1.53448275862
1681	0.8405	3.6	-0.522580645161	-7.34137931034	1.53448275862
1682	0.841	3.6	-10.6612903226	2.82068965517	2.94655172414
1683	0.8415	5.05	-6.31612903226	-0.0827586206897	0.122413793103
1684	0.842	2.15	0.925806451613	-0.0827586206897	1.53448275862
1685	0.8425	-3.65	-3.41935483871	2.82068965517	-2.70172413793
1686	0.843	0.7	-0.522580645161	4.2724137931	-5.52586206897
1687	0.8435	0.7	-0.522580645161	-0.0827586206897	4.35862068966
1688	0.844	2.15	-1.97096774194	8.6275862069	2.94655172414
1689	0.8445	3.6	-9.21290322581	1.36896551724	1.53448275862
1690	0.845	3.6	-12.1096774194	4.2724137931	2.94655172414
1691	0.8455	7.95	0.925806451613	2.82068965517	4.35862068966
1692	0.846	-5.1	0.925806451613	2.82068965517	5.77068965517
1693	0.8465	-0.75	0.925806451613	2.82068965517	-6.93793103448
1694	0.847	0.7	-0.522580645161	17.3379310345	4.35862068966
1695	0.8475	0.7	-3.41935483871	-0.0827586206897	5.77068965517
1696	0.848	3.6	11.064516129	2.82068965517	1.53448275862
1697	0.8485	-3.65	-10.6612903226	1.36896551724	2.94655172414
1698	0.849	-12.35	-1.97096774194	1.36896551724	1.53448275862
1699	0.8495	-5.1	-1.97096774194	-1.53448275862	18.4793103448
1700	0.85	0.7	-0.522580645161	-8.79310344828	-1.28965517241
1701	0.8505	0.7	-0.522580645161	-8.79310344828	0.122413793103
1702	0.851	0.7	-0.522580645161	-4.43793103448	5.77068965517
1703	0.8515	2.15	16.8580645161	-0.0827586206897	5.77068965517
1704	0.852	-2.2	19.7548387097	2.82068965517	10.0068965517
1705	0.8525	-9.45	-0.522580645161	-0.0827586206897	11.4189655172
1706	0.853	15.2	-1.97096774194	2.82068965517	4.35862068966
1707	0.8535	-0.75	0.925806451613	-8.79310344828	17.0672413793
1708	0.854	-0.75	-0.522580645161	-0.0827586206897	15.6551724138
1709	0.8545	-0.75	2.37419354839	17.3379310345	17.0672413793
1710	0.855	0.7	-7.76451612903	4.2724137931	21.3034482759
1711	0.8555	0.7	0.925806451613	-0.0827586206897	21.3034482759
1712	0.856	16.65	-0.522580645161	1.36896551724	12.8310344828
1713	0.8565	-3.65	-1.97096774194	-0.0827586206897	25.5396551724
1714	0.857	-2.2	-1.97096774194	-1.53448275862	17.0672413793
1715	0.8575	-2.2	-1.97096774194	18.7896551724	14.2431034483
1716	0.858	-0.75	-15.0064516129	-0.0827586206897	14.2431034483
1717	0.8585	-0.75	-0.522580645161	2.82068965517	14.2431034483
1718	0.859	-0.75	-1.97096774194	-0.0827586206897	14.2431034483
1719	0.8595	-6.55	-1.97096774194	2.82068965517	15.6551724138
1720	0.86	-0.75	-1.97096774194	-0.0827586206897	31.1879310345
1721	0.8605	-0.75	-1.97096774194	15.8862068966	12.8310344828
1722	0.861	-0.75	-10.6612903226	-1.53448275862	10.0068965517
1723	0.8615	2.15	-0.522580645161	-1.53448275862	10.0068965517
1724	0.862	2.15	-3.41935483871	1.36896551724	5.77068965517
1725	0.8625	-9.45	-0.522580645161	-0.0827586206897	8.59482758621
1726	0.863	-8.0	-1.97096774194	-1.53448275862	26.9517241379
1727	0.8635	0.7	0.925806451613	-1.53448275862	14.2431034483
1728	0.864	-2.2	0.925806451613	-4.43793103448	4.35862068966
1729	0.8645	-2.2	-1.97096774194	1.36896551724	2.94655172414
1730	0.865	0.7	16.8580645161	-1.53448275862	1.53448275862
1731	0.8655	-15.25	-1.97096774194	-0.0827586206897	1.53448275862
1732	0.866	0.7	-0.522580645161	2.82068965517	-2.70172413793
1733	0.8665	0.7	-0.522580645161	-1.53448275862	-11.174137931
1734	0.867	0.7	0.925806451613	-5.88965517241	-11.174137931
1735	0.8675	-0.75	3.82258064516	4.2724137931	-4.11379310345
1736	0.868	0.7	13.9612903226	-0.0827586206897	-5.52586206897
1737	0.8685	-0.75	0.925806451613	1.36896551724	-2.70172413793
1738	0.869	13.75	-0.522580645161	1.36896551724	-13.9982758621
1739	0.8695	-0.75	-0.522580645161	-1.53448275862	-8.35
1740	0.87	-0.75	-1.97096774194	-7.34137931034	1.53448275862
1741	0.8705	-2.2	2.37419354839	-0.0827586206897	-9.76206896552
1742	0.871	-2.2	-6.31612903226	1.36896551724	-1.28965517241
1743	0.8715	-0.75	16.8580645161	1.36896551724	-1.28965517241
1744	0.872	-13.8	-0.522580645161	2.82068965517	-2.70172413793
1745	0.8725	3.6	-1.97096774194	1.36896551724	-4.11379310345
1746	0.873	-8.0	0.925806451613	1.36896551724	0.122413793103
1747	0.8735	0.7	-0.522580645161	17.3379310345	-5.52586206897
1748	0.874	2.15	3.82258064516	-1.53448275862	1.53448275862
1749	0.8745	2.15	3.82258064516	-0.0827586206897	0.122413793103
1750	0.875	0.7	-6.31612903226	-0.0827586206897	-1.28965517241
1751	0.8755	-10.9	-1.97096774194	1.36896551724	2.94655172414
1752	0.876	-5.1	-1.97096774194	1.36896551724	2.94655172414
1753	0.8765	-3.65	-0.522580645161	-0.0827586206897	-8.35
1754	0.877	0.7	-0.522580645161	18.7896551724	-2.70172413793
1755	0.8775	0.7	-0.522580645161	1.36896551724	-1.28965517241
1756	0.878	0.7	-1.97096774194	1.36896551724	0.122413793103
1757	0.8785	0.7	-1.97096774194	-0.0827586206897	0.122413793103
1758	0.879	-5.1	-1.97096774194	1.36896551724	0.122413793103
1759	0.8795	-9.45	-1.97096774194	4.2724137931	19.8913793103
1760	0.88	-0.75	-0.522580645161	7.17586206897	0.122413793103
1761	0.8805	-2.2	-4.86774193548	5.72413793103	4.35862068966
1762	0.881	-0.75	-6.31612903226	-0.0827586206897	5.77068965517
1763	0.8815	-2.2	-0.522580645161	1.36896551724	5.77068965517
1764	0.882	-0.75	0.925806451613	-0.0827586206897	1.53448275862
1765	0.8825	18.1	0.925806451613	1.36896551724	-8.35
1766	0.883	-3.65	-0.522580645161	7.17586206897	-1.28965517241
1767	0.8835	-2.2	-0.522580645161	14.4344827586	1.53448275862
1768	0.884	-2.2	-1.97096774194	-2.98620689655	1.53448275862
1769	0.8845	-0.75	6.71935483871	-0.0827586206897	0.122413793103
1770	0.885	-5.1	-0.522580645161	-0.0827586206897	0.122413793103
1771	0.8855	-13.8	-0.522580645161	-0.0827586206897	-1.28965517241
1772	0.886	-2.2	-1.97096774194	2.82068965517	-8.35
1773	0.8865	-0.75	-1.97096774194	1.36896551724	5.77068965517
1774	0.887	-0.75	0.925806451613	-8.79310344828	-11.174137931
1775	0.8875	-2.2	3.82258064516	1.36896551724	-11.174137931
1776	0.888	-3.65	3.82258064516	-0.0827586206897	-12.5862068966
1777	0.8885	-13.8	-1.97096774194	1.36896551724	-16.8224137931
1778	0.889	10.85	-0.522580645161	-0.0827586206897	-23.8827586207
1779	0.8895	-0.75	-0.522580645161	-0.0827586206897	-18.2344827586
1780	0.89	-0.75	-1.97096774194	-8.79310344828	-11.174137931
1781	0.8905	0.7	-1.97096774194	5.72413793103	-6.93793103448
1782	0.891	-0.75	-3.41935483871	-1.53448275862	-6.93793103448
1783	0.8915	0.7	-9.21290322581	-0.0827586206897	-6.93793103448
1784	0.892	-0.75	0.925806451613	-0.0827586206897	-6.93793103448
1785	0.8925	16.65	-0.522580645161	2.82068965517	-11.174137931
1786	0.893	-0.75	0.925806451613	-4.43793103448	-12.5862068966
1787	0.8935	-3.65	-0.522580645161	11.5310344828	-11.174137931
1788	0.894	0.7	0.925806451613	23.1448275862	-15.4103448276
1789	0.8945	0.7	-10.6612903226	4.2724137931	-15.4103448276
1790	0.895	5.05	-4.86774193548	-0.0827586206897	-16.8224137931
1791	0.8955	0.7	0.925806451613	-0.0827586206897	-16.8224137931
1792	0.896	18.1	-0.522580645161	1.36896551724	-15.4103448276
1793	0.8965	-0.75	-0.522580645161	-10.2448275862	-11.174137931
1794	0.897	-0.75	-1.97096774194	4.2724137931	-11.174137931
1795	0.8975	-2.2	-7.76451612903	2.82068965517	-9.76206896552
1796	0.898	-0.75	16.8580645161	2.82068965517	-9.76206896552
1797	0.8985	2.15	-4.86774193548	4.2724137931	-9.76206896552
1798	0.899	15.2	-0.522580645161	5.72413793103	-16.8224137931
1799	0.8995	-6.55	-0.522580645161	-1.53448275862	5.77068965517
1800	0.9	-2.2	-0.522580645161	-1.53448275862	1.53448275862
1801	0.9005	-2.2	3.82258064516	-0.0827586206897	-13.9982758621
1802	0.901	-5.1	-10.6612903226	-0.0827586206897	-11.174137931
1803	0.9015	2.15	3.82258064516	-0.0827586206897	-11.174137931
1804	0.902	-6.55	-1.97096774194	2.82068965517	-13.9982758621
1805	0.9025	18.1	-3.41935483871	2.82068965517	-15.4103448276
1806	0.903	-2.2	-1.97096774194	-0.0827586206897	-21.0586206897
1807	0.9035	-0.75	-1.97096774194	5.72413793103	-18.2344827586
1808	0.904	-3.65	-1.97096774194	17.3379310345	-18.2344827586
1809	0.9045	-0.75	-12.1096774194	-0.0827586206897	-18.2344827586
1810	0.905	-0.75	-6.31612903226	-1.53448275862	-16.8224137931
1811	0.9055	-10.9	-1.97096774194	2.82068965517	-19.6465517241
1812	0.906	9.4	-3.41935483871	2.82068965517	-22.4706896552
1813	0.9065	-3.65	-4.86774193548	-8.79310344828	-21.0586206897
1814	0.907	-2.2	-3.41935483871	-0.0827586206897	-21.0586206897
1815	0.9075	-2.2	-4.86774193548	1.36896551724	-18.2344827586
1816	0.908	-0.75	13.9612903226	1.36896551724	-18.2344827586
1817	0.9085	-5.1	-7.76451612903	1.36896551724	-16.8224137931
1818	0.909	13.75	-4.86774193548	5.72413793103	-22.4706896552
1819	0.9095	-6.55	-1.97096774194	1.36896551724	-5.52586206897
1820	0.91	-2.2	-3.41935483871	-4.43793103448	-16.8224137931
1821	0.9105	-2.2	0.925806451613	-5.88965517241	-13.9982758621
1822	0.911	-2.2	-0.522580645161	-0.0827586206897	-15.4103448276
1823	0.9115	-3.65	5.27096774194	-1.53448275862	-16.8224137931
1824	0.912	-9.45	-3.41935483871	-0.0827586206897	-9.76206896552
1825	0.9125	-6.55	-3.41935483871	2.82068965517	-13.9982758621
1826	0.913	-10.9	-4.86774193548	-1.53448275862	1.53448275862
1827	0.9135	-0.75	-4.86774193548	-11.6965517241	-15.4103448276
1828	0.914	-2.2	-0.522580645161	-2.98620689655	-11.174137931
1829	0.9145	-0.75	2.37419354839	2.82068965517	-8.35
1830	0.915	-0.75	13.9612903226	2.82068965517	-5.52586206897
1831	0.9155	2.15	-0.522580645161	4.2724137931	-6.93793103448
1832	0.916	-5.1	-1.97096774194	2.82068965517	0.122413793103
1833	0.9165	-2.2	0.925806451613	-1.53448275862	-9.76206896552
1834	0.917	-3.65	-0.522580645161	21.6931034483	-6.93793103448
1835	0.9175	0.7	-3.41935483871	4.2724137931	-4.11379310345
1836	0.918	0.7	-6.31612903226	2.82068965517	-4.11379310345
1837	0.9185	0.7	-1.97096774194	1.36896551724	-6.93793103448
1838	0.919	5.05	-1.97096774194	2.82068965517	-9.76206896552
1839	0.9195	-8.0	-0.522580645161	2.82068965517	8.59482758621
1840	0.92	0.7	-1.97096774194	2.82068965517	10.0068965517
1841	0.9205	0.7	-3.41935483871	1.36896551724	-5.52586206897
1842	0.921	-0.75	-9.21290322581	1.36896551724	-5.52586206897
1843	0.9215	0.7	-3.41935483871	-1.53448275862	-5.52586206897
1844	0.922	-3.65	-1.97096774194	1.36896551724	-2.70172413793
1845	0.9225	-6.55	-0.522580645161	1.36896551724	0.122413793103
1846	0.923	0.7	-1.97096774194	-1.53448275862	-8.35
1847	0.9235	0.7	-0.522580645161	-2.98620689655	-13.9982758621
1848	0.924	-0.75	0.925806451613	-8.79310344828	-6.93793103448
1849	0.9245	-2.2	11.064516129	1.36896551724	-9.76206896552
1850	0.925	-3.65	3.82258064516	1.36896551724	-11.174137931
1851	0.9255	-2.2	-4.86774193548	-1.53448275862	-9.76206896552
1852	0.926	-6.55	-1.97096774194	1.36896551724	0.122413793103
1853	0.9265	-0.75	-4.86774193548	-7.34137931034	-18.2344827586
1854	0.927	0.7	2.37419354839	5.72413793103	-13.9982758621
1855	0.9275	-0.75	-0.522580645161	18.7896551724	-13.9982758621
1856	0.928	-2.2	-10.6612903226	2.82068965517	-15.4103448276
1857	0.9285	0.7	-3.41935483871	1.36896551724	-21.0586206897
1858	0.929	15.2	-0.522580645161	2.82068965517	-18.2344827586
1859	0.9295	-8.0	-1.97096774194	1.36896551724	-19.6465517241
1860	0.93	-2.2	-1.97096774194	7.17586206897	-26.7068965517
1861	0.9305	-2.2	-3.41935483871	-2.98620689655	-18.2344827586
1862	0.931	-0.75	-9.21290322581	-0.0827586206897	-13.9982758621
1863	0.9315	0.7	11.064516129	-2.98620689655	-15.4103448276
1864	0.932	-12.35	-0.522580645161	-1.53448275862	-15.4103448276
1865	0.9325	21.0	0.925806451613	-0.0827586206897	-18.2344827586
1866	0.933	-5.1	0.925806451613	-1.53448275862	-12.5862068966
1867	0.9335	-0.75	-0.522580645161	-2.98620689655	-15.4103448276
1868	0.934	0.7	2.37419354839	-0.0827586206897	-19.6465517241
1869	0.9345	0.7	16.8580645161	-1.53448275862	-16.8224137931
1870	0.935	-3.65	-0.522580645161	2.82068965517	-12.5862068966
1871	0.9355	-10.9	0.925806451613	2.82068965517	-11.174137931
1872	0.936	2.15	-0.522580645161	1.36896551724	-15.4103448276
1873	0.9365	-5.1	-1.97096774194	1.36896551724	4.35862068966
1874	0.937	-0.75	0.925806451613	-5.88965517241	-9.76206896552
1875	0.9375	-0.75	2.37419354839	4.2724137931	-9.76206896552
1876	0.938	-2.2	2.37419354839	4.2724137931	-6.93793103448
1877	0.9385	-3.65	0.925806451613	2.82068965517	-9.76206896552
1878	0.939	18.1	-0.522580645161	1.36896551724	-5.52586206897
1879	0.9395	-3.65	-0.522580645161	2.82068965517	-5.52586206897
1880	0.94	0.7	2.37419354839	4.2724137931	-15.4103448276
1881	0.9405	0.7	-0.522580645161	-7.34137931034	-12.5862068966
1882	0.941	0.7	-10.6612903226	1.36896551724	-9.76206896552
1883	0.9415	0.7	2.37419354839	1.36896551724	-8.35
1884	0.942	0.7	0.925806451613	-0.0827586206897	-11.174137931
1885	0.9425	19.55	-1.97096774194	-1.53448275862	-11.174137931
1886	0.943	-3.65	-0.522580645161	-1.53448275862	-18.2344827586
1887	0.9435	-2.2	-1.97096774194	-1.53448275862	-9.76206896552
1888	0.944	0.7	0.925806451613	2.82068965517	-12.5862068966
1889	0.9445	-2.2	-1.97096774194	2.82068965517	-12.5862068966
1890	0.945	-0.75	-9.21290322581	-0.0827586206897	-11.174137931
1891	0.9455	21.0	-1.97096774194	-0.0827586206897	-15.4103448276
1892	0.946	-3.65	-0.522580645161	2.82068965517	-16.8224137931
1893	0.9465	-0.75	-1.97096774194	-8.79310344828	-12.5862068966
1894	0.947	-0.75	0.925806451613	-2.98620689655	-11.174137931
1895	0.9475	-2.2	-4.86774193548	-5.88965517241	-8.35
1896	0.948	0.7	16.8580645161	-1.53448275862	-8.35
1897	0.9485	-13.8	-1.97096774194	-4.43793103448	-5.52586206897
1898	0.949	7.95	-1.97096774194	-0.0827586206897	-11.174137931
1899	0.9495	-2.2	2.37419354839	1.36896551724	-16.8224137931
1900	0.95	0.7	-1.97096774194	-10.2448275862	-5.52586206897
1901	0.9505	-0.75	0.925806451613	4.2724137931	-6.93793103448
1902	0.951	-0.75	0.925806451613	1.36896551724	-8.35
1903	0.9515	0.7	-6.31612903226	2.82068965517	-6.93793103448
1904	0.952	15.2	-0.522580645161	-0.0827586206897	-6.93793103448
1905	0.9525	-10.9	-0.522580645161	-0.0827586206897	-6.93793103448
1906	0.953	0.7	-0.522580645161	1.36896551724	0.122413793103
1907	0.9535	-0.75	-4.86774193548	-1.53448275862	-5.52586206897
1908	0.954	-5.1	-0.522580645161	-8.79310344828	-11.174137931
1909	0.9545	0.7	15.4096774194	1.36896551724	-8.35
1910	0.955	-13.8	-1.97096774194	2.82068965517	-9.76206896552
1911	0.9555	19.55	-1.97096774194	-1.53448275862	-6.93793103448
1912	0.956	-3.65	-1.97096774194	-1.53448275862	-11.174137931
1913	0.9565	0.7	0.925806451613	10.0793103448	-11.174137931
1914	0.957	-2.2	0.925806451613	17.3379310345	-11.174137931
1915	0.9575	-3.65	-12.1096774194	-0.0827586206897	-12.5862068966
1916	0.958	5.05	-1.97096774194	-2.98620689655	-13.9982758621
1917	0.9585	-9.45	2.37419354839	-0.0827586206897	-16.8224137931
1918	0.959	10.85	-0.522580645161	1.36896551724	-21.0586206897
1919	0.9595	2.15	0.925806451613	2.82068965517	-25.2948275862
1920	0.96	2.15	-0.522580645161	23.1448275862	-15.4103448276
1921	0.9605	-0.75	-10.6612903226	1.36896551724	-13.9982758621
1922	0.961	0.7	21.2032258065	-0.0827586206897	-11.174137931
1923	0.9615	-2.2	-4.86774193548	-0.0827586206897	-8.35
1924	0.962	5.05	0.925806451613	-2.98620689655	-12.5862068966
1925	0.9625	2.15	-0.522580645161	-2.98620689655	-18.2344827586
1926	0.963	0.7	0.925806451613	-2.98620689655	-5.52586206897
1927	0.9635	-2.2	0.925806451613	2.82068965517	-2.70172413793
1928	0.964	-3.65	0.925806451613	-2.98620689655	-1.28965517241
1929	0.9645	-0.75	-7.76451612903	-1.53448275862	-4.11379310345
1930	0.965	2.15	0.925806451613	-2.98620689655	-4.11379310345
1931	0.9655	13.75	-0.522580645161	-4.43793103448	-11.174137931
1932	0.966	0.7	0.925806451613	-7.34137931034	-11.174137931
1933	0.9665	-0.75	0.925806451613	1.36896551724	-9.76206896552
1934	0.967	0.7	-3.41935483871	-8.79310344828	-1.28965517241
1935	0.9675	0.7	5.27096774194	-2.98620689655	-2.70172413793
1936	0.968	-3.65	-4.86774193548	1.36896551724	-1.28965517241
1937	0.9685	-5.1	-0.522580645161	-0.0827586206897	-5.52586206897
1938	0.969	19.55	-1.97096774194	2.82068965517	-12.5862068966
1939	0.9695	-5.1	-3.41935483871	-1.53448275862	-9.76206896552
1940	0.97	-0.75	-1.97096774194	14.4344827586	-9.76206896552
1941	0.9705	-2.2	-0.522580645161	-2.98620689655	-6.93793103448
1942	0.971	-0.75	16.8580645161	-1.53448275862	-5.52586206897
1943	0.9715	-2.2	5.27096774194	1.36896551724	-5.52586206897
1944	0.972	-5.1	-3.41935483871	-1.53448275862	-4.11379310345
1945	0.9725	-6.55	2.37419354839	-1.53448275862	5.77068965517
1946	0.973	0.7	-0.522580645161	-0.0827586206897	-9.76206896552
1947	0.9735	0.7	-1.97096774194	-7.34137931034	-12.5862068966
1948	0.974	0.7	0.925806451613	-7.34137931034	-2.70172413793
1949	0.9745	-0.75	9.61612903226	1.36896551724	-5.52586206897
1950	0.975	0.7	-12.1096774194	-1.53448275862	-4.11379310345
1951	0.9755	3.6	0.925806451613	-4.43793103448	-4.11379310345
1952	0.976	-2.2	-0.522580645161	-4.43793103448	-6.93793103448
1953	0.9765	-3.65	0.925806451613	-1.53448275862	10.0068965517
1954	0.977	-5.1	0.925806451613	11.5310344828	1.53448275862
1955	0.9775	0.7	-10.6612903226	-2.98620689655	1.53448275862
1956	0.978	-0.75	13.9612903226	-0.0827586206897	1.53448275862
1957	0.9785	-3.65	0.925806451613	-0.0827586206897	0.122413793103
1958	0.979	7.95	-0.522580645161	1.36896551724	-4.11379310345
1959	0.9795	-0.75	-0.522580645161	-2.98620689655	-9.76206896552
1960	0.98	0.7	-0.522580645161	-13.1482758621	-1.28965517241
1961	0.9805	-0.75	-3.41935483871	-0.0827586206897	-5.52586206897
1962	0.981	0.7	-1.97096774194	-1.53448275862	-4.11379310345
1963	0.9815	0.7	19.7548387097	-1.53448275862	-8.35
1964	0.982	-12.35	-1.97096774194	2.82068965517	-8.35
1965	0.9825	2.15	-0.522580645161	1.36896551724	-8.35
1966	0.983	-8.0	-0.522580645161	2.82068965517	-4.11379310345
1967	0.9835	0.7	-1.97096774194	20.2413793103	-5.52586206897
1968	0.984	-0.75	-4.86774193548	-0.0827586206897	-2.70172413793
1969	0.9845	-3.65	-0.522580645161	5.72413793103	-1.28965517241
1970	0.985	-3.65	-7.76451612903	-0.0827586206897	0.122413793103
1971	0.9855	-3.65	-1.97096774194	-2.98620689655	0.122413793103
1972	0.986	16.65	-3.41935483871	-4.43793103448	-11.174137931
1973	0.9865	-2.2	-0.522580645161	-1.53448275862	-11.174137931
1974	0.987	0.7	-0.522580645161	-5.88965517241	-2.70172413793
1975	0.9875	-3.65	0.925806451613	1.36896551724	-2.70172413793
1976	0.988	-2.2	-0.522580645161	4.2724137931	-4.11379310345
1977	0.9885	-2.2	-10.6612903226	4.2724137931	-2.70172413793
1978	0.989	0.7	-4.86774193548	-0.0827586206897	-1.28965517241
1979	0.9895	-6.55	0.925806451613	-1.53448275862	-4.11379310345
1980	0.99	-0.75	-0.522580645161	-2.98620689655	-4.11379310345
1981	0.9905	-2.2	0.925806451613	-8.79310344828	-6.93793103448
1982	0.991	-0.75	0.925806451613	-1.53448275862	-2.70172413793
1983	0.9915	-2.2	18.3064516129	-0.0827586206897	-4.11379310345
1984	0.992	-3.65	-1.97096774194	-1.53448275862	-6.93793103448
1985	0.9925	-3.65	-4.86774193548	1.36896551724	-12.5862068966
1986	0.993	19.55	-4.86774193548	-0.0827586206897	-13.9982758621
1987	0.9935	-0.75	-6.31612903226	-8.79310344828	-12.5862068966
1988	0.994	0.7	-3.41935483871	11.5310344828	-13.9982758621
1989	0.9945	0.7	-6.31612903226	18.7896551724	-11.174137931
1990	0.995	3.6	-7.76451612903	1.36896551724	-5.52586206897
1991	0.9955	5.05	-1.97096774194	1.36896551724	-6.93793103448
