	Time	Channel 1	Channel 2	Channel 3	Channel 4
0	0.0	220.975311873	-1.39102167183	-0.662406015038	0.297267759563
1	0.0005	211.14777109	1.42507739938	3.56466165414	-5.33333333333
2	0.001	226.591049463	2.83312693498	-7.70751879699	0.297267759563
3	0.0015	267.305146995	0.0170278637771	-3.48045112782	0.297267759563
4	0.002	270.11301579	-1.39102167183	2.15563909774	3.11256830601
5	0.0025	272.920884585	0.0170278637771	0.746616541353	0.297267759563
6	0.003	288.364162959	1.42507739938	-0.662406015038	1.70491803279
7	0.0035	295.383834947	-1.39102167183	4.97368421053	1.70491803279
8	0.004	299.59563814	0.0170278637771	-0.662406015038	-8.14863387978
9	0.0045	286.960228561	-1.39102167183	-0.662406015038	-1.11038251366
10	0.005	289.768097357	1.42507739938	-0.662406015038	-3.92568306011
11	0.0055	261.689409404	-1.39102167183	3.56466165414	-2.51803278689
12	0.006	250.457934223	-9.83931888545	0.746616541353	-3.92568306011
13	0.0065	242.034327837	16.913622291	-0.662406015038	-5.33333333333
14	0.007	236.418590247	-1.39102167183	-0.662406015038	-5.33333333333
15	0.0075	235.014655849	0.0170278637771	-2.07142857143	-5.33333333333
16	0.008	277.132687778	0.0170278637771	-0.662406015038	-3.92568306011
17	0.0085	278.536622176	-4.20712074303	-0.662406015038	12.9661202186
18	0.009	279.940556573	-4.20712074303	3.56466165414	-6.74098360656
19	0.0095	300.999572538	1.42507739938	2.15563909774	-2.51803278689
20	0.01	315.038916514	1.42507739938	-2.07142857143	-5.33333333333
21	0.0105	343.117604467	-12.6554179567	-0.662406015038	0.297267759563
22	0.011	359.964817238	1.42507739938	0.746616541353	1.70491803279
23	0.0115	326.270391695	1.42507739938	0.746616541353	0.297267759563
24	0.012	319.250719707	1.42507739938	0.746616541353	-1.11038251366
25	0.0125	336.097932478	2.83312693498	16.2458646617	-2.51803278689
26	0.013	341.713670069	4.24117647059	-0.662406015038	3.11256830601
27	0.0135	327.674326093	-8.43126934985	0.746616541353	0.297267759563
28	0.014	309.423178923	18.3216718266	0.746616541353	4.52021857923
29	0.0145	256.073671814	2.83312693498	0.746616541353	1.70491803279
30	0.015	233.610721452	2.83312693498	0.746616541353	-8.14863387978
31	0.0155	233.610721452	2.83312693498	-2.07142857143	-6.74098360656
32	0.016	225.187115066	1.42507739938	-11.9345864662	0.297267759563
33	0.0165	229.398918259	2.83312693498	13.4278195489	-1.11038251366
34	0.017	230.802852656	0.0170278637771	-0.662406015038	1.70491803279
35	0.0175	205.532033499	11.2814241486	-0.662406015038	4.52021857923
36	0.018	191.492689523	-1.39102167183	0.746616541353	4.52021857923
37	0.0185	209.743836692	-1.39102167183	0.746616541353	-1.11038251366
38	0.019	197.108427113	-1.39102167183	0.746616541353	-1.11038251366
39	0.0195	194.300558318	-1.39102167183	2.15563909774	3.11256830601
40	0.02	191.492689523	0.0170278637771	-0.662406015038	18.5967213115
41	0.0205	209.743836692	0.0170278637771	0.746616541353	7.33551912568
42	0.021	202.724164704	-5.61517027864	-0.662406015038	4.52021857923
43	0.0215	197.108427113	15.5055727554	2.15563909774	4.52021857923
44	0.022	197.108427113	-1.39102167183	-0.662406015038	4.52021857923
45	0.0225	212.551705487	-2.79907120743	3.56466165414	-6.74098360656
46	0.023	220.975311873	0.0170278637771	-0.662406015038	0.297267759563
47	0.0235	202.724164704	-1.39102167183	-0.662406015038	20.0043715847
48	0.024	198.512361511	-2.79907120743	0.746616541353	4.52021857923
49	0.0245	212.551705487	-9.83931888545	-0.662406015038	1.70491803279
50	0.025	239.226459042	16.913622291	-0.662406015038	3.11256830601
51	0.0255	242.034327837	-2.79907120743	0.746616541353	0.297267759563
52	0.026	268.709081392	-1.39102167183	-0.662406015038	-5.33333333333
53	0.0265	272.920884585	0.0170278637771	-2.07142857143	0.297267759563
54	0.027	319.250719707	0.0170278637771	-6.2984962406	-2.51803278689
55	0.0275	362.772686033	1.42507739938	2.15563909774	7.33551912568
56	0.028	365.580554829	-11.2473684211	0.746616541353	0.297267759563
57	0.0285	343.117604467	15.5055727554	-0.662406015038	0.297267759563
58	0.029	315.038916514	0.0170278637771	0.746616541353	1.70491803279
59	0.0295	316.442850912	2.83312693498	-0.662406015038	-1.11038251366
60	0.03	348.733342057	0.0170278637771	-0.662406015038	3.11256830601
61	0.0305	372.600226817	1.42507739938	-0.662406015038	5.92786885246
62	0.031	372.600226817	1.42507739938	7.79172932331	1.70491803279
63	0.0315	352.94514525	-2.79907120743	-0.662406015038	3.11256830601
64	0.032	344.521538864	5.64922600619	0.746616541353	4.52021857923
65	0.0325	358.56088284	-2.79907120743	-0.662406015038	5.92786885246
66	0.033	362.772686033	0.0170278637771	-0.662406015038	5.92786885246
67	0.0335	359.964817238	-1.39102167183	-0.662406015038	4.52021857923
68	0.034	315.038916514	-4.20712074303	-2.07142857143	-2.51803278689
69	0.0345	281.344490971	-1.39102167183	-6.2984962406	5.92786885246
70	0.035	282.748425369	-1.39102167183	-7.70751879699	8.74316939891
71	0.0355	308.019244526	1.42507739938	9.2007518797	7.33551912568
72	0.036	312.231047719	-5.61517027864	0.746616541353	5.92786885246
73	0.0365	322.058588502	0.0170278637771	-0.662406015038	5.92786885246
74	0.037	320.654654105	-4.20712074303	0.746616541353	5.92786885246
75	0.0375	324.866457297	-1.39102167183	0.746616541353	1.70491803279
76	0.038	351.541210852	0.0170278637771	0.746616541353	0.297267759563
77	0.0385	359.964817238	0.0170278637771	14.8368421053	4.52021857923
78	0.039	364.176620431	-1.39102167183	2.15563909774	7.33551912568
79	0.0395	376.81203001	-2.79907120743	-4.88947368421	5.92786885246
80	0.04	355.753014045	-4.20712074303	0.746616541353	4.52021857923
81	0.0405	345.925473262	-2.79907120743	-0.662406015038	4.52021857923
82	0.041	357.156948443	-1.39102167183	-0.662406015038	7.33551912568
83	0.0415	372.600226817	-1.39102167183	2.15563909774	17.1890710383
84	0.042	375.408095612	-4.20712074303	-0.662406015038	21.4120218579
85	0.0425	364.176620431	-1.39102167183	14.8368421053	5.92786885246
86	0.043	374.004161214	-4.20712074303	-0.662406015038	5.92786885246
87	0.0435	399.274980372	9.873374613	0.746616541353	8.74316939891
88	0.044	400.678914769	-2.79907120743	-0.662406015038	8.74316939891
89	0.0445	420.333996336	-1.39102167183	2.15563909774	5.92786885246
90	0.045	475.087437843	-1.39102167183	0.746616541353	-1.11038251366
91	0.0455	468.067765855	-4.20712074303	-0.662406015038	10.1508196721
92	0.046	461.048093867	-4.20712074303	2.15563909774	-1.11038251366
93	0.0465	447.008749891	-1.39102167183	0.746616541353	5.92786885246
94	0.047	454.028421879	-9.83931888545	0.746616541353	5.92786885246
95	0.0475	463.855962662	-8.43126934985	0.746616541353	8.74316939891
96	0.048	445.604815493	-2.79907120743	-0.662406015038	7.33551912568
97	0.0485	438.585143505	0.0170278637771	-0.662406015038	5.92786885246
98	0.049	456.836290674	-1.39102167183	-2.07142857143	0.297267759563
99	0.0495	452.624487481	0.0170278637771	-2.07142857143	24.2273224044
100	0.05	458.240225072	-4.20712074303	12.0187969925	5.92786885246
101	0.0505	437.181209108	-8.43126934985	-0.662406015038	5.92786885246
102	0.051	406.29465236	-9.83931888545	-2.07142857143	7.33551912568
103	0.0515	420.333996336	-2.79907120743	-0.662406015038	5.92786885246
104	0.052	444.200881096	-1.39102167183	-0.662406015038	7.33551912568
105	0.0525	463.855962662	0.0170278637771	0.746616541353	-3.92568306011
106	0.053	459.64415947	-1.39102167183	-6.2984962406	5.92786885246
107	0.0535	473.683503446	1.42507739938	17.654887218	7.33551912568
108	0.054	489.12678182	-1.39102167183	-0.662406015038	11.5584699454
109	0.0545	493.338585013	-9.83931888545	2.15563909774	10.1508196721
110	0.055	498.954322603	-1.39102167183	0.746616541353	15.781420765
111	0.0555	477.895306639	0.0170278637771	0.746616541353	11.5584699454
112	0.056	487.722847422	2.83312693498	2.15563909774	7.33551912568
113	0.0565	505.973994591	0.0170278637771	-10.5255639098	11.5584699454
114	0.057	510.185797784	-1.39102167183	3.56466165414	22.8196721311
115	0.0575	525.629076158	-1.39102167183	-13.3436090226	14.3737704918
116	0.058	556.515632906	14.0975232198	-0.662406015038	12.9661202186
117	0.0585	560.727436099	-1.39102167183	0.746616541353	15.781420765
118	0.059	524.22514176	-1.39102167183	0.746616541353	14.3737704918
119	0.0595	514.397600977	0.0170278637771	-0.662406015038	15.781420765
120	0.06	510.185797784	0.0170278637771	2.15563909774	15.781420765
121	0.0605	552.303829713	0.0170278637771	2.15563909774	8.74316939891
122	0.061	564.939239292	-1.39102167183	-6.2984962406	15.781420765
123	0.0615	560.727436099	-1.39102167183	2.15563909774	18.5967213115
124	0.062	564.939239292	8.4653250774	-0.662406015038	15.781420765
125	0.0625	571.95891128	-8.43126934985	2.15563909774	15.781420765
126	0.063	564.939239292	1.42507739938	0.746616541353	17.1890710383
127	0.0635	543.880223327	1.42507739938	-2.07142857143	7.33551912568
128	0.064	536.860551339	-1.39102167183	0.746616541353	1.70491803279
129	0.0645	543.880223327	-1.39102167183	4.97368421053	28.450273224
130	0.065	535.456616941	-9.83931888545	0.746616541353	8.74316939891
131	0.0655	514.397600977	11.2814241486	2.15563909774	10.1508196721
132	0.066	511.589732182	1.42507739938	0.746616541353	7.33551912568
133	0.0665	512.993666579	-1.39102167183	0.746616541353	7.33551912568
134	0.067	465.25989706	1.42507739938	3.56466165414	1.70491803279
135	0.0675	424.545799529	0.0170278637771	2.15563909774	7.33551912568
136	0.068	396.467111576	0.0170278637771	-3.48045112782	5.92786885246
137	0.0685	399.274980372	-8.43126934985	0.746616541353	4.52021857923
138	0.069	399.274980372	-4.20712074303	-0.662406015038	5.92786885246
139	0.0695	393.659242781	-2.79907120743	-0.662406015038	10.1508196721
140	0.07	390.851373986	-1.39102167183	2.15563909774	18.5967213115
141	0.0705	400.678914769	0.0170278637771	6.38270676692	3.11256830601
142	0.071	411.91038995	0.0170278637771	-10.5255639098	4.52021857923
143	0.0715	381.023833202	2.83312693498	-4.88947368421	4.52021857923
144	0.072	354.349079648	1.42507739938	-2.07142857143	1.70491803279
145	0.0725	355.753014045	-11.2473684211	0.746616541353	0.297267759563
146	0.073	350.137276455	15.5055727554	0.746616541353	1.70491803279
147	0.0735	333.290063683	-1.39102167183	3.56466165414	-9.55628415301
148	0.074	352.94514525	0.0170278637771	-0.662406015038	-1.11038251366
149	0.0745	368.388423624	1.42507739938	0.746616541353	1.70491803279
150	0.075	386.639570793	-2.79907120743	-4.88947368421	-2.51803278689
151	0.0755	386.639570793	1.42507739938	-6.2984962406	-2.51803278689
152	0.076	388.043505191	-11.2473684211	-0.662406015038	0.297267759563
153	0.0765	383.831701998	0.0170278637771	0.746616541353	1.70491803279
154	0.077	368.388423624	1.42507739938	0.746616541353	0.297267759563
155	0.0775	347.329407659	0.0170278637771	-0.662406015038	-5.33333333333
156	0.078	334.693998081	1.42507739938	-3.48045112782	1.70491803279
157	0.0785	323.4625229	1.42507739938	14.8368421053	1.70491803279
158	0.079	309.423178923	1.42507739938	-0.662406015038	3.11256830601
159	0.0795	292.575966152	-9.83931888545	3.56466165414	1.70491803279
160	0.08	284.152359766	0.0170278637771	-2.07142857143	4.52021857923
161	0.0805	258.881540609	0.0170278637771	-0.662406015038	1.70491803279
162	0.081	237.822524645	1.42507739938	0.746616541353	0.297267759563
163	0.0815	229.398918259	0.0170278637771	-2.07142857143	-8.14863387978
164	0.082	212.551705487	-4.20712074303	2.15563909774	18.5967213115
165	0.0825	205.532033499	-2.79907120743	19.0639097744	-1.11038251366
166	0.083	199.916295909	15.5055727554	-0.662406015038	0.297267759563
167	0.0835	187.28088633	16.913622291	-2.07142857143	0.297267759563
168	0.084	174.645476751	-12.6554179567	0.746616541353	0.297267759563
169	0.0845	177.453345547	-4.20712074303	-0.662406015038	15.781420765
170	0.085	181.665148739	0.0170278637771	4.97368421053	12.9661202186
171	0.0855	187.28088633	0.0170278637771	16.2458646617	0.297267759563
172	0.086	198.512361511	0.0170278637771	-4.88947368421	3.11256830601
173	0.0865	206.935967897	2.83312693498	2.15563909774	1.70491803279
174	0.087	204.128099101	-9.83931888545	0.746616541353	-1.11038251366
175	0.0875	191.492689523	1.42507739938	2.15563909774	1.70491803279
176	0.088	206.935967897	0.0170278637771	0.746616541353	-10.9639344262
177	0.0885	215.359574282	1.42507739938	-0.662406015038	-10.9639344262
178	0.089	206.935967897	0.0170278637771	-6.2984962406	1.70491803279
179	0.0895	208.339902294	-1.39102167183	14.8368421053	0.297267759563
180	0.09	194.300558318	-4.20712074303	-2.07142857143	0.297267759563
181	0.0905	194.300558318	7.0572755418	0.746616541353	-1.11038251366
182	0.091	195.704492716	-11.2473684211	-0.662406015038	0.297267759563
183	0.0915	230.802852656	-1.39102167183	-0.662406015038	-2.51803278689
184	0.092	208.339902294	0.0170278637771	2.15563909774	-5.33333333333
185	0.0925	188.684820728	1.42507739938	0.746616541353	-13.7792349727
186	0.093	167.625804763	1.42507739938	-3.48045112782	-5.33333333333
187	0.0935	174.645476751	1.42507739938	-3.48045112782	-5.33333333333
188	0.094	170.433673558	-8.43126934985	-0.662406015038	-3.92568306011
189	0.0945	171.837607956	0.0170278637771	-0.662406015038	-5.33333333333
190	0.095	174.645476751	-1.39102167183	3.56466165414	-5.33333333333
191	0.0955	128.31564163	0.0170278637771	2.15563909774	-5.33333333333
192	0.096	112.872363256	-1.39102167183	-3.48045112782	-16.5945355191
193	0.0965	124.103838437	1.42507739938	-4.88947368421	-6.74098360656
194	0.097	133.93137922	-1.39102167183	0.746616541353	-9.55628415301
195	0.0975	117.084166449	-8.43126934985	2.15563909774	-8.14863387978
196	0.098	103.044822472	0.0170278637771	2.15563909774	-8.14863387978
197	0.0985	104.44875687	0.0170278637771	-0.662406015038	-8.14863387978
198	0.099	59.5228561459	0.0170278637771	-0.662406015038	5.92786885246
199	0.0995	72.1582657245	1.42507739938	2.15563909774	-18.0021857923
200	0.1	74.9661345198	-5.61517027864	-6.2984962406	-8.14863387978
201	0.1005	48.2913809648	0.0170278637771	0.746616541353	-9.55628415301
202	0.101	39.8677745791	9.873374613	3.56466165414	-8.14863387978
203	0.1015	32.8481025909	-8.43126934985	2.15563909774	-10.9639344262
204	0.102	42.6756433743	-5.61517027864	0.746616541353	-5.33333333333
205	0.1025	-6.46206054262	-2.79907120743	2.15563909774	7.33551912568
206	0.103	-24.7132077118	-4.20712074303	6.38270676692	-13.7792349727
207	0.1035	-20.5014045189	-2.79907120743	-7.70751879699	-10.9639344262
208	0.104	0.55761144552	-1.39102167183	19.0639097744	-6.74098360656
209	0.1045	10.3851522289	-7.02321981424	0.746616541353	-3.92568306011
210	0.105	13.1930210242	0.0170278637771	2.15563909774	-3.92568306011
211	0.1055	-19.0974701213	0.0170278637771	0.746616541353	-2.51803278689
212	0.106	-31.7328796999	-1.39102167183	4.97368421053	-12.3715846995
213	0.1065	-41.5604204833	0.0170278637771	4.97368421053	-9.55628415301
214	0.107	-54.1958300619	0.0170278637771	-7.70751879699	-1.11038251366
215	0.1075	-54.1958300619	-1.39102167183	19.0639097744	-8.14863387978
216	0.108	-38.752551688	-4.20712074303	0.746616541353	-2.51803278689
217	0.1085	-24.7132077118	14.0975232198	0.746616541353	-3.92568306011
218	0.109	-71.0430428335	0.0170278637771	0.746616541353	-10.9639344262
219	0.1095	-51.3879612667	1.42507739938	0.746616541353	-8.14863387978
220	0.11	-38.752551688	0.0170278637771	0.746616541353	10.1508196721
221	0.1105	-26.1171421094	2.83312693498	19.0639097744	-5.33333333333
222	0.111	-26.1171421094	-1.39102167183	-0.662406015038	-3.92568306011
223	0.1115	-27.521076507	-2.79907120743	-6.2984962406	-6.74098360656
224	0.112	-30.3289453023	1.42507739938	2.15563909774	-6.74098360656
225	0.1125	-33.1368140975	1.42507739938	2.15563909774	-6.74098360656
226	0.113	-23.3092733141	1.42507739938	-0.662406015038	-9.55628415301
227	0.1135	-51.3879612667	0.0170278637771	-2.07142857143	8.74316939891
228	0.114	-49.9840268691	1.42507739938	-2.07142857143	1.70491803279
229	0.1145	-51.3879612667	0.0170278637771	0.746616541353	-3.92568306011
230	0.115	-66.8312396406	-7.02321981424	-0.662406015038	-5.33333333333
231	0.1155	-92.1020587979	2.83312693498	-0.662406015038	-5.33333333333
232	0.116	-122.988615546	-1.39102167183	-0.662406015038	-5.33333333333
233	0.1165	-120.18074675	1.42507739938	0.746616541353	-3.92568306011
234	0.117	-149.663369101	0.0170278637771	3.56466165414	-13.7792349727
235	0.1175	-158.086975486	0.0170278637771	0.746616541353	-6.74098360656
236	0.118	-160.894844282	0.0170278637771	19.0639097744	-3.92568306011
237	0.1185	-138.43189392	-2.79907120743	0.746616541353	-5.33333333333
238	0.119	-128.604353136	-8.43126934985	0.746616541353	-3.92568306011
239	0.1195	-115.968943558	18.3216718266	0.746616541353	-3.92568306011
240	0.12	-107.545337172	-1.39102167183	2.15563909774	-5.33333333333
241	0.1205	-73.8509116287	0.0170278637771	0.746616541353	-15.1868852459
242	0.121	-86.4863212074	0.0170278637771	-7.70751879699	-5.33333333333
243	0.1215	-78.0627148216	1.42507739938	20.4729323308	-6.74098360656
244	0.122	-51.3879612667	-2.79907120743	3.56466165414	-6.74098360656
245	0.1225	-54.1958300619	-15.4715170279	2.15563909774	-2.51803278689
246	0.123	-65.427305243	16.913622291	0.746616541353	-2.51803278689
247	0.1235	-75.2548460263	-1.39102167183	-0.662406015038	-1.11038251366
248	0.124	-34.5407484952	0.0170278637771	0.746616541353	0.297267759563
249	0.1245	-59.8115676524	0.0170278637771	4.97368421053	-8.14863387978
250	0.125	-48.5800924714	-1.39102167183	-2.07142857143	-12.3715846995
251	0.1255	-48.5800924714	1.42507739938	-0.662406015038	-3.92568306011
252	0.126	-44.3682892785	-5.61517027864	0.746616541353	-1.11038251366
253	0.1265	-30.3289453023	-5.61517027864	2.15563909774	-2.51803278689
254	0.127	-0.846322952107	21.1377708978	0.746616541353	-1.11038251366
255	0.1275	49.6953153625	1.42507739938	0.746616541353	-1.11038251366
256	0.128	45.4835121696	-1.39102167183	-0.662406015038	10.1508196721
257	0.1285	52.5031841577	2.83312693498	-3.48045112782	10.1508196721
258	0.129	42.6756433743	2.83312693498	2.15563909774	-8.14863387978
259	0.1295	48.2913809648	4.24117647059	7.79172932331	-1.11038251366
260	0.13	45.4835121696	1.42507739938	2.15563909774	0.297267759563
261	0.1305	46.8874465672	5.64922600619	2.15563909774	0.297267759563
262	0.131	74.9661345198	0.0170278637771	-0.662406015038	-1.11038251366
263	0.1315	58.1189217482	2.83312693498	2.15563909774	-2.51803278689
264	0.132	34.2520369886	-1.39102167183	4.97368421053	-2.51803278689
265	0.1325	18.8087586147	-2.79907120743	0.746616541353	-1.11038251366
266	0.133	31.4441681933	11.2814241486	0.746616541353	0.297267759563
267	0.1335	37.0599057838	-4.20712074303	-0.662406015038	-1.11038251366
268	0.134	39.8677745791	1.42507739938	-0.662406015038	-1.11038251366
269	0.1345	42.6756433743	1.42507739938	0.746616541353	0.297267759563
270	0.135	48.2913809648	0.0170278637771	2.15563909774	-2.51803278689
271	0.1355	55.311052953	-2.79907120743	16.2458646617	-2.51803278689
272	0.136	62.3307249411	-4.20712074303	-3.48045112782	-1.11038251366
273	0.1365	84.7936753031	2.83312693498	-0.662406015038	-1.11038251366
274	0.137	96.0251504842	14.0975232198	0.746616541353	-2.51803278689
275	0.1375	115.680232051	1.42507739938	2.15563909774	1.70491803279
276	0.138	135.335313618	0.0170278637771	2.15563909774	3.11256830601
277	0.1385	105.852691268	0.0170278637771	2.15563909774	1.70491803279
278	0.139	117.084166449	1.42507739938	-7.70751879699	-5.33333333333
279	0.1395	119.892035244	2.83312693498	-7.70751879699	1.70491803279
280	0.14	124.103838437	0.0170278637771	-0.662406015038	-1.11038251366
281	0.1405	138.143182413	-5.61517027864	2.15563909774	1.70491803279
282	0.141	153.586460787	0.0170278637771	-0.662406015038	1.70491803279
283	0.1415	171.837607956	1.42507739938	-0.662406015038	-2.51803278689
284	0.142	140.951051208	1.42507739938	0.746616541353	-2.51803278689
285	0.1425	131.123510425	2.83312693498	-6.2984962406	0.297267759563
286	0.143	129.719576027	1.42507739938	14.8368421053	-1.11038251366
287	0.1435	133.93137922	-11.2473684211	0.746616541353	1.70491803279
288	0.144	122.699904039	16.913622291	4.97368421053	3.11256830601
289	0.1445	136.739248015	1.42507739938	4.97368421053	4.52021857923
290	0.145	178.857279944	0.0170278637771	0.746616541353	1.70491803279
291	0.1455	160.606132775	1.42507739938	2.15563909774	5.92786885246
292	0.146	142.354985606	1.42507739938	4.97368421053	-1.11038251366
293	0.1465	138.143182413	-1.39102167183	17.654887218	5.92786885246
294	0.147	139.547116811	-11.2473684211	3.56466165414	3.11256830601
295	0.1475	140.951051208	7.0572755418	0.746616541353	5.92786885246
296	0.148	118.488100846	-5.61517027864	0.746616541353	5.92786885246
297	0.1485	79.1779377126	-5.61517027864	2.15563909774	4.52021857923
298	0.149	86.1976097008	-2.79907120743	0.746616541353	4.52021857923
299	0.1495	86.1976097008	-4.20712074303	3.56466165414	8.74316939891
300	0.15	105.852691268	-1.39102167183	-0.662406015038	0.297267759563
301	0.1505	90.4094128937	2.83312693498	-3.48045112782	8.74316939891
302	0.151	74.9661345198	-1.39102167183	-0.662406015038	7.33551912568
303	0.1515	89.005478496	11.2814241486	3.56466165414	8.74316939891
304	0.152	94.6212160865	-4.20712074303	-0.662406015038	7.33551912568
305	0.1525	126.911707232	-1.39102167183	4.97368421053	10.1508196721
306	0.153	117.084166449	-4.20712074303	3.56466165414	1.70491803279
307	0.1535	139.547116811	-4.20712074303	-3.48045112782	0.297267759563
308	0.154	167.625804763	-1.39102167183	-7.70751879699	5.92786885246
309	0.1545	184.473017535	0.0170278637771	0.746616541353	5.92786885246
310	0.155	180.261214342	-7.02321981424	2.15563909774	7.33551912568
311	0.1555	170.433673558	14.0975232198	2.15563909774	5.92786885246
312	0.156	187.28088633	1.42507739938	0.746616541353	4.52021857923
313	0.1565	169.029739161	-4.20712074303	3.56466165414	5.92786885246
314	0.157	173.241542354	1.42507739938	0.746616541353	-2.51803278689
315	0.1575	145.162854401	0.0170278637771	-2.07142857143	3.11256830601
316	0.158	149.374657594	0.0170278637771	2.15563909774	1.70491803279
317	0.1585	171.837607956	1.42507739938	-0.662406015038	1.70491803279
318	0.159	164.817935968	1.42507739938	-0.662406015038	1.70491803279
319	0.1595	199.916295909	-1.39102167183	0.746616541353	0.297267759563
320	0.16	191.492689523	1.42507739938	0.746616541353	3.11256830601
321	0.1605	202.724164704	-2.79907120743	-0.662406015038	-2.51803278689
322	0.161	208.339902294	1.42507739938	14.8368421053	0.297267759563
323	0.1615	216.76350868	1.42507739938	2.15563909774	0.297267759563
324	0.162	218.167443078	-1.39102167183	0.746616541353	-1.11038251366
325	0.1625	202.724164704	1.42507739938	3.56466165414	0.297267759563
326	0.163	195.704492716	1.42507739938	3.56466165414	1.70491803279
327	0.1635	184.473017535	-1.39102167183	2.15563909774	-5.33333333333
328	0.164	164.817935968	-1.39102167183	2.15563909774	-5.33333333333
329	0.1645	149.374657594	1.42507739938	-0.662406015038	1.70491803279
330	0.165	133.93137922	-4.20712074303	0.746616541353	0.297267759563
331	0.1655	114.276297653	-4.20712074303	-0.662406015038	5.92786885246
332	0.166	108.660560063	-8.43126934985	0.746616541353	4.52021857923
333	0.1665	118.488100846	-1.39102167183	-0.662406015038	1.70491803279
334	0.167	133.93137922	0.0170278637771	0.746616541353	5.92786885246
335	0.1675	101.640888075	1.42507739938	0.746616541353	10.1508196721
336	0.168	122.699904039	-1.39102167183	-10.5255639098	0.297267759563
337	0.1685	122.699904039	1.42507739938	-7.70751879699	1.70491803279
338	0.169	122.699904039	16.913622291	3.56466165414	5.92786885246
339	0.1695	157.79826398	-1.39102167183	0.746616541353	7.33551912568
340	0.17	185.876951932	-1.39102167183	-0.662406015038	5.92786885246
341	0.1705	205.532033499	-2.79907120743	3.56466165414	8.74316939891
342	0.171	219.571377475	-5.61517027864	2.15563909774	8.74316939891
343	0.1715	237.822524645	-4.20712074303	4.97368421053	8.74316939891
344	0.172	247.650065428	-4.20712074303	3.56466165414	5.92786885246
345	0.1725	271.516950188	-14.0634674923	2.15563909774	5.92786885246
346	0.173	264.497278199	-2.79907120743	-0.662406015038	4.52021857923
347	0.1735	257.477606211	-2.79907120743	2.15563909774	5.92786885246
348	0.174	257.477606211	0.0170278637771	2.15563909774	4.52021857923
349	0.1745	284.152359766	-1.39102167183	2.15563909774	14.3737704918
350	0.175	331.886129286	-4.20712074303	2.15563909774	-2.51803278689
351	0.1755	319.250719707	-2.79907120743	-4.88947368421	4.52021857923
352	0.176	319.250719707	-1.39102167183	0.746616541353	0.297267759563
353	0.1765	338.905801274	15.5055727554	-0.662406015038	0.297267759563
354	0.177	351.541210852	-9.83931888545	2.15563909774	0.297267759563
355	0.1775	396.467111576	-4.20712074303	2.15563909774	3.11256830601
356	0.178	393.659242781	-1.39102167183	2.15563909774	4.52021857923
357	0.1785	399.274980372	0.0170278637771	4.97368421053	5.92786885246
358	0.179	396.467111576	-2.79907120743	6.38270676692	-2.51803278689
359	0.1795	409.102521155	1.42507739938	12.0187969925	0.297267759563
360	0.18	416.122193143	4.24117647059	0.746616541353	0.297267759563
361	0.1805	421.737930734	-2.79907120743	0.746616541353	4.52021857923
362	0.181	424.545799529	2.83312693498	0.746616541353	0.297267759563
363	0.1815	442.796946698	1.42507739938	0.746616541353	-1.11038251366
364	0.182	425.949733927	0.0170278637771	-4.88947368421	1.70491803279
365	0.1825	404.890717962	0.0170278637771	19.0639097744	0.297267759563
366	0.183	421.737930734	0.0170278637771	17.654887218	0.297267759563
367	0.1835	425.949733927	18.3216718266	0.746616541353	1.70491803279
368	0.184	417.526127541	-1.39102167183	0.746616541353	1.70491803279
369	0.1845	399.274980372	1.42507739938	0.746616541353	1.70491803279
370	0.185	416.122193143	-1.39102167183	0.746616541353	-6.74098360656
371	0.1855	434.373340312	-1.39102167183	-6.2984962406	0.297267759563
372	0.186	458.240225072	0.0170278637771	14.8368421053	-1.11038251366
373	0.1865	483.511044229	-1.39102167183	2.15563909774	3.11256830601
374	0.187	512.993666579	-9.83931888545	2.15563909774	0.297267759563
375	0.1875	534.052682544	1.42507739938	3.56466165414	0.297267759563
376	0.188	545.284157725	-1.39102167183	0.746616541353	-3.92568306011
377	0.1885	584.594320858	-2.79907120743	0.746616541353	-6.74098360656
378	0.189	567.747108087	0.0170278637771	-6.2984962406	-6.74098360656
379	0.1895	570.554976882	0.0170278637771	4.97368421053	4.52021857923
380	0.19	542.47628893	-2.79907120743	17.654887218	-8.14863387978
381	0.1905	543.880223327	16.913622291	0.746616541353	-6.74098360656
382	0.191	562.131370496	-1.39102167183	4.97368421053	-5.33333333333
383	0.1915	552.303829713	0.0170278637771	3.56466165414	-9.55628415301
384	0.192	536.860551339	-2.79907120743	2.15563909774	-6.74098360656
385	0.1925	487.722847422	-1.39102167183	4.97368421053	-6.74098360656
386	0.193	496.146453808	-1.39102167183	7.79172932331	-8.14863387978
387	0.1935	518.60940417	-2.79907120743	-3.48045112782	-2.51803278689
388	0.194	538.264485737	11.2814241486	2.15563909774	-8.14863387978
389	0.1945	559.323501701	-4.20712074303	3.56466165414	-6.74098360656
390	0.195	595.825796039	-2.79907120743	-2.07142857143	-5.33333333333
391	0.1955	591.613992847	-4.20712074303	4.97368421053	-3.92568306011
392	0.196	590.210058449	-4.20712074303	4.97368421053	-10.9639344262
393	0.1965	578.978583268	-1.39102167183	-6.2984962406	-8.14863387978
394	0.197	569.151042485	0.0170278637771	19.0639097744	-9.55628415301
395	0.1975	566.343173689	-4.20712074303	0.746616541353	-5.33333333333
396	0.198	548.09202652	-2.79907120743	0.746616541353	-5.33333333333
397	0.1985	500.358257001	1.42507739938	0.746616541353	-10.9639344262
398	0.199	501.762191398	1.42507739938	3.56466165414	-19.4098360656
399	0.1995	500.358257001	0.0170278637771	-0.662406015038	-5.33333333333
400	0.2	521.417272965	1.42507739938	19.0639097744	-8.14863387978
401	0.2005	491.934650615	0.0170278637771	-9.11654135338	-10.9639344262
402	0.201	454.028421879	0.0170278637771	0.746616541353	-13.7792349727
403	0.2015	441.3930123	16.913622291	-0.662406015038	-10.9639344262
404	0.202	432.969405915	-5.61517027864	-0.662406015038	-10.9639344262
405	0.2025	438.585143505	1.42507739938	3.56466165414	-9.55628415301
406	0.203	458.240225072	1.42507739938	2.15563909774	-16.5945355191
407	0.2035	470.875634651	0.0170278637771	0.746616541353	5.92786885246
408	0.204	486.318913025	0.0170278637771	13.4278195489	-9.55628415301
409	0.2045	496.146453808	-2.79907120743	-4.88947368421	-8.14863387978
410	0.205	518.60940417	1.42507739938	-0.662406015038	-9.55628415301
411	0.2055	522.821207363	-8.43126934985	0.746616541353	-9.55628415301
412	0.206	545.284157725	-1.39102167183	-0.662406015038	-8.14863387978
413	0.2065	512.993666579	2.83312693498	3.56466165414	-6.74098360656
414	0.207	503.166125796	1.42507739938	-3.48045112782	-15.1868852459
415	0.2075	504.570060194	-1.39102167183	-7.70751879699	-13.7792349727
416	0.208	531.244813749	0.0170278637771	2.15563909774	-6.74098360656
417	0.2085	538.264485737	0.0170278637771	-0.662406015038	-8.14863387978
418	0.209	536.860551339	-5.61517027864	3.56466165414	-8.14863387978
419	0.2095	536.860551339	-7.02321981424	0.746616541353	-10.9639344262
420	0.21	542.47628893	0.0170278637771	2.15563909774	-8.14863387978
421	0.2105	550.899895315	1.42507739938	4.97368421053	-18.0021857923
422	0.211	545.284157725	0.0170278637771	4.97368421053	-10.9639344262
423	0.2115	531.244813749	-2.79907120743	-0.662406015038	-9.55628415301
424	0.212	518.60940417	2.83312693498	2.15563909774	-9.55628415301
425	0.2125	507.377928989	-4.20712074303	3.56466165414	-10.9639344262
426	0.213	496.146453808	2.83312693498	2.15563909774	-9.55628415301
427	0.2135	469.471700253	0.0170278637771	0.746616541353	-6.74098360656
428	0.214	463.855962662	1.42507739938	4.97368421053	-12.3715846995
429	0.2145	449.816618686	0.0170278637771	2.15563909774	-15.1868852459
430	0.215	432.969405915	0.0170278637771	-3.48045112782	-13.7792349727
431	0.2155	409.102521155	-5.61517027864	-0.662406015038	-9.55628415301
432	0.216	413.314324348	8.4653250774	-0.662406015038	-9.55628415301
433	0.2165	430.161537119	1.42507739938	0.746616541353	-6.74098360656
434	0.217	423.141865131	1.42507739938	0.746616541353	-10.9639344262
435	0.2175	416.122193143	0.0170278637771	0.746616541353	-6.74098360656
436	0.218	400.678914769	0.0170278637771	0.746616541353	-6.74098360656
437	0.2185	410.506455553	0.0170278637771	4.97368421053	-15.1868852459
438	0.219	431.565471517	1.42507739938	2.15563909774	-6.74098360656
439	0.2195	449.816618686	19.7297213622	2.15563909774	-6.74098360656
440	0.22	472.279569048	-9.83931888545	4.97368421053	-5.33333333333
441	0.2205	469.471700253	1.42507739938	4.97368421053	-6.74098360656
442	0.221	465.25989706	-1.39102167183	2.15563909774	-6.74098360656
443	0.2215	461.048093867	0.0170278637771	2.15563909774	-15.1868852459
444	0.222	454.028421879	2.83312693498	-2.07142857143	-8.14863387978
445	0.2225	437.181209108	2.83312693498	2.15563909774	-6.74098360656
446	0.223	427.353668324	-7.02321981424	-2.07142857143	-5.33333333333
447	0.2235	425.949733927	-2.79907120743	2.15563909774	-5.33333333333
448	0.224	393.659242781	-1.39102167183	2.15563909774	-8.14863387978
449	0.2245	414.718258746	0.0170278637771	-0.662406015038	-9.55628415301
450	0.225	444.200881096	2.83312693498	2.15563909774	-16.5945355191
451	0.2255	454.028421879	0.0170278637771	-6.2984962406	-12.3715846995
452	0.226	451.220553084	1.42507739938	9.2007518797	-10.9639344262
453	0.2265	452.624487481	16.913622291	-0.662406015038	-10.9639344262
454	0.227	472.279569048	0.0170278637771	3.56466165414	-9.55628415301
455	0.2275	461.048093867	0.0170278637771	2.15563909774	-13.7792349727
456	0.228	441.3930123	2.83312693498	2.15563909774	-9.55628415301
457	0.2285	430.161537119	-1.39102167183	-3.48045112782	-19.4098360656
458	0.229	432.969405915	2.83312693498	2.15563909774	-19.4098360656
459	0.2295	432.969405915	0.0170278637771	3.56466165414	-16.5945355191
460	0.23	434.373340312	1.42507739938	2.15563909774	-16.5945355191
461	0.2305	434.373340312	-1.39102167183	2.15563909774	-13.7792349727
462	0.231	434.373340312	1.42507739938	2.15563909774	-12.3715846995
463	0.2315	428.757602722	-1.39102167183	2.15563909774	1.70491803279
464	0.232	434.373340312	-2.79907120743	3.56466165414	-25.0404371585
465	0.2325	430.161537119	0.0170278637771	-6.2984962406	-15.1868852459
466	0.233	458.240225072	5.64922600619	-7.70751879699	-13.7792349727
467	0.2335	483.511044229	21.1377708978	-0.662406015038	-12.3715846995
468	0.234	463.855962662	-5.61517027864	-0.662406015038	-13.7792349727
469	0.2345	466.663831458	-5.61517027864	2.15563909774	-12.3715846995
470	0.235	463.855962662	0.0170278637771	3.56466165414	-9.55628415301
471	0.2355	514.397600977	1.42507739938	6.38270676692	-16.5945355191
472	0.236	538.264485737	-1.39102167183	2.15563909774	-12.3715846995
473	0.2365	550.899895315	2.83312693498	-3.48045112782	-18.0021857923
474	0.237	553.707764111	-5.61517027864	-3.48045112782	-9.55628415301
475	0.2375	563.535304894	1.42507739938	0.746616541353	-10.9639344262
476	0.238	567.747108087	-7.02321981424	2.15563909774	-10.9639344262
477	0.2385	590.210058449	2.83312693498	-0.662406015038	-8.14863387978
478	0.239	577.57464887	0.0170278637771	-0.662406015038	-3.92568306011
479	0.2395	607.05727122	-1.39102167183	6.38270676692	0.297267759563
480	0.24	598.633664835	0.0170278637771	-4.88947368421	-12.3715846995
481	0.2405	557.919567303	1.42507739938	-6.2984962406	-6.74098360656
482	0.241	549.495960918	-4.20712074303	2.15563909774	-9.55628415301
483	0.2415	580.382517666	-8.43126934985	0.746616541353	-6.74098360656
484	0.242	580.382517666	0.0170278637771	-0.662406015038	-9.55628415301
485	0.2425	546.688092122	1.42507739938	-0.662406015038	-5.33333333333
486	0.243	563.535304894	1.42507739938	3.56466165414	-10.9639344262
487	0.2435	585.998255256	0.0170278637771	3.56466165414	-9.55628415301
488	0.244	594.421861642	0.0170278637771	0.746616541353	10.1508196721
489	0.2445	583.190386461	-9.83931888545	2.15563909774	-9.55628415301
490	0.245	587.402189654	-7.02321981424	0.746616541353	-10.9639344262
491	0.2455	567.747108087	-1.39102167183	0.746616541353	-10.9639344262
492	0.246	553.707764111	2.83312693498	0.746616541353	-12.3715846995
493	0.2465	529.840879351	1.42507739938	2.15563909774	1.70491803279
494	0.247	531.244813749	2.83312693498	0.746616541353	-25.0404371585
495	0.2475	545.284157725	5.64922600619	-7.70751879699	-12.3715846995
496	0.248	535.456616941	7.0572755418	-0.662406015038	-15.1868852459
497	0.2485	501.762191398	-5.61517027864	0.746616541353	-16.5945355191
498	0.249	456.836290674	2.83312693498	0.746616541353	-13.7792349727
499	0.2495	431.565471517	2.83312693498	-0.662406015038	-10.9639344262
500	0.25	444.200881096	2.83312693498	2.15563909774	-19.4098360656
501	0.2505	410.506455553	1.42507739938	-0.662406015038	4.52021857923
502	0.251	402.082849167	0.0170278637771	3.56466165414	-15.1868852459
503	0.2515	400.678914769	-1.39102167183	-2.07142857143	-10.9639344262
504	0.252	386.639570793	11.2814241486	2.15563909774	-12.3715846995
505	0.2525	347.329407659	-8.43126934985	3.56466165414	-9.55628415301
506	0.253	344.521538864	-5.61517027864	0.746616541353	-10.9639344262
507	0.2535	386.639570793	-5.61517027864	-0.662406015038	-8.14863387978
508	0.254	389.447439588	-2.79907120743	0.746616541353	-19.4098360656
509	0.2545	390.851373986	-2.79907120743	-9.11654135338	-9.55628415301
510	0.255	397.871045974	0.0170278637771	3.56466165414	-6.74098360656
511	0.2555	396.467111576	0.0170278637771	4.97368421053	-15.1868852459
512	0.256	382.4277676	4.24117647059	3.56466165414	-8.14863387978
513	0.2565	393.659242781	0.0170278637771	0.746616541353	-5.33333333333
514	0.257	385.235636395	0.0170278637771	3.56466165414	-8.14863387978
515	0.2575	393.659242781	-4.20712074303	0.746616541353	-13.7792349727
516	0.258	413.314324348	1.42507739938	-9.11654135338	-5.33333333333
517	0.2585	417.526127541	1.42507739938	16.2458646617	-5.33333333333
518	0.259	388.043505191	-1.39102167183	13.4278195489	-6.74098360656
519	0.2595	366.984489226	11.2814241486	2.15563909774	0.297267759563
520	0.26	376.81203001	-4.20712074303	-0.662406015038	-1.11038251366
521	0.2605	393.659242781	1.42507739938	0.746616541353	-1.11038251366
522	0.261	400.678914769	1.42507739938	0.746616541353	3.11256830601
523	0.2615	399.274980372	0.0170278637771	0.746616541353	8.74316939891
524	0.262	393.659242781	1.42507739938	9.2007518797	0.297267759563
525	0.2625	403.486783565	0.0170278637771	-0.662406015038	3.11256830601
526	0.263	404.890717962	2.83312693498	0.746616541353	1.70491803279
527	0.2635	400.678914769	-5.61517027864	-0.662406015038	4.52021857923
528	0.264	397.871045974	-8.43126934985	0.746616541353	1.70491803279
529	0.2645	385.235636395	-1.39102167183	-2.07142857143	1.70491803279
530	0.265	375.408095612	1.42507739938	0.746616541353	-6.74098360656
531	0.2655	372.600226817	0.0170278637771	2.15563909774	-6.74098360656
532	0.266	414.718258746	0.0170278637771	-11.9345864662	-1.11038251366
533	0.2665	447.008749891	11.2814241486	-0.662406015038	-1.11038251366
534	0.267	432.969405915	-4.20712074303	0.746616541353	-2.51803278689
535	0.2675	420.333996336	-2.79907120743	-0.662406015038	-2.51803278689
536	0.268	413.314324348	0.0170278637771	0.746616541353	-3.92568306011
537	0.2685	414.718258746	-1.39102167183	3.56466165414	-8.14863387978
538	0.269	424.545799529	-2.79907120743	3.56466165414	17.1890710383
539	0.2695	444.200881096	1.42507739938	14.8368421053	0.297267759563
540	0.27	475.087437843	4.24117647059	2.15563909774	0.297267759563
541	0.2705	507.377928989	-5.61517027864	0.746616541353	1.70491803279
542	0.271	525.629076158	1.42507739938	-0.662406015038	4.52021857923
543	0.2715	527.033010556	0.0170278637771	2.15563909774	3.11256830601
544	0.272	555.111698508	0.0170278637771	3.56466165414	-2.51803278689
545	0.2725	587.402189654	-1.39102167183	-6.2984962406	12.9661202186
546	0.273	600.037599232	-2.79907120743	7.79172932331	4.52021857923
547	0.2735	584.594320858	-1.39102167183	-4.88947368421	5.92786885246
548	0.274	570.554976882	-4.20712074303	0.746616541353	1.70491803279
549	0.2745	562.131370496	-1.39102167183	3.56466165414	4.52021857923
550	0.275	562.131370496	-1.39102167183	0.746616541353	4.52021857923
551	0.2755	594.421861642	-1.39102167183	0.746616541353	-8.14863387978
552	0.276	570.554976882	-2.79907120743	-2.07142857143	12.9661202186
553	0.2765	581.786452063	-5.61517027864	3.56466165414	3.11256830601
554	0.277	576.170714473	-5.61517027864	0.746616541353	5.92786885246
555	0.2775	553.707764111	-1.39102167183	0.746616541353	3.11256830601
556	0.278	570.554976882	-5.61517027864	3.56466165414	1.70491803279
557	0.2785	594.421861642	-2.79907120743	-0.662406015038	3.11256830601
558	0.279	609.865140016	0.0170278637771	0.746616541353	5.92786885246
559	0.2795	602.845468028	-1.39102167183	3.56466165414	1.70491803279
560	0.28	597.229730437	0.0170278637771	7.79172932331	3.11256830601
561	0.2805	598.633664835	-1.39102167183	6.38270676692	3.11256830601
562	0.281	583.190386461	1.42507739938	-0.662406015038	3.11256830601
563	0.2815	543.880223327	-5.61517027864	0.746616541353	4.52021857923
564	0.282	489.12678182	2.83312693498	2.15563909774	4.52021857923
565	0.2825	459.64415947	-2.79907120743	2.15563909774	7.33551912568
566	0.283	489.12678182	-1.39102167183	2.15563909774	-2.51803278689
567	0.2835	496.146453808	-1.39102167183	-2.07142857143	18.5967213115
568	0.284	503.166125796	1.42507739938	12.0187969925	0.297267759563
569	0.2845	517.205469772	-1.39102167183	14.8368421053	3.11256830601
570	0.285	531.244813749	1.42507739938	-7.70751879699	1.70491803279
571	0.2855	552.303829713	-8.43126934985	2.15563909774	3.11256830601
572	0.286	566.343173689	1.42507739938	3.56466165414	1.70491803279
573	0.2865	559.323501701	1.42507739938	0.746616541353	5.92786885246
574	0.287	566.343173689	-4.20712074303	2.15563909774	8.74316939891
575	0.2875	563.535304894	0.0170278637771	-2.07142857143	14.3737704918
576	0.288	556.515632906	0.0170278637771	13.4278195489	0.297267759563
577	0.2885	559.323501701	0.0170278637771	-9.11654135338	1.70491803279
578	0.289	549.495960918	15.5055727554	3.56466165414	1.70491803279
579	0.2895	546.688092122	-8.43126934985	3.56466165414	1.70491803279
580	0.29	574.766780075	-1.39102167183	2.15563909774	4.52021857923
581	0.2905	570.554976882	-5.61517027864	0.746616541353	11.5584699454
582	0.291	597.229730437	-5.61517027864	12.0187969925	1.70491803279
583	0.2915	628.116287185	-4.20712074303	6.38270676692	5.92786885246
584	0.292	636.539893571	-1.39102167183	-0.662406015038	3.11256830601
585	0.2925	621.096615197	-2.79907120743	0.746616541353	3.11256830601
586	0.293	598.633664835	11.2814241486	-0.662406015038	3.11256830601
587	0.2935	625.30841839	-11.2473684211	2.15563909774	4.52021857923
588	0.294	675.850056704	-2.79907120743	2.15563909774	1.70491803279
589	0.2945	685.677597488	0.0170278637771	3.56466165414	-3.92568306011
590	0.295	699.716941464	-1.39102167183	-6.2984962406	-5.33333333333
591	0.2955	698.313007066	2.83312693498	-4.88947368421	1.70491803279
592	0.296	688.485466283	16.913622291	0.746616541353	4.52021857923
593	0.2965	694.101203873	-5.61517027864	2.15563909774	4.52021857923
594	0.297	705.332679054	0.0170278637771	3.56466165414	0.297267759563
595	0.2975	705.332679054	1.42507739938	3.56466165414	5.92786885246
596	0.298	666.022515921	1.42507739938	3.56466165414	-1.11038251366
597	0.2985	650.579237547	0.0170278637771	3.56466165414	5.92786885246
598	0.299	646.367434354	-2.79907120743	-2.07142857143	-1.11038251366
599	0.2995	663.214647126	-7.02321981424	-2.07142857143	1.70491803279
600	0.3	671.638253511	11.2814241486	0.746616541353	4.52021857923
601	0.3005	666.022515921	-5.61517027864	0.746616541353	3.11256830601
602	0.301	670.234319114	1.42507739938	0.746616541353	-3.92568306011
603	0.3015	650.579237547	-2.79907120743	0.746616541353	3.11256830601
604	0.302	649.175303149	1.42507739938	3.56466165414	18.5967213115
605	0.3025	647.771368752	0.0170278637771	20.4729323308	0.297267759563
606	0.303	651.983171945	-12.6554179567	2.15563909774	3.11256830601
607	0.3035	654.79104074	11.2814241486	2.15563909774	0.297267759563
608	0.304	635.135959173	-1.39102167183	2.15563909774	4.52021857923
609	0.3045	618.288746401	1.42507739938	0.746616541353	1.70491803279
610	0.305	615.480877606	-1.39102167183	-0.662406015038	0.297267759563
611	0.3055	604.249402425	-1.39102167183	-9.11654135338	-1.11038251366
612	0.306	591.613992847	-1.39102167183	4.97368421053	7.33551912568
613	0.3065	578.978583268	-12.6554179567	0.746616541353	1.70491803279
614	0.307	573.362845677	4.24117647059	-0.662406015038	-2.51803278689
615	0.3075	576.170714473	-4.20712074303	-0.662406015038	-2.51803278689
616	0.308	609.865140016	1.42507739938	0.746616541353	-3.92568306011
617	0.3085	619.692680799	0.0170278637771	3.56466165414	-1.11038251366
618	0.309	625.30841839	0.0170278637771	0.746616541353	-9.55628415301
619	0.3095	628.116287185	0.0170278637771	-3.48045112782	-1.11038251366
620	0.31	651.983171945	0.0170278637771	0.746616541353	-3.92568306011
621	0.3105	688.485466283	-4.20712074303	0.746616541353	-3.92568306011
622	0.311	719.372023031	-7.02321981424	3.56466165414	-5.33333333333
623	0.3115	722.179891826	0.0170278637771	4.97368421053	-2.51803278689
624	0.312	720.775957428	1.42507739938	0.746616541353	-10.9639344262
625	0.3125	747.450710983	2.83312693498	3.56466165414	-10.9639344262
626	0.313	734.815301405	1.42507739938	-6.2984962406	-5.33333333333
627	0.3135	732.007432609	2.83312693498	-6.2984962406	-5.33333333333
628	0.314	722.179891826	1.42507739938	2.15563909774	-1.11038251366
629	0.3145	705.332679054	-5.61517027864	0.746616541353	-2.51803278689
630	0.315	687.081531885	0.0170278637771	-0.662406015038	-1.11038251366
631	0.3155	673.042187909	2.83312693498	-0.662406015038	-12.3715846995
632	0.316	668.830384716	1.42507739938	2.15563909774	-5.33333333333
633	0.3165	647.771368752	2.83312693498	23.2909774436	-2.51803278689
634	0.317	636.539893571	0.0170278637771	0.746616541353	-1.11038251366
635	0.3175	611.269074413	0.0170278637771	-4.88947368421	0.297267759563
636	0.318	600.037599232	1.42507739938	0.746616541353	0.297267759563
637	0.3185	588.806124051	1.42507739938	4.97368421053	-3.92568306011
638	0.319	623.904483992	0.0170278637771	2.15563909774	-12.3715846995
639	0.3195	618.288746401	0.0170278637771	0.746616541353	-9.55628415301
640	0.32	644.963499956	-1.39102167183	-4.88947368421	-2.51803278689
641	0.3205	657.598909535	1.42507739938	0.746616541353	-5.33333333333
642	0.321	649.175303149	-4.20712074303	4.97368421053	-3.92568306011
643	0.3215	649.175303149	-4.20712074303	3.56466165414	-5.33333333333
644	0.322	642.155631161	1.42507739938	2.15563909774	-2.51803278689
645	0.3225	642.155631161	0.0170278637771	3.56466165414	-2.51803278689
646	0.323	656.194975137	1.42507739938	2.15563909774	-13.7792349727
647	0.3235	647.771368752	0.0170278637771	-10.5255639098	-8.14863387978
648	0.324	639.347762366	1.42507739938	-2.07142857143	-3.92568306011
649	0.3245	651.983171945	14.0975232198	-0.662406015038	-2.51803278689
650	0.325	647.771368752	1.42507739938	0.746616541353	-1.11038251366
651	0.3255	668.830384716	1.42507739938	0.746616541353	0.297267759563
652	0.326	677.253991102	2.83312693498	3.56466165414	1.70491803279
653	0.3265	684.27366309	1.42507739938	3.56466165414	3.11256830601
654	0.327	684.27366309	1.42507739938	9.2007518797	3.11256830601
655	0.3275	667.426450318	1.42507739938	7.79172932331	5.92786885246
656	0.328	675.850056704	-9.83931888545	-3.48045112782	4.52021857923
657	0.3285	712.352351042	-9.83931888545	2.15563909774	4.52021857923
658	0.329	710.948416645	-1.39102167183	0.746616541353	5.92786885246
659	0.3295	688.485466283	-1.39102167183	4.97368421053	0.297267759563
660	0.33	644.963499956	-2.79907120743	-6.2984962406	5.92786885246
661	0.3305	618.288746401	0.0170278637771	4.97368421053	4.52021857923
662	0.331	605.653336823	1.42507739938	16.2458646617	4.52021857923
663	0.3315	609.865140016	-4.20712074303	0.746616541353	8.74316939891
664	0.332	609.865140016	-2.79907120743	0.746616541353	5.92786885246
665	0.3325	578.978583268	-4.20712074303	-0.662406015038	5.92786885246
666	0.333	601.44153363	-1.39102167183	3.56466165414	5.92786885246
667	0.3335	578.978583268	-1.39102167183	-9.11654135338	10.1508196721
668	0.334	553.707764111	-1.39102167183	-9.11654135338	7.33551912568
669	0.3345	549.495960918	-4.20712074303	19.0639097744	8.74316939891
670	0.335	569.151042485	-7.02321981424	2.15563909774	14.3737704918
671	0.3355	571.95891128	1.42507739938	-2.07142857143	20.0043715847
672	0.336	563.535304894	1.42507739938	0.746616541353	18.5967213115
673	0.3365	576.170714473	0.0170278637771	3.56466165414	8.74316939891
674	0.337	580.382517666	2.83312693498	0.746616541353	8.74316939891
675	0.3375	595.825796039	-1.39102167183	0.746616541353	32.6732240437
676	0.338	602.845468028	0.0170278637771	19.0639097744	17.1890710383
677	0.3385	602.845468028	9.873374613	3.56466165414	20.0043715847
678	0.339	598.633664835	1.42507739938	0.746616541353	18.5967213115
679	0.3395	605.653336823	0.0170278637771	2.15563909774	15.781420765
680	0.34	616.884812004	0.0170278637771	0.746616541353	10.1508196721
681	0.3405	607.05727122	0.0170278637771	-2.07142857143	3.11256830601
682	0.341	612.673008811	1.42507739938	-9.11654135338	14.3737704918
683	0.3415	644.963499956	5.64922600619	0.746616541353	15.781420765
684	0.342	632.328090378	-9.83931888545	3.56466165414	12.9661202186
685	0.3425	601.44153363	-7.02321981424	0.746616541353	14.3737704918
686	0.343	612.673008811	1.42507739938	2.15563909774	17.1890710383
687	0.3435	587.402189654	0.0170278637771	2.15563909774	17.1890710383
688	0.344	590.210058449	-1.39102167183	4.97368421053	10.1508196721
689	0.3445	585.998255256	-1.39102167183	-0.662406015038	5.92786885246
690	0.345	576.170714473	1.42507739938	-0.662406015038	17.1890710383
691	0.3455	562.131370496	-11.2473684211	0.746616541353	15.781420765
692	0.346	555.111698508	-9.83931888545	0.746616541353	15.781420765
693	0.3465	555.111698508	-1.39102167183	-0.662406015038	18.5967213115
694	0.347	590.210058449	0.0170278637771	2.15563909774	10.1508196721
695	0.3475	583.190386461	-1.39102167183	2.15563909774	25.6349726776
696	0.348	574.766780075	-2.79907120743	10.6097744361	12.9661202186
697	0.3485	574.766780075	-1.39102167183	-6.2984962406	5.92786885246
698	0.349	556.515632906	-1.39102167183	-9.11654135338	17.1890710383
699	0.3495	563.535304894	-9.83931888545	0.746616541353	17.1890710383
700	0.35	601.44153363	0.0170278637771	2.15563909774	15.781420765
701	0.3505	602.845468028	-2.79907120743	0.746616541353	18.5967213115
702	0.351	562.131370496	-4.20712074303	3.56466165414	18.5967213115
703	0.3515	559.323501701	-1.39102167183	3.56466165414	8.74316939891
704	0.352	580.382517666	1.42507739938	-7.70751879699	17.1890710383
705	0.3525	609.865140016	-14.0634674923	0.746616541353	17.1890710383
706	0.353	643.559565559	-7.02321981424	3.56466165414	18.5967213115
707	0.3535	666.022515921	-4.20712074303	2.15563909774	15.781420765
708	0.354	657.598909535	-4.20712074303	3.56466165414	17.1890710383
709	0.3545	682.869728692	-1.39102167183	4.97368421053	25.6349726776
710	0.355	682.869728692	0.0170278637771	2.15563909774	15.781420765
711	0.3555	671.638253511	4.24117647059	16.2458646617	15.781420765
712	0.356	674.446122307	-1.39102167183	20.4729323308	12.9661202186
713	0.3565	681.465794295	16.913622291	2.15563909774	15.781420765
714	0.357	674.446122307	0.0170278637771	0.746616541353	15.781420765
715	0.3575	675.850056704	1.42507739938	2.15563909774	17.1890710383
716	0.358	696.909072669	-1.39102167183	0.746616541353	22.8196721311
717	0.3585	695.505138271	1.42507739938	0.746616541353	5.92786885246
718	0.359	680.061859897	4.24117647059	2.15563909774	5.92786885246
719	0.3595	691.293335078	2.83312693498	-9.11654135338	14.3737704918
720	0.36	699.716941464	-8.43126934985	0.746616541353	14.3737704918
721	0.3605	706.736613452	1.42507739938	-0.662406015038	10.1508196721
722	0.361	724.987760621	-1.39102167183	2.15563909774	7.33551912568
723	0.3615	740.431038995	2.83312693498	0.746616541353	14.3737704918
724	0.362	732.007432609	2.83312693498	2.15563909774	28.450273224
725	0.3625	747.450710983	4.24117647059	20.4729323308	8.74316939891
726	0.363	758.682186164	4.24117647059	-4.88947368421	8.74316939891
727	0.3635	774.125464538	9.873374613	3.56466165414	12.9661202186
728	0.364	775.529398936	8.4653250774	3.56466165414	10.1508196721
729	0.3645	760.086120562	4.24117647059	-0.662406015038	8.74316939891
730	0.365	760.086120562	1.42507739938	2.15563909774	11.5584699454
731	0.3655	702.524810259	1.42507739938	-0.662406015038	15.781420765
732	0.366	680.061859897	-2.79907120743	9.2007518797	15.781420765
733	0.3665	682.869728692	0.0170278637771	4.97368421053	15.781420765
734	0.367	684.27366309	-1.39102167183	13.4278195489	18.5967213115
735	0.3675	688.485466283	15.5055727554	0.746616541353	15.781420765
736	0.368	710.948416645	-2.79907120743	2.15563909774	17.1890710383
737	0.3685	715.160219838	-1.39102167183	0.746616541353	15.781420765
738	0.369	755.874317369	-2.79907120743	2.15563909774	15.781420765
739	0.3695	748.854645381	-1.39102167183	-6.2984962406	15.781420765
740	0.37	739.027104597	0.0170278637771	9.2007518797	20.0043715847
741	0.3705	737.6231702	-2.79907120743	6.38270676692	21.4120218579
742	0.371	747.450710983	5.64922600619	0.746616541353	15.781420765
743	0.3715	746.046776586	-5.61517027864	3.56466165414	20.0043715847
744	0.372	724.987760621	-8.43126934985	2.15563909774	20.0043715847
745	0.3725	698.313007066	-4.20712074303	0.746616541353	20.0043715847
746	0.373	694.101203873	-5.61517027864	0.746616541353	5.92786885246
747	0.3735	702.524810259	-5.61517027864	-0.662406015038	3.11256830601
748	0.374	703.928744657	-8.43126934985	-7.70751879699	15.781420765
749	0.3745	705.332679054	-15.4715170279	2.15563909774	15.781420765
750	0.375	719.372023031	-12.6554179567	2.15563909774	17.1890710383
751	0.3755	712.352351042	-2.79907120743	3.56466165414	17.1890710383
752	0.376	691.293335078	-1.39102167183	-0.662406015038	17.1890710383
753	0.3765	706.736613452	-1.39102167183	2.15563909774	10.1508196721
754	0.377	724.987760621	1.42507739938	-0.662406015038	22.8196721311
755	0.3775	710.948416645	2.83312693498	0.746616541353	14.3737704918
756	0.378	709.544482247	2.83312693498	-2.07142857143	12.9661202186
757	0.3785	722.179891826	8.4653250774	2.15563909774	12.9661202186
758	0.379	712.352351042	1.42507739938	-0.662406015038	12.9661202186
759	0.3795	699.716941464	1.42507739938	3.56466165414	12.9661202186
760	0.38	689.88940068	1.42507739938	-0.662406015038	8.74316939891
761	0.3805	719.372023031	1.42507739938	-0.662406015038	4.52021857923
762	0.381	741.834973393	-1.39102167183	-3.48045112782	14.3737704918
763	0.3815	723.583826224	-4.20712074303	-0.662406015038	15.781420765
764	0.382	682.869728692	-5.61517027864	0.746616541353	15.781420765
765	0.3825	647.771368752	-2.79907120743	2.15563909774	17.1890710383
766	0.383	644.963499956	-1.39102167183	3.56466165414	20.0043715847
767	0.3835	639.347762366	-1.39102167183	2.15563909774	12.9661202186
768	0.384	644.963499956	-1.39102167183	0.746616541353	8.74316939891
769	0.3845	659.002843933	0.0170278637771	-3.48045112782	15.781420765
770	0.385	643.559565559	-2.79907120743	0.746616541353	12.9661202186
771	0.3855	625.30841839	-2.79907120743	3.56466165414	10.1508196721
772	0.386	625.30841839	-7.02321981424	4.97368421053	14.3737704918
773	0.3865	607.05727122	0.0170278637771	0.746616541353	20.0043715847
774	0.387	597.229730437	-1.39102167183	4.97368421053	31.2655737705
775	0.3875	609.865140016	1.42507739938	3.56466165414	5.92786885246
776	0.388	621.096615197	0.0170278637771	-7.70751879699	15.781420765
777	0.3885	626.712352787	2.83312693498	2.15563909774	12.9661202186
778	0.389	622.500549594	-12.6554179567	2.15563909774	15.781420765
779	0.3895	628.116287185	-4.20712074303	2.15563909774	12.9661202186
780	0.39	616.884812004	-1.39102167183	0.746616541353	14.3737704918
781	0.3905	618.288746401	-2.79907120743	-0.662406015038	10.1508196721
782	0.391	605.653336823	-1.39102167183	-3.48045112782	7.33551912568
783	0.3915	612.673008811	0.0170278637771	-0.662406015038	5.92786885246
784	0.392	618.288746401	-1.39102167183	0.746616541353	12.9661202186
785	0.3925	623.904483992	4.24117647059	0.746616541353	15.781420765
786	0.393	629.520221582	-5.61517027864	-0.662406015038	12.9661202186
787	0.3935	659.002843933	-7.02321981424	3.56466165414	12.9661202186
788	0.394	671.638253511	0.0170278637771	3.56466165414	14.3737704918
789	0.3945	661.810712728	1.42507739938	4.97368421053	3.11256830601
790	0.395	654.79104074	-1.39102167183	-7.70751879699	11.5584699454
791	0.3955	650.579237547	1.42507739938	-9.11654135338	10.1508196721
792	0.396	664.618581523	18.3216718266	2.15563909774	10.1508196721
793	0.3965	675.850056704	-8.43126934985	3.56466165414	10.1508196721
794	0.397	682.869728692	-1.39102167183	0.746616541353	5.92786885246
795	0.3975	664.618581523	0.0170278637771	-0.662406015038	22.8196721311
796	0.398	639.347762366	0.0170278637771	3.56466165414	14.3737704918
797	0.3985	623.904483992	0.0170278637771	7.79172932331	8.74316939891
798	0.399	602.845468028	0.0170278637771	-0.662406015038	10.1508196721
799	0.3995	600.037599232	2.83312693498	2.15563909774	8.74316939891
800	0.4	587.402189654	-7.02321981424	-0.662406015038	12.9661202186
801	0.4005	556.515632906	-2.79907120743	-0.662406015038	10.1508196721
802	0.401	517.205469772	0.0170278637771	0.746616541353	8.74316939891
803	0.4015	500.358257001	-1.39102167183	4.97368421053	0.297267759563
804	0.402	505.973994591	0.0170278637771	-9.11654135338	5.92786885246
805	0.4025	505.973994591	2.83312693498	2.15563909774	14.3737704918
806	0.403	535.456616941	21.1377708978	-0.662406015038	8.74316939891
807	0.4035	552.303829713	-5.61517027864	3.56466165414	10.1508196721
808	0.404	577.57464887	-5.61517027864	0.746616541353	10.1508196721
809	0.4045	578.978583268	1.42507739938	6.38270676692	12.9661202186
810	0.405	583.190386461	-1.39102167183	3.56466165414	1.70491803279
811	0.4055	584.594320858	0.0170278637771	-10.5255639098	5.92786885246
812	0.406	594.421861642	-1.39102167183	-0.662406015038	7.33551912568
813	0.4065	598.633664835	-8.43126934985	0.746616541353	8.74316939891
814	0.407	588.806124051	7.0572755418	2.15563909774	8.74316939891
815	0.4075	580.382517666	-1.39102167183	2.15563909774	8.74316939891
816	0.408	604.249402425	1.42507739938	2.15563909774	10.1508196721
817	0.4085	608.461205618	1.42507739938	3.56466165414	0.297267759563
818	0.409	607.05727122	0.0170278637771	-0.662406015038	25.6349726776
819	0.4095	616.884812004	1.42507739938	19.0639097744	8.74316939891
820	0.41	639.347762366	-1.39102167183	-2.07142857143	7.33551912568
821	0.4105	643.559565559	-1.39102167183	2.15563909774	7.33551912568
822	0.411	640.751696763	-7.02321981424	-0.662406015038	8.74316939891
823	0.4115	635.135959173	-1.39102167183	-0.662406015038	8.74316939891
824	0.412	618.288746401	-1.39102167183	2.15563909774	8.74316939891
825	0.4125	621.096615197	0.0170278637771	2.15563909774	1.70491803279
826	0.413	612.673008811	1.42507739938	4.97368421053	5.92786885246
827	0.4135	587.402189654	4.24117647059	0.746616541353	8.74316939891
828	0.414	585.998255256	1.42507739938	2.15563909774	5.92786885246
829	0.4145	593.017927244	21.1377708978	-0.662406015038	5.92786885246
830	0.415	569.151042485	2.83312693498	-0.662406015038	4.52021857923
831	0.4155	576.170714473	1.42507739938	-0.662406015038	3.11256830601
832	0.416	562.131370496	0.0170278637771	2.15563909774	5.92786885246
833	0.4165	571.95891128	-1.39102167183	-0.662406015038	28.450273224
834	0.417	546.688092122	0.0170278637771	16.2458646617	7.33551912568
835	0.4175	539.668420134	-2.79907120743	-0.662406015038	8.74316939891
836	0.418	536.860551339	18.3216718266	-0.662406015038	12.9661202186
837	0.4185	498.954322603	-1.39102167183	0.746616541353	17.1890710383
838	0.419	487.722847422	1.42507739938	-0.662406015038	12.9661202186
839	0.4195	458.240225072	0.0170278637771	2.15563909774	18.5967213115
840	0.42	480.703175434	1.42507739938	-0.662406015038	7.33551912568
841	0.4205	501.762191398	1.42507739938	-0.662406015038	8.74316939891
842	0.421	500.358257001	2.83312693498	14.8368421053	21.4120218579
843	0.4215	486.318913025	-1.39102167183	0.746616541353	21.4120218579
844	0.422	493.338585013	4.24117647059	4.97368421053	22.8196721311
845	0.4225	462.452028265	1.42507739938	2.15563909774	21.4120218579
846	0.423	465.25989706	0.0170278637771	0.746616541353	20.0043715847
847	0.4235	472.279569048	-4.20712074303	-0.662406015038	29.8579234973
848	0.424	465.25989706	-2.79907120743	17.654887218	17.1890710383
849	0.4245	470.875634651	-7.02321981424	0.746616541353	18.5967213115
850	0.425	486.318913025	-4.20712074303	4.97368421053	20.0043715847
851	0.4255	490.530716217	-5.61517027864	0.746616541353	20.0043715847
852	0.426	483.511044229	0.0170278637771	0.746616541353	18.5967213115
853	0.4265	505.973994591	0.0170278637771	-0.662406015038	17.1890710383
854	0.427	522.821207363	-2.79907120743	-7.70751879699	14.3737704918
855	0.4275	508.781863387	0.0170278637771	7.79172932331	15.781420765
856	0.428	503.166125796	-2.79907120743	-3.48045112782	21.4120218579
857	0.4285	517.205469772	-2.79907120743	0.746616541353	20.0043715847
858	0.429	505.973994591	-5.61517027864	3.56466165414	20.0043715847
859	0.4295	490.530716217	-1.39102167183	2.15563909774	17.1890710383
860	0.43	482.107109832	-2.79907120743	4.97368421053	14.3737704918
861	0.4305	459.64415947	-1.39102167183	-0.662406015038	17.1890710383
862	0.431	421.737930734	1.42507739938	14.8368421053	20.0043715847
863	0.4315	409.102521155	0.0170278637771	17.654887218	17.1890710383
864	0.432	379.619898805	1.42507739938	-6.2984962406	18.5967213115
865	0.4325	366.984489226	-5.61517027864	2.15563909774	17.1890710383
866	0.433	378.215964407	0.0170278637771	2.15563909774	15.781420765
867	0.4335	375.408095612	0.0170278637771	2.15563909774	20.0043715847
868	0.434	331.886129286	0.0170278637771	2.15563909774	15.781420765
869	0.4345	337.501866876	1.42507739938	9.2007518797	20.0043715847
870	0.435	365.580554829	2.83312693498	-6.2984962406	20.0043715847
871	0.4355	381.023833202	2.83312693498	6.38270676692	20.0043715847
872	0.436	383.831701998	5.64922600619	3.56466165414	17.1890710383
873	0.4365	393.659242781	7.0572755418	2.15563909774	17.1890710383
874	0.437	403.486783565	-5.61517027864	0.746616541353	21.4120218579
875	0.4375	407.698586757	1.42507739938	4.97368421053	29.8579234973
876	0.438	411.91038995	-1.39102167183	0.746616541353	35.4885245902
877	0.4385	424.545799529	0.0170278637771	12.0187969925	20.0043715847
878	0.439	428.757602722	1.42507739938	14.8368421053	21.4120218579
879	0.4395	425.949733927	9.873374613	-0.662406015038	21.4120218579
880	0.44	393.659242781	18.3216718266	-0.662406015038	20.0043715847
881	0.4405	379.619898805	-8.43126934985	2.15563909774	18.5967213115
882	0.441	397.871045974	-1.39102167183	-0.662406015038	25.6349726776
883	0.4415	399.274980372	1.42507739938	3.56466165414	17.1890710383
884	0.442	393.659242781	0.0170278637771	2.15563909774	29.8579234973
885	0.4425	385.235636395	-1.39102167183	14.8368421053	20.0043715847
886	0.443	402.082849167	-8.43126934985	-0.662406015038	20.0043715847
887	0.4435	441.3930123	18.3216718266	0.746616541353	18.5967213115
888	0.444	461.048093867	-1.39102167183	3.56466165414	22.8196721311
889	0.4445	476.491372241	1.42507739938	2.15563909774	20.0043715847
890	0.445	483.511044229	0.0170278637771	-0.662406015038	10.1508196721
891	0.4455	463.855962662	0.0170278637771	-6.2984962406	10.1508196721
892	0.446	423.141865131	1.42507739938	-7.70751879699	18.5967213115
893	0.4465	423.141865131	16.913622291	3.56466165414	20.0043715847
894	0.447	430.161537119	-8.43126934985	3.56466165414	18.5967213115
895	0.4475	431.565471517	0.0170278637771	2.15563909774	17.1890710383
896	0.448	458.240225072	0.0170278637771	4.97368421053	21.4120218579
897	0.4485	449.816618686	0.0170278637771	4.97368421053	17.1890710383
898	0.449	439.989077903	-1.39102167183	-0.662406015038	17.1890710383
899	0.4495	449.816618686	0.0170278637771	-4.88947368421	15.781420765
900	0.45	472.279569048	-2.79907120743	17.654887218	17.1890710383
901	0.4505	482.107109832	16.913622291	3.56466165414	20.0043715847
902	0.451	479.299241036	-5.61517027864	2.15563909774	17.1890710383
903	0.4515	470.875634651	0.0170278637771	0.746616541353	20.0043715847
904	0.452	486.318913025	0.0170278637771	4.97368421053	29.8579234973
905	0.4525	503.166125796	-1.39102167183	2.15563909774	18.5967213115
906	0.453	538.264485737	-1.39102167183	4.97368421053	7.33551912568
907	0.4535	564.939239292	-4.20712074303	-3.48045112782	21.4120218579
908	0.454	570.554976882	2.83312693498	-2.07142857143	17.1890710383
909	0.4545	580.382517666	2.83312693498	-0.662406015038	17.1890710383
910	0.455	590.210058449	0.0170278637771	-0.662406015038	20.0043715847
911	0.4555	581.786452063	2.83312693498	2.15563909774	8.74316939891
912	0.456	597.229730437	0.0170278637771	2.15563909774	18.5967213115
913	0.4565	590.210058449	-2.79907120743	-0.662406015038	22.8196721311
914	0.457	570.554976882	-1.39102167183	2.15563909774	18.5967213115
915	0.4575	566.343173689	-4.20712074303	0.746616541353	20.0043715847
916	0.458	584.594320858	-9.83931888545	2.15563909774	18.5967213115
917	0.4585	597.229730437	-9.83931888545	2.15563909774	17.1890710383
918	0.459	597.229730437	-1.39102167183	-0.662406015038	20.0043715847
919	0.4595	576.170714473	0.0170278637771	4.97368421053	5.92786885246
920	0.46	573.362845677	0.0170278637771	-0.662406015038	5.92786885246
921	0.4605	564.939239292	0.0170278637771	-10.5255639098	18.5967213115
922	0.461	564.939239292	-2.79907120743	13.4278195489	15.781420765
923	0.4615	576.170714473	11.2814241486	3.56466165414	18.5967213115
924	0.462	567.747108087	-4.20712074303	3.56466165414	20.0043715847
925	0.4625	549.495960918	1.42507739938	2.15563909774	21.4120218579
926	0.463	527.033010556	0.0170278637771	3.56466165414	39.7114754098
927	0.4635	518.60940417	-1.39102167183	0.746616541353	10.1508196721
928	0.464	515.801535375	-2.79907120743	-9.11654135338	21.4120218579
929	0.4645	510.185797784	0.0170278637771	2.15563909774	21.4120218579
930	0.465	491.934650615	7.0572755418	-0.662406015038	21.4120218579
931	0.4655	480.703175434	7.0572755418	0.746616541353	18.5967213115
932	0.466	507.377928989	-1.39102167183	-0.662406015038	18.5967213115
933	0.4665	504.570060194	1.42507739938	-0.662406015038	15.781420765
934	0.467	498.954322603	2.83312693498	-0.662406015038	12.9661202186
935	0.4675	468.067765855	1.42507739938	-6.2984962406	10.1508196721
936	0.468	465.25989706	1.42507739938	4.97368421053	7.33551912568
937	0.4685	479.299241036	1.42507739938	7.79172932331	14.3737704918
938	0.469	489.12678182	-1.39102167183	-0.662406015038	15.781420765
939	0.4695	511.589732182	-9.83931888545	2.15563909774	17.1890710383
940	0.47	521.417272965	1.42507739938	0.746616541353	10.1508196721
941	0.4705	507.377928989	4.24117647059	-0.662406015038	25.6349726776
942	0.471	496.146453808	1.42507739938	-0.662406015038	20.0043715847
943	0.4715	512.993666579	1.42507739938	3.56466165414	25.6349726776
944	0.472	503.166125796	-1.39102167183	0.746616541353	8.74316939891
945	0.4725	493.338585013	-7.02321981424	0.746616541353	10.1508196721
946	0.473	512.993666579	-5.61517027864	0.746616541353	12.9661202186
947	0.4735	494.74251941	1.42507739938	0.746616541353	8.74316939891
948	0.474	484.914978627	1.42507739938	3.56466165414	18.5967213115
949	0.4745	500.358257001	1.42507739938	2.15563909774	24.2273224044
950	0.475	510.185797784	1.42507739938	2.15563909774	29.8579234973
951	0.4755	503.166125796	-1.39102167183	19.0639097744	10.1508196721
952	0.476	498.954322603	-8.43126934985	0.746616541353	14.3737704918
953	0.4765	500.358257001	16.913622291	-0.662406015038	17.1890710383
954	0.477	514.397600977	9.873374613	0.746616541353	14.3737704918
955	0.4775	522.821207363	1.42507739938	4.97368421053	11.5584699454
956	0.478	504.570060194	2.83312693498	2.15563909774	15.781420765
957	0.4785	522.821207363	0.0170278637771	4.97368421053	5.92786885246
958	0.479	552.303829713	1.42507739938	-7.70751879699	15.781420765
959	0.4795	585.998255256	1.42507739938	2.15563909774	15.781420765
960	0.48	584.594320858	-8.43126934985	2.15563909774	14.3737704918
961	0.4805	570.554976882	1.42507739938	4.97368421053	12.9661202186
962	0.481	520.013338568	0.0170278637771	3.56466165414	12.9661202186
963	0.4815	520.013338568	-4.20712074303	2.15563909774	17.1890710383
964	0.482	511.589732182	-2.79907120743	4.97368421053	5.92786885246
965	0.4825	505.973994591	-4.20712074303	-7.70751879699	15.781420765
966	0.483	496.146453808	-4.20712074303	-2.07142857143	15.781420765
967	0.4835	475.087437843	-1.39102167183	6.38270676692	7.33551912568
968	0.484	434.373340312	-1.39102167183	-0.662406015038	12.9661202186
969	0.4845	416.122193143	-8.43126934985	0.746616541353	15.781420765
970	0.485	423.141865131	-8.43126934985	3.56466165414	12.9661202186
971	0.4855	442.796946698	-2.79907120743	4.97368421053	8.74316939891
972	0.486	442.796946698	-1.39102167183	-0.662406015038	4.52021857923
973	0.4865	439.989077903	-1.39102167183	-2.07142857143	5.92786885246
974	0.487	447.008749891	-4.20712074303	3.56466165414	14.3737704918
975	0.4875	465.25989706	-2.79907120743	0.746616541353	14.3737704918
976	0.488	477.895306639	0.0170278637771	2.15563909774	17.1890710383
977	0.4885	477.895306639	0.0170278637771	3.56466165414	14.3737704918
978	0.489	466.663831458	0.0170278637771	0.746616541353	21.4120218579
979	0.4895	480.703175434	0.0170278637771	4.97368421053	14.3737704918
980	0.49	480.703175434	1.42507739938	6.38270676692	14.3737704918
981	0.4905	459.64415947	-4.20712074303	-0.662406015038	12.9661202186
982	0.491	480.703175434	-7.02321981424	0.746616541353	12.9661202186
983	0.4915	491.934650615	-7.02321981424	2.15563909774	8.74316939891
984	0.492	507.377928989	1.42507739938	-0.662406015038	12.9661202186
985	0.4925	480.703175434	0.0170278637771	2.15563909774	10.1508196721
986	0.493	484.914978627	0.0170278637771	2.15563909774	-1.11038251366
987	0.4935	508.781863387	1.42507739938	3.56466165414	5.92786885246
988	0.494	505.973994591	1.42507739938	-4.88947368421	5.92786885246
989	0.4945	498.954322603	0.0170278637771	0.746616541353	5.92786885246
990	0.495	476.491372241	-1.39102167183	-0.662406015038	8.74316939891
991	0.4955	448.412684289	-1.39102167183	2.15563909774	3.11256830601
992	0.496	441.3930123	0.0170278637771	3.56466165414	4.52021857923
993	0.4965	410.506455553	-2.79907120743	2.15563909774	3.11256830601
994	0.497	392.255308383	0.0170278637771	16.2458646617	4.52021857923
995	0.4975	375.408095612	0.0170278637771	-3.48045112782	5.92786885246
996	0.498	366.984489226	0.0170278637771	0.746616541353	4.52021857923
997	0.4985	358.56088284	0.0170278637771	2.15563909774	4.52021857923
998	0.499	348.733342057	0.0170278637771	2.15563909774	4.52021857923
999	0.4995	348.733342057	1.42507739938	0.746616541353	5.92786885246
1000	0.5	358.56088284	0.0170278637771	2.15563909774	-5.33333333333
1001	0.5005	352.94514525	-1.39102167183	-9.11654135338	-3.92568306011
1002	0.501	365.580554829	0.0170278637771	-6.2984962406	1.70491803279
1003	0.5015	383.831701998	2.83312693498	2.15563909774	3.11256830601
1004	0.502	393.659242781	18.3216718266	0.746616541353	4.52021857923
1005	0.5025	375.408095612	1.42507739938	2.15563909774	5.92786885246
1006	0.503	403.486783565	0.0170278637771	0.746616541353	4.52021857923
1007	0.5035	396.467111576	0.0170278637771	2.15563909774	11.5584699454
1008	0.504	386.639570793	-1.39102167183	4.97368421053	8.74316939891
1009	0.5045	388.043505191	-1.39102167183	0.746616541353	8.74316939891
1010	0.505	371.196292419	1.42507739938	0.746616541353	5.92786885246
1011	0.5055	345.925473262	7.0572755418	0.746616541353	5.92786885246
1012	0.506	359.964817238	-2.79907120743	4.97368421053	5.92786885246
1013	0.5065	396.467111576	0.0170278637771	0.746616541353	7.33551912568
1014	0.507	386.639570793	0.0170278637771	2.15563909774	-2.51803278689
1015	0.5075	411.91038995	0.0170278637771	-4.88947368421	17.1890710383
1016	0.508	447.008749891	0.0170278637771	6.38270676692	8.74316939891
1017	0.5085	432.969405915	2.83312693498	-0.662406015038	5.92786885246
1018	0.509	424.545799529	0.0170278637771	-0.662406015038	4.52021857923
1019	0.5095	432.969405915	-5.61517027864	-0.662406015038	4.52021857923
1020	0.51	466.663831458	1.42507739938	0.746616541353	3.11256830601
1021	0.5105	482.107109832	1.42507739938	-0.662406015038	0.297267759563
1022	0.511	491.934650615	2.83312693498	3.56466165414	0.297267759563
1023	0.5115	515.801535375	2.83312693498	4.97368421053	3.11256830601
1024	0.512	527.033010556	1.42507739938	-3.48045112782	0.297267759563
1025	0.5125	510.185797784	-1.39102167183	2.15563909774	0.297267759563
1026	0.513	489.12678182	-7.02321981424	2.15563909774	0.297267759563
1027	0.5135	476.491372241	1.42507739938	2.15563909774	1.70491803279
1028	0.514	500.358257001	1.42507739938	0.746616541353	-6.74098360656
1029	0.5145	518.60940417	-1.39102167183	-0.662406015038	-2.51803278689
1030	0.515	504.570060194	1.42507739938	14.8368421053	-3.92568306011
1031	0.5155	482.107109832	1.42507739938	2.15563909774	-3.92568306011
1032	0.516	477.895306639	1.42507739938	-3.48045112782	-1.11038251366
1033	0.5165	479.299241036	1.42507739938	2.15563909774	-3.92568306011
1034	0.517	468.067765855	1.42507739938	3.56466165414	-5.33333333333
1035	0.5175	449.816618686	1.42507739938	-0.662406015038	-1.11038251366
1036	0.518	442.796946698	1.42507739938	3.56466165414	17.1890710383
1037	0.5185	479.299241036	1.42507739938	19.0639097744	1.70491803279
1038	0.519	484.914978627	1.42507739938	-3.48045112782	0.297267759563
1039	0.5195	466.663831458	4.24117647059	-0.662406015038	-1.11038251366
1040	0.52	469.471700253	-2.79907120743	2.15563909774	3.11256830601
1041	0.5205	477.895306639	0.0170278637771	2.15563909774	0.297267759563
1042	0.521	491.934650615	-2.79907120743	2.15563909774	3.11256830601
1043	0.5215	498.954322603	-2.79907120743	-0.662406015038	7.33551912568
1044	0.522	512.993666579	-2.79907120743	3.56466165414	0.297267759563
1045	0.5225	528.436944953	-2.79907120743	-3.48045112782	1.70491803279
1046	0.523	521.417272965	-5.61517027864	0.746616541353	0.297267759563
1047	0.5235	479.299241036	-8.43126934985	0.746616541353	0.297267759563
1048	0.524	442.796946698	-2.79907120743	-0.662406015038	1.70491803279
1049	0.5245	463.855962662	0.0170278637771	0.746616541353	1.70491803279
1050	0.525	458.240225072	-1.39102167183	3.56466165414	7.33551912568
1051	0.5255	462.452028265	1.42507739938	2.15563909774	-5.33333333333
1052	0.526	454.028421879	0.0170278637771	-6.2984962406	0.297267759563
1053	0.5265	459.64415947	2.83312693498	3.56466165414	3.11256830601
1054	0.527	455.432356277	0.0170278637771	2.15563909774	5.92786885246
1055	0.5275	432.969405915	-1.39102167183	0.746616541353	4.52021857923
1056	0.528	441.3930123	-4.20712074303	0.746616541353	5.92786885246
1057	0.5285	423.141865131	-1.39102167183	0.746616541353	3.11256830601
1058	0.529	411.91038995	1.42507739938	3.56466165414	4.52021857923
1059	0.5295	396.467111576	1.42507739938	16.2458646617	0.297267759563
1060	0.53	388.043505191	0.0170278637771	0.746616541353	0.297267759563
1061	0.5305	399.274980372	-8.43126934985	2.15563909774	1.70491803279
1062	0.531	410.506455553	2.83312693498	-0.662406015038	1.70491803279
1063	0.5315	388.043505191	1.42507739938	0.746616541353	1.70491803279
1064	0.532	382.4277676	1.42507739938	0.746616541353	-9.55628415301
1065	0.5325	397.871045974	1.42507739938	-0.662406015038	-5.33333333333
1066	0.533	416.122193143	0.0170278637771	16.2458646617	-2.51803278689
1067	0.5335	424.545799529	1.42507739938	2.15563909774	-5.33333333333
1068	0.534	413.314324348	-2.79907120743	-6.2984962406	-5.33333333333
1069	0.5345	424.545799529	0.0170278637771	-0.662406015038	-6.74098360656
1070	0.535	444.200881096	0.0170278637771	-0.662406015038	-9.55628415301
1071	0.5355	454.028421879	1.42507739938	4.97368421053	-12.3715846995
1072	0.536	441.3930123	0.0170278637771	3.56466165414	-2.51803278689
1073	0.5365	428.757602722	1.42507739938	12.0187969925	-13.7792349727
1074	0.537	438.585143505	1.42507739938	-3.48045112782	-15.1868852459
1075	0.5375	477.895306639	-5.61517027864	4.97368421053	-16.5945355191
1076	0.538	508.781863387	4.24117647059	0.746616541353	-13.7792349727
1077	0.5385	515.801535375	-2.79907120743	2.15563909774	-13.7792349727
1078	0.539	531.244813749	0.0170278637771	2.15563909774	-13.7792349727
1079	0.5395	527.033010556	0.0170278637771	-2.07142857143	-20.8174863388
1080	0.54	504.570060194	0.0170278637771	-0.662406015038	-19.4098360656
1081	0.5405	486.318913025	-1.39102167183	-0.662406015038	-16.5945355191
1082	0.541	483.511044229	4.24117647059	0.746616541353	-15.1868852459
1083	0.5415	498.954322603	4.24117647059	0.746616541353	-16.5945355191
1084	0.542	500.358257001	0.0170278637771	2.15563909774	-18.0021857923
1085	0.5425	512.993666579	1.42507739938	-0.662406015038	-18.0021857923
1086	0.543	532.648748146	2.83312693498	-0.662406015038	-25.0404371585
1087	0.5435	548.09202652	1.42507739938	-0.662406015038	-12.3715846995
1088	0.544	541.072354532	2.83312693498	-0.662406015038	-1.11038251366
1089	0.5445	534.052682544	9.873374613	2.15563909774	-16.5945355191
1090	0.545	528.436944953	7.0572755418	2.15563909774	-12.3715846995
1091	0.5455	535.456616941	1.42507739938	3.56466165414	-10.9639344262
1092	0.546	524.22514176	5.64922600619	2.15563909774	-8.14863387978
1093	0.5465	507.377928989	1.42507739938	2.15563909774	-18.0021857923
1094	0.547	497.550388206	5.64922600619	-9.11654135338	-13.7792349727
1095	0.5475	494.74251941	7.0572755418	-2.07142857143	-9.55628415301
1096	0.548	482.107109832	-7.02321981424	2.15563909774	-10.9639344262
1097	0.5485	437.181209108	2.83312693498	-0.662406015038	-10.9639344262
1098	0.549	411.91038995	0.0170278637771	-0.662406015038	-10.9639344262
1099	0.5495	434.373340312	1.42507739938	2.15563909774	-10.9639344262
1100	0.55	449.816618686	0.0170278637771	-3.48045112782	-13.7792349727
1101	0.5505	431.565471517	0.0170278637771	-3.48045112782	-15.1868852459
1102	0.551	404.890717962	-2.79907120743	-0.662406015038	-12.3715846995
1103	0.5515	449.816618686	-9.83931888545	0.746616541353	-10.9639344262
1104	0.552	493.338585013	-5.61517027864	2.15563909774	-9.55628415301
1105	0.5525	498.954322603	1.42507739938	2.15563909774	-9.55628415301
1106	0.553	514.397600977	1.42507739938	2.15563909774	-10.9639344262
1107	0.5535	532.648748146	1.42507739938	2.15563909774	-1.11038251366
1108	0.554	541.072354532	-2.79907120743	2.15563909774	7.33551912568
1109	0.5545	538.264485737	0.0170278637771	-0.662406015038	-3.92568306011
1110	0.555	545.284157725	-5.61517027864	3.56466165414	-1.11038251366
1111	0.5555	529.840879351	7.0572755418	0.746616541353	0.297267759563
1112	0.556	531.244813749	-2.79907120743	-0.662406015038	4.52021857923
1113	0.5565	542.47628893	-2.79907120743	2.15563909774	0.297267759563
1114	0.557	564.939239292	0.0170278637771	-0.662406015038	0.297267759563
1115	0.5575	576.170714473	0.0170278637771	-3.48045112782	10.1508196721
1116	0.558	601.44153363	-2.79907120743	-9.11654135338	15.781420765
1117	0.5585	608.461205618	-7.02321981424	-0.662406015038	17.1890710383
1118	0.559	590.210058449	-8.43126934985	2.15563909774	21.4120218579
1119	0.5595	583.190386461	-4.20712074303	-0.662406015038	25.6349726776
1120	0.56	567.747108087	-5.61517027864	-2.07142857143	28.450273224
1121	0.5605	566.343173689	-4.20712074303	0.746616541353	21.4120218579
1122	0.561	553.707764111	-2.79907120743	-7.70751879699	29.8579234973
1123	0.5615	546.688092122	-4.20712074303	17.654887218	32.6732240437
1124	0.562	542.47628893	-7.02321981424	-0.662406015038	35.4885245902
1125	0.5625	545.284157725	15.5055727554	-0.662406015038	38.3038251366
1126	0.563	531.244813749	-2.79907120743	0.746616541353	43.9344262295
1127	0.5635	529.840879351	-1.39102167183	0.746616541353	39.7114754098
1128	0.564	508.781863387	-4.20712074303	0.746616541353	38.3038251366
1129	0.5645	500.358257001	-4.20712074303	-9.11654135338	46.749726776
1130	0.565	484.914978627	-2.79907120743	16.2458646617	46.749726776
1131	0.5655	472.279569048	-7.02321981424	-0.662406015038	48.1573770492
1132	0.566	461.048093867	7.0572755418	-0.662406015038	48.1573770492
1133	0.5665	458.240225072	-5.61517027864	-0.662406015038	46.749726776
1134	0.567	472.279569048	-4.20712074303	-3.48045112782	43.9344262295
1135	0.5675	469.471700253	-4.20712074303	3.56466165414	45.3420765027
1136	0.568	468.067765855	-5.61517027864	-2.07142857143	45.3420765027
1137	0.5685	459.64415947	-2.79907120743	12.0187969925	45.3420765027
1138	0.569	439.989077903	-2.79907120743	-6.2984962406	48.1573770492
1139	0.5695	416.122193143	9.873374613	-0.662406015038	50.9726775956
1140	0.57	406.29465236	-5.61517027864	-0.662406015038	49.5650273224
1141	0.5705	462.452028265	0.0170278637771	-2.07142857143	49.5650273224
1142	0.571	486.318913025	-1.39102167183	-0.662406015038	43.9344262295
1143	0.5715	489.12678182	0.0170278637771	4.97368421053	60.8262295082
1144	0.572	486.318913025	-1.39102167183	14.8368421053	53.7879781421
1145	0.5725	501.762191398	-9.83931888545	0.746616541353	52.3803278689
1146	0.573	505.973994591	14.0975232198	0.746616541353	53.7879781421
1147	0.5735	504.570060194	1.42507739938	0.746616541353	56.6032786885
1148	0.574	532.648748146	0.0170278637771	-0.662406015038	53.7879781421
1149	0.5745	520.013338568	-1.39102167183	-2.07142857143	80.5333333333
1150	0.575	535.456616941	-4.20712074303	3.56466165414	72.087431694
1151	0.5755	493.338585013	-1.39102167183	-0.662406015038	79.1256830601
1152	0.576	463.855962662	4.24117647059	2.15563909774	81.9409836066
1153	0.5765	473.683503446	-4.20712074303	-0.662406015038	87.5715846995
1154	0.577	520.013338568	0.0170278637771	-0.662406015038	88.9792349727
1155	0.5775	534.052682544	-4.20712074303	2.15563909774	96.0174863388
1156	0.578	535.456616941	-2.79907120743	-4.88947368421	94.6098360656
1157	0.5785	528.436944953	1.42507739938	-0.662406015038	103.055737705
1158	0.579	524.22514176	0.0170278637771	-6.2984962406	107.278688525
1159	0.5795	527.033010556	-5.61517027864	-0.662406015038	108.686338798
1160	0.58	518.60940417	-8.43126934985	-2.07142857143	111.501639344
1161	0.5805	535.456616941	0.0170278637771	-2.07142857143	111.501639344
1162	0.581	532.648748146	-1.39102167183	0.746616541353	98.8327868852
1163	0.5815	527.033010556	1.42507739938	-2.07142857143	114.316939891
1164	0.582	507.377928989	1.42507739938	-9.11654135338	111.501639344
1165	0.5825	508.781863387	1.42507739938	4.97368421053	107.278688525
1166	0.583	515.801535375	1.42507739938	-3.48045112782	111.501639344
1167	0.5835	494.74251941	8.4653250774	2.15563909774	110.093989071
1168	0.584	455.432356277	5.64922600619	-2.07142857143	104.463387978
1169	0.5845	454.028421879	2.83312693498	-0.662406015038	98.8327868852
1170	0.585	468.067765855	5.64922600619	0.746616541353	98.8327868852
1171	0.5855	496.146453808	4.24117647059	4.97368421053	94.6098360656
1172	0.586	504.570060194	1.42507739938	2.15563909774	88.9792349727
1173	0.5865	501.762191398	7.0572755418	9.2007518797	84.756284153
1174	0.587	498.954322603	7.0572755418	0.746616541353	81.9409836066
1175	0.5875	497.550388206	16.913622291	2.15563909774	74.9027322404
1176	0.588	483.511044229	-1.39102167183	3.56466165414	66.4568306011
1177	0.5885	459.64415947	5.64922600619	3.56466165414	67.8644808743
1178	0.589	449.816618686	2.83312693498	2.15563909774	62.2338797814
1179	0.5895	432.969405915	1.42507739938	3.56466165414	35.4885245902
1180	0.59	402.082849167	1.42507739938	0.746616541353	42.5267759563
1181	0.5905	403.486783565	2.83312693498	3.56466165414	34.0808743169
1182	0.591	430.161537119	-9.83931888545	0.746616541353	31.2655737705
1183	0.5915	472.279569048	1.42507739938	2.15563909774	32.6732240437
1184	0.592	444.200881096	-4.20712074303	0.746616541353	25.6349726776
1185	0.5925	432.969405915	-1.39102167183	4.97368421053	12.9661202186
1186	0.593	416.122193143	-2.79907120743	-4.88947368421	20.0043715847
1187	0.5935	438.585143505	-2.79907120743	2.15563909774	20.0043715847
1188	0.594	462.452028265	-2.79907120743	0.746616541353	17.1890710383
1189	0.5945	465.25989706	-9.83931888545	3.56466165414	17.1890710383
1190	0.595	448.412684289	-2.79907120743	2.15563909774	12.9661202186
1191	0.5955	402.082849167	-1.39102167183	4.97368421053	12.9661202186
1192	0.596	402.082849167	0.0170278637771	0.746616541353	-3.92568306011
1193	0.5965	418.930061938	-2.79907120743	-6.2984962406	4.52021857923
1194	0.597	413.314324348	1.42507739938	2.15563909774	1.70491803279
1195	0.5975	393.659242781	-11.2473684211	0.746616541353	0.297267759563
1196	0.598	364.176620431	-9.83931888545	0.746616541353	-5.33333333333
1197	0.5985	313.634982116	1.42507739938	2.15563909774	-3.92568306011
1198	0.599	292.575966152	0.0170278637771	3.56466165414	-10.9639344262
1199	0.5995	298.191703742	0.0170278637771	-0.662406015038	-22.225136612
1200	0.6	312.231047719	-2.79907120743	-7.70751879699	-18.0021857923
1201	0.6005	299.59563814	2.83312693498	-2.07142857143	-16.5945355191
1202	0.601	296.787769345	-5.61517027864	-3.48045112782	-19.4098360656
1203	0.6015	312.231047719	-1.39102167183	-0.662406015038	-16.5945355191
1204	0.602	316.442850912	1.42507739938	-0.662406015038	-18.0021857923
1205	0.6025	340.309735671	-2.79907120743	0.746616541353	-18.0021857923
1206	0.603	358.56088284	-4.20712074303	2.15563909774	-25.0404371585
1207	0.6035	392.255308383	-4.20712074303	-6.2984962406	-18.0021857923
1208	0.604	397.871045974	-1.39102167183	-6.2984962406	-20.8174863388
1209	0.6045	382.4277676	-7.02321981424	-0.662406015038	-20.8174863388
1210	0.605	355.753014045	5.64922600619	2.15563909774	-23.6327868852
1211	0.6055	345.925473262	-5.61517027864	2.15563909774	-22.225136612
1212	0.606	327.674326093	0.0170278637771	3.56466165414	-23.6327868852
1213	0.6065	302.403506935	0.0170278637771	4.97368421053	-23.6327868852
1214	0.607	299.59563814	-1.39102167183	-6.2984962406	-23.6327868852
1215	0.6075	315.038916514	-1.39102167183	-7.70751879699	-26.4480874317
1216	0.608	333.290063683	2.83312693498	2.15563909774	-23.6327868852
1217	0.6085	351.541210852	-9.83931888545	2.15563909774	-26.4480874317
1218	0.609	352.94514525	7.0572755418	2.15563909774	-27.8557377049
1219	0.6095	358.56088284	-1.39102167183	3.56466165414	-27.8557377049
1220	0.61	369.792358021	1.42507739938	0.746616541353	-23.6327868852
1221	0.6105	374.004161214	0.0170278637771	2.15563909774	-30.6710382514
1222	0.611	366.984489226	1.42507739938	14.8368421053	-25.0404371585
1223	0.6115	374.004161214	-5.61517027864	6.38270676692	-27.8557377049
1224	0.612	375.408095612	4.24117647059	0.746616541353	-29.2633879781
1225	0.6125	383.831701998	-4.20712074303	0.746616541353	-25.0404371585
1226	0.613	388.043505191	16.913622291	2.15563909774	-26.4480874317
1227	0.6135	383.831701998	-1.39102167183	3.56466165414	-36.3016393443
1228	0.614	372.600226817	1.42507739938	2.15563909774	-37.7092896175
1229	0.6145	351.541210852	1.42507739938	-10.5255639098	-26.4480874317
1230	0.615	324.866457297	1.42507739938	19.0639097744	-29.2633879781
1231	0.6155	292.575966152	-2.79907120743	-9.11654135338	-30.6710382514
1232	0.616	277.132687778	2.83312693498	0.746616541353	-30.6710382514
1233	0.6165	274.324818983	-1.39102167183	0.746616541353	-32.0786885246
1234	0.617	267.305146995	-1.39102167183	0.746616541353	-27.8557377049
1235	0.6175	227.994983861	-5.61517027864	2.15563909774	-25.0404371585
1236	0.618	243.438262235	-2.79907120743	-2.07142857143	-39.1169398907
1237	0.6185	257.477606211	-1.39102167183	-7.70751879699	-30.6710382514
1238	0.619	254.669737416	-1.39102167183	16.2458646617	-27.8557377049
1239	0.6195	260.285475007	16.913622291	2.15563909774	-27.8557377049
1240	0.62	258.881540609	0.0170278637771	0.746616541353	-27.8557377049
1241	0.6205	246.24613103	1.42507739938	3.56466165414	-32.0786885246
1242	0.621	244.842196633	2.83312693498	0.746616541353	-25.0404371585
1243	0.6215	236.418590247	2.83312693498	4.97368421053	-33.4863387978
1244	0.622	219.571377475	-1.39102167183	-7.70751879699	-29.2633879781
1245	0.6225	199.916295909	5.64922600619	3.56466165414	-29.2633879781
1246	0.623	174.645476751	18.3216718266	3.56466165414	-27.8557377049
1247	0.6235	163.41400157	-7.02321981424	0.746616541353	-29.2633879781
1248	0.624	188.684820728	-5.61517027864	0.746616541353	-27.8557377049
1249	0.6245	197.108427113	1.42507739938	4.97368421053	-26.4480874317
1250	0.625	218.167443078	1.42507739938	3.56466165414	-36.3016393443
1251	0.6255	232.206787054	-1.39102167183	-10.5255639098	-39.1169398907
1252	0.626	222.379246271	1.42507739938	17.654887218	-32.0786885246
1253	0.6265	232.206787054	-4.20712074303	-7.70751879699	-33.4863387978
1254	0.627	256.073671814	2.83312693498	3.56466165414	-30.6710382514
1255	0.6275	257.477606211	0.0170278637771	2.15563909774	-32.0786885246
1256	0.628	261.689409404	1.42507739938	2.15563909774	-40.5245901639
1257	0.6285	236.418590247	0.0170278637771	0.746616541353	-29.2633879781
1258	0.629	223.783180668	1.42507739938	13.4278195489	-34.893989071
1259	0.6295	216.76350868	2.83312693498	3.56466165414	-36.3016393443
1260	0.63	227.994983861	-4.20712074303	0.746616541353	-34.893989071
1261	0.6305	232.206787054	16.913622291	2.15563909774	-36.3016393443
1262	0.631	213.955639885	-1.39102167183	0.746616541353	-34.893989071
1263	0.6315	190.088755125	-1.39102167183	2.15563909774	-44.7475409836
1264	0.632	160.606132775	0.0170278637771	-0.662406015038	-37.7092896175
1265	0.6325	167.625804763	-2.79907120743	-3.48045112782	-22.225136612
1266	0.633	201.320230306	-4.20712074303	0.746616541353	-36.3016393443
1267	0.6335	199.916295909	-11.2473684211	-0.662406015038	-34.893989071
1268	0.634	169.029739161	16.913622291	0.746616541353	-34.893989071
1269	0.6345	133.93137922	-2.79907120743	-2.07142857143	-33.4863387978
1270	0.635	143.758920003	-2.79907120743	-2.07142857143	-34.893989071
1271	0.6355	128.31564163	-1.39102167183	3.56466165414	-30.6710382514
1272	0.636	133.93137922	-4.20712074303	21.8819548872	-34.893989071
1273	0.6365	163.41400157	-1.39102167183	17.654887218	-32.0786885246
1274	0.637	180.261214342	0.0170278637771	-0.662406015038	-34.893989071
1275	0.6375	185.876951932	-5.61517027864	2.15563909774	-32.0786885246
1276	0.638	198.512361511	-2.79907120743	0.746616541353	-33.4863387978
1277	0.6385	227.994983861	-2.79907120743	2.15563909774	-27.8557377049
1278	0.639	216.76350868	-1.39102167183	2.15563909774	-29.2633879781
1279	0.6395	236.418590247	-1.39102167183	0.746616541353	-41.9322404372
1280	0.64	237.822524645	-1.39102167183	0.746616541353	-16.5945355191
1281	0.6405	233.610721452	-1.39102167183	0.746616541353	-32.0786885246
1282	0.641	225.187115066	7.0572755418	-0.662406015038	-30.6710382514
1283	0.6415	239.226459042	0.0170278637771	-0.662406015038	-29.2633879781
1284	0.642	249.053999826	0.0170278637771	0.746616541353	-29.2633879781
1285	0.6425	235.014655849	1.42507739938	2.15563909774	-34.893989071
1286	0.643	205.532033499	1.42507739938	-6.2984962406	-27.8557377049
1287	0.6435	208.339902294	2.83312693498	0.746616541353	-29.2633879781
1288	0.644	225.187115066	7.0572755418	-0.662406015038	-29.2633879781
1289	0.6445	240.63039344	-4.20712074303	0.746616541353	-26.4480874317
1290	0.645	230.802852656	1.42507739938	-0.662406015038	-26.4480874317
1291	0.6455	236.418590247	0.0170278637771	3.56466165414	-22.225136612
1292	0.646	216.76350868	1.42507739938	0.746616541353	-19.4098360656
1293	0.6465	230.802852656	0.0170278637771	-9.11654135338	-29.2633879781
1294	0.647	225.187115066	2.83312693498	-3.48045112782	-19.4098360656
1295	0.6475	223.783180668	1.42507739938	2.15563909774	-18.0021857923
1296	0.648	218.167443078	-8.43126934985	2.15563909774	-18.0021857923
1297	0.6485	197.108427113	-2.79907120743	0.746616541353	-22.225136612
1298	0.649	222.379246271	-2.79907120743	-0.662406015038	-16.5945355191
1299	0.6495	229.398918259	-1.39102167183	0.746616541353	-16.5945355191
1300	0.65	233.610721452	-2.79907120743	2.15563909774	-16.5945355191
1301	0.6505	198.512361511	-2.79907120743	13.4278195489	-18.0021857923
1302	0.651	211.14777109	-2.79907120743	0.746616541353	-16.5945355191
1303	0.6515	242.034327837	-1.39102167183	0.746616541353	-15.1868852459
1304	0.652	254.669737416	8.4653250774	2.15563909774	-19.4098360656
1305	0.6525	261.689409404	-5.61517027864	4.97368421053	-19.4098360656
1306	0.653	257.477606211	-4.20712074303	2.15563909774	-10.9639344262
1307	0.6535	253.265803018	0.0170278637771	-3.48045112782	-23.6327868852
1308	0.654	261.689409404	1.42507739938	16.2458646617	-22.225136612
1309	0.6545	271.516950188	-1.39102167183	3.56466165414	-23.6327868852
1310	0.655	286.960228561	0.0170278637771	-6.2984962406	-25.0404371585
1311	0.6555	295.383834947	1.42507739938	0.746616541353	-27.8557377049
1312	0.656	284.152359766	0.0170278637771	3.56466165414	-29.2633879781
1313	0.6565	285.556294164	1.42507739938	0.746616541353	-29.2633879781
1314	0.657	278.536622176	1.42507739938	2.15563909774	-12.3715846995
1315	0.6575	310.827113321	0.0170278637771	19.0639097744	-29.2633879781
1316	0.658	326.270391695	0.0170278637771	-4.88947368421	-27.8557377049
1317	0.6585	337.501866876	7.0572755418	0.746616541353	-25.0404371585
1318	0.659	340.309735671	-9.83931888545	3.56466165414	-25.0404371585
1319	0.6595	331.886129286	-1.39102167183	0.746616541353	-23.6327868852
1320	0.66	333.290063683	0.0170278637771	3.56466165414	-26.4480874317
1321	0.6605	368.388423624	1.42507739938	-0.662406015038	-33.4863387978
1322	0.661	374.004161214	0.0170278637771	-6.2984962406	-29.2633879781
1323	0.6615	354.349079648	1.42507739938	-0.662406015038	-23.6327868852
1324	0.662	347.329407659	-4.20712074303	2.15563909774	-22.225136612
1325	0.6625	355.753014045	1.42507739938	0.746616541353	-22.225136612
1326	0.663	371.196292419	1.42507739938	0.746616541353	-20.8174863388
1327	0.6635	385.235636395	0.0170278637771	3.56466165414	-19.4098360656
1328	0.664	371.196292419	0.0170278637771	0.746616541353	-16.5945355191
1329	0.6645	359.964817238	1.42507739938	2.15563909774	-22.225136612
1330	0.665	354.349079648	0.0170278637771	2.15563909774	-20.8174863388
1331	0.6655	354.349079648	-1.39102167183	3.56466165414	-19.4098360656
1332	0.666	362.772686033	14.0975232198	2.15563909774	-20.8174863388
1333	0.6665	372.600226817	1.42507739938	0.746616541353	-18.0021857923
1334	0.667	371.196292419	-4.20712074303	2.15563909774	-18.0021857923
1335	0.6675	344.521538864	0.0170278637771	2.15563909774	-6.74098360656
1336	0.668	348.733342057	1.42507739938	2.15563909774	-16.5945355191
1337	0.6685	378.215964407	-2.79907120743	-4.88947368421	-19.4098360656
1338	0.669	375.408095612	1.42507739938	0.746616541353	-16.5945355191
1339	0.6695	386.639570793	1.42507739938	2.15563909774	-16.5945355191
1340	0.67	386.639570793	0.0170278637771	3.56466165414	-18.0021857923
1341	0.6705	397.871045974	0.0170278637771	3.56466165414	-10.9639344262
1342	0.671	392.255308383	2.83312693498	2.15563909774	-19.4098360656
1343	0.6715	434.373340312	1.42507739938	-7.70751879699	-27.8557377049
1344	0.672	445.604815493	5.64922600619	-6.2984962406	-20.8174863388
1345	0.6725	449.816618686	2.83312693498	3.56466165414	-20.8174863388
1346	0.673	449.816618686	-11.2473684211	4.97368421053	-19.4098360656
1347	0.6735	455.432356277	-2.79907120743	-2.07142857143	-22.225136612
1348	0.674	455.432356277	-2.79907120743	0.746616541353	-20.8174863388
1349	0.6745	517.205469772	-2.79907120743	2.15563909774	-16.5945355191
1350	0.675	566.343173689	-2.79907120743	4.97368421053	-10.9639344262
1351	0.6755	576.170714473	-1.39102167183	10.6097744361	-20.8174863388
1352	0.676	574.766780075	-9.83931888545	-0.662406015038	-22.225136612
1353	0.6765	591.613992847	12.6894736842	-2.07142857143	-22.225136612
1354	0.677	593.017927244	-2.79907120743	0.746616541353	-19.4098360656
1355	0.6775	577.57464887	0.0170278637771	3.56466165414	-20.8174863388
1356	0.678	581.786452063	1.42507739938	0.746616541353	-23.6327868852
1357	0.6785	600.037599232	1.42507739938	-6.2984962406	-23.6327868852
1358	0.679	605.653336823	2.83312693498	12.0187969925	-16.5945355191
1359	0.6795	590.210058449	1.42507739938	-3.48045112782	-15.1868852459
1360	0.68	559.323501701	0.0170278637771	-4.88947368421	-16.5945355191
1361	0.6805	553.707764111	-5.61517027864	6.38270676692	-13.7792349727
1362	0.681	569.151042485	0.0170278637771	3.56466165414	-18.0021857923
1363	0.6815	578.978583268	1.42507739938	2.15563909774	-18.0021857923
1364	0.682	542.47628893	1.42507739938	3.56466165414	-16.5945355191
1365	0.6825	535.456616941	1.42507739938	2.15563909774	-25.0404371585
1366	0.683	539.668420134	1.42507739938	-7.70751879699	-16.5945355191
1367	0.6835	536.860551339	1.42507739938	0.746616541353	-16.5945355191
1368	0.684	514.397600977	0.0170278637771	2.15563909774	-16.5945355191
1369	0.6845	501.762191398	-1.39102167183	3.56466165414	-15.1868852459
1370	0.685	515.801535375	0.0170278637771	0.746616541353	-18.0021857923
1371	0.6855	510.185797784	1.42507739938	0.746616541353	-3.92568306011
1372	0.686	539.668420134	2.83312693498	14.8368421053	-13.7792349727
1373	0.6865	541.072354532	-1.39102167183	13.4278195489	-15.1868852459
1374	0.687	545.284157725	8.4653250774	2.15563909774	-15.1868852459
1375	0.6875	535.456616941	-1.39102167183	-0.662406015038	-18.0021857923
1376	0.688	541.072354532	1.42507739938	2.15563909774	-18.0021857923
1377	0.6885	539.668420134	-1.39102167183	2.15563909774	-29.2633879781
1378	0.689	571.95891128	-1.39102167183	0.746616541353	-26.4480874317
1379	0.6895	616.884812004	0.0170278637771	3.56466165414	-22.225136612
1380	0.69	615.480877606	-4.20712074303	4.97368421053	-23.6327868852
1381	0.6905	621.096615197	5.64922600619	-0.662406015038	-23.6327868852
1382	0.691	636.539893571	-5.61517027864	0.746616541353	-22.225136612
1383	0.6915	661.810712728	-1.39102167183	2.15563909774	-23.6327868852
1384	0.692	712.352351042	-5.61517027864	0.746616541353	-23.6327868852
1385	0.6925	710.948416645	-5.61517027864	4.97368421053	-20.8174863388
1386	0.693	729.199563814	-4.20712074303	6.38270676692	-29.2633879781
1387	0.6935	747.450710983	-2.79907120743	-7.70751879699	-22.225136612
1388	0.694	747.450710983	-12.6554179567	-0.662406015038	-22.225136612
1389	0.6945	729.199563814	-2.79907120743	3.56466165414	-25.0404371585
1390	0.695	695.505138271	0.0170278637771	2.15563909774	-25.0404371585
1391	0.6955	685.677597488	1.42507739938	2.15563909774	-20.8174863388
1392	0.696	673.042187909	-1.39102167183	2.15563909774	-29.2633879781
1393	0.6965	668.830384716	-1.39102167183	9.2007518797	-23.6327868852
1394	0.697	649.175303149	-4.20712074303	-3.48045112782	-15.1868852459
1395	0.6975	628.116287185	-2.79907120743	10.6097744361	-25.0404371585
1396	0.698	598.633664835	0.0170278637771	0.746616541353	-22.225136612
1397	0.6985	576.170714473	4.24117647059	-0.662406015038	-22.225136612
1398	0.699	559.323501701	-1.39102167183	-0.662406015038	-20.8174863388
1399	0.6995	562.131370496	0.0170278637771	3.56466165414	-34.893989071
1400	0.7	584.594320858	1.42507739938	-9.11654135338	-23.6327868852
1401	0.7005	580.382517666	1.42507739938	-9.11654135338	-25.0404371585
1402	0.701	587.402189654	2.83312693498	-0.662406015038	-20.8174863388
1403	0.7015	608.461205618	-9.83931888545	2.15563909774	-20.8174863388
1404	0.702	623.904483992	0.0170278637771	2.15563909774	-19.4098360656
1405	0.7025	615.480877606	1.42507739938	-2.07142857143	-18.0021857923
1406	0.703	607.05727122	1.42507739938	4.97368421053	-19.4098360656
1407	0.7035	619.692680799	4.24117647059	14.8368421053	-19.4098360656
1408	0.704	635.135959173	0.0170278637771	6.38270676692	-20.8174863388
1409	0.7045	657.598909535	1.42507739938	0.746616541353	-19.4098360656
1410	0.705	677.253991102	0.0170278637771	2.15563909774	-19.4098360656
1411	0.7055	692.697269476	0.0170278637771	3.56466165414	-16.5945355191
1412	0.706	660.40677833	1.42507739938	3.56466165414	-16.5945355191
1413	0.7065	647.771368752	1.42507739938	3.56466165414	-26.4480874317
1414	0.707	647.771368752	0.0170278637771	-6.2984962406	-13.7792349727
1415	0.7075	650.579237547	-1.39102167183	9.2007518797	-20.8174863388
1416	0.708	661.810712728	-1.39102167183	14.8368421053	-22.225136612
1417	0.7085	691.293335078	-1.39102167183	-7.70751879699	-23.6327868852
1418	0.709	685.677597488	-9.83931888545	2.15563909774	-20.8174863388
1419	0.7095	674.446122307	1.42507739938	-0.662406015038	-23.6327868852
1420	0.71	682.869728692	-2.79907120743	0.746616541353	-19.4098360656
1421	0.7105	649.175303149	0.0170278637771	4.97368421053	-27.8557377049
1422	0.711	639.347762366	0.0170278637771	-6.2984962406	-23.6327868852
1423	0.7115	630.92415598	2.83312693498	-0.662406015038	-22.225136612
1424	0.712	625.30841839	-9.83931888545	0.746616541353	-20.8174863388
1425	0.7125	623.904483992	-1.39102167183	0.746616541353	-22.225136612
1426	0.713	618.288746401	-1.39102167183	2.15563909774	-22.225136612
1427	0.7135	616.884812004	0.0170278637771	3.56466165414	-23.6327868852
1428	0.714	612.673008811	1.42507739938	2.15563909774	-25.0404371585
1429	0.7145	615.480877606	1.42507739938	-0.662406015038	-16.5945355191
1430	0.715	607.05727122	0.0170278637771	-0.662406015038	-34.893989071
1431	0.7155	584.594320858	-2.79907120743	3.56466165414	-29.2633879781
1432	0.716	577.57464887	19.7297213622	0.746616541353	-27.8557377049
1433	0.7165	570.554976882	-5.61517027864	-0.662406015038	-26.4480874317
1434	0.717	585.998255256	0.0170278637771	0.746616541353	-23.6327868852
1435	0.7175	573.362845677	-1.39102167183	3.56466165414	-29.2633879781
1436	0.718	584.594320858	-4.20712074303	-11.9345864662	-29.2633879781
1437	0.7185	629.520221582	1.42507739938	-7.70751879699	-22.225136612
1438	0.719	668.830384716	1.42507739938	2.15563909774	-22.225136612
1439	0.7195	668.830384716	-12.6554179567	2.15563909774	-22.225136612
1440	0.72	657.598909535	-4.20712074303	0.746616541353	-20.8174863388
1441	0.7205	637.943827968	-1.39102167183	2.15563909774	-20.8174863388
1442	0.721	660.40677833	-2.79907120743	3.56466165414	-25.0404371585
1443	0.7215	649.175303149	-2.79907120743	-7.70751879699	-22.225136612
1444	0.722	633.732024775	-1.39102167183	0.746616541353	-22.225136612
1445	0.7225	651.983171945	0.0170278637771	3.56466165414	-23.6327868852
1446	0.723	673.042187909	0.0170278637771	2.15563909774	-23.6327868852
1447	0.7235	675.850056704	2.83312693498	-2.07142857143	-22.225136612
1448	0.724	680.061859897	1.42507739938	0.746616541353	-22.225136612
1449	0.7245	680.061859897	0.0170278637771	0.746616541353	-20.8174863388
1450	0.725	671.638253511	1.42507739938	3.56466165414	-22.225136612
1451	0.7255	668.830384716	0.0170278637771	19.0639097744	-23.6327868852
1452	0.726	674.446122307	0.0170278637771	14.8368421053	-26.4480874317
1453	0.7265	692.697269476	18.3216718266	0.746616541353	-23.6327868852
1454	0.727	691.293335078	-2.79907120743	3.56466165414	-23.6327868852
1455	0.7275	689.88940068	1.42507739938	3.56466165414	-25.0404371585
1456	0.728	680.061859897	-2.79907120743	2.15563909774	-25.0404371585
1457	0.7285	680.061859897	-1.39102167183	2.15563909774	-32.0786885246
1458	0.729	698.313007066	0.0170278637771	0.746616541353	-34.893989071
1459	0.7295	674.446122307	-1.39102167183	-7.70751879699	-20.8174863388
1460	0.73	650.579237547	-9.83931888545	2.15563909774	-25.0404371585
1461	0.7305	649.175303149	-8.43126934985	2.15563909774	-27.8557377049
1462	0.731	649.175303149	-2.79907120743	-0.662406015038	-26.4480874317
1463	0.7315	636.539893571	-1.39102167183	0.746616541353	-23.6327868852
1464	0.732	628.116287185	0.0170278637771	0.746616541353	-33.4863387978
1465	0.7325	629.520221582	0.0170278637771	-0.662406015038	-18.0021857923
1466	0.733	643.559565559	0.0170278637771	-0.662406015038	-27.8557377049
1467	0.7335	646.367434354	-4.20712074303	-0.662406015038	-27.8557377049
1468	0.734	622.500549594	2.83312693498	3.56466165414	-27.8557377049
1469	0.7345	604.249402425	1.42507739938	-0.662406015038	-27.8557377049
1470	0.735	635.135959173	1.42507739938	0.746616541353	-32.0786885246
1471	0.7355	643.559565559	0.0170278637771	0.746616541353	-25.0404371585
1472	0.736	642.155631161	2.83312693498	3.56466165414	-26.4480874317
1473	0.7365	649.175303149	1.42507739938	-2.07142857143	-26.4480874317
1474	0.737	670.234319114	-1.39102167183	3.56466165414	-26.4480874317
1475	0.7375	684.27366309	-4.20712074303	0.746616541353	-25.0404371585
1476	0.738	684.27366309	-9.83931888545	2.15563909774	-27.8557377049
1477	0.7385	689.88940068	0.0170278637771	2.15563909774	-27.8557377049
1478	0.739	717.968088633	1.42507739938	4.97368421053	-39.1169398907
1479	0.7395	732.007432609	0.0170278637771	3.56466165414	-36.3016393443
1480	0.74	706.736613452	2.83312693498	19.0639097744	-29.2633879781
1481	0.7405	691.293335078	-1.39102167183	2.15563909774	-26.4480874317
1482	0.741	692.697269476	-1.39102167183	-4.88947368421	-30.6710382514
1483	0.7415	705.332679054	1.42507739938	0.746616541353	-27.8557377049
1484	0.742	691.293335078	0.0170278637771	-0.662406015038	-23.6327868852
1485	0.7425	674.446122307	-2.79907120743	0.746616541353	-39.1169398907
1486	0.743	681.465794295	0.0170278637771	0.746616541353	-33.4863387978
1487	0.7435	691.293335078	1.42507739938	-3.48045112782	-29.2633879781
1488	0.744	685.677597488	0.0170278637771	-3.48045112782	-29.2633879781
1489	0.7445	670.234319114	11.2814241486	2.15563909774	-29.2633879781
1490	0.745	654.79104074	-8.43126934985	0.746616541353	-27.8557377049
1491	0.7455	635.135959173	-7.02321981424	0.746616541353	-29.2633879781
1492	0.746	611.269074413	-1.39102167183	3.56466165414	-25.0404371585
1493	0.7465	581.786452063	-5.61517027864	2.15563909774	-27.8557377049
1494	0.747	564.939239292	-2.79907120743	3.56466165414	-27.8557377049
1495	0.7475	562.131370496	-1.39102167183	6.38270676692	-27.8557377049
1496	0.748	539.668420134	0.0170278637771	0.746616541353	-29.2633879781
1497	0.7485	524.22514176	1.42507739938	2.15563909774	-27.8557377049
1498	0.749	524.22514176	-1.39102167183	-2.07142857143	-32.0786885246
1499	0.7495	515.801535375	-4.20712074303	-0.662406015038	-16.5945355191
1500	0.75	542.47628893	-2.79907120743	6.38270676692	-30.6710382514
1501	0.7505	548.09202652	0.0170278637771	4.97368421053	-29.2633879781
1502	0.751	594.421861642	1.42507739938	2.15563909774	-32.0786885246
1503	0.7515	616.884812004	4.24117647059	0.746616541353	-33.4863387978
1504	0.752	630.92415598	11.2814241486	-0.662406015038	-29.2633879781
1505	0.7525	637.943827968	1.42507739938	2.15563909774	-29.2633879781
1506	0.753	668.830384716	2.83312693498	0.746616541353	-36.3016393443
1507	0.7535	657.598909535	0.0170278637771	2.15563909774	-27.8557377049
1508	0.754	671.638253511	1.42507739938	12.0187969925	-30.6710382514
1509	0.7545	685.677597488	-1.39102167183	0.746616541353	-27.8557377049
1510	0.755	713.75628544	1.42507739938	3.56466165414	-32.0786885246
1511	0.7555	724.987760621	9.873374613	0.746616541353	-26.4480874317
1512	0.756	733.411367007	-1.39102167183	0.746616541353	-30.6710382514
1513	0.7565	741.834973393	1.42507739938	0.746616541353	-30.6710382514
1514	0.757	730.603498212	-1.39102167183	-0.662406015038	-37.7092896175
1515	0.7575	737.6231702	-2.79907120743	0.746616541353	-18.0021857923
1516	0.758	746.046776586	-4.20712074303	17.654887218	-33.4863387978
1517	0.7585	734.815301405	-11.2473684211	2.15563909774	-30.6710382514
1518	0.759	703.928744657	-2.79907120743	-0.662406015038	-32.0786885246
1519	0.7595	702.524810259	1.42507739938	0.746616541353	-30.6710382514
1520	0.76	754.470382971	-2.79907120743	0.746616541353	-25.0404371585
1521	0.7605	775.529398936	-2.79907120743	2.15563909774	-37.7092896175
1522	0.761	789.568742912	1.42507739938	6.38270676692	-36.3016393443
1523	0.7615	795.184480502	0.0170278637771	7.79172932331	-36.3016393443
1524	0.762	785.356939719	-7.02321981424	-0.662406015038	-36.3016393443
1525	0.7625	767.10579255	-2.79907120743	2.15563909774	-37.7092896175
1526	0.763	733.411367007	-2.79907120743	0.746616541353	-36.3016393443
1527	0.7635	746.046776586	2.83312693498	3.56466165414	-47.5628415301
1528	0.764	730.603498212	1.42507739938	-0.662406015038	-29.2633879781
1529	0.7645	712.352351042	1.42507739938	3.56466165414	-51.7857923497
1530	0.765	701.120875861	0.0170278637771	-7.70751879699	-43.3398907104
1531	0.7655	668.830384716	0.0170278637771	-7.70751879699	-44.7475409836
1532	0.766	660.40677833	-2.79907120743	0.746616541353	-41.9322404372
1533	0.7665	661.810712728	0.0170278637771	2.15563909774	-44.7475409836
1534	0.767	689.88940068	-5.61517027864	0.746616541353	-39.1169398907
1535	0.7675	666.022515921	-2.79907120743	0.746616541353	-37.7092896175
1536	0.768	684.27366309	-2.79907120743	-0.662406015038	-30.6710382514
1537	0.7685	699.716941464	0.0170278637771	14.8368421053	-39.1169398907
1538	0.769	702.524810259	-2.79907120743	2.15563909774	-39.1169398907
1539	0.7695	713.75628544	-8.43126934985	3.56466165414	-40.5245901639
1540	0.77	729.199563814	1.42507739938	0.746616541353	-39.1169398907
1541	0.7705	723.583826224	0.0170278637771	2.15563909774	-37.7092896175
1542	0.771	730.603498212	1.42507739938	-0.662406015038	-47.5628415301
1543	0.7715	758.682186164	2.83312693498	0.746616541353	-32.0786885246
1544	0.772	775.529398936	0.0170278637771	6.38270676692	-39.1169398907
1545	0.7725	767.10579255	-1.39102167183	6.38270676692	-40.5245901639
1546	0.773	743.23890779	1.42507739938	3.56466165414	-40.5245901639
1547	0.7735	736.219235802	-5.61517027864	-0.662406015038	-39.1169398907
1548	0.774	751.662514176	0.0170278637771	-3.48045112782	-37.7092896175
1549	0.7745	782.549070924	-2.79907120743	0.746616541353	-36.3016393443
1550	0.775	786.760874117	-1.39102167183	-3.48045112782	-37.7092896175
1551	0.7755	767.10579255	0.0170278637771	-0.662406015038	-46.1551912568
1552	0.776	754.470382971	0.0170278637771	-6.2984962406	-39.1169398907
1553	0.7765	769.913661345	-1.39102167183	-3.48045112782	-39.1169398907
1554	0.777	792.376611707	1.42507739938	4.97368421053	-36.3016393443
1555	0.7775	802.204152491	1.42507739938	0.746616541353	-40.5245901639
1556	0.778	817.647430865	0.0170278637771	3.56466165414	-39.1169398907
1557	0.7785	792.376611707	0.0170278637771	2.15563909774	-20.8174863388
1558	0.779	781.145136526	1.42507739938	20.4729323308	-34.893989071
1559	0.7795	805.012021286	-2.79907120743	0.746616541353	-36.3016393443
1560	0.78	817.647430865	-1.39102167183	-3.48045112782	-34.893989071
1561	0.7805	799.396283695	2.83312693498	0.746616541353	-34.893989071
1562	0.781	746.046776586	-1.39102167183	-2.07142857143	-36.3016393443
1563	0.7815	754.470382971	-2.79907120743	-0.662406015038	-33.4863387978
1564	0.782	701.120875861	1.42507739938	0.746616541353	-33.4863387978
1565	0.7825	666.022515921	0.0170278637771	13.4278195489	-36.3016393443
1566	0.783	657.598909535	-1.39102167183	3.56466165414	-36.3016393443
1567	0.7835	626.712352787	2.83312693498	0.746616541353	-34.893989071
1568	0.784	573.362845677	1.42507739938	-0.662406015038	-36.3016393443
1569	0.7845	532.648748146	0.0170278637771	2.15563909774	-32.0786885246
1570	0.785	528.436944953	0.0170278637771	3.56466165414	-33.4863387978
1571	0.7855	518.60940417	0.0170278637771	2.15563909774	-36.3016393443
1572	0.786	505.973994591	-1.39102167183	-2.07142857143	-19.4098360656
1573	0.7865	489.12678182	1.42507739938	12.0187969925	-34.893989071
1574	0.787	486.318913025	0.0170278637771	7.79172932331	-36.3016393443
1575	0.7875	496.146453808	2.83312693498	3.56466165414	-34.893989071
1576	0.788	494.74251941	-2.79907120743	0.746616541353	-36.3016393443
1577	0.7885	498.954322603	0.0170278637771	0.746616541353	-34.893989071
1578	0.789	494.74251941	0.0170278637771	2.15563909774	-33.4863387978
1579	0.7895	483.511044229	-2.79907120743	4.97368421053	-46.1551912568
1580	0.79	432.969405915	-2.79907120743	-10.5255639098	-36.3016393443
1581	0.7905	399.274980372	0.0170278637771	3.56466165414	-34.893989071
1582	0.791	420.333996336	2.83312693498	-3.48045112782	-33.4863387978
1583	0.7915	459.64415947	4.24117647059	0.746616541353	-36.3016393443
1584	0.792	452.624487481	16.913622291	-0.662406015038	-36.3016393443
1585	0.7925	463.855962662	-1.39102167183	0.746616541353	-34.893989071
1586	0.793	461.048093867	-1.39102167183	-0.662406015038	-36.3016393443
1587	0.7935	486.318913025	0.0170278637771	-0.662406015038	-36.3016393443
1588	0.794	465.25989706	2.83312693498	-4.88947368421	-34.893989071
1589	0.7945	424.545799529	4.24117647059	2.15563909774	-36.3016393443
1590	0.795	365.580554829	-12.6554179567	-0.662406015038	-33.4863387978
1591	0.7955	326.270391695	0.0170278637771	0.746616541353	-36.3016393443
1592	0.796	288.364162959	-1.39102167183	3.56466165414	-39.1169398907
1593	0.7965	274.324818983	-2.79907120743	3.56466165414	-36.3016393443
1594	0.797	225.187115066	-1.39102167183	4.97368421053	-34.893989071
1595	0.7975	202.724164704	-1.39102167183	3.56466165414	-37.7092896175
1596	0.798	194.300558318	-1.39102167183	14.8368421053	-39.1169398907
1597	0.7985	197.108427113	-2.79907120743	17.654887218	-40.5245901639
1598	0.799	188.684820728	16.913622291	2.15563909774	-36.3016393443
1599	0.7995	183.069083137	-1.39102167183	-0.662406015038	-34.893989071
1600	0.8	201.320230306	0.0170278637771	2.15563909774	-36.3016393443
1601	0.8005	222.379246271	-1.39102167183	-2.07142857143	-39.1169398907
1602	0.801	244.842196633	0.0170278637771	-9.11654135338	-40.5245901639
1603	0.8015	296.787769345	0.0170278637771	0.746616541353	-32.0786885246
1604	0.802	345.925473262	0.0170278637771	6.38270676692	-39.1169398907
1605	0.8025	390.851373986	4.24117647059	3.56466165414	-34.893989071
1606	0.803	404.890717962	-5.61517027864	0.746616541353	-33.4863387978
1607	0.8035	399.274980372	1.42507739938	0.746616541353	-29.2633879781
1608	0.804	393.659242781	1.42507739938	2.15563909774	-33.4863387978
1609	0.8045	381.023833202	-2.79907120743	-0.662406015038	-43.3398907104
1610	0.805	357.156948443	0.0170278637771	-6.2984962406	-30.6710382514
1611	0.8055	340.309735671	2.83312693498	19.0639097744	-27.8557377049
1612	0.806	319.250719707	-1.39102167183	3.56466165414	-27.8557377049
1613	0.8065	302.403506935	22.5458204334	-0.662406015038	-29.2633879781
1614	0.807	264.497278199	4.24117647059	0.746616541353	-27.8557377049
1615	0.8075	226.591049463	4.24117647059	3.56466165414	-27.8557377049
1616	0.808	263.093343802	7.0572755418	0.746616541353	-23.6327868852
1617	0.8085	281.344490971	8.4653250774	3.56466165414	-29.2633879781
1618	0.809	270.11301579	5.64922600619	-0.662406015038	-36.3016393443
1619	0.8095	261.689409404	9.873374613	-7.70751879699	-29.2633879781
1620	0.81	268.709081392	-5.61517027864	0.746616541353	-29.2633879781
1621	0.8105	291.172031754	1.42507739938	3.56466165414	-23.6327868852
1622	0.811	285.556294164	-2.79907120743	0.746616541353	-23.6327868852
1623	0.8115	309.423178923	0.0170278637771	2.15563909774	-20.8174863388
1624	0.812	298.191703742	1.42507739938	3.56466165414	-23.6327868852
1625	0.8125	308.019244526	0.0170278637771	4.97368421053	-32.0786885246
1626	0.813	309.423178923	1.42507739938	-6.2984962406	-23.6327868852
1627	0.8135	308.019244526	1.42507739938	2.15563909774	-23.6327868852
1628	0.814	279.940556573	0.0170278637771	0.746616541353	-25.0404371585
1629	0.8145	243.438262235	4.24117647059	2.15563909774	-25.0404371585
1630	0.815	257.477606211	5.64922600619	-2.07142857143	-23.6327868852
1631	0.8155	235.014655849	1.42507739938	2.15563909774	-22.225136612
1632	0.816	230.802852656	-4.20712074303	-6.2984962406	-25.0404371585
1633	0.8165	233.610721452	-7.02321981424	-6.2984962406	-26.4480874317
1634	0.817	199.916295909	-21.1037151703	2.15563909774	-25.0404371585
1635	0.8175	188.684820728	-26.7359133127	2.15563909774	-23.6327868852
1636	0.818	212.551705487	-15.4715170279	2.15563909774	-23.6327868852
1637	0.8185	212.551705487	-12.6554179567	2.15563909774	-18.0021857923
1638	0.819	218.167443078	-11.2473684211	-0.662406015038	-33.4863387978
1639	0.8195	206.935967897	-12.6554179567	-9.11654135338	-23.6327868852
1640	0.82	216.76350868	-8.43126934985	19.0639097744	-25.0404371585
1641	0.8205	229.398918259	-18.2876160991	3.56466165414	-20.8174863388
1642	0.821	239.226459042	-9.83931888545	2.15563909774	-23.6327868852
1643	0.8215	243.438262235	-8.43126934985	-0.662406015038	-20.8174863388
1644	0.822	218.167443078	-5.61517027864	-0.662406015038	-20.8174863388
1645	0.8225	239.226459042	-7.02321981424	-0.662406015038	-32.0786885246
1646	0.823	237.822524645	-5.61517027864	-6.2984962406	-26.4480874317
1647	0.8235	208.339902294	-1.39102167183	4.97368421053	-20.8174863388
1648	0.824	194.300558318	-1.39102167183	-6.2984962406	-20.8174863388
1649	0.8245	204.128099101	-1.39102167183	-2.07142857143	-25.0404371585
1650	0.825	235.014655849	-5.61517027864	2.15563909774	-25.0404371585
1651	0.8255	242.034327837	2.83312693498	-0.662406015038	-26.4480874317
1652	0.826	218.167443078	2.83312693498	-0.662406015038	-25.0404371585
1653	0.8265	215.359574282	0.0170278637771	2.15563909774	-30.6710382514
1654	0.827	211.14777109	-1.39102167183	-6.2984962406	-27.8557377049
1655	0.8275	197.108427113	5.64922600619	4.97368421053	-25.0404371585
1656	0.828	188.684820728	-2.79907120743	-3.48045112782	-29.2633879781
1657	0.8285	164.817935968	14.0975232198	-0.662406015038	-30.6710382514
1658	0.829	132.527444822	1.42507739938	0.746616541353	-34.893989071
1659	0.8295	152.182526389	0.0170278637771	0.746616541353	-36.3016393443
1660	0.83	117.084166449	-1.39102167183	-0.662406015038	-23.6327868852
1661	0.8305	108.660560063	0.0170278637771	4.97368421053	-29.2633879781
1662	0.831	84.7936753031	-2.79907120743	0.746616541353	-30.6710382514
1663	0.8315	59.5228561459	2.83312693498	-0.662406015038	-32.0786885246
1664	0.832	34.2520369886	1.42507739938	0.746616541353	-30.6710382514
1665	0.8325	34.2520369886	-1.39102167183	-0.662406015038	-30.6710382514
1666	0.833	45.4835121696	0.0170278637771	-0.662406015038	-25.0404371585
1667	0.8335	38.4638401815	-1.39102167183	2.15563909774	-33.4863387978
1668	0.834	46.8874465672	0.0170278637771	-2.07142857143	-32.0786885246
1669	0.8345	48.2913809648	0.0170278637771	3.56466165414	-8.14863387978
1670	0.835	39.8677745791	0.0170278637771	20.4729323308	-23.6327868852
1671	0.8355	37.0599057838	-5.61517027864	-6.2984962406	-22.225136612
1672	0.836	17.404824217	-15.4715170279	2.15563909774	-18.0021857923
1673	0.8365	14.5969554218	-15.4715170279	2.15563909774	-20.8174863388
1674	0.837	25.8284306028	-5.61517027864	3.56466165414	-13.7792349727
1675	0.8375	45.4835121696	-2.79907120743	4.97368421053	-20.8174863388
1676	0.838	58.1189217482	-4.20712074303	-9.11654135338	-15.1868852459
1677	0.8385	67.9464625316	1.42507739938	-3.48045112782	-13.7792349727
1678	0.839	79.1779377126	9.873374613	2.15563909774	-16.5945355191
1679	0.8395	76.3700689174	7.0572755418	2.15563909774	-13.7792349727
1680	0.84	69.3503969293	7.0572755418	0.746616541353	-12.3715846995
1681	0.8405	89.005478496	9.873374613	-0.662406015038	-13.7792349727
1682	0.841	105.852691268	1.42507739938	-0.662406015038	0.297267759563
1683	0.8415	126.911707232	1.42507739938	-0.662406015038	-2.51803278689
1684	0.842	114.276297653	1.42507739938	3.56466165414	-13.7792349727
1685	0.8425	94.6212160865	2.83312693498	7.79172932331	-15.1868852459
1686	0.843	100.236953677	4.24117647059	0.746616541353	-18.0021857923
1687	0.8435	124.103838437	11.2814241486	0.746616541353	-18.0021857923
1688	0.844	138.143182413	1.42507739938	0.746616541353	-13.7792349727
1689	0.8445	136.739248015	1.42507739938	0.746616541353	-20.8174863388
1690	0.845	131.123510425	0.0170278637771	0.746616541353	-26.4480874317
1691	0.8455	131.123510425	-4.20712074303	0.746616541353	-3.92568306011
1692	0.846	133.93137922	-2.79907120743	0.746616541353	-16.5945355191
1693	0.8465	145.162854401	-16.8795665635	3.56466165414	-19.4098360656
1694	0.847	166.221870366	-15.4715170279	3.56466165414	-19.4098360656
1695	0.8475	142.354985606	7.0572755418	3.56466165414	-18.0021857923
1696	0.848	91.8133472913	1.42507739938	2.15563909774	-29.2633879781
1697	0.8485	77.774003315	2.83312693498	-0.662406015038	-27.8557377049
1698	0.849	59.5228561459	7.0572755418	-7.70751879699	-26.4480874317
1699	0.8495	32.8481025909	7.0572755418	2.15563909774	-20.8174863388
1700	0.85	17.404824217	4.24117647059	2.15563909774	-19.4098360656
1701	0.8505	-2.25025734973	2.83312693498	2.15563909774	-20.8174863388
1702	0.851	8.98121783128	2.83312693498	2.15563909774	-20.8174863388
1703	0.8515	28.6362993981	-1.39102167183	0.746616541353	-22.225136612
1704	0.852	46.8874465672	1.42507739938	3.56466165414	-32.0786885246
1705	0.8525	67.9464625316	1.42507739938	2.15563909774	-23.6327868852
1706	0.853	53.9071185554	1.42507739938	16.2458646617	-19.4098360656
1707	0.8535	41.2717089767	1.42507739938	2.15563909774	-20.8174863388
1708	0.854	27.2323650004	-8.43126934985	2.15563909774	-18.0021857923
1709	0.8545	21.6166274099	19.7297213622	3.56466165414	-18.0021857923
1710	0.855	53.9071185554	-5.61517027864	2.15563909774	-13.7792349727
1711	0.8555	72.1582657245	0.0170278637771	2.15563909774	-13.7792349727
1712	0.856	104.44875687	1.42507739938	4.97368421053	-25.0404371585
1713	0.8565	114.276297653	1.42507739938	-0.662406015038	1.70491803279
1714	0.857	111.468428858	-2.79907120743	20.4729323308	-13.7792349727
1715	0.8575	107.256625665	0.0170278637771	-7.70751879699	-13.7792349727
1716	0.858	114.276297653	-11.2473684211	0.746616541353	-13.7792349727
1717	0.8585	122.699904039	-8.43126934985	3.56466165414	-10.9639344262
1718	0.859	107.256625665	-2.79907120743	0.746616541353	-6.74098360656
1719	0.8595	143.758920003	-1.39102167183	6.38270676692	-10.9639344262
1720	0.86	157.79826398	-2.79907120743	3.56466165414	-5.33333333333
1721	0.8605	135.335313618	5.64922600619	-6.2984962406	-10.9639344262
1722	0.861	118.488100846	15.5055727554	0.746616541353	-9.55628415301
1723	0.8615	122.699904039	2.83312693498	0.746616541353	-9.55628415301
1724	0.862	126.911707232	2.83312693498	3.56466165414	-6.74098360656
1725	0.8625	110.06449446	-4.20712074303	-0.662406015038	-5.33333333333
1726	0.863	117.084166449	0.0170278637771	-0.662406015038	-12.3715846995
1727	0.8635	114.276297653	1.42507739938	-2.07142857143	1.70491803279
1728	0.864	94.6212160865	0.0170278637771	-0.662406015038	-2.51803278689
1729	0.8645	73.5622001221	-8.43126934985	-0.662406015038	-1.11038251366
1730	0.865	35.6559713862	14.0975232198	0.746616541353	-1.11038251366
1731	0.8655	16.0008898194	14.0975232198	-0.662406015038	-2.51803278689
1732	0.866	24.4244962052	5.64922600619	-0.662406015038	3.11256830601
1733	0.8665	24.4244962052	1.42507739938	-0.662406015038	7.33551912568
1734	0.867	17.404824217	4.24117647059	3.56466165414	3.11256830601
1735	0.8675	8.98121783128	1.42507739938	2.15563909774	0.297267759563
1736	0.868	-5.05812614499	7.0572755418	0.746616541353	1.70491803279
1737	0.8685	8.98121783128	5.64922600619	-0.662406015038	0.297267759563
1738	0.869	3.36548024077	11.2814241486	-0.662406015038	4.52021857923
1739	0.8695	8.98121783128	4.24117647059	0.746616541353	0.297267759563
1740	0.87	4.7694146384	5.64922600619	0.746616541353	0.297267759563
1741	0.8705	14.5969554218	1.42507739938	2.15563909774	-2.51803278689
1742	0.871	-6.46206054262	5.64922600619	-4.88947368421	4.52021857923
1743	0.8715	-17.6935357236	5.64922600619	0.746616541353	0.297267759563
1744	0.872	-27.521076507	-5.61517027864	0.746616541353	0.297267759563
