	Time	Channel 1	Channel 2	Channel 3	Channel 4
0	0.0	8.0	-3.296	-2.77049180328	60.7901587302
1	0.0005	2.26666666667	-4.728	-1.34426229508	57.9736507937
2	0.001	3.7	-3.296	-4.19672131148	52.3406349206
3	0.0015	8.0	-6.16	7.2131147541	59.3819047619
4	0.002	16.6	-3.296	1.50819672131	60.7901587302
5	0.0025	2.26666666667	-0.432	1.50819672131	56.5653968254
6	0.003	0.833333333333	-1.864	-7.04918032787	56.5653968254
7	0.0035	2.26666666667	-16.184	-1.34426229508	63.6066666667
8	0.004	0.833333333333	-6.16	-1.34426229508	55.1571428571
9	0.0045	0.833333333333	-3.296	4.3606557377	70.6479365079
10	0.005	0.833333333333	-1.864	4.3606557377	57.9736507937
11	0.0055	0.833333333333	-1.864	1.50819672131	60.7901587302
12	0.006	3.7	-0.432	-1.34426229508	59.3819047619
13	0.0065	0.833333333333	-0.432	0.0819672131147	67.8314285714
14	0.007	3.7	-1.864	0.0819672131147	66.4231746032
15	0.0075	3.7	-3.296	18.6229508197	57.9736507937
16	0.008	2.26666666667	-6.16	15.7704918033	57.9736507937
17	0.0085	5.13333333333	9.592	-1.34426229508	56.5653968254
18	0.009	0.833333333333	-4.728	0.0819672131147	53.7488888889
19	0.0095	-4.9	-6.16	2.93442622951	41.0746031746
20	0.01	0.833333333333	-3.296	1.50819672131	43.8911111111
21	0.0105	5.13333333333	-1.864	-9.90163934426	48.1158730159
22	0.011	2.26666666667	-3.296	-4.19672131148	50.9323809524
23	0.0115	0.833333333333	15.32	0.0819672131147	53.7488888889
24	0.012	-0.6	-11.888	1.50819672131	50.9323809524
25	0.0125	20.9	-3.296	-2.77049180328	52.3406349206
26	0.013	-7.76666666667	-3.296	2.93442622951	67.8314285714
27	0.0135	0.833333333333	-4.728	2.93442622951	42.4828571429
28	0.014	0.833333333333	-0.432	-8.47540983607	50.9323809524
29	0.0145	2.26666666667	-0.432	1.50819672131	50.9323809524
30	0.015	-3.46666666667	-13.32	0.0819672131147	52.3406349206
31	0.0155	5.13333333333	-13.32	0.0819672131147	53.7488888889
32	0.016	19.4666666667	-4.728	0.0819672131147	41.0746031746
33	0.0165	-0.6	-6.16	2.93442622951	53.7488888889
34	0.017	0.833333333333	-1.864	12.9180327869	50.9323809524
35	0.0175	-2.03333333333	-6.16	-1.34426229508	59.3819047619
36	0.018	-0.6	-11.888	2.93442622951	57.9736507937
37	0.0185	-3.46666666667	16.752	0.0819672131147	59.3819047619
38	0.019	-12.0666666667	-3.296	0.0819672131147	59.3819047619
39	0.0195	-9.2	-1.864	1.50819672131	52.3406349206
40	0.02	-3.46666666667	-4.728	1.50819672131	55.1571428571
41	0.0205	-0.6	-3.296	-2.77049180328	50.9323809524
42	0.021	-0.6	-3.296	-1.34426229508	53.7488888889
43	0.0215	-0.6	-1.864	2.93442622951	52.3406349206
44	0.022	2.26666666667	-0.432	5.7868852459	52.3406349206
45	0.0225	9.43333333333	-4.728	1.50819672131	45.2993650794
46	0.023	-3.46666666667	-3.296	0.0819672131147	45.2993650794
47	0.0235	-2.03333333333	-4.728	4.3606557377	43.8911111111
48	0.024	-0.6	-3.296	-2.77049180328	50.9323809524
49	0.0245	-0.6	-4.728	4.3606557377	50.9323809524
50	0.025	-2.03333333333	-9.024	2.93442622951	49.5241269841
51	0.0255	-0.6	-3.296	2.93442622951	49.5241269841
52	0.026	12.3	-1.864	0.0819672131147	50.9323809524
53	0.0265	-2.03333333333	-1.864	1.50819672131	62.1984126984
54	0.027	-4.9	-1.864	1.50819672131	42.4828571429
55	0.0275	-3.46666666667	-3.296	-9.90163934426	49.5241269841
56	0.028	-3.46666666667	9.592	1.50819672131	48.1158730159
57	0.0285	-2.03333333333	-1.864	0.0819672131147	48.1158730159
58	0.029	0.833333333333	-3.296	0.0819672131147	50.9323809524
59	0.0295	-3.46666666667	-3.296	2.93442622951	45.2993650794
60	0.03	-2.03333333333	-3.296	2.93442622951	60.7901587302
61	0.0305	-0.6	-3.296	12.9180327869	48.1158730159
62	0.031	0.833333333333	-3.296	4.3606557377	50.9323809524
63	0.0315	-2.03333333333	-10.456	1.50819672131	49.5241269841
64	0.032	-0.6	-1.864	4.3606557377	46.7076190476
65	0.0325	-12.0666666667	1.0	2.93442622951	46.7076190476
66	0.033	-3.46666666667	-0.432	1.50819672131	42.4828571429
67	0.0335	-2.03333333333	-1.864	-8.47540983607	49.5241269841
68	0.034	-2.03333333333	2.432	0.0819672131147	48.1158730159
69	0.0345	-3.46666666667	-14.752	-2.77049180328	49.5241269841
70	0.035	0.833333333333	-1.864	0.0819672131147	45.2993650794
71	0.0355	-13.5	-1.864	1.50819672131	49.5241269841
72	0.036	-2.03333333333	-0.432	1.50819672131	41.0746031746
73	0.0365	-4.9	-1.864	-7.04918032787	46.7076190476
74	0.037	-4.9	-0.432	-2.77049180328	45.2993650794
75	0.0375	-3.46666666667	1.0	-4.19672131148	49.5241269841
76	0.038	-6.33333333333	5.296	-1.34426229508	46.7076190476
77	0.0385	-2.03333333333	1.0	4.3606557377	45.2993650794
78	0.039	0.833333333333	1.0	2.93442622951	43.8911111111
79	0.0395	-3.46666666667	-0.432	1.50819672131	42.4828571429
80	0.04	-6.33333333333	1.0	-1.34426229508	56.5653968254
81	0.0405	-4.9	1.0	12.9180327869	42.4828571429
82	0.041	-4.9	-6.16	0.0819672131147	42.4828571429
83	0.0415	-3.46666666667	15.32	2.93442622951	42.4828571429
84	0.042	-7.76666666667	2.432	0.0819672131147	43.8911111111
85	0.0425	-12.0666666667	1.0	1.50819672131	42.4828571429
86	0.043	-3.46666666667	1.0	-1.34426229508	34.0333333333
87	0.0435	-4.9	1.0	0.0819672131147	29.8085714286
88	0.044	-3.46666666667	-1.864	-1.34426229508	39.6663492063
89	0.0445	-2.03333333333	13.888	1.50819672131	39.6663492063
90	0.045	-3.46666666667	-4.728	1.50819672131	42.4828571429
91	0.0455	-0.6	-0.432	1.50819672131	38.2580952381
92	0.046	-4.9	2.432	1.50819672131	38.2580952381
93	0.0465	-3.46666666667	2.432	-2.77049180328	39.6663492063
94	0.047	-3.46666666667	-1.864	11.4918032787	42.4828571429
95	0.0475	-2.03333333333	2.432	1.50819672131	39.6663492063
96	0.048	-2.03333333333	-6.16	2.93442622951	42.4828571429
97	0.0485	-10.6333333333	1.0	-1.34426229508	45.2993650794
98	0.049	-2.03333333333	2.432	0.0819672131147	48.1158730159
99	0.0495	-3.46666666667	1.0	2.93442622951	39.6663492063
100	0.05	-2.03333333333	3.864	4.3606557377	46.7076190476
101	0.0505	-3.46666666667	3.864	7.2131147541	49.5241269841
102	0.051	-2.03333333333	6.728	1.50819672131	50.9323809524
103	0.0515	-2.03333333333	6.728	-1.34426229508	50.9323809524
104	0.052	-0.6	2.432	0.0819672131147	45.2993650794
105	0.0525	-6.33333333333	3.864	-1.34426229508	45.2993650794
106	0.053	-4.9	2.432	4.3606557377	45.2993650794
107	0.0535	-3.46666666667	6.728	-2.77049180328	45.2993650794
108	0.054	-3.46666666667	-7.592	1.50819672131	45.2993650794
109	0.0545	0.833333333333	-0.432	2.93442622951	46.7076190476
110	0.055	-16.3666666667	1.0	1.50819672131	48.1158730159
111	0.0555	-10.6333333333	2.432	1.50819672131	42.4828571429
112	0.056	-3.46666666667	3.864	0.0819672131147	55.1571428571
113	0.0565	-4.9	3.864	15.7704918033	41.0746031746
114	0.057	-3.46666666667	2.432	-2.77049180328	42.4828571429
115	0.0575	-0.6	-3.296	-4.19672131148	41.0746031746
116	0.058	-2.03333333333	3.864	0.0819672131147	41.0746031746
117	0.0585	-14.9333333333	5.296	-1.34426229508	53.7488888889
118	0.059	-4.9	5.296	2.93442622951	28.4003174603
119	0.0595	-4.9	5.296	-9.90163934426	42.4828571429
120	0.06	-4.9	6.728	-12.7540983607	39.6663492063
121	0.0605	-4.9	23.912	-1.34426229508	39.6663492063
122	0.061	-7.76666666667	-6.16	-1.34426229508	42.4828571429
123	0.0615	13.7333333333	2.432	2.93442622951	42.4828571429
124	0.062	-12.0666666667	2.432	-1.34426229508	43.8911111111
125	0.0625	-4.9	3.864	1.50819672131	38.2580952381
126	0.063	-4.9	6.728	1.50819672131	41.0746031746
127	0.0635	-6.33333333333	2.432	0.0819672131147	39.6663492063
128	0.064	-4.9	15.32	-1.34426229508	38.2580952381
129	0.0645	-6.33333333333	6.728	0.0819672131147	36.8498412698
130	0.065	-10.6333333333	5.296	-1.34426229508	34.0333333333
131	0.0655	-6.33333333333	3.864	-4.19672131148	28.4003174603
132	0.066	-6.33333333333	5.296	-12.7540983607	35.4415873016
133	0.0665	-6.33333333333	2.432	-7.04918032787	35.4415873016
134	0.067	-4.9	8.16	-8.47540983607	39.6663492063
135	0.0675	-7.76666666667	-4.728	-1.34426229508	38.2580952381
136	0.068	-3.46666666667	2.432	-5.62295081967	36.8498412698
137	0.0685	-4.9	2.432	-2.77049180328	48.1158730159
138	0.069	-6.33333333333	3.864	-1.34426229508	45.2993650794
139	0.0695	-6.33333333333	8.16	8.6393442623	36.8498412698
140	0.07	-7.76666666667	1.0	11.4918032787	34.0333333333
141	0.0705	-6.33333333333	-0.432	-1.34426229508	31.2168253968
142	0.071	-2.03333333333	2.432	0.0819672131147	34.0333333333
143	0.0715	-14.9333333333	3.864	2.93442622951	28.4003174603
144	0.072	-10.6333333333	3.864	0.0819672131147	26.9920634921
145	0.0725	-6.33333333333	3.864	-2.77049180328	42.4828571429
146	0.073	-10.6333333333	-0.432	18.6229508197	31.2168253968
147	0.0735	-9.2	-6.16	0.0819672131147	26.9920634921
148	0.074	-6.33333333333	18.184	0.0819672131147	26.9920634921
149	0.0745	-13.5	3.864	0.0819672131147	28.4003174603
150	0.075	3.7	2.432	1.50819672131	24.1755555556
151	0.0755	-10.6333333333	3.864	0.0819672131147	38.2580952381
152	0.076	-6.33333333333	3.864	12.9180327869	24.1755555556
153	0.0765	-4.9	2.432	0.0819672131147	24.1755555556
154	0.077	-4.9	2.432	0.0819672131147	25.5838095238
155	0.0775	-9.2	6.728	2.93442622951	24.1755555556
156	0.078	-7.76666666667	6.728	2.93442622951	24.1755555556
157	0.0785	-3.46666666667	5.296	-1.34426229508	19.9507936508
158	0.079	-4.9	5.296	1.50819672131	21.359047619
159	0.0795	-4.9	5.296	-1.34426229508	29.8085714286
160	0.08	-3.46666666667	9.592	4.3606557377	28.4003174603
161	0.0805	-3.46666666667	-0.432	2.93442622951	28.4003174603
162	0.081	-13.5	5.296	2.93442622951	24.1755555556
163	0.0815	-4.9	5.296	2.93442622951	28.4003174603
164	0.082	-3.46666666667	6.728	1.50819672131	28.4003174603
165	0.0825	-4.9	5.296	5.7868852459	24.1755555556
166	0.083	-3.46666666667	2.432	4.3606557377	22.7673015873
167	0.0835	-3.46666666667	18.184	5.7868852459	25.5838095238
168	0.084	-4.9	8.16	4.3606557377	21.359047619
169	0.0845	10.8666666667	6.728	2.93442622951	24.1755555556
170	0.085	-6.33333333333	6.728	1.50819672131	15.726031746
171	0.0855	-4.9	5.296	2.93442622951	39.6663492063
172	0.086	-2.03333333333	5.296	5.7868852459	21.359047619
173	0.0865	-4.9	-1.864	4.3606557377	22.7673015873
174	0.087	-2.03333333333	-4.728	4.3606557377	19.9507936508
175	0.0875	18.0333333333	3.864	2.93442622951	24.1755555556
176	0.088	-13.5	5.296	2.93442622951	24.1755555556
177	0.0885	-2.03333333333	5.296	4.3606557377	14.3177777778
178	0.089	-4.9	5.296	0.0819672131147	22.7673015873
179	0.0895	-3.46666666667	2.432	4.3606557377	22.7673015873
180	0.09	-0.6	11.024	4.3606557377	19.9507936508
181	0.0905	-0.6	1.0	4.3606557377	24.1755555556
182	0.091	-6.33333333333	2.432	2.93442622951	24.1755555556
183	0.0915	-2.03333333333	2.432	4.3606557377	15.726031746
184	0.092	-3.46666666667	3.864	0.0819672131147	22.7673015873
185	0.0925	-4.9	2.432	7.2131147541	19.9507936508
186	0.093	-3.46666666667	-4.728	7.2131147541	18.5425396825
187	0.0935	-3.46666666667	2.432	7.2131147541	21.359047619
188	0.094	-7.76666666667	3.864	7.2131147541	19.9507936508
189	0.0945	-7.76666666667	5.296	7.2131147541	21.359047619
190	0.095	0.833333333333	2.432	7.2131147541	17.1342857143
191	0.0955	-0.6	2.432	5.7868852459	22.7673015873
192	0.096	-0.6	-1.864	8.6393442623	22.7673015873
193	0.0965	-3.46666666667	9.592	11.4918032787	22.7673015873
194	0.097	-10.6333333333	-0.432	7.2131147541	22.7673015873
195	0.0975	3.7	1.0	7.2131147541	25.5838095238
196	0.098	-3.46666666667	1.0	8.6393442623	34.0333333333
197	0.0985	-0.6	-3.296	5.7868852459	12.9095238095
198	0.099	-3.46666666667	-6.16	4.3606557377	19.9507936508
199	0.0995	-0.6	18.184	7.2131147541	22.7673015873
200	0.1	-4.9	-0.432	7.2131147541	21.359047619
201	0.1005	15.1666666667	-1.864	8.6393442623	22.7673015873
202	0.101	-2.03333333333	1.0	5.7868852459	17.1342857143
203	0.1015	-0.6	1.0	4.3606557377	25.5838095238
204	0.102	-2.03333333333	2.432	2.93442622951	17.1342857143
205	0.1025	0.833333333333	-9.024	4.3606557377	18.5425396825
206	0.103	-0.6	2.432	4.3606557377	19.9507936508
207	0.1035	3.7	1.0	7.2131147541	15.726031746
208	0.104	0.833333333333	1.0	7.2131147541	14.3177777778
209	0.1045	-2.03333333333	-0.432	8.6393442623	14.3177777778
210	0.105	-2.03333333333	2.432	8.6393442623	19.9507936508
211	0.1055	-3.46666666667	-0.432	10.0655737705	12.9095238095
212	0.106	-0.6	3.864	5.7868852459	10.093015873
213	0.1065	-2.03333333333	-4.728	4.3606557377	10.093015873
214	0.107	-7.76666666667	-0.432	4.3606557377	14.3177777778
215	0.1075	-7.76666666667	1.0	2.93442622951	24.1755555556
216	0.108	-3.46666666667	1.0	1.50819672131	24.1755555556
217	0.1085	0.833333333333	5.296	8.6393442623	14.3177777778
218	0.109	-2.03333333333	9.592	4.3606557377	17.1342857143
219	0.1095	-2.03333333333	3.864	2.93442622951	17.1342857143
220	0.11	-0.6	1.0	2.93442622951	17.1342857143
221	0.1105	-2.03333333333	-1.864	2.93442622951	17.1342857143
222	0.111	-0.6	1.0	4.3606557377	10.093015873
223	0.1115	0.833333333333	-0.432	-2.77049180328	22.7673015873
224	0.112	-2.03333333333	1.0	14.3442622951	14.3177777778
225	0.1125	-0.6	1.0	2.93442622951	14.3177777778
226	0.113	-0.6	5.296	1.50819672131	14.3177777778
227	0.1135	13.7333333333	1.0	4.3606557377	15.726031746
228	0.114	3.7	-3.296	1.50819672131	21.359047619
229	0.1145	3.7	-0.432	2.93442622951	8.68476190476
230	0.115	3.7	-0.432	-2.77049180328	11.5012698413
231	0.1155	-0.6	-0.432	-4.19672131148	14.3177777778
232	0.116	2.26666666667	-3.296	2.93442622951	15.726031746
233	0.1165	3.7	1.0	1.50819672131	17.1342857143
234	0.117	0.833333333333	1.0	-1.34426229508	15.726031746
235	0.1175	-0.6	-0.432	-1.34426229508	5.86825396825
236	0.118	5.13333333333	-1.864	0.0819672131147	31.2168253968
237	0.1185	3.7	1.0	21.4754098361	15.726031746
238	0.119	0.833333333333	-0.432	2.93442622951	15.726031746
239	0.1195	2.26666666667	-10.456	4.3606557377	15.726031746
240	0.12	9.43333333333	-0.432	4.3606557377	12.9095238095
241	0.1205	18.0333333333	-0.432	2.93442622951	15.726031746
242	0.121	0.833333333333	-1.864	4.3606557377	10.093015873
243	0.1215	2.26666666667	-1.864	7.2131147541	15.726031746
244	0.122	0.833333333333	-0.432	2.93442622951	12.9095238095
245	0.1225	0.833333333333	-0.432	2.93442622951	12.9095238095
246	0.123	0.833333333333	-4.728	2.93442622951	15.726031746
247	0.1235	-7.76666666667	-1.864	1.50819672131	14.3177777778
248	0.124	-2.03333333333	1.0	1.50819672131	14.3177777778
249	0.1245	0.833333333333	-1.864	0.0819672131147	14.3177777778
250	0.125	0.833333333333	-0.432	4.3606557377	4.46
251	0.1255	3.7	1.0	-2.77049180328	7.27650793651
252	0.126	3.7	2.432	-1.34426229508	7.27650793651
253	0.1265	8.0	-9.024	1.50819672131	5.86825396825
254	0.127	10.8666666667	-1.864	4.3606557377	5.86825396825
255	0.1275	-3.46666666667	-1.864	4.3606557377	5.86825396825
256	0.128	9.43333333333	-1.864	17.1967213115	0.235238095238
257	0.1285	3.7	-3.296	20.0491803279	1.64349206349
258	0.129	3.7	-10.456	0.0819672131147	5.86825396825
259	0.1295	5.13333333333	-7.592	2.93442622951	10.093015873
260	0.13	9.43333333333	-1.864	0.0819672131147	5.86825396825
261	0.1305	-3.46666666667	-1.864	-1.34426229508	5.86825396825
262	0.131	3.7	-1.864	-1.34426229508	-3.98952380952
263	0.1315	2.26666666667	1.0	-8.47540983607	7.27650793651
264	0.132	3.7	-0.432	1.50819672131	10.093015873
265	0.1325	5.13333333333	-14.752	0.0819672131147	8.68476190476
266	0.133	9.43333333333	-1.864	1.50819672131	4.46
267	0.1335	-6.33333333333	-0.432	0.0819672131147	8.68476190476
268	0.134	0.833333333333	-0.432	2.93442622951	-3.98952380952
269	0.1345	2.26666666667	1.0	-9.90163934426	4.46
270	0.135	3.7	-0.432	-8.47540983607	8.68476190476
271	0.1355	3.7	-11.888	0.0819672131147	8.68476190476
272	0.136	8.0	-13.32	2.93442622951	14.3177777778
273	0.1365	20.9	-0.432	0.0819672131147	15.726031746
274	0.137	-2.03333333333	-3.296	0.0819672131147	14.3177777778
275	0.1375	5.13333333333	-1.864	1.50819672131	24.1755555556
276	0.138	8.0	1.0	15.7704918033	7.27650793651
277	0.1385	8.0	-6.16	0.0819672131147	8.68476190476
278	0.139	10.8666666667	-9.024	0.0819672131147	7.27650793651
279	0.1395	10.8666666667	-3.296	-1.34426229508	10.093015873
280	0.14	-0.6	-4.728	1.50819672131	4.46
281	0.1405	12.3	-1.864	-1.34426229508	0.235238095238
282	0.141	9.43333333333	-4.728	-1.34426229508	15.726031746
283	0.1415	8.0	-10.456	0.0819672131147	7.27650793651
284	0.142	10.8666666667	1.0	0.0819672131147	4.46
285	0.1425	9.43333333333	-7.592	-1.34426229508	4.46
286	0.143	23.7666666667	-1.864	-1.34426229508	0.235238095238
287	0.1435	5.13333333333	-3.296	0.0819672131147	4.46
288	0.144	8.0	-1.864	-8.47540983607	3.05174603175
289	0.1445	8.0	-0.432	-5.62295081967	-2.58126984127
290	0.145	3.7	-10.456	-1.34426229508	5.86825396825
291	0.1455	12.3	-10.456	4.3606557377	3.05174603175
292	0.146	20.9	-3.296	2.93442622951	4.46
293	0.1465	-0.6	-4.728	5.7868852459	14.3177777778
294	0.147	5.13333333333	-6.16	4.3606557377	1.64349206349
295	0.1475	3.7	-4.728	2.93442622951	-1.17301587302
296	0.148	5.13333333333	-16.184	1.50819672131	1.64349206349
297	0.1485	9.43333333333	-10.456	0.0819672131147	0.235238095238
298	0.149	13.7333333333	-10.456	0.0819672131147	1.64349206349
299	0.1495	-0.6	-4.728	-1.34426229508	0.235238095238
300	0.15	5.13333333333	-6.16	-5.62295081967	-8.21428571429
301	0.1505	8.0	-6.16	-12.7540983607	-2.58126984127
302	0.151	8.0	-1.864	-2.77049180328	1.64349206349
303	0.1515	8.0	-17.616	-1.34426229508	0.235238095238
304	0.152	10.8666666667	-6.16	-1.34426229508	0.235238095238
305	0.1525	26.6333333333	-3.296	-1.34426229508	5.86825396825
306	0.153	-4.9	-6.16	2.93442622951	5.86825396825
307	0.1535	8.0	-3.296	15.7704918033	4.46
308	0.154	8.0	-6.16	14.3442622951	7.27650793651
309	0.1545	5.13333333333	-16.184	-2.77049180328	4.46
310	0.155	9.43333333333	11.024	-1.34426229508	7.27650793651
311	0.1555	-4.9	-4.728	1.50819672131	5.86825396825
312	0.156	23.7666666667	-6.16	0.0819672131147	-5.39777777778
313	0.1565	3.7	-7.592	-2.77049180328	-6.80603174603
314	0.157	5.13333333333	-3.296	-9.90163934426	3.05174603175
315	0.1575	5.13333333333	-4.728	-1.34426229508	3.05174603175
316	0.158	6.56666666667	-14.752	-1.34426229508	1.64349206349
317	0.1585	9.43333333333	-4.728	-1.34426229508	0.235238095238
318	0.159	18.0333333333	-4.728	-1.34426229508	1.64349206349
319	0.1595	-3.46666666667	-6.16	0.0819672131147	1.64349206349
320	0.16	8.0	-6.16	0.0819672131147	-2.58126984127
321	0.1605	3.7	-4.728	-8.47540983607	5.86825396825
322	0.161	5.13333333333	-6.16	-11.3278688525	4.46
323	0.1615	9.43333333333	-13.32	-1.34426229508	-1.17301587302
324	0.162	-0.6	-6.16	-1.34426229508	-2.58126984127
325	0.1625	-2.03333333333	-6.16	0.0819672131147	-2.58126984127
326	0.163	3.7	-6.16	-5.62295081967	12.9095238095
327	0.1635	2.26666666667	-6.16	7.2131147541	-1.17301587302
328	0.164	5.13333333333	-6.16	-2.77049180328	-2.58126984127
329	0.1645	9.43333333333	1.0	1.50819672131	0.235238095238
330	0.165	8.0	-6.16	-1.34426229508	-1.17301587302
331	0.1655	0.833333333333	-4.728	-1.34426229508	0.235238095238
332	0.166	8.0	-6.16	-7.04918032787	-6.80603174603
333	0.1665	9.43333333333	-6.16	7.2131147541	-2.58126984127
334	0.167	3.7	-6.16	-2.77049180328	1.64349206349
335	0.1675	5.13333333333	-10.456	-1.34426229508	5.86825396825
336	0.168	9.43333333333	-7.592	-1.34426229508	1.64349206349
337	0.1685	23.7666666667	-6.16	-1.34426229508	3.05174603175
338	0.169	3.7	-6.16	0.0819672131147	0.235238095238
339	0.1695	0.833333333333	-4.728	-1.34426229508	-3.98952380952
340	0.17	0.833333333333	-9.024	-11.3278688525	3.05174603175
341	0.1705	2.26666666667	11.024	-4.19672131148	1.64349206349
342	0.171	2.26666666667	-7.592	-4.19672131148	1.64349206349
343	0.1715	-7.76666666667	-4.728	-1.34426229508	1.64349206349
344	0.172	2.26666666667	-6.16	-5.62295081967	4.46
345	0.1725	0.833333333333	-4.728	-1.34426229508	15.726031746
346	0.173	3.7	-4.728	14.3442622951	-1.17301587302
347	0.1735	2.26666666667	-10.456	1.50819672131	-1.17301587302
348	0.174	5.13333333333	13.888	-1.34426229508	1.64349206349
349	0.1745	-7.76666666667	-3.296	-1.34426229508	4.46
350	0.175	20.9	-4.728	0.0819672131147	0.235238095238
351	0.1755	2.26666666667	-7.592	-2.77049180328	14.3177777778
352	0.176	2.26666666667	-4.728	12.9180327869	-2.58126984127
353	0.1765	0.833333333333	-6.16	8.6393442623	0.235238095238
354	0.177	2.26666666667	1.0	0.0819672131147	1.64349206349
355	0.1775	6.56666666667	-6.16	0.0819672131147	0.235238095238
356	0.178	3.7	-6.16	-1.34426229508	1.64349206349
357	0.1785	0.833333333333	-6.16	1.50819672131	-11.0307936508
358	0.179	0.833333333333	-4.728	-11.3278688525	-1.17301587302
359	0.1795	0.833333333333	-4.728	-1.34426229508	-1.17301587302
360	0.18	3.7	6.728	-1.34426229508	-2.58126984127
361	0.1805	2.26666666667	-11.888	0.0819672131147	-1.17301587302
362	0.181	8.0	-7.592	-4.19672131148	-2.58126984127
363	0.1815	-2.03333333333	-7.592	-1.34426229508	-1.17301587302
364	0.182	2.26666666667	-6.16	-4.19672131148	8.68476190476
365	0.1825	3.7	-7.592	14.3442622951	-1.17301587302
366	0.183	0.833333333333	-16.184	1.50819672131	-1.17301587302
367	0.1835	0.833333333333	13.888	0.0819672131147	-1.17301587302
368	0.184	0.833333333333	-4.728	-1.34426229508	-2.58126984127
369	0.1845	-3.46666666667	-3.296	1.50819672131	8.68476190476
370	0.185	0.833333333333	-6.16	-2.77049180328	8.68476190476
371	0.1855	0.833333333333	-6.16	-1.34426229508	-2.58126984127
372	0.186	0.833333333333	-11.888	-1.34426229508	-1.17301587302
373	0.1865	2.26666666667	8.16	0.0819672131147	-2.58126984127
374	0.187	0.833333333333	-1.864	2.93442622951	-6.80603174603
375	0.1875	-0.6	-1.864	0.0819672131147	-1.17301587302
376	0.188	0.833333333333	-4.728	2.93442622951	-3.98952380952
377	0.1885	-0.6	-6.16	-1.34426229508	-2.58126984127
378	0.189	0.833333333333	-6.16	1.50819672131	-5.39777777778
379	0.1895	0.833333333333	-11.888	-1.34426229508	-6.80603174603
380	0.19	2.26666666667	-3.296	0.0819672131147	-5.39777777778
381	0.1905	-6.33333333333	-4.728	-1.34426229508	-8.21428571429
382	0.191	-0.6	-4.728	0.0819672131147	-11.0307936508
383	0.1915	2.26666666667	-3.296	-1.34426229508	-1.17301587302
384	0.192	0.833333333333	-14.752	0.0819672131147	-8.21428571429
385	0.1925	0.833333333333	13.888	-1.34426229508	-8.21428571429
386	0.193	-10.6333333333	-3.296	-1.34426229508	-5.39777777778
387	0.1935	18.0333333333	-3.296	1.50819672131	-6.80603174603
388	0.194	-2.03333333333	-4.728	-1.34426229508	7.27650793651
389	0.1945	0.833333333333	-1.864	7.2131147541	-5.39777777778
390	0.195	-2.03333333333	-3.296	7.2131147541	-5.39777777778
391	0.1955	-2.03333333333	1.0	2.93442622951	-6.80603174603
392	0.196	-9.2	-1.864	2.93442622951	-1.17301587302
393	0.1965	-3.46666666667	-3.296	1.50819672131	-5.39777777778
394	0.197	-7.76666666667	-3.296	2.93442622951	-5.39777777778
395	0.1975	-0.6	-3.296	20.0491803279	-9.62253968254
396	0.198	-0.6	-4.728	20.0491803279	-8.21428571429
397	0.1985	-3.46666666667	-11.888	1.50819672131	-6.80603174603
398	0.199	-0.6	-11.888	1.50819672131	-5.39777777778
399	0.1995	3.7	-6.16	4.3606557377	-5.39777777778
400	0.2	-12.0666666667	-6.16	4.3606557377	-2.58126984127
401	0.2005	0.833333333333	-4.728	4.3606557377	-11.0307936508
402	0.201	-3.46666666667	-4.728	-4.19672131148	-2.58126984127
403	0.2015	-3.46666666667	-4.728	1.50819672131	-5.39777777778
404	0.202	-0.6	-7.592	-1.34426229508	-5.39777777778
405	0.2025	0.833333333333	-3.296	2.93442622951	-2.58126984127
406	0.203	-10.6333333333	1.0	1.50819672131	-5.39777777778
407	0.2035	-2.03333333333	-4.728	1.50819672131	-11.0307936508
408	0.204	-3.46666666667	-4.728	-7.04918032787	0.235238095238
409	0.2045	-3.46666666667	-4.728	1.50819672131	-1.17301587302
410	0.205	-2.03333333333	-7.592	0.0819672131147	3.05174603175
411	0.2055	-9.2	-0.432	2.93442622951	0.235238095238
412	0.206	2.26666666667	-4.728	1.50819672131	0.235238095238
413	0.2065	-7.76666666667	-0.432	4.3606557377	-5.39777777778
414	0.207	-3.46666666667	1.0	-2.77049180328	0.235238095238
415	0.2075	-2.03333333333	-0.432	14.3442622951	-1.17301587302
416	0.208	-3.46666666667	-4.728	2.93442622951	-1.17301587302
417	0.2085	-2.03333333333	-7.592	1.50819672131	-1.17301587302
418	0.209	-4.9	-3.296	0.0819672131147	0.235238095238
419	0.2095	-4.9	-0.432	1.50819672131	18.5425396825
420	0.21	-4.9	-1.864	0.0819672131147	17.1342857143
421	0.2105	-4.9	-1.864	12.9180327869	4.46
422	0.211	-2.03333333333	-6.16	4.3606557377	4.46
423	0.2115	-2.03333333333	1.0	1.50819672131	1.64349206349
424	0.212	-10.6333333333	-1.864	1.50819672131	1.64349206349
425	0.2125	-3.46666666667	-1.864	2.93442622951	0.235238095238
426	0.213	-3.46666666667	1.0	2.93442622951	5.86825396825
427	0.2135	-4.9	-1.864	8.6393442623	-2.58126984127
428	0.214	-3.46666666667	-1.864	-5.62295081967	1.64349206349
429	0.2145	-3.46666666667	1.0	4.3606557377	1.64349206349
430	0.215	-4.9	1.0	4.3606557377	4.46
431	0.2155	-6.33333333333	1.0	0.0819672131147	4.46
432	0.216	-6.33333333333	-1.864	4.3606557377	-1.17301587302
433	0.2165	-4.9	2.432	4.3606557377	14.3177777778
434	0.217	-4.9	1.0	7.2131147541	5.86825396825
435	0.2175	-3.46666666667	1.0	1.50819672131	7.27650793651
436	0.218	-3.46666666667	-0.432	2.93442622951	5.86825396825
437	0.2185	-16.3666666667	-0.432	-1.34426229508	4.46
438	0.219	12.3	2.432	-1.34426229508	8.68476190476
439	0.2195	-4.9	-0.432	-2.77049180328	25.5838095238
440	0.22	-3.46666666667	1.0	17.1967213115	5.86825396825
441	0.2205	-4.9	-1.864	11.4918032787	8.68476190476
442	0.221	-4.9	6.728	-1.34426229508	8.68476190476
443	0.2215	-2.03333333333	-0.432	1.50819672131	4.46
444	0.222	-6.33333333333	1.0	0.0819672131147	24.1755555556
445	0.2225	-6.33333333333	2.432	-8.47540983607	5.86825396825
446	0.223	-3.46666666667	1.0	14.3442622951	5.86825396825
447	0.2235	-3.46666666667	3.864	-2.77049180328	8.68476190476
448	0.224	-4.9	6.728	-4.19672131148	4.46
449	0.2245	-17.8	1.0	0.0819672131147	3.05174603175
450	0.225	12.3	1.0	-2.77049180328	4.46
451	0.2255	-4.9	2.432	-1.34426229508	-2.58126984127
452	0.226	-6.33333333333	2.432	-2.77049180328	22.7673015873
453	0.2265	-4.9	1.0	14.3442622951	4.46
454	0.227	-2.03333333333	2.432	-1.34426229508	4.46
455	0.2275	-6.33333333333	1.0	-1.34426229508	1.64349206349
456	0.228	12.3	1.0	2.93442622951	1.64349206349
457	0.2285	-13.5	2.432	5.7868852459	19.9507936508
458	0.229	-3.46666666667	2.432	18.6229508197	1.64349206349
459	0.2295	-3.46666666667	2.432	11.4918032787	3.05174603175
460	0.23	-4.9	9.592	1.50819672131	1.64349206349
461	0.2305	-7.76666666667	1.0	1.50819672131	0.235238095238
462	0.231	10.8666666667	3.864	1.50819672131	-11.0307936508
463	0.2315	-4.9	5.296	0.0819672131147	18.5425396825
464	0.232	-4.9	5.296	-1.34426229508	17.1342857143
465	0.2325	-4.9	6.728	14.3442622951	0.235238095238
466	0.233	-6.33333333333	-1.864	-2.77049180328	-1.17301587302
467	0.2335	-3.46666666667	5.296	1.50819672131	0.235238095238
468	0.234	12.3	5.296	0.0819672131147	3.05174603175
469	0.2345	-12.0666666667	6.728	-1.34426229508	1.64349206349
470	0.235	-6.33333333333	5.296	0.0819672131147	-2.58126984127
471	0.2355	-6.33333333333	8.16	1.50819672131	-2.58126984127
472	0.236	-3.46666666667	9.592	-7.04918032787	3.05174603175
473	0.2365	-4.9	22.48	-1.34426229508	1.64349206349
474	0.237	-4.9	-3.296	1.50819672131	4.46
475	0.2375	3.7	6.728	1.50819672131	4.46
476	0.238	-4.9	5.296	1.50819672131	-1.17301587302
477	0.2385	-3.46666666667	6.728	-5.62295081967	4.46
478	0.239	-4.9	9.592	1.50819672131	4.46
479	0.2395	-3.46666666667	18.184	-1.34426229508	4.46
480	0.24	-4.9	6.728	0.0819672131147	7.27650793651
481	0.2405	12.3	6.728	0.0819672131147	7.27650793651
482	0.241	-9.2	6.728	1.50819672131	18.5425396825
483	0.2415	-6.33333333333	3.864	1.50819672131	-6.80603174603
484	0.242	-4.9	9.592	-11.3278688525	5.86825396825
485	0.2425	-4.9	13.888	-2.77049180328	7.27650793651
486	0.243	-9.2	-0.432	-1.34426229508	5.86825396825
487	0.2435	-4.9	6.728	-1.34426229508	7.27650793651
488	0.244	8.0	6.728	-1.34426229508	8.68476190476
489	0.2445	-4.9	5.296	-2.77049180328	5.86825396825
490	0.245	-4.9	8.16	4.3606557377	4.46
491	0.2455	-4.9	6.728	15.7704918033	3.05174603175
492	0.246	-4.9	22.48	-1.34426229508	5.86825396825
493	0.2465	-4.9	8.16	-1.34426229508	4.46
494	0.247	-6.33333333333	6.728	1.50819672131	5.86825396825
495	0.2475	-7.76666666667	5.296	4.3606557377	1.64349206349
496	0.248	-6.33333333333	9.592	-1.34426229508	17.1342857143
497	0.2485	-6.33333333333	9.592	5.7868852459	7.27650793651
498	0.249	-6.33333333333	13.888	-1.34426229508	5.86825396825
499	0.2495	-7.76666666667	11.024	1.50819672131	4.46
500	0.25	10.8666666667	6.728	1.50819672131	12.9095238095
501	0.2505	-12.0666666667	6.728	2.93442622951	25.5838095238
502	0.251	-6.33333333333	6.728	2.93442622951	-3.98952380952
503	0.2515	-7.76666666667	9.592	-4.19672131148	3.05174603175
504	0.252	-6.33333333333	5.296	0.0819672131147	1.64349206349
505	0.2525	-6.33333333333	21.048	0.0819672131147	3.05174603175
506	0.253	-22.1	16.752	-1.34426229508	7.27650793651
507	0.2535	-13.5	12.456	-1.34426229508	4.46
508	0.254	-9.2	9.592	-2.77049180328	0.235238095238
509	0.2545	-9.2	15.32	-8.47540983607	8.68476190476
510	0.255	-10.6333333333	15.32	0.0819672131147	10.093015873
511	0.2555	-6.33333333333	26.776	1.50819672131	12.9095238095
512	0.256	-10.6333333333	2.432	2.93442622951	14.3177777778
513	0.2565	0.833333333333	8.16	4.3606557377	12.9095238095
514	0.257	-9.2	8.16	1.50819672131	5.86825396825
515	0.2575	-10.6333333333	9.592	-7.04918032787	14.3177777778
516	0.258	-4.9	15.32	1.50819672131	12.9095238095
517	0.2585	-7.76666666667	22.48	0.0819672131147	15.726031746
518	0.259	-10.6333333333	6.728	1.50819672131	14.3177777778
519	0.2595	-17.8	8.16	2.93442622951	15.726031746
520	0.26	-7.76666666667	6.728	4.3606557377	5.86825396825
521	0.2605	-6.33333333333	6.728	2.93442622951	28.4003174603
522	0.261	-4.9	6.728	21.4754098361	14.3177777778
523	0.2615	-4.9	1.0	2.93442622951	12.9095238095
524	0.262	-2.03333333333	2.432	2.93442622951	14.3177777778
525	0.2625	-10.6333333333	6.728	4.3606557377	7.27650793651
526	0.263	-0.6	3.864	5.7868852459	5.86825396825
527	0.2635	-2.03333333333	3.864	4.3606557377	18.5425396825
528	0.264	-3.46666666667	3.864	15.7704918033	5.86825396825
529	0.2645	-3.46666666667	-1.864	0.0819672131147	10.093015873
530	0.265	-2.03333333333	-4.728	4.3606557377	12.9095238095
531	0.2655	0.833333333333	1.0	4.3606557377	10.093015873
532	0.266	-7.76666666667	1.0	2.93442622951	12.9095238095
533	0.2665	-4.9	2.432	2.93442622951	8.68476190476
534	0.267	-2.03333333333	1.0	7.2131147541	12.9095238095
535	0.2675	-3.46666666667	3.864	1.50819672131	14.3177777778
536	0.268	0.833333333333	21.048	8.6393442623	12.9095238095
537	0.2685	-3.46666666667	-7.592	4.3606557377	10.093015873
538	0.269	5.13333333333	3.864	7.2131147541	14.3177777778
539	0.2695	-2.03333333333	2.432	7.2131147541	12.9095238095
540	0.27	-2.03333333333	2.432	11.4918032787	15.726031746
541	0.2705	0.833333333333	2.432	4.3606557377	15.726031746
542	0.271	-2.03333333333	15.32	4.3606557377	10.093015873
543	0.2715	-3.46666666667	-4.728	7.2131147541	10.093015873
544	0.272	23.7666666667	1.0	7.2131147541	8.68476190476
545	0.2725	-10.6333333333	-1.864	7.2131147541	15.726031746
546	0.273	-2.03333333333	-1.864	7.2131147541	10.093015873
547	0.2735	0.833333333333	-1.864	7.2131147541	14.3177777778
548	0.274	-3.46666666667	-3.296	4.3606557377	8.68476190476
549	0.2745	2.26666666667	13.888	4.3606557377	8.68476190476
550	0.275	0.833333333333	-3.296	4.3606557377	15.726031746
551	0.2755	10.8666666667	-1.864	2.93442622951	12.9095238095
552	0.276	-3.46666666667	-0.432	2.93442622951	18.5425396825
553	0.2765	-3.46666666667	-1.864	5.7868852459	12.9095238095
554	0.277	0.833333333333	5.296	7.2131147541	12.9095238095
555	0.2775	0.833333333333	16.752	5.7868852459	10.093015873
556	0.278	-13.5	-0.432	4.3606557377	8.68476190476
557	0.2785	16.6	1.0	2.93442622951	5.86825396825
558	0.279	-0.6	-3.296	4.3606557377	12.9095238095
559	0.2795	-0.6	-1.864	4.3606557377	0.235238095238
560	0.28	-2.03333333333	-1.864	0.0819672131147	10.093015873
561	0.2805	-2.03333333333	-10.456	2.93442622951	8.68476190476
562	0.281	5.13333333333	-3.296	4.3606557377	8.68476190476
563	0.2815	18.0333333333	-0.432	5.7868852459	0.235238095238
564	0.282	-2.03333333333	-1.864	2.93442622951	15.726031746
565	0.2825	-0.6	-1.864	8.6393442623	3.05174603175
566	0.283	-0.6	-3.296	-4.19672131148	8.68476190476
567	0.2835	0.833333333333	-0.432	-7.04918032787	10.093015873
568	0.284	0.833333333333	-7.592	1.50819672131	8.68476190476
569	0.2845	-3.46666666667	-0.432	1.50819672131	8.68476190476
570	0.285	-4.9	-3.296	0.0819672131147	4.46
571	0.2855	0.833333333333	-0.432	-7.04918032787	5.86825396825
572	0.286	-0.6	1.0	-4.19672131148	5.86825396825
573	0.2865	2.26666666667	-11.888	-1.34426229508	8.68476190476
574	0.287	5.13333333333	-4.728	1.50819672131	10.093015873
575	0.2875	3.7	-3.296	4.3606557377	7.27650793651
576	0.288	-9.2	-1.864	4.3606557377	7.27650793651
577	0.2885	2.26666666667	-3.296	2.93442622951	3.05174603175
578	0.289	2.26666666667	-4.728	2.93442622951	25.5838095238
579	0.2895	-0.6	-6.16	24.3278688525	8.68476190476
580	0.29	-0.6	-3.296	2.93442622951	10.093015873
581	0.2905	5.13333333333	1.0	4.3606557377	8.68476190476
582	0.291	-3.46666666667	2.432	2.93442622951	12.9095238095
583	0.2915	-3.46666666667	-0.432	1.50819672131	14.3177777778
584	0.292	0.833333333333	-0.432	-1.34426229508	19.9507936508
585	0.2925	3.7	-1.864	2.93442622951	12.9095238095
586	0.293	3.7	2.432	4.3606557377	10.093015873
587	0.2935	2.26666666667	2.432	-1.34426229508	12.9095238095
588	0.294	8.0	-0.432	2.93442622951	12.9095238095
589	0.2945	-0.6	-1.864	0.0819672131147	17.1342857143
590	0.295	3.7	-6.16	0.0819672131147	15.726031746
591	0.2955	3.7	-0.432	4.3606557377	12.9095238095
592	0.296	5.13333333333	-1.864	2.93442622951	12.9095238095
593	0.2965	8.0	1.0	0.0819672131147	8.68476190476
594	0.297	0.833333333333	-7.592	2.93442622951	7.27650793651
595	0.2975	9.43333333333	-1.864	1.50819672131	7.27650793651
596	0.298	0.833333333333	-0.432	0.0819672131147	14.3177777778
597	0.2985	0.833333333333	-1.864	0.0819672131147	17.1342857143
598	0.299	2.26666666667	-1.864	2.93442622951	12.9095238095
599	0.2995	3.7	-10.456	-1.34426229508	14.3177777778
600	0.3	5.13333333333	15.32	0.0819672131147	14.3177777778
601	0.3005	-10.6333333333	-0.432	1.50819672131	17.1342857143
602	0.301	-4.9	-1.864	0.0819672131147	10.093015873
603	0.3015	0.833333333333	-3.296	0.0819672131147	10.093015873
604	0.302	0.833333333333	1.0	-4.19672131148	8.68476190476
605	0.3025	5.13333333333	-1.864	-4.19672131148	5.86825396825
606	0.303	8.0	-14.752	0.0819672131147	7.27650793651
607	0.3035	9.43333333333	-1.864	2.93442622951	5.86825396825
608	0.304	-4.9	-4.728	0.0819672131147	12.9095238095
609	0.3045	-4.9	-4.728	-1.34426229508	5.86825396825
610	0.305	2.26666666667	-6.16	0.0819672131147	21.359047619
611	0.3055	2.26666666667	-4.728	11.4918032787	10.093015873
612	0.306	6.56666666667	-3.296	1.50819672131	11.5012698413
613	0.3065	0.833333333333	-4.728	-1.34426229508	15.726031746
614	0.307	-6.33333333333	-3.296	0.0819672131147	12.9095238095
615	0.3075	0.833333333333	-0.432	0.0819672131147	14.3177777778
616	0.308	3.7	-1.864	4.3606557377	7.27650793651
617	0.3085	3.7	-3.296	4.3606557377	-1.17301587302
618	0.309	5.13333333333	2.432	-8.47540983607	5.86825396825
619	0.3095	8.0	16.752	-1.34426229508	5.86825396825
620	0.31	2.26666666667	-10.456	-1.34426229508	8.68476190476
621	0.3105	19.4666666667	-3.296	0.0819672131147	8.68476190476
622	0.311	-4.9	-4.728	1.50819672131	10.093015873
623	0.3115	9.43333333333	-1.864	4.3606557377	-1.17301587302
624	0.312	6.56666666667	-4.728	-7.04918032787	10.093015873
625	0.3125	9.43333333333	-6.16	-2.77049180328	7.27650793651
626	0.313	9.43333333333	-6.16	-2.77049180328	10.093015873
627	0.3135	-0.6	-1.864	-4.19672131148	14.3177777778
628	0.314	3.7	-1.864	-1.34426229508	7.27650793651
629	0.3145	8.0	-3.296	-2.77049180328	19.9507936508
630	0.315	3.7	2.432	15.7704918033	5.86825396825
631	0.3155	10.8666666667	-11.888	2.93442622951	7.27650793651
632	0.316	9.43333333333	-14.752	2.93442622951	12.9095238095
633	0.3165	8.0	-1.864	0.0819672131147	10.093015873
634	0.317	26.6333333333	-3.296	0.0819672131147	17.1342857143
635	0.3175	10.8666666667	-3.296	0.0819672131147	1.64349206349
636	0.318	9.43333333333	1.0	-12.7540983607	14.3177777778
637	0.3185	5.13333333333	1.0	-11.3278688525	10.093015873
638	0.319	8.0	-14.752	-1.34426229508	14.3177777778
639	0.3195	3.7	-9.024	-1.34426229508	14.3177777778
640	0.32	25.2	-4.728	1.50819672131	15.726031746
641	0.3205	-3.46666666667	1.0	1.50819672131	12.9095238095
642	0.321	3.7	-3.296	1.50819672131	10.093015873
643	0.3215	3.7	-1.864	12.9180327869	14.3177777778
644	0.322	3.7	-0.432	0.0819672131147	12.9095238095
645	0.3225	3.7	3.864	1.50819672131	14.3177777778
646	0.323	8.0	-1.864	-1.34426229508	12.9095238095
647	0.3235	20.9	-1.864	0.0819672131147	18.5425396825
648	0.324	5.13333333333	-1.864	-1.34426229508	31.2168253968
649	0.3245	2.26666666667	-0.432	15.7704918033	15.726031746
650	0.325	2.26666666667	-0.432	15.7704918033	10.093015873
651	0.3255	5.13333333333	-7.592	-2.77049180328	12.9095238095
652	0.326	3.7	-0.432	-1.34426229508	14.3177777778
653	0.3265	0.833333333333	-1.864	-1.34426229508	12.9095238095
654	0.327	-0.6	-0.432	-1.34426229508	21.359047619
655	0.3275	3.7	-3.296	-1.34426229508	29.8085714286
656	0.328	8.0	-1.864	-1.34426229508	17.1342857143
657	0.3285	3.7	-4.728	-1.34426229508	17.1342857143
658	0.329	5.13333333333	8.16	0.0819672131147	18.5425396825
659	0.3295	-0.6	-3.296	0.0819672131147	21.359047619
660	0.33	19.4666666667	-4.728	-1.34426229508	18.5425396825
661	0.3305	3.7	-4.728	-1.34426229508	19.9507936508
662	0.331	5.13333333333	-3.296	0.0819672131147	8.68476190476
663	0.3315	5.13333333333	-4.728	-11.3278688525	18.5425396825
664	0.332	5.13333333333	-1.864	-2.77049180328	19.9507936508
665	0.3325	2.26666666667	-1.864	-2.77049180328	19.9507936508
666	0.333	-9.2	-0.432	0.0819672131147	15.726031746
667	0.3335	5.13333333333	-3.296	-2.77049180328	10.093015873
668	0.334	8.0	-4.728	-12.7540983607	19.9507936508
669	0.3345	2.26666666667	-4.728	-7.04918032787	19.9507936508
670	0.335	5.13333333333	-0.432	-1.34426229508	21.359047619
671	0.3355	0.833333333333	-10.456	1.50819672131	19.9507936508
672	0.336	10.8666666667	-7.592	1.50819672131	22.7673015873
673	0.3365	22.3333333333	-3.296	-1.34426229508	18.5425396825
674	0.337	3.7	-6.16	-9.90163934426	15.726031746
675	0.3375	3.7	-1.864	1.50819672131	19.9507936508
676	0.338	2.26666666667	-1.864	-7.04918032787	22.7673015873
677	0.3385	0.833333333333	1.0	-4.19672131148	21.359047619
678	0.339	3.7	-3.296	-2.77049180328	21.359047619
679	0.3395	3.7	-3.296	-1.34426229508	18.5425396825
680	0.34	5.13333333333	-6.16	-1.34426229508	10.093015873
681	0.3405	2.26666666667	-6.16	-7.04918032787	22.7673015873
682	0.341	3.7	-4.728	-1.34426229508	10.093015873
683	0.3415	3.7	-10.456	-1.34426229508	14.3177777778
684	0.342	6.56666666667	13.888	-2.77049180328	15.726031746
685	0.3425	0.833333333333	-6.16	-2.77049180328	15.726031746
686	0.343	19.4666666667	-9.024	-1.34426229508	12.9095238095
687	0.3435	0.833333333333	-9.024	-5.62295081967	29.8085714286
688	0.344	3.7	-6.16	14.3442622951	12.9095238095
689	0.3445	5.13333333333	-10.456	18.6229508197	10.093015873
690	0.345	2.26666666667	6.728	0.0819672131147	11.5012698413
691	0.3455	0.833333333333	-10.456	-1.34426229508	12.9095238095
692	0.346	-7.76666666667	-7.592	-2.77049180328	15.726031746
693	0.3465	-6.33333333333	-6.16	0.0819672131147	5.86825396825
694	0.347	3.7	-7.592	-2.77049180328	25.5838095238
695	0.3475	2.26666666667	-7.592	11.4918032787	7.27650793651
696	0.348	3.7	-9.024	0.0819672131147	8.68476190476
697	0.3485	3.7	-11.888	-1.34426229508	10.093015873
698	0.349	2.26666666667	-6.16	0.0819672131147	10.093015873
699	0.3495	-3.46666666667	-7.592	-2.77049180328	10.093015873
700	0.35	0.833333333333	-7.592	1.50819672131	0.235238095238
701	0.3505	2.26666666667	-4.728	-5.62295081967	8.68476190476
702	0.351	0.833333333333	-6.16	1.50819672131	10.093015873
703	0.3515	2.26666666667	9.592	0.0819672131147	5.86825396825
704	0.352	-0.6	-13.32	-1.34426229508	8.68476190476
705	0.3525	22.3333333333	-9.024	-2.77049180328	4.46
706	0.353	-6.33333333333	-6.16	-2.77049180328	12.9095238095
707	0.3535	-2.03333333333	-9.024	1.50819672131	3.05174603175
708	0.354	3.7	-10.456	-5.62295081967	8.68476190476
709	0.3545	3.7	-1.864	-5.62295081967	7.27650793651
710	0.355	0.833333333333	-14.752	-1.34426229508	5.86825396825
711	0.3555	9.43333333333	-7.592	-1.34426229508	4.46
712	0.356	-4.9	-9.024	-2.77049180328	5.86825396825
713	0.3565	2.26666666667	-6.16	2.93442622951	4.46
714	0.357	3.7	-7.592	0.0819672131147	-2.58126984127
715	0.3575	3.7	-7.592	-8.47540983607	1.64349206349
716	0.358	3.7	9.592	-1.34426229508	1.64349206349
717	0.3585	3.7	-13.32	0.0819672131147	0.235238095238
718	0.359	22.3333333333	-7.592	-1.34426229508	-1.17301587302
719	0.3595	0.833333333333	-7.592	-1.34426229508	3.05174603175
720	0.36	0.833333333333	-7.592	2.93442622951	-8.21428571429
721	0.3605	2.26666666667	-9.024	-5.62295081967	-1.17301587302
722	0.361	0.833333333333	-3.296	0.0819672131147	-2.58126984127
723	0.3615	-2.03333333333	-7.592	0.0819672131147	-1.17301587302
724	0.362	-10.6333333333	-9.024	-1.34426229508	0.235238095238
725	0.3625	-6.33333333333	-7.592	0.0819672131147	-2.58126984127
726	0.363	2.26666666667	-6.16	-1.34426229508	4.46
727	0.3635	0.833333333333	-4.728	11.4918032787	-6.80603174603
728	0.364	2.26666666667	-7.592	-4.19672131148	-2.58126984127
729	0.3645	3.7	-11.888	-1.34426229508	-2.58126984127
730	0.365	8.0	-9.024	-1.34426229508	-2.58126984127
731	0.3655	-6.33333333333	-6.16	-1.34426229508	-5.39777777778
732	0.366	0.833333333333	-6.16	0.0819672131147	-11.0307936508
733	0.3665	-0.6	-7.592	0.0819672131147	11.5012698413
734	0.367	0.833333333333	-9.024	15.7704918033	-2.58126984127
735	0.3675	0.833333333333	-13.32	0.0819672131147	-2.58126984127
736	0.368	0.833333333333	-11.888	2.93442622951	-1.17301587302
737	0.3685	15.1666666667	-6.16	1.50819672131	0.235238095238
738	0.369	-4.9	-4.728	0.0819672131147	1.64349206349
739	0.3695	-0.6	-4.728	-5.62295081967	-1.17301587302
740	0.37	0.833333333333	-3.296	-2.77049180328	-8.21428571429
741	0.3705	-0.6	-10.456	-4.19672131148	-1.17301587302
742	0.371	-0.6	1.0	1.50819672131	-1.17301587302
743	0.3715	-0.6	-7.592	0.0819672131147	0.235238095238
744	0.372	-0.6	-4.728	-1.34426229508	-2.58126984127
745	0.3725	-2.03333333333	-4.728	-4.19672131148	-6.80603174603
746	0.373	0.833333333333	-0.432	-8.47540983607	-2.58126984127
747	0.3735	-2.03333333333	-3.296	-9.90163934426	0.235238095238
748	0.374	-0.6	-10.456	-2.77049180328	0.235238095238
749	0.3745	-2.03333333333	-1.864	2.93442622951	0.235238095238
750	0.375	-3.46666666667	-1.864	-1.34426229508	1.64349206349
751	0.3755	-9.2	-4.728	1.50819672131	3.05174603175
752	0.376	0.833333333333	-3.296	-2.77049180328	-6.80603174603
753	0.3765	-0.6	-3.296	-5.62295081967	4.46
754	0.377	0.833333333333	-4.728	2.93442622951	3.05174603175
755	0.3775	-0.6	-9.024	-1.34426229508	1.64349206349
756	0.378	-4.9	-11.888	-1.34426229508	1.64349206349
757	0.3785	10.8666666667	-1.864	1.50819672131	0.235238095238
758	0.379	-2.03333333333	-3.296	1.50819672131	1.64349206349
759	0.3795	-0.6	-3.296	-4.19672131148	-3.98952380952
760	0.38	-2.03333333333	-1.864	-4.19672131148	4.46
761	0.3805	-2.03333333333	-7.592	1.50819672131	5.86825396825
762	0.381	-2.03333333333	-1.864	1.50819672131	5.86825396825
763	0.3815	-0.6	-1.864	-1.34426229508	7.27650793651
764	0.382	0.833333333333	-0.432	4.3606557377	7.27650793651
765	0.3825	-0.6	-4.728	-2.77049180328	18.5425396825
766	0.383	-3.46666666667	-0.432	8.6393442623	8.68476190476
767	0.3835	-2.03333333333	1.0	4.3606557377	8.68476190476
768	0.384	-3.46666666667	3.864	2.93442622951	10.093015873
769	0.3845	0.833333333333	-0.432	4.3606557377	12.9095238095
770	0.385	-9.2	-1.864	0.0819672131147	12.9095238095
771	0.3855	-4.9	-1.864	2.93442622951	10.093015873
772	0.386	-3.46666666667	-3.296	7.2131147541	14.3177777778
773	0.3865	-0.6	-3.296	7.2131147541	14.3177777778
774	0.387	-0.6	-0.432	-1.34426229508	10.093015873
775	0.3875	-0.6	-7.592	1.50819672131	11.5012698413
776	0.388	-3.46666666667	-1.864	2.93442622951	18.5425396825
777	0.3885	-4.9	-0.432	4.3606557377	4.46
778	0.389	-2.03333333333	1.0	-2.77049180328	21.359047619
779	0.3895	-4.9	-0.432	2.93442622951	10.093015873
780	0.39	-3.46666666667	-0.432	1.50819672131	14.3177777778
781	0.3905	-4.9	-6.16	1.50819672131	10.093015873
782	0.391	-9.2	-1.864	2.93442622951	17.1342857143
783	0.3915	-10.6333333333	1.0	2.93442622951	14.3177777778
784	0.392	-4.9	1.0	-1.34426229508	10.093015873
785	0.3925	-4.9	2.432	4.3606557377	15.726031746
786	0.393	-4.9	1.0	0.0819672131147	14.3177777778
787	0.3935	-4.9	-6.16	1.50819672131	15.726031746
788	0.394	-10.6333333333	-0.432	0.0819672131147	17.1342857143
789	0.3945	8.0	-1.864	2.93442622951	14.3177777778
790	0.395	-3.46666666667	1.0	-1.34426229508	21.359047619
791	0.3955	-6.33333333333	1.0	8.6393442623	12.9095238095
792	0.396	-3.46666666667	-1.864	8.6393442623	17.1342857143
793	0.3965	-2.03333333333	-6.16	1.50819672131	18.5425396825
794	0.397	-0.6	-3.296	0.0819672131147	15.726031746
795	0.3975	-9.2	-0.432	0.0819672131147	15.726031746
796	0.398	-4.9	-0.432	-1.34426229508	5.86825396825
797	0.3985	-2.03333333333	1.0	-11.3278688525	12.9095238095
798	0.399	-3.46666666667	3.864	-1.34426229508	7.27650793651
799	0.3995	-4.9	-7.592	-1.34426229508	10.093015873
800	0.4	-0.6	1.0	1.50819672131	12.9095238095
801	0.4005	-16.3666666667	-0.432	0.0819672131147	15.726031746
802	0.401	-14.9333333333	1.0	0.0819672131147	0.235238095238
803	0.4015	-2.03333333333	1.0	-9.90163934426	3.05174603175
804	0.402	-3.46666666667	5.296	-9.90163934426	14.3177777778
805	0.4025	-3.46666666667	22.48	0.0819672131147	12.9095238095
806	0.403	-6.33333333333	-7.592	0.0819672131147	14.3177777778
807	0.4035	2.26666666667	1.0	2.93442622951	14.3177777778
808	0.404	-13.5	-0.432	1.50819672131	15.726031746
809	0.4045	-2.03333333333	-0.432	4.3606557377	28.4003174603
810	0.405	-3.46666666667	2.432	11.4918032787	15.726031746
811	0.4055	-4.9	-0.432	11.4918032787	12.9095238095
812	0.406	-4.9	2.432	0.0819672131147	17.1342857143
813	0.4065	-6.33333333333	2.432	-1.34426229508	17.1342857143
814	0.407	-4.9	3.864	-1.34426229508	25.5838095238
815	0.4075	-3.46666666667	2.432	-8.47540983607	15.726031746
816	0.408	-2.03333333333	3.864	11.4918032787	12.9095238095
817	0.4085	-3.46666666667	1.0	8.6393442623	17.1342857143
818	0.409	-2.03333333333	2.432	-1.34426229508	17.1342857143
819	0.4095	-0.6	-0.432	-1.34426229508	18.5425396825
820	0.41	-16.3666666667	2.432	-1.34426229508	18.5425396825
821	0.4105	-3.46666666667	5.296	2.93442622951	5.86825396825
822	0.411	-4.9	3.864	-14.1803278689	8.68476190476
823	0.4115	-4.9	2.432	-5.62295081967	17.1342857143
824	0.412	-4.9	23.912	-1.34426229508	19.9507936508
825	0.4125	-4.9	-9.024	-1.34426229508	19.9507936508
826	0.413	15.1666666667	2.432	-1.34426229508	10.093015873
827	0.4135	-3.46666666667	2.432	-1.34426229508	12.9095238095
828	0.414	-3.46666666667	2.432	-4.19672131148	34.0333333333
829	0.4145	-3.46666666667	5.296	15.7704918033	19.9507936508
830	0.415	-3.46666666667	6.728	-1.34426229508	21.359047619
831	0.4155	-0.6	-4.728	1.50819672131	18.5425396825
832	0.416	-2.03333333333	5.296	0.0819672131147	19.9507936508
833	0.4165	18.0333333333	3.864	-1.34426229508	21.359047619
834	0.417	-0.6	6.728	2.93442622951	19.9507936508
835	0.4175	-2.03333333333	6.728	15.7704918033	19.9507936508
836	0.418	-2.03333333333	11.024	-1.34426229508	21.359047619
837	0.4185	-3.46666666667	-6.16	0.0819672131147	21.359047619
838	0.419	0.833333333333	6.728	-2.77049180328	17.1342857143
839	0.4195	16.6	2.432	-1.34426229508	19.9507936508
840	0.42	-3.46666666667	3.864	-1.34426229508	10.093015873
841	0.4205	-3.46666666667	5.296	-5.62295081967	14.3177777778
842	0.421	-4.9	6.728	-4.19672131148	21.359047619
843	0.4215	-2.03333333333	6.728	-1.34426229508	21.359047619
844	0.422	-2.03333333333	1.0	-2.77049180328	21.359047619
845	0.4225	-7.76666666667	6.728	-2.77049180328	18.5425396825
846	0.423	-10.6333333333	6.728	-1.34426229508	28.4003174603
847	0.4235	-3.46666666667	8.16	-1.34426229508	32.6250793651
848	0.424	-4.9	6.728	-2.77049180328	14.3177777778
849	0.4245	-3.46666666667	-0.432	-7.04918032787	21.359047619
850	0.425	0.833333333333	5.296	-1.34426229508	21.359047619
851	0.4255	0.833333333333	3.864	-1.34426229508	22.7673015873
852	0.426	-7.76666666667	6.728	-1.34426229508	28.4003174603
853	0.4265	-3.46666666667	5.296	0.0819672131147	26.9920634921
854	0.427	-3.46666666667	9.592	-1.34426229508	32.6250793651
855	0.4275	-3.46666666667	-1.864	0.0819672131147	26.9920634921
856	0.428	-2.03333333333	18.184	-4.19672131148	29.8085714286
857	0.4285	-6.33333333333	5.296	0.0819672131147	28.4003174603
858	0.429	-13.5	6.728	2.93442622951	14.3177777778
859	0.4295	-2.03333333333	3.864	-1.34426229508	10.093015873
860	0.43	-2.03333333333	6.728	-1.34426229508	38.2580952381
861	0.4305	-3.46666666667	3.864	14.3442622951	22.7673015873
862	0.431	-4.9	3.864	1.50819672131	24.1755555556
863	0.4315	-2.03333333333	-0.432	0.0819672131147	26.9920634921
864	0.432	5.13333333333	8.16	0.0819672131147	25.5838095238
865	0.4325	-9.2	6.728	2.93442622951	24.1755555556
866	0.433	-4.9	5.296	-2.77049180328	31.2168253968
867	0.4335	-7.76666666667	5.296	7.2131147541	26.9920634921
868	0.434	-2.03333333333	-1.864	1.50819672131	29.8085714286
869	0.4345	-4.9	21.048	0.0819672131147	26.9920634921
870	0.435	-16.3666666667	8.16	0.0819672131147	32.6250793651
871	0.4355	-4.9	6.728	2.93442622951	38.2580952381
872	0.436	-3.46666666667	9.592	2.93442622951	19.9507936508
873	0.4365	-3.46666666667	9.592	-9.90163934426	29.8085714286
874	0.437	-3.46666666667	11.024	-1.34426229508	31.2168253968
875	0.4375	-4.9	-4.728	0.0819672131147	31.2168253968
876	0.438	-3.46666666667	8.16	-1.34426229508	31.2168253968
877	0.4385	-12.0666666667	6.728	-1.34426229508	29.8085714286
878	0.439	-4.9	9.592	1.50819672131	31.2168253968
879	0.4395	-4.9	11.024	5.7868852459	28.4003174603
880	0.44	-4.9	8.16	2.93442622951	31.2168253968
881	0.4405	-4.9	16.752	2.93442622951	31.2168253968
882	0.441	-6.33333333333	2.432	1.50819672131	31.2168253968
883	0.4415	3.7	8.16	0.0819672131147	31.2168253968
884	0.442	-6.33333333333	9.592	-1.34426229508	26.9920634921
885	0.4425	-6.33333333333	9.592	-2.77049180328	45.2993650794
886	0.443	-4.9	13.888	-1.34426229508	34.0333333333
887	0.4435	-4.9	-0.432	1.50819672131	32.6250793651
888	0.444	-3.46666666667	-0.432	2.93442622951	34.0333333333
889	0.4445	15.1666666667	6.728	4.3606557377	35.4415873016
890	0.445	-12.0666666667	3.864	5.7868852459	34.0333333333
891	0.4455	-4.9	3.864	4.3606557377	22.7673015873
892	0.446	-4.9	6.728	-7.04918032787	32.6250793651
893	0.4465	-7.76666666667	6.728	-1.34426229508	34.0333333333
894	0.447	-4.9	22.48	2.93442622951	35.4415873016
895	0.4475	0.833333333333	-1.864	2.93442622951	34.0333333333
896	0.448	13.7333333333	3.864	2.93442622951	25.5838095238
897	0.4485	-4.9	3.864	5.7868852459	34.0333333333
898	0.449	-4.9	5.296	2.93442622951	28.4003174603
899	0.4495	-3.46666666667	1.0	-2.77049180328	36.8498412698
900	0.45	-3.46666666667	2.432	-2.77049180328	35.4415873016
901	0.4505	-3.46666666667	3.864	1.50819672131	36.8498412698
902	0.451	-2.03333333333	3.864	4.3606557377	39.6663492063
903	0.4515	-4.9	1.0	2.93442622951	34.0333333333
904	0.452	-4.9	1.0	-1.34426229508	38.2580952381
905	0.4525	-3.46666666667	3.864	5.7868852459	38.2580952381
906	0.453	-4.9	2.432	11.4918032787	38.2580952381
907	0.4535	-4.9	5.296	4.3606557377	39.6663492063
908	0.454	0.833333333333	3.864	5.7868852459	38.2580952381
909	0.4545	-4.9	1.0	4.3606557377	38.2580952381
910	0.455	-2.03333333333	2.432	7.2131147541	39.6663492063
911	0.4555	-3.46666666667	5.296	12.9180327869	38.2580952381
912	0.456	-4.9	2.432	18.6229508197	39.6663492063
913	0.4565	-3.46666666667	19.616	7.2131147541	38.2580952381
914	0.457	-3.46666666667	2.432	2.93442622951	41.0746031746
915	0.4575	-10.6333333333	1.0	4.3606557377	29.8085714286
916	0.458	-4.9	3.864	7.2131147541	34.0333333333
917	0.4585	-4.9	1.0	-5.62295081967	32.6250793651
918	0.459	-0.6	5.296	-7.04918032787	36.8498412698
919	0.4595	-3.46666666667	-10.456	5.7868852459	39.6663492063
920	0.46	-2.03333333333	-7.592	4.3606557377	35.4415873016
921	0.4605	13.7333333333	-0.432	4.3606557377	41.0746031746
922	0.461	-10.6333333333	-0.432	7.2131147541	39.6663492063
923	0.4615	-2.03333333333	-1.864	7.2131147541	26.9920634921
924	0.462	-2.03333333333	-4.728	-1.34426229508	38.2580952381
925	0.4625	-3.46666666667	1.0	-2.77049180328	38.2580952381
926	0.463	-3.46666666667	-0.432	4.3606557377	39.6663492063
927	0.4635	-12.0666666667	-0.432	7.2131147541	36.8498412698
928	0.464	18.0333333333	1.0	5.7868852459	34.0333333333
929	0.4645	-2.03333333333	-1.864	-7.04918032787	36.8498412698
930	0.465	-0.6	-1.864	-7.04918032787	38.2580952381
931	0.4655	-2.03333333333	1.0	2.93442622951	38.2580952381
932	0.466	0.833333333333	-4.728	4.3606557377	38.2580952381
933	0.4665	-4.9	1.0	2.93442622951	38.2580952381
934	0.467	5.13333333333	-1.864	0.0819672131147	36.8498412698
935	0.4675	0.833333333333	-3.296	2.93442622951	35.4415873016
936	0.468	0.833333333333	-1.864	8.6393442623	36.8498412698
937	0.4685	3.7	1.0	8.6393442623	36.8498412698
938	0.469	0.833333333333	2.432	0.0819672131147	34.0333333333
939	0.4695	-0.6	-6.16	2.93442622951	39.6663492063
940	0.47	8.0	-0.432	2.93442622951	35.4415873016
941	0.4705	-4.9	1.0	1.50819672131	43.8911111111
942	0.471	-2.03333333333	1.0	-2.77049180328	45.2993650794
943	0.4715	2.26666666667	5.296	2.93442622951	34.0333333333
944	0.472	2.26666666667	9.592	2.93442622951	34.0333333333
945	0.4725	0.833333333333	2.432	1.50819672131	34.0333333333
946	0.473	15.1666666667	-0.432	2.93442622951	32.6250793651
947	0.4735	-0.6	-0.432	2.93442622951	45.2993650794
948	0.474	2.26666666667	-0.432	2.93442622951	22.7673015873
949	0.4745	0.833333333333	-1.864	-7.04918032787	32.6250793651
950	0.475	0.833333333333	5.296	-7.04918032787	34.0333333333
951	0.4755	-2.03333333333	-6.16	4.3606557377	32.6250793651
952	0.476	5.13333333333	-0.432	-1.34426229508	34.0333333333
953	0.4765	22.3333333333	1.0	2.93442622951	34.0333333333
954	0.477	0.833333333333	1.0	-8.47540983607	32.6250793651
955	0.4775	3.7	8.16	17.1967213115	32.6250793651
956	0.478	0.833333333333	-0.432	14.3442622951	32.6250793651
957	0.4785	8.0	19.616	2.93442622951	32.6250793651
958	0.479	-2.03333333333	15.32	2.93442622951	29.8085714286
959	0.4795	-9.2	1.0	4.3606557377	34.0333333333
960	0.48	-0.6	1.0	5.7868852459	24.1755555556
961	0.4805	3.7	2.432	-7.04918032787	34.0333333333
962	0.481	2.26666666667	2.432	-1.34426229508	32.6250793651
963	0.4815	3.7	15.32	2.93442622951	35.4415873016
964	0.482	0.833333333333	-0.432	2.93442622951	36.8498412698
965	0.4825	-7.76666666667	-0.432	2.93442622951	35.4415873016
966	0.483	5.13333333333	2.432	4.3606557377	34.0333333333
967	0.4835	0.833333333333	-1.864	2.93442622951	29.8085714286
968	0.484	0.833333333333	1.0	-1.34426229508	35.4415873016
969	0.4845	2.26666666667	-0.432	2.93442622951	34.0333333333
970	0.485	3.7	-4.728	1.50819672131	38.2580952381
971	0.4855	2.26666666667	-3.296	2.93442622951	39.6663492063
972	0.486	12.3	-0.432	1.50819672131	38.2580952381
973	0.4865	-4.9	-0.432	1.50819672131	35.4415873016
974	0.487	0.833333333333	-1.864	12.9180327869	41.0746031746
975	0.4875	2.26666666667	-4.728	1.50819672131	39.6663492063
976	0.488	3.7	-3.296	-1.34426229508	39.6663492063
977	0.4885	3.7	-9.024	1.50819672131	38.2580952381
978	0.489	18.0333333333	-1.864	0.0819672131147	31.2168253968
979	0.4895	2.26666666667	-1.864	1.50819672131	29.8085714286
980	0.49	2.26666666667	-1.864	-7.04918032787	38.2580952381
981	0.4905	0.833333333333	1.0	-8.47540983607	34.0333333333
982	0.491	2.26666666667	11.024	2.93442622951	35.4415873016
983	0.4915	5.13333333333	-9.024	-1.34426229508	36.8498412698
984	0.492	-0.6	-1.864	-1.34426229508	34.0333333333
985	0.4925	-4.9	-0.432	0.0819672131147	34.0333333333
986	0.493	3.7	-3.296	-4.19672131148	34.0333333333
987	0.4935	-0.6	-1.864	5.7868852459	34.0333333333
988	0.494	2.26666666667	-1.864	11.4918032787	32.6250793651
989	0.4945	2.26666666667	8.16	0.0819672131147	32.6250793651
990	0.495	2.26666666667	-1.864	0.0819672131147	32.6250793651
991	0.4955	10.8666666667	-1.864	0.0819672131147	28.4003174603
992	0.496	0.833333333333	-1.864	0.0819672131147	24.1755555556
993	0.4965	2.26666666667	-1.864	-2.77049180328	22.7673015873
994	0.497	0.833333333333	2.432	-1.34426229508	32.6250793651
995	0.4975	2.26666666667	16.752	0.0819672131147	28.4003174603
996	0.498	-0.6	-1.864	0.0819672131147	28.4003174603
997	0.4985	-12.0666666667	-3.296	-2.77049180328	28.4003174603
998	0.499	0.833333333333	-1.864	2.93442622951	19.9507936508
999	0.4995	2.26666666667	-4.728	12.9180327869	26.9920634921
1000	0.5	2.26666666667	-6.16	-7.04918032787	25.5838095238
1001	0.5005	5.13333333333	1.0	-4.19672131148	24.1755555556
1002	0.501	2.26666666667	-6.16	0.0819672131147	25.5838095238
1003	0.5015	-6.33333333333	-1.864	-1.34426229508	26.9920634921
1004	0.502	3.7	-1.864	0.0819672131147	25.5838095238
1005	0.5025	0.833333333333	-4.728	0.0819672131147	21.359047619
1006	0.503	0.833333333333	-3.296	4.3606557377	25.5838095238
1007	0.5035	-0.6	-1.864	12.9180327869	24.1755555556
1008	0.504	2.26666666667	-10.456	1.50819672131	24.1755555556
1009	0.5045	3.7	-3.296	1.50819672131	26.9920634921
1010	0.505	20.9	-1.864	0.0819672131147	28.4003174603
1011	0.5055	-6.33333333333	-1.864	1.50819672131	31.2168253968
1012	0.506	2.26666666667	-4.728	20.0491803279	26.9920634921
1013	0.5065	2.26666666667	-3.296	15.7704918033	26.9920634921
1014	0.507	0.833333333333	-13.32	2.93442622951	31.2168253968
1015	0.5075	2.26666666667	13.888	0.0819672131147	31.2168253968
1016	0.508	-9.2	-3.296	-1.34426229508	35.4415873016
1017	0.5085	-6.33333333333	-0.432	-1.34426229508	36.8498412698
1018	0.509	3.7	-1.864	0.0819672131147	24.1755555556
1019	0.5095	0.833333333333	-1.864	-12.7540983607	32.6250793651
1020	0.51	2.26666666667	-1.864	-2.77049180328	31.2168253968
1021	0.5105	5.13333333333	-13.32	0.0819672131147	32.6250793651
1022	0.511	5.13333333333	-3.296	1.50819672131	31.2168253968
1023	0.5115	22.3333333333	-4.728	0.0819672131147	24.1755555556
1024	0.512	3.7	-3.296	0.0819672131147	36.8498412698
1025	0.5125	3.7	-3.296	1.50819672131	26.9920634921
1026	0.513	0.833333333333	-6.16	-7.04918032787	31.2168253968
1027	0.5135	3.7	-14.752	-2.77049180328	28.4003174603
1028	0.514	2.26666666667	13.888	0.0819672131147	32.6250793651
1029	0.5145	-7.76666666667	-9.024	-2.77049180328	35.4415873016
1030	0.515	-7.76666666667	-6.16	-1.34426229508	31.2168253968
1031	0.5155	0.833333333333	-4.728	-2.77049180328	46.7076190476
1032	0.516	3.7	-4.728	15.7704918033	28.4003174603
1033	0.5165	2.26666666667	-9.024	-1.34426229508	26.9920634921
1034	0.517	3.7	-11.888	0.0819672131147	28.4003174603
1035	0.5175	0.833333333333	-4.728	-4.19672131148	28.4003174603
1036	0.518	-3.46666666667	-6.16	0.0819672131147	29.8085714286
1037	0.5185	2.26666666667	-9.024	0.0819672131147	22.7673015873
1038	0.519	0.833333333333	-6.16	0.0819672131147	19.9507936508
1039	0.5195	0.833333333333	-3.296	-5.62295081967	31.2168253968
1040	0.52	2.26666666667	-13.32	-5.62295081967	28.4003174603
1041	0.5205	8.0	-9.024	-2.77049180328	29.8085714286
1042	0.521	-7.76666666667	-6.16	-1.34426229508	29.8085714286
1043	0.5215	-0.6	-6.16	-2.77049180328	31.2168253968
1044	0.522	0.833333333333	-3.296	-7.04918032787	39.6663492063
1045	0.5225	3.7	-4.728	11.4918032787	31.2168253968
1046	0.523	2.26666666667	-17.616	-1.34426229508	31.2168253968
1047	0.5235	3.7	-6.16	1.50819672131	35.4415873016
1048	0.524	3.7	-9.024	-1.34426229508	34.0333333333
1049	0.5245	8.0	-4.728	0.0819672131147	35.4415873016
1050	0.525	-3.46666666667	-7.592	0.0819672131147	32.6250793651
1051	0.5255	2.26666666667	-6.16	-4.19672131148	38.2580952381
1052	0.526	2.26666666667	-3.296	-1.34426229508	42.4828571429
1053	0.5265	3.7	-6.16	0.0819672131147	39.6663492063
1054	0.527	2.26666666667	-9.024	0.0819672131147	35.4415873016
1055	0.5275	-7.76666666667	-4.728	-1.34426229508	35.4415873016
1056	0.528	0.833333333333	-4.728	2.93442622951	35.4415873016
1057	0.5285	2.26666666667	-7.592	1.50819672131	45.2993650794
1058	0.529	0.833333333333	-3.296	8.6393442623	35.4415873016
1059	0.5295	0.833333333333	-13.32	0.0819672131147	38.2580952381
1060	0.53	2.26666666667	-14.752	-1.34426229508	36.8498412698
1061	0.5305	3.7	-1.864	-1.34426229508	38.2580952381
1062	0.531	20.9	-4.728	1.50819672131	38.2580952381
1063	0.5315	2.26666666667	-4.728	-2.77049180328	32.6250793651
1064	0.532	3.7	-3.296	-8.47540983607	39.6663492063
1065	0.5325	2.26666666667	-3.296	4.3606557377	38.2580952381
1066	0.533	0.833333333333	6.728	-1.34426229508	38.2580952381
1067	0.5335	2.26666666667	-9.024	-1.34426229508	38.2580952381
1068	0.534	20.9	-4.728	0.0819672131147	29.8085714286
1069	0.5345	0.833333333333	-7.592	-1.34426229508	42.4828571429
1070	0.535	0.833333333333	-1.864	2.93442622951	38.2580952381
1071	0.5355	0.833333333333	-9.024	-1.34426229508	38.2580952381
1072	0.536	0.833333333333	-17.616	-4.19672131148	41.0746031746
1073	0.5365	3.7	-16.184	-1.34426229508	41.0746031746
1074	0.537	3.7	-6.16	-2.77049180328	42.4828571429
1075	0.5375	-7.76666666667	-7.592	0.0819672131147	53.7488888889
1076	0.538	0.833333333333	-3.296	-1.34426229508	28.4003174603
1077	0.5385	2.26666666667	-7.592	-12.7540983607	32.6250793651
1078	0.539	2.26666666667	-4.728	-8.47540983607	39.6663492063
1079	0.5395	5.13333333333	11.024	-2.77049180328	38.2580952381
1080	0.54	0.833333333333	-14.752	-1.34426229508	39.6663492063
1081	0.5405	20.9	-7.592	-5.62295081967	42.4828571429
1082	0.541	-7.76666666667	-3.296	0.0819672131147	59.3819047619
1083	0.5415	5.13333333333	-4.728	0.0819672131147	31.2168253968
1084	0.542	2.26666666667	-7.592	-5.62295081967	42.4828571429
1085	0.5425	2.26666666667	-1.864	2.93442622951	42.4828571429
1086	0.543	5.13333333333	8.16	-1.34426229508	42.4828571429
1087	0.5435	-3.46666666667	-4.728	1.50819672131	41.0746031746
1088	0.544	19.4666666667	-4.728	1.50819672131	38.2580952381
1089	0.5445	2.26666666667	-6.16	-1.34426229508	34.0333333333
1090	0.545	0.833333333333	-4.728	-1.34426229508	57.9736507937
1091	0.5455	0.833333333333	-6.16	12.9180327869	39.6663492063
1092	0.546	0.833333333333	-11.888	0.0819672131147	39.6663492063
1093	0.5465	0.833333333333	8.16	1.50819672131	38.2580952381
1094	0.547	-4.9	-4.728	-1.34426229508	38.2580952381
1095	0.5475	-9.2	-4.728	-2.77049180328	35.4415873016
1096	0.548	0.833333333333	-4.728	0.0819672131147	46.7076190476
1097	0.5485	2.26666666667	-1.864	18.6229508197	32.6250793651
1098	0.549	0.833333333333	-7.592	-1.34426229508	32.6250793651
1099	0.5495	3.7	-13.32	-2.77049180328	32.6250793651
1100	0.55	2.26666666667	-3.296	-2.77049180328	32.6250793651
1101	0.5505	-7.76666666667	-4.728	2.93442622951	34.0333333333
1102	0.551	3.7	-3.296	5.7868852459	24.1755555556
1103	0.5515	3.7	-4.728	-7.04918032787	25.5838095238
1104	0.552	2.26666666667	-1.864	-8.47540983607	34.0333333333
1105	0.5525	0.833333333333	-7.592	0.0819672131147	35.4415873016
1106	0.553	2.26666666667	-9.024	0.0819672131147	32.6250793651
1107	0.5535	-9.2	-4.728	2.93442622951	32.6250793651
1108	0.554	0.833333333333	-6.16	-1.34426229508	28.4003174603
1109	0.5545	0.833333333333	-4.728	-2.77049180328	50.9323809524
1110	0.555	-0.6	-1.864	15.7704918033	35.4415873016
1111	0.5555	-2.03333333333	-6.16	0.0819672131147	36.8498412698
1112	0.556	0.833333333333	-0.432	4.3606557377	35.4415873016
1113	0.5565	2.26666666667	-4.728	1.50819672131	34.0333333333
1114	0.557	-7.76666666667	-1.864	1.50819672131	36.8498412698
1115	0.5575	-0.6	-1.864	1.50819672131	25.5838095238
1116	0.558	-2.03333333333	-0.432	-7.04918032787	35.4415873016
1117	0.5585	0.833333333333	-7.592	-1.34426229508	34.0333333333
1118	0.559	0.833333333333	5.296	1.50819672131	35.4415873016
1119	0.5595	-9.2	-1.864	0.0819672131147	35.4415873016
1120	0.56	10.8666666667	-1.864	1.50819672131	24.1755555556
1121	0.5605	-2.03333333333	-1.864	-1.34426229508	38.2580952381
1122	0.561	-0.6	-1.864	4.3606557377	26.9920634921
1123	0.5615	0.833333333333	-3.296	-5.62295081967	32.6250793651
1124	0.562	0.833333333333	18.184	1.50819672131	34.0333333333
1125	0.5625	-4.9	-1.864	1.50819672131	34.0333333333
1126	0.563	-12.0666666667	-0.432	2.93442622951	35.4415873016
1127	0.5635	-9.2	-1.864	4.3606557377	18.5425396825
1128	0.564	-0.6	-0.432	4.3606557377	19.9507936508
1129	0.5645	-2.03333333333	-0.432	-7.04918032787	32.6250793651
1130	0.565	-2.03333333333	1.0	2.93442622951	29.8085714286
1131	0.5655	-2.03333333333	16.752	-1.34426229508	28.4003174603
1132	0.566	-7.76666666667	-0.432	-1.34426229508	28.4003174603
1133	0.5665	16.6	-0.432	0.0819672131147	28.4003174603
1134	0.567	0.833333333333	-0.432	1.50819672131	21.359047619
1135	0.5675	-0.6	-1.864	-1.34426229508	38.2580952381
1136	0.568	-2.03333333333	-0.432	7.2131147541	25.5838095238
1137	0.5685	-4.9	8.16	1.50819672131	28.4003174603
1138	0.569	-3.46666666667	-1.864	0.0819672131147	25.5838095238
1139	0.5695	12.3	-1.864	1.50819672131	15.726031746
1140	0.57	-2.03333333333	-0.432	1.50819672131	38.2580952381
1141	0.5705	-2.03333333333	-4.728	7.2131147541	39.6663492063
1142	0.571	-4.9	-1.864	20.0491803279	24.1755555556
1143	0.5715	-3.46666666667	-6.16	-4.19672131148	21.359047619
1144	0.572	-3.46666666667	5.296	1.50819672131	22.7673015873
1145	0.5725	3.7	-1.864	4.3606557377	25.5838095238
1146	0.573	-3.46666666667	-0.432	2.93442622951	25.5838095238
1147	0.5735	-3.46666666667	-1.864	4.3606557377	17.1342857143
1148	0.574	-3.46666666667	-1.864	4.3606557377	14.3177777778
1149	0.5745	-2.03333333333	-0.432	2.93442622951	17.1342857143
1150	0.575	-4.9	2.432	4.3606557377	18.5425396825
1151	0.5755	-4.9	-0.432	0.0819672131147	18.5425396825
1152	0.576	-7.76666666667	-0.432	1.50819672131	14.3177777778
1153	0.5765	-4.9	1.0	2.93442622951	19.9507936508
1154	0.577	-4.9	-0.432	11.4918032787	17.1342857143
1155	0.5775	-0.6	-1.864	-1.34426229508	17.1342857143
1156	0.578	-3.46666666667	2.432	-2.77049180328	17.1342857143
1157	0.5785	-6.33333333333	-10.456	-1.34426229508	15.726031746
1158	0.579	-2.03333333333	-0.432	2.93442622951	17.1342857143
1159	0.5795	-9.2	1.0	-1.34426229508	10.093015873
1160	0.58	-3.46666666667	1.0	0.0819672131147	17.1342857143
1161	0.5805	-4.9	2.432	15.7704918033	15.726031746
1162	0.581	-3.46666666667	-3.296	-1.34426229508	15.726031746
1163	0.5815	-2.03333333333	19.616	-1.34426229508	19.9507936508
1164	0.582	-7.76666666667	2.432	0.0819672131147	22.7673015873
1165	0.5825	-9.2	1.0	0.0819672131147	15.726031746
1166	0.583	-4.9	1.0	-1.34426229508	19.9507936508
1167	0.5835	-4.9	2.432	1.50819672131	28.4003174603
1168	0.584	-4.9	2.432	2.93442622951	22.7673015873
1169	0.5845	-4.9	11.024	2.93442622951	22.7673015873
1170	0.585	-2.03333333333	2.432	1.50819672131	21.359047619
1171	0.5855	12.3	2.432	1.50819672131	22.7673015873
1172	0.586	-7.76666666667	2.432	4.3606557377	24.1755555556
1173	0.5865	-4.9	1.0	7.2131147541	19.9507936508
1174	0.587	-3.46666666667	-0.432	0.0819672131147	22.7673015873
1175	0.5875	-4.9	6.728	0.0819672131147	21.359047619
1176	0.588	-6.33333333333	-0.432	0.0819672131147	21.359047619
1177	0.5885	-0.6	2.432	0.0819672131147	22.7673015873
1178	0.589	13.7333333333	2.432	0.0819672131147	26.9920634921
1179	0.5895	-4.9	3.864	7.2131147541	35.4415873016
1180	0.59	-2.03333333333	3.864	17.1967213115	22.7673015873
1181	0.5905	-4.9	2.432	-4.19672131148	24.1755555556
1182	0.591	-6.33333333333	1.0	4.3606557377	24.1755555556
1183	0.5915	-0.6	2.432	2.93442622951	22.7673015873
1184	0.592	12.3	2.432	2.93442622951	26.9920634921
1185	0.5925	-7.76666666667	5.296	0.0819672131147	26.9920634921
1186	0.593	-2.03333333333	5.296	1.50819672131	12.9095238095
1187	0.5935	-3.46666666667	5.296	-8.47540983607	22.7673015873
1188	0.594	-3.46666666667	3.864	1.50819672131	24.1755555556
1189	0.5945	-0.6	-1.864	0.0819672131147	24.1755555556
1190	0.595	-10.6333333333	5.296	1.50819672131	24.1755555556
1191	0.5955	-6.33333333333	1.0	4.3606557377	36.8498412698
1192	0.596	-2.03333333333	2.432	4.3606557377	10.093015873
1193	0.5965	-2.03333333333	1.0	-7.04918032787	15.726031746
1194	0.597	-2.03333333333	3.864	-8.47540983607	19.9507936508
1195	0.5975	-4.9	15.32	2.93442622951	22.7673015873
1196	0.598	-4.9	-3.296	1.50819672131	26.9920634921
1197	0.5985	3.7	3.864	5.7868852459	26.9920634921
1198	0.599	-4.9	3.864	0.0819672131147	19.9507936508
1199	0.5995	-4.9	5.296	-11.3278688525	28.4003174603
1200	0.6	-2.03333333333	5.296	-8.47540983607	26.9920634921
1201	0.6005	-3.46666666667	22.48	1.50819672131	31.2168253968
1202	0.601	-4.9	-6.16	1.50819672131	29.8085714286
1203	0.6015	-4.9	2.432	-1.34426229508	31.2168253968
1204	0.602	-10.6333333333	1.0	2.93442622951	34.0333333333
1205	0.6025	-2.03333333333	5.296	4.3606557377	49.5241269841
1206	0.603	-3.46666666667	3.864	2.93442622951	25.5838095238
1207	0.6035	-4.9	3.864	-9.90163934426	34.0333333333
1208	0.604	-2.03333333333	19.616	-1.34426229508	35.4415873016
1209	0.6045	-6.33333333333	-4.728	0.0819672131147	32.6250793651
1210	0.605	2.26666666667	3.864	2.93442622951	34.0333333333
1211	0.6055	-3.46666666667	2.432	-2.77049180328	34.0333333333
1212	0.606	-3.46666666667	3.864	-4.19672131148	36.8498412698
1213	0.6065	-4.9	1.0	-1.34426229508	36.8498412698
1214	0.607	-2.03333333333	2.432	0.0819672131147	38.2580952381
1215	0.6075	-9.2	5.296	0.0819672131147	35.4415873016
1216	0.608	-0.6	2.432	-4.19672131148	38.2580952381
1217	0.6085	-10.6333333333	2.432	1.50819672131	36.8498412698
1218	0.609	-2.03333333333	3.864	0.0819672131147	45.2993650794
1219	0.6095	-3.46666666667	3.864	4.3606557377	39.6663492063
1220	0.61	-3.46666666667	3.864	-2.77049180328	34.0333333333
1221	0.6105	-4.9	3.864	-2.77049180328	34.0333333333
1222	0.611	2.26666666667	3.864	0.0819672131147	34.0333333333
1223	0.6115	-6.33333333333	3.864	-1.34426229508	36.8498412698
1224	0.612	-3.46666666667	3.864	1.50819672131	34.0333333333
1225	0.6125	-2.03333333333	3.864	1.50819672131	28.4003174603
1226	0.613	-2.03333333333	6.728	-8.47540983607	31.2168253968
1227	0.6135	-3.46666666667	25.344	0.0819672131147	34.0333333333
1228	0.614	-4.9	-3.296	0.0819672131147	32.6250793651
1229	0.6145	9.43333333333	5.296	1.50819672131	32.6250793651
1230	0.615	-10.6333333333	6.728	1.50819672131	31.2168253968
1231	0.6155	-2.03333333333	3.864	0.0819672131147	24.1755555556
1232	0.616	-3.46666666667	6.728	-4.19672131148	32.6250793651
1233	0.6165	-3.46666666667	5.296	2.93442622951	32.6250793651
1234	0.617	-6.33333333333	16.752	2.93442622951	34.0333333333
1235	0.6175	-0.6	6.728	1.50819672131	36.8498412698
1236	0.618	2.26666666667	6.728	0.0819672131147	34.0333333333
1237	0.6185	-4.9	6.728	8.6393442623	34.0333333333
1238	0.619	-4.9	5.296	4.3606557377	35.4415873016
1239	0.6195	-4.9	1.0	0.0819672131147	35.4415873016
1240	0.62	-0.6	16.752	0.0819672131147	32.6250793651
1241	0.6205	-16.3666666667	6.728	-1.34426229508	38.2580952381
1242	0.621	-10.6333333333	5.296	1.50819672131	31.2168253968
1243	0.6215	-4.9	6.728	-1.34426229508	31.2168253968
1244	0.622	-4.9	5.296	-1.34426229508	43.8911111111
1245	0.6225	-4.9	5.296	18.6229508197	32.6250793651
1246	0.623	-2.03333333333	-3.296	2.93442622951	31.2168253968
1247	0.6235	0.833333333333	5.296	4.3606557377	32.6250793651
1248	0.624	-17.8	3.864	2.93442622951	31.2168253968
1249	0.6245	16.6	6.728	1.50819672131	28.4003174603
1250	0.625	-3.46666666667	9.592	-8.47540983607	31.2168253968
1251	0.6255	-4.9	6.728	18.6229508197	31.2168253968
1252	0.626	-2.03333333333	1.0	1.50819672131	31.2168253968
1253	0.6265	-3.46666666667	2.432	2.93442622951	29.8085714286
1254	0.627	-4.9	3.864	-1.34426229508	24.1755555556
1255	0.6275	-6.33333333333	6.728	0.0819672131147	25.5838095238
1256	0.628	-10.6333333333	6.728	1.50819672131	26.9920634921
1257	0.6285	-4.9	6.728	1.50819672131	34.0333333333
1258	0.629	-4.9	5.296	4.3606557377	26.9920634921
1259	0.6295	-3.46666666667	12.456	0.0819672131147	26.9920634921
1260	0.63	-3.46666666667	1.0	4.3606557377	26.9920634921
1261	0.6305	-12.0666666667	6.728	1.50819672131	29.8085714286
1262	0.631	-0.6	3.864	1.50819672131	29.8085714286
1263	0.6315	-4.9	2.432	4.3606557377	28.4003174603
1264	0.632	-3.46666666667	6.728	5.7868852459	26.9920634921
1265	0.6325	-4.9	2.432	-2.77049180328	31.2168253968
1266	0.633	-2.03333333333	5.296	0.0819672131147	34.0333333333
1267	0.6335	0.833333333333	1.0	1.50819672131	31.2168253968
1268	0.634	-3.46666666667	5.296	2.93442622951	29.8085714286
1269	0.6345	-3.46666666667	3.864	4.3606557377	34.0333333333
1270	0.635	-3.46666666667	6.728	2.93442622951	36.8498412698
1271	0.6355	-0.6	1.0	18.6229508197	26.9920634921
1272	0.636	0.833333333333	-10.456	4.3606557377	28.4003174603
1273	0.6365	0.833333333333	3.864	4.3606557377	29.8085714286
1274	0.637	-13.5	3.864	5.7868852459	29.8085714286
1275	0.6375	-12.0666666667	2.432	8.6393442623	24.1755555556
1276	0.638	-2.03333333333	6.728	4.3606557377	41.0746031746
1277	0.6385	0.833333333333	5.296	21.4754098361	24.1755555556
1278	0.639	-3.46666666667	3.864	2.93442622951	26.9920634921
1279	0.6395	-2.03333333333	-1.864	4.3606557377	25.5838095238
1280	0.64	-3.46666666667	2.432	4.3606557377	25.5838095238
1281	0.6405	-9.2	5.296	2.93442622951	26.9920634921
1282	0.641	-2.03333333333	3.864	4.3606557377	17.1342857143
1283	0.6415	-0.6	2.432	-7.04918032787	29.8085714286
1284	0.642	-3.46666666667	6.728	-7.04918032787	28.4003174603
1285	0.6425	-3.46666666667	22.48	2.93442622951	29.8085714286
1286	0.643	-2.03333333333	2.432	4.3606557377	28.4003174603
1287	0.6435	-14.9333333333	1.0	1.50819672131	26.9920634921
1288	0.644	-2.03333333333	2.432	2.93442622951	28.4003174603
1289	0.6445	-0.6	1.0	4.3606557377	32.6250793651
1290	0.645	-0.6	1.0	4.3606557377	34.0333333333
1291	0.6455	0.833333333333	2.432	8.6393442623	31.2168253968
1292	0.646	-0.6	3.864	2.93442622951	31.2168253968
1293	0.6465	-6.33333333333	1.0	4.3606557377	31.2168253968
1294	0.647	8.0	1.0	4.3606557377	29.8085714286
1295	0.6475	-4.9	1.0	4.3606557377	26.9920634921
1296	0.648	0.833333333333	1.0	-2.77049180328	19.9507936508
1297	0.6485	0.833333333333	1.0	-2.77049180328	25.5838095238
1298	0.649	0.833333333333	-6.16	-2.77049180328	25.5838095238
1299	0.6495	3.7	1.0	0.0819672131147	25.5838095238
1300	0.65	8.0	1.0	1.50819672131	25.5838095238
1301	0.6505	12.3	1.0	1.50819672131	24.1755555556
1302	0.651	0.833333333333	1.0	-2.77049180328	26.9920634921
1303	0.6515	0.833333333333	-0.432	-5.62295081967	26.9920634921
1304	0.652	0.833333333333	3.864	1.50819672131	29.8085714286
1305	0.6525	2.26666666667	-10.456	1.50819672131	28.4003174603
1306	0.653	2.26666666667	-0.432	4.3606557377	26.9920634921
1307	0.6535	-10.6333333333	3.864	2.93442622951	26.9920634921
1308	0.654	3.7	1.0	1.50819672131	12.9095238095
1309	0.6545	2.26666666667	3.864	-8.47540983607	22.7673015873
1310	0.655	3.7	3.864	-1.34426229508	28.4003174603
1311	0.6555	-0.6	18.184	0.0819672131147	29.8085714286
1312	0.656	-3.46666666667	-3.296	4.3606557377	29.8085714286
1313	0.6565	8.0	-0.432	1.50819672131	29.8085714286
1314	0.657	-0.6	-0.432	2.93442622951	36.8498412698
1315	0.6575	2.26666666667	-1.864	-1.34426229508	36.8498412698
1316	0.658	3.7	-0.432	11.4918032787	31.2168253968
1317	0.6585	3.7	-0.432	11.4918032787	31.2168253968
1318	0.659	8.0	11.024	-1.34426229508	34.0333333333
1319	0.6595	0.833333333333	-1.864	2.93442622951	32.6250793651
1320	0.66	15.1666666667	-0.432	1.50819672131	34.0333333333
1321	0.6605	-0.6	1.0	0.0819672131147	36.8498412698
1322	0.661	0.833333333333	-0.432	-7.04918032787	35.4415873016
1323	0.6615	2.26666666667	-0.432	-5.62295081967	35.4415873016
1324	0.662	3.7	-7.592	-1.34426229508	36.8498412698
1325	0.6625	2.26666666667	-9.024	1.50819672131	38.2580952381
1326	0.663	20.9	-0.432	-1.34426229508	46.7076190476
1327	0.6635	-3.46666666667	-1.864	-1.34426229508	56.5653968254
1328	0.664	3.7	1.0	2.93442622951	56.5653968254
1329	0.6645	0.833333333333	1.0	14.3442622951	41.0746031746
1330	0.665	2.26666666667	-11.888	4.3606557377	41.0746031746
1331	0.6655	0.833333333333	-7.592	4.3606557377	42.4828571429
1332	0.666	5.13333333333	-1.864	1.50819672131	42.4828571429
1333	0.6665	-0.6	-0.432	1.50819672131	46.7076190476
1334	0.667	3.7	-0.432	2.93442622951	38.2580952381
1335	0.6675	3.7	-1.864	0.0819672131147	46.7076190476
1336	0.668	3.7	-0.432	11.4918032787	38.2580952381
1337	0.6685	2.26666666667	-6.16	1.50819672131	34.0333333333
1338	0.669	5.13333333333	-7.592	0.0819672131147	35.4415873016
1339	0.6695	2.26666666667	1.0	0.0819672131147	36.8498412698
1340	0.67	-4.9	1.0	0.0819672131147	34.0333333333
1341	0.6705	5.13333333333	-1.864	0.0819672131147	28.4003174603
1342	0.671	2.26666666667	-3.296	-1.34426229508	35.4415873016
1343	0.6715	0.833333333333	-9.024	2.93442622951	31.2168253968
1344	0.672	5.13333333333	3.864	2.93442622951	29.8085714286
1345	0.6725	-7.76666666667	-1.864	1.50819672131	32.6250793651
1346	0.673	0.833333333333	-0.432	2.93442622951	31.2168253968
1347	0.6735	0.833333333333	-1.864	1.50819672131	24.1755555556
1348	0.674	2.26666666667	-0.432	-5.62295081967	28.4003174603
1349	0.6745	2.26666666667	1.0	5.7868852459	28.4003174603
1350	0.675	0.833333333333	3.864	0.0819672131147	31.2168253968
1351	0.6755	3.7	6.728	-1.34426229508	28.4003174603
1352	0.676	3.7	1.0	2.93442622951	29.8085714286
1353	0.6765	-6.33333333333	-0.432	1.50819672131	29.8085714286
1354	0.677	3.7	1.0	-4.19672131148	31.2168253968
1355	0.6775	-0.6	-0.432	-7.04918032787	32.6250793651
1356	0.678	3.7	1.0	-5.62295081967	34.0333333333
1357	0.6785	0.833333333333	-7.592	2.93442622951	28.4003174603
1358	0.679	0.833333333333	-1.864	0.0819672131147	26.9920634921
1359	0.6795	22.3333333333	-0.432	-1.34426229508	24.1755555556
1360	0.68	2.26666666667	-1.864	1.50819672131	29.8085714286
1361	0.6805	3.7	1.0	1.50819672131	19.9507936508
1362	0.681	5.13333333333	-1.864	-5.62295081967	28.4003174603
1363	0.6815	3.7	13.888	1.50819672131	26.9920634921
1364	0.682	-0.6	-1.864	0.0819672131147	29.8085714286
1365	0.6825	-6.33333333333	-1.864	0.0819672131147	28.4003174603
1366	0.683	-7.76666666667	1.0	1.50819672131	22.7673015873
1367	0.6835	2.26666666667	-0.432	-4.19672131148	28.4003174603
1368	0.684	3.7	-1.864	-2.77049180328	26.9920634921
1369	0.6845	0.833333333333	-0.432	-5.62295081967	29.8085714286
1370	0.685	3.7	-6.16	-1.34426229508	29.8085714286
1371	0.6855	-4.9	-1.864	-1.34426229508	28.4003174603
1372	0.686	2.26666666667	-0.432	0.0819672131147	28.4003174603
1373	0.6865	0.833333333333	-4.728	-7.04918032787	32.6250793651
1374	0.687	2.26666666667	-3.296	-7.04918032787	29.8085714286
1375	0.6875	0.833333333333	-1.864	-1.34426229508	31.2168253968
1376	0.688	0.833333333333	-9.024	0.0819672131147	34.0333333333
1377	0.6885	8.0	-3.296	-1.34426229508	34.0333333333
1378	0.689	20.9	-4.728	0.0819672131147	36.8498412698
1379	0.6895	0.833333333333	-1.864	0.0819672131147	26.9920634921
1380	0.69	2.26666666667	-4.728	-11.3278688525	31.2168253968
1381	0.6905	-0.6	-1.864	-7.04918032787	31.2168253968
1382	0.691	2.26666666667	13.888	-1.34426229508	29.8085714286
1383	0.6915	-2.03333333333	-9.024	-1.34426229508	31.2168253968
1384	0.692	19.4666666667	-1.864	-1.34426229508	32.6250793651
1385	0.6925	-4.9	-6.16	-1.34426229508	48.1158730159
1386	0.693	0.833333333333	-4.728	1.50819672131	22.7673015873
1387	0.6935	0.833333333333	-3.296	-9.90163934426	31.2168253968
1388	0.694	-0.6	-7.592	0.0819672131147	31.2168253968
1389	0.6945	3.7	-6.16	-2.77049180328	32.6250793651
1390	0.695	-6.33333333333	-6.16	-1.34426229508	29.8085714286
1391	0.6955	10.8666666667	-6.16	-1.34426229508	31.2168253968
1392	0.696	0.833333333333	-6.16	0.0819672131147	36.8498412698
1393	0.6965	0.833333333333	-4.728	8.6393442623	26.9920634921
1394	0.697	3.7	-9.024	4.3606557377	29.8085714286
1395	0.6975	2.26666666667	8.16	-1.34426229508	29.8085714286
1396	0.698	-0.6	-6.16	-1.34426229508	26.9920634921
1397	0.6985	18.0333333333	-4.728	-2.77049180328	25.5838095238
1398	0.699	3.7	-6.16	-4.19672131148	21.359047619
1399	0.6995	2.26666666667	-4.728	-2.77049180328	39.6663492063
1400	0.7	0.833333333333	-9.024	14.3442622951	24.1755555556
1401	0.7005	3.7	-13.32	-1.34426229508	22.7673015873
1402	0.701	3.7	13.888	-2.77049180328	22.7673015873
1403	0.7015	-4.9	-4.728	-5.62295081967	26.9920634921
1404	0.702	-3.46666666667	-6.16	-1.34426229508	22.7673015873
1405	0.7025	3.7	-4.728	-5.62295081967	18.5425396825
1406	0.703	0.833333333333	-4.728	-9.90163934426	19.9507936508
1407	0.7035	3.7	-6.16	-7.04918032787	28.4003174603
1408	0.704	0.833333333333	8.16	0.0819672131147	22.7673015873
1409	0.7045	0.833333333333	-13.32	-1.34426229508	22.7673015873
1410	0.705	15.1666666667	-4.728	1.50819672131	21.359047619
1411	0.7055	2.26666666667	-3.296	0.0819672131147	32.6250793651
1412	0.706	2.26666666667	-4.728	-5.62295081967	34.0333333333
1413	0.7065	5.13333333333	-3.296	2.93442622951	21.359047619
1414	0.707	3.7	1.0	0.0819672131147	21.359047619
1415	0.7075	3.7	3.864	-1.34426229508	19.9507936508
1416	0.708	6.56666666667	-4.728	-2.77049180328	18.5425396825
1417	0.7085	13.7333333333	-1.864	-1.34426229508	17.1342857143
1418	0.709	3.7	-1.864	-2.77049180328	21.359047619
1419	0.7095	3.7	-4.728	-4.19672131148	17.1342857143
1420	0.71	0.833333333333	-0.432	11.4918032787	22.7673015873
1421	0.7105	0.833333333333	-6.16	-1.34426229508	21.359047619
1422	0.711	-3.46666666667	-3.296	-5.62295081967	22.7673015873
1423	0.7115	-4.9	-1.864	-5.62295081967	26.9920634921
1424	0.712	-9.2	-3.296	-4.19672131148	21.359047619
1425	0.7125	2.26666666667	-4.728	-5.62295081967	39.6663492063
1426	0.713	0.833333333333	-3.296	14.3442622951	21.359047619
1427	0.7135	5.13333333333	-16.184	-4.19672131148	22.7673015873
1428	0.714	6.56666666667	-16.184	-2.77049180328	22.7673015873
1429	0.7145	0.833333333333	15.32	-1.34426229508	22.7673015873
1430	0.715	-6.33333333333	-4.728	-2.77049180328	21.359047619
1431	0.7155	-0.6	-6.16	-5.62295081967	10.093015873
1432	0.716	2.26666666667	-4.728	-12.7540983607	19.9507936508
1433	0.7165	2.26666666667	-6.16	-1.34426229508	19.9507936508
1434	0.717	2.26666666667	-14.752	-1.34426229508	21.359047619
1435	0.7175	5.13333333333	-14.752	-1.34426229508	18.5425396825
1436	0.718	22.3333333333	-3.296	-2.77049180328	21.359047619
1437	0.7185	-6.33333333333	-6.16	-1.34426229508	22.7673015873
1438	0.719	-2.03333333333	-4.728	-1.34426229508	7.27650793651
1439	0.7195	3.7	-4.728	-15.606557377	11.5012698413
1440	0.72	2.26666666667	-1.864	-2.77049180328	15.726031746
1441	0.7205	3.7	-16.184	-4.19672131148	17.1342857143
1442	0.721	8.0	-7.592	-1.34426229508	17.1342857143
1443	0.7215	-10.6333333333	-4.728	-2.77049180328	18.5425396825
1444	0.722	0.833333333333	-6.16	-1.34426229508	-1.17301587302
1445	0.7225	3.7	-6.16	-11.3278688525	8.68476190476
1446	0.723	0.833333333333	-6.16	-9.90163934426	8.68476190476
1447	0.7235	0.833333333333	-4.728	-9.90163934426	5.86825396825
1448	0.724	0.833333333333	-16.184	-2.77049180328	7.27650793651
1449	0.7245	5.13333333333	-3.296	-1.34426229508	8.68476190476
1450	0.725	2.26666666667	-4.728	-1.34426229508	14.3177777778
1451	0.7255	2.26666666667	-7.592	-7.04918032787	5.86825396825
1452	0.726	-0.6	-3.296	-2.77049180328	-6.80603174603
1453	0.7265	2.26666666667	-14.752	-5.62295081967	0.235238095238
1454	0.727	3.7	-6.16	-1.34426229508	0.235238095238
1455	0.7275	5.13333333333	-7.592	0.0819672131147	0.235238095238
1456	0.728	0.833333333333	-9.024	-1.34426229508	1.64349206349
1457	0.7285	3.7	-6.16	4.3606557377	-6.80603174603
1458	0.729	3.7	-7.592	15.7704918033	-6.80603174603
1459	0.7295	0.833333333333	-10.456	15.7704918033	-6.80603174603
1460	0.73	0.833333333333	6.728	1.50819672131	-5.39777777778
1461	0.7305	-0.6	-10.456	2.93442622951	-5.39777777778
1462	0.731	18.0333333333	-9.024	0.0819672131147	-8.21428571429
1463	0.7315	-3.46666666667	-9.024	2.93442622951	-12.439047619
1464	0.732	2.26666666667	-9.024	-1.34426229508	14.3177777778
1465	0.7325	0.833333333333	-11.888	18.6229508197	-5.39777777778
1466	0.733	0.833333333333	-19.048	4.3606557377	-6.80603174603
1467	0.7335	3.7	6.728	5.7868852459	-8.21428571429
1468	0.734	-9.2	-9.024	5.7868852459	-11.0307936508
1469	0.7345	19.4666666667	-11.888	2.93442622951	-12.439047619
1470	0.735	-0.6	-10.456	2.93442622951	0.235238095238
1471	0.7355	-0.6	-6.16	20.0491803279	-11.0307936508
1472	0.736	-0.6	-13.32	20.0491803279	-11.0307936508
1473	0.7365	0.833333333333	6.728	4.3606557377	-12.439047619
1474	0.737	-3.46666666667	-6.16	5.7868852459	-16.6638095238
1475	0.7375	-9.2	-9.024	4.3606557377	-23.7050793651
1476	0.738	0.833333333333	-10.456	0.0819672131147	-33.5628571429
1477	0.7385	-2.03333333333	-7.592	1.50819672131	-12.439047619
1478	0.739	0.833333333333	-7.592	20.0491803279	-33.5628571429
1479	0.7395	0.833333333333	-13.32	7.2131147541	-36.3793650794
1480	0.74	0.833333333333	-13.32	7.2131147541	-34.9711111111
1481	0.7405	0.833333333333	-7.592	4.3606557377	-34.9711111111
1482	0.741	15.1666666667	-6.16	4.3606557377	-33.5628571429
1483	0.7415	-0.6	-4.728	2.93442622951	-32.1546031746
1484	0.742	-0.6	-1.864	2.93442622951	-33.5628571429
1485	0.7425	0.833333333333	-4.728	12.9180327869	-29.3380952381
1486	0.743	2.26666666667	9.592	2.93442622951	-27.9298412698
1487	0.7435	-0.6	-1.864	2.93442622951	-30.7463492063
1488	0.744	-10.6333333333	1.0	7.2131147541	-29.3380952381
1489	0.7445	0.833333333333	1.0	1.50819672131	-19.4803174603
1490	0.745	-0.6	-0.432	5.7868852459	-16.6638095238
1491	0.7455	-0.6	-0.432	5.7868852459	-12.439047619
1492	0.746	-2.03333333333	-9.024	5.7868852459	-2.58126984127
1493	0.7465	0.833333333333	11.024	7.2131147541	8.68476190476
1494	0.747	0.833333333333	-1.864	4.3606557377	17.1342857143
1495	0.7475	-9.2	1.0	4.3606557377	28.4003174603
1496	0.748	0.833333333333	-1.864	2.93442622951	28.4003174603
1497	0.7485	-2.03333333333	1.0	5.7868852459	39.6663492063
1498	0.749	-2.03333333333	-7.592	2.93442622951	50.9323809524
1499	0.7495	0.833333333333	-1.864	2.93442622951	57.9736507937
1500	0.75	-0.6	-1.864	7.2131147541	69.2396825397
1501	0.7505	-2.03333333333	2.432	8.6393442623	76.280952381
1502	0.751	-3.46666666667	1.0	7.2131147541	80.5057142857
1503	0.7515	-2.03333333333	1.0	-2.77049180328	83.3222222222
1504	0.752	-0.6	5.296	2.93442622951	83.3222222222
1505	0.7525	-0.6	-4.728	4.3606557377	90.3634920635
1506	0.753	0.833333333333	1.0	8.6393442623	94.5882539683
1507	0.7535	15.1666666667	2.432	7.2131147541	97.4047619048
1508	0.754	-7.76666666667	2.432	5.7868852459	98.813015873
1509	0.7545	-4.9	2.432	8.6393442623	95.9965079365
1510	0.755	-0.6	2.432	7.2131147541	101.62952381
1511	0.7555	-0.6	5.296	4.3606557377	100.221269841
1512	0.756	-3.46666666667	18.184	2.93442622951	100.221269841
1513	0.7565	-0.6	-3.296	2.93442622951	95.9965079365
1514	0.757	19.4666666667	2.432	4.3606557377	95.9965079365
1515	0.7575	-9.2	3.864	2.93442622951	108.670793651
1516	0.758	-2.03333333333	6.728	18.6229508197	84.7304761905
1517	0.7585	-2.03333333333	3.864	20.0491803279	79.0974603175
1518	0.759	-2.03333333333	5.296	-7.04918032787	77.6892063492
1519	0.7595	-3.46666666667	-6.16	1.50819672131	72.0561904762
1520	0.76	-4.9	1.0	1.50819672131	67.8314285714
1521	0.7605	3.7	1.0	-1.34426229508	63.6066666667
1522	0.761	-2.03333333333	1.0	-1.34426229508	57.9736507937
1523	0.7615	-3.46666666667	5.296	4.3606557377	55.1571428571
1524	0.762	-3.46666666667	1.0	7.2131147541	52.3406349206
1525	0.7625	-3.46666666667	-1.864	0.0819672131147	49.5241269841
1526	0.763	-0.6	1.0	0.0819672131147	45.2993650794
1527	0.7635	-16.3666666667	1.0	0.0819672131147	45.2993650794
1528	0.764	-3.46666666667	3.864	1.50819672131	38.2580952381
1529	0.7645	-2.03333333333	2.432	4.3606557377	34.0333333333
1530	0.765	-4.9	2.432	-8.47540983607	39.6663492063
1531	0.7655	-2.03333333333	-6.16	1.50819672131	39.6663492063
1532	0.766	-3.46666666667	-6.16	1.50819672131	38.2580952381
1533	0.7665	-4.9	1.0	0.0819672131147	35.4415873016
1534	0.767	-10.6333333333	3.864	1.50819672131	35.4415873016
1535	0.7675	-2.03333333333	5.296	1.50819672131	28.4003174603
1536	0.768	-3.46666666667	6.728	2.93442622951	39.6663492063
1537	0.7685	-2.03333333333	2.432	5.7868852459	25.5838095238
1538	0.769	-3.46666666667	12.456	-1.34426229508	22.7673015873
1539	0.7695	-14.9333333333	2.432	0.0819672131147	21.359047619
1540	0.77	12.3	2.432	1.50819672131	19.9507936508
1541	0.7705	-4.9	5.296	0.0819672131147	21.359047619
1542	0.771	-2.03333333333	2.432	0.0819672131147	7.27650793651
1543	0.7715	-4.9	-0.432	-8.47540983607	17.1342857143
1544	0.772	-3.46666666667	2.432	-8.47540983607	15.726031746
1545	0.7725	-4.9	2.432	-4.19672131148	17.1342857143
1546	0.773	-9.2	3.864	0.0819672131147	17.1342857143
1547	0.7735	15.1666666667	3.864	0.0819672131147	14.3177777778
1548	0.774	-2.03333333333	5.296	-4.19672131148	15.726031746
1549	0.7745	-3.46666666667	1.0	-7.04918032787	19.9507936508
1550	0.775	-3.46666666667	3.864	-2.77049180328	19.9507936508
1551	0.7755	-3.46666666667	-4.728	-1.34426229508	18.5425396825
1552	0.776	-3.46666666667	5.296	-1.34426229508	19.9507936508
1553	0.7765	-12.0666666667	5.296	-2.77049180328	25.5838095238
1554	0.777	-12.0666666667	5.296	-2.77049180328	22.7673015873
1555	0.7775	-2.03333333333	5.296	-2.77049180328	35.4415873016
1556	0.778	-0.6	6.728	5.7868852459	25.5838095238
1557	0.7785	-3.46666666667	6.728	-2.77049180328	24.1755555556
1558	0.779	-0.6	-1.864	-2.77049180328	28.4003174603
1559	0.7795	-12.0666666667	1.0	-2.77049180328	22.7673015873
1560	0.78	8.0	2.432	-7.04918032787	25.5838095238
1561	0.7805	-3.46666666667	1.0	-7.04918032787	36.8498412698
1562	0.781	-3.46666666667	3.864	4.3606557377	22.7673015873
1563	0.7815	-4.9	-1.864	-11.3278688525	24.1755555556
1564	0.782	-4.9	-9.024	-7.04918032787	22.7673015873
1565	0.7825	-6.33333333333	21.048	-4.19672131148	22.7673015873
1566	0.783	-12.0666666667	2.432	-7.04918032787	21.359047619
1567	0.7835	-2.03333333333	5.296	-4.19672131148	19.9507936508
1568	0.784	-4.9	3.864	-9.90163934426	19.9507936508
1569	0.7845	-3.46666666667	5.296	-11.3278688525	15.726031746
1570	0.785	-4.9	-4.728	-7.04918032787	22.7673015873
1571	0.7855	0.833333333333	-3.296	-2.77049180328	25.5838095238
1572	0.786	0.833333333333	2.432	-4.19672131148	21.359047619
1573	0.7865	-13.5	6.728	0.0819672131147	25.5838095238
1574	0.787	-3.46666666667	6.728	-1.34426229508	15.726031746
1575	0.7875	-4.9	5.296	0.0819672131147	15.726031746
1576	0.788	-4.9	5.296	-4.19672131148	21.359047619
1577	0.7885	-3.46666666667	6.728	-1.34426229508	18.5425396825
1578	0.789	0.833333333333	13.888	-1.34426229508	17.1342857143
1579	0.7895	3.7	6.728	0.0819672131147	14.3177777778
1580	0.79	-4.9	6.728	2.93442622951	19.9507936508
1581	0.7905	-3.46666666667	6.728	2.93442622951	15.726031746
1582	0.791	-4.9	3.864	-7.04918032787	18.5425396825
1583	0.7915	-0.6	9.592	-8.47540983607	19.9507936508
1584	0.792	-7.76666666667	-1.864	0.0819672131147	17.1342857143
1585	0.7925	0.833333333333	2.432	0.0819672131147	17.1342857143
1586	0.793	-4.9	6.728	1.50819672131	5.86825396825
1587	0.7935	-4.9	6.728	-2.77049180328	28.4003174603
1588	0.794	-3.46666666667	11.024	15.7704918033	15.726031746
1589	0.7945	-4.9	5.296	18.6229508197	17.1342857143
1590	0.795	-3.46666666667	-1.864	-1.34426229508	19.9507936508
1591	0.7955	-3.46666666667	5.296	-2.77049180328	21.359047619
1592	0.796	13.7333333333	8.16	-1.34426229508	21.359047619
1593	0.7965	-3.46666666667	8.16	0.0819672131147	17.1342857143
1594	0.797	-3.46666666667	6.728	-1.34426229508	17.1342857143
1595	0.7975	-2.03333333333	6.728	17.1967213115	17.1342857143
1596	0.798	-3.46666666667	3.864	-1.34426229508	17.1342857143
1597	0.7985	-6.33333333333	5.296	-2.77049180328	18.5425396825
1598	0.799	-2.03333333333	9.592	0.0819672131147	18.5425396825
1599	0.7995	-7.76666666667	9.592	1.50819672131	21.359047619
1600	0.8	-6.33333333333	8.16	1.50819672131	18.5425396825
1601	0.8005	-4.9	6.728	-7.04918032787	21.359047619
1602	0.801	-7.76666666667	11.024	-7.04918032787	21.359047619
1603	0.8015	-6.33333333333	5.296	1.50819672131	21.359047619
1604	0.802	-6.33333333333	6.728	0.0819672131147	19.9507936508
1605	0.8025	0.833333333333	6.728	1.50819672131	24.1755555556
1606	0.803	-4.9	6.728	5.7868852459	17.1342857143
1607	0.8035	-4.9	9.592	-7.04918032787	19.9507936508
1608	0.804	-6.33333333333	5.296	-1.34426229508	15.726031746
1609	0.8045	-4.9	-1.864	-1.34426229508	15.726031746
1610	0.805	-6.33333333333	-3.296	1.50819672131	15.726031746
1611	0.8055	5.13333333333	6.728	0.0819672131147	14.3177777778
1612	0.806	-3.46666666667	3.864	2.93442622951	15.726031746
1613	0.8065	-4.9	5.296	14.3442622951	17.1342857143
1614	0.807	-3.46666666667	2.432	11.4918032787	14.3177777778
1615	0.8075	-2.03333333333	21.048	-1.34426229508	15.726031746
1616	0.808	-6.33333333333	2.432	1.50819672131	18.5425396825
1617	0.8085	15.1666666667	3.864	2.93442622951	15.726031746
1618	0.809	-4.9	2.432	0.0819672131147	14.3177777778
1619	0.8095	-3.46666666667	2.432	1.50819672131	34.0333333333
1620	0.81	-4.9	3.864	11.4918032787	22.7673015873
1621	0.8105	-3.46666666667	15.32	1.50819672131	24.1755555556
1622	0.811	-6.33333333333	-0.432	1.50819672131	21.359047619
1623	0.8115	12.3	1.0	1.50819672131	12.9095238095
1624	0.812	-4.9	5.296	4.3606557377	26.9920634921
1625	0.8125	-3.46666666667	3.864	8.6393442623	22.7673015873
1626	0.813	-2.03333333333	2.432	8.6393442623	15.726031746
1627	0.8135	-3.46666666667	2.432	-4.19672131148	24.1755555556
1628	0.814	-3.46666666667	18.184	7.2131147541	22.7673015873
1629	0.8145	-4.9	2.432	4.3606557377	22.7673015873
1630	0.815	8.0	-0.432	4.3606557377	19.9507936508
1631	0.8155	-2.03333333333	2.432	5.7868852459	17.1342857143
1632	0.816	-0.6	2.432	8.6393442623	26.9920634921
1633	0.8165	-2.03333333333	6.728	4.3606557377	19.9507936508
1634	0.817	-2.03333333333	19.616	2.93442622951	21.359047619
1635	0.8175	-3.46666666667	-6.16	2.93442622951	22.7673015873
1636	0.818	18.0333333333	3.864	2.93442622951	26.9920634921
1637	0.8185	-12.0666666667	2.432	2.93442622951	41.0746031746
1638	0.819	-0.6	2.432	4.3606557377	28.4003174603
1639	0.8195	-2.03333333333	-0.432	4.3606557377	31.2168253968
1640	0.82	-2.03333333333	-0.432	4.3606557377	28.4003174603
1641	0.8205	-2.03333333333	11.024	4.3606557377	31.2168253968
1642	0.821	3.7	1.0	4.3606557377	34.0333333333
1643	0.8215	0.833333333333	1.0	7.2131147541	38.2580952381
1644	0.822	-0.6	1.0	7.2131147541	25.5838095238
1645	0.8225	-3.46666666667	6.728	-4.19672131148	32.6250793651
1646	0.823	-0.6	3.864	5.7868852459	31.2168253968
1647	0.8235	-3.46666666667	-9.024	2.93442622951	29.8085714286
1648	0.824	-0.6	1.0	0.0819672131147	28.4003174603
1649	0.8245	12.3	-1.864	0.0819672131147	31.2168253968
1650	0.825	-4.9	1.0	1.50819672131	36.8498412698
1651	0.8255	0.833333333333	1.0	-2.77049180328	32.6250793651
1652	0.826	0.833333333333	-0.432	11.4918032787	31.2168253968
1653	0.8265	-0.6	-10.456	1.50819672131	34.0333333333
1654	0.827	-2.03333333333	21.048	1.50819672131	36.8498412698
1655	0.8275	-6.33333333333	-0.432	0.0819672131147	35.4415873016
1656	0.828	18.0333333333	1.0	1.50819672131	29.8085714286
1657	0.8285	0.833333333333	1.0	5.7868852459	38.2580952381
1658	0.829	0.833333333333	2.432	-4.19672131148	31.2168253968
1659	0.8295	0.833333333333	3.864	1.50819672131	32.6250793651
1660	0.83	0.833333333333	-7.592	2.93442622951	34.0333333333
1661	0.8305	-2.03333333333	-0.432	4.3606557377	35.4415873016
1662	0.831	12.3	1.0	2.93442622951	28.4003174603
1663	0.8315	-3.46666666667	-0.432	2.93442622951	26.9920634921
1664	0.832	3.7	-0.432	-8.47540983607	31.2168253968
1665	0.8325	0.833333333333	-0.432	18.6229508197	31.2168253968
1666	0.833	3.7	19.616	2.93442622951	29.8085714286
1667	0.8335	-2.03333333333	2.432	0.0819672131147	34.0333333333
1668	0.834	-7.76666666667	3.864	1.50819672131	31.2168253968
1669	0.8345	-0.6	1.0	-1.34426229508	34.0333333333
1670	0.835	2.26666666667	1.0	-1.34426229508	31.2168253968
1671	0.8355	2.26666666667	5.296	-1.34426229508	25.5838095238
1672	0.836	0.833333333333	-3.296	-1.34426229508	28.4003174603
1673	0.8365	2.26666666667	5.296	0.0819672131147	26.9920634921
1674	0.837	19.4666666667	-1.864	4.3606557377	32.6250793651
1675	0.8375	-2.03333333333	1.0	0.0819672131147	45.2993650794
1676	0.838	0.833333333333	1.0	5.7868852459	28.4003174603
1677	0.8385	0.833333333333	1.0	4.3606557377	22.7673015873
1678	0.839	2.26666666667	2.432	-7.04918032787	31.2168253968
1679	0.8395	3.7	11.024	1.50819672131	31.2168253968
1680	0.84	3.7	-3.296	2.93442622951	31.2168253968
1681	0.8405	-4.9	-4.728	0.0819672131147	35.4415873016
1682	0.841	0.833333333333	1.0	2.93442622951	35.4415873016
1683	0.8415	2.26666666667	-0.432	-8.47540983607	32.6250793651
1684	0.842	3.7	2.432	0.0819672131147	32.6250793651
1685	0.8425	0.833333333333	19.616	0.0819672131147	28.4003174603
1686	0.843	0.833333333333	-7.592	1.50819672131	31.2168253968
1687	0.8435	5.13333333333	1.0	0.0819672131147	28.4003174603
1688	0.844	-6.33333333333	1.0	2.93442622951	28.4003174603
1689	0.8445	3.7	1.0	0.0819672131147	28.4003174603
1690	0.845	5.13333333333	-1.864	1.50819672131	19.9507936508
1691	0.8455	2.26666666667	-1.864	-5.62295081967	28.4003174603
1692	0.846	5.13333333333	-0.432	0.0819672131147	25.5838095238
1693	0.8465	2.26666666667	1.0	1.50819672131	26.9920634921
1694	0.847	5.13333333333	-1.864	0.0819672131147	29.8085714286
1695	0.8475	3.7	-0.432	2.93442622951	22.7673015873
1696	0.848	3.7	-0.432	-1.34426229508	28.4003174603
1697	0.8485	2.26666666667	1.0	-1.34426229508	18.5425396825
1698	0.849	0.833333333333	-4.728	-7.04918032787	24.1755555556
1699	0.8495	2.26666666667	8.16	0.0819672131147	21.359047619
1700	0.85	3.7	-0.432	0.0819672131147	22.7673015873
1701	0.8505	13.7333333333	-0.432	4.3606557377	21.359047619
1702	0.851	0.833333333333	-0.432	0.0819672131147	14.3177777778
1703	0.8515	2.26666666667	1.0	-1.34426229508	31.2168253968
1704	0.852	-0.6	-0.432	7.2131147541	19.9507936508
1705	0.8525	2.26666666667	1.0	2.93442622951	19.9507936508
1706	0.853	3.7	6.728	0.0819672131147	15.726031746
1707	0.8535	5.13333333333	1.0	0.0819672131147	21.359047619
1708	0.854	10.8666666667	-1.864	1.50819672131	17.1342857143
1709	0.8545	0.833333333333	-0.432	-1.34426229508	29.8085714286
1710	0.855	0.833333333333	-1.864	8.6393442623	17.1342857143
1711	0.8555	2.26666666667	-4.728	0.0819672131147	19.9507936508
1712	0.856	0.833333333333	-7.592	1.50819672131	19.9507936508
1713	0.8565	3.7	-0.432	4.3606557377	19.9507936508
1714	0.857	19.4666666667	1.0	2.93442622951	19.9507936508
1715	0.8575	0.833333333333	-0.432	2.93442622951	7.27650793651
1716	0.858	2.26666666667	-0.432	-12.7540983607	7.27650793651
1717	0.8585	3.7	2.432	-11.3278688525	19.9507936508
1718	0.859	0.833333333333	19.616	-1.34426229508	17.1342857143
1719	0.8595	-0.6	-10.456	2.93442622951	17.1342857143
1720	0.86	0.833333333333	1.0	2.93442622951	15.726031746
1721	0.8605	0.833333333333	-1.864	-1.34426229508	28.4003174603
1722	0.861	3.7	-0.432	-4.19672131148	28.4003174603
1723	0.8615	0.833333333333	-0.432	8.6393442623	14.3177777778
1724	0.862	0.833333333333	1.0	12.9180327869	8.68476190476
1725	0.8625	2.26666666667	8.16	-1.34426229508	10.093015873
1726	0.863	2.26666666667	-1.864	0.0819672131147	10.093015873
1727	0.8635	10.8666666667	-0.432	1.50819672131	5.86825396825
1728	0.864	0.833333333333	1.0	0.0819672131147	4.46
1729	0.8645	0.833333333333	-1.864	1.50819672131	15.726031746
1730	0.865	2.26666666667	1.0	4.3606557377	5.86825396825
1731	0.8655	2.26666666667	9.592	-1.34426229508	4.46
1732	0.866	0.833333333333	-4.728	-1.34426229508	1.64349206349
1733	0.8665	18.0333333333	-4.728	0.0819672131147	3.05174603175
1734	0.867	-0.6	-3.296	1.50819672131	1.64349206349
1735	0.8675	5.13333333333	-3.296	1.50819672131	0.235238095238
1736	0.868	3.7	-1.864	1.50819672131	0.235238095238
1737	0.8685	-0.6	1.0	0.0819672131147	1.64349206349
1738	0.869	-0.6	-7.592	1.50819672131	0.235238095238
1739	0.8695	8.0	-0.432	0.0819672131147	-2.58126984127
1740	0.87	22.3333333333	-1.864	0.0819672131147	0.235238095238
1741	0.8705	0.833333333333	-3.296	2.93442622951	-13.8473015873
1742	0.871	2.26666666667	-1.864	-5.62295081967	-9.62253968254
1743	0.8715	0.833333333333	-1.864	-8.47540983607	-1.17301587302
1744	0.872	3.7	8.16	2.93442622951	-1.17301587302
1745	0.8725	0.833333333333	-10.456	-1.34426229508	0.235238095238
1746	0.873	-4.9	-3.296	-2.77049180328	0.235238095238
1747	0.8735	-0.6	-4.728	-1.34426229508	-5.39777777778
1748	0.874	3.7	-6.16	-8.47540983607	0.235238095238
1749	0.8745	5.13333333333	-1.864	-7.04918032787	-5.39777777778
1750	0.875	5.13333333333	-9.024	-5.62295081967	3.05174603175
1751	0.8755	5.13333333333	-0.432	0.0819672131147	1.64349206349
1752	0.876	3.7	-9.024	0.0819672131147	1.64349206349
1753	0.8765	10.8666666667	-4.728	1.50819672131	5.86825396825
1754	0.877	-2.03333333333	-4.728	0.0819672131147	12.9095238095
1755	0.8775	3.7	-0.432	4.3606557377	4.46
1756	0.878	2.26666666667	-1.864	7.2131147541	7.27650793651
1757	0.8785	3.7	-7.592	-7.04918032787	3.05174603175
1758	0.879	8.0	-7.592	-1.34426229508	3.05174603175
1759	0.8795	-6.33333333333	-3.296	-2.77049180328	7.27650793651
1760	0.88	8.0	-6.16	0.0819672131147	3.05174603175
1761	0.8805	2.26666666667	-6.16	-8.47540983607	7.27650793651
1762	0.881	3.7	-3.296	-9.90163934426	3.05174603175
1763	0.8815	3.7	-1.864	-4.19672131148	4.46
1764	0.882	5.13333333333	-14.752	-4.19672131148	7.27650793651
1765	0.8825	5.13333333333	-9.024	0.0819672131147	8.68476190476
1766	0.883	-10.6333333333	-7.592	-2.77049180328	12.9095238095
1767	0.8835	3.7	-4.728	4.3606557377	1.64349206349
1768	0.884	3.7	-6.16	2.93442622951	3.05174603175
1769	0.8845	0.833333333333	-10.456	-8.47540983607	4.46
1770	0.885	3.7	-1.864	-5.62295081967	3.05174603175
1771	0.8855	0.833333333333	-14.752	-1.34426229508	4.46
1772	0.886	3.7	-10.456	0.0819672131147	5.86825396825
1773	0.8865	22.3333333333	-6.16	-2.77049180328	12.9095238095
1774	0.887	3.7	-7.592	-1.34426229508	-1.17301587302
1775	0.8875	3.7	-7.592	-8.47540983607	12.9095238095
1776	0.888	0.833333333333	-6.16	-8.47540983607	12.9095238095
1777	0.8885	2.26666666667	-4.728	-1.34426229508	8.68476190476
1778	0.889	2.26666666667	-10.456	2.93442622951	4.46
1779	0.8895	16.6	-4.728	2.93442622951	4.46
1780	0.89	-6.33333333333	-6.16	-1.34426229508	3.05174603175
1781	0.8905	0.833333333333	-6.16	0.0819672131147	-1.17301587302
1782	0.891	3.7	-4.728	1.50819672131	4.46
1783	0.8915	3.7	-14.752	4.3606557377	3.05174603175
1784	0.892	3.7	5.296	-1.34426229508	0.235238095238
1785	0.8925	-12.0666666667	-4.728	-1.34426229508	0.235238095238
1786	0.893	20.9	-6.16	1.50819672131	-12.439047619
1787	0.8935	0.833333333333	-4.728	-1.34426229508	-1.17301587302
1788	0.894	0.833333333333	-3.296	17.1967213115	-2.58126984127
1789	0.8945	2.26666666667	-10.456	0.0819672131147	-3.98952380952
1790	0.895	0.833333333333	-3.296	-2.77049180328	-5.39777777778
1791	0.8955	3.7	-3.296	-2.77049180328	0.235238095238
1792	0.896	16.6	-7.592	-4.19672131148	0.235238095238
1793	0.8965	-4.9	-7.592	-2.77049180328	15.726031746
1794	0.897	-0.6	-6.16	17.1967213115	-2.58126984127
1795	0.8975	0.833333333333	-10.456	-8.47540983607	0.235238095238
1796	0.898	2.26666666667	-3.296	-1.34426229508	-2.58126984127
1797	0.8985	0.833333333333	2.432	0.0819672131147	1.64349206349
1798	0.899	-3.46666666667	-10.456	0.0819672131147	3.05174603175
1799	0.8995	12.3	-6.16	0.0819672131147	4.46
1800	0.9	0.833333333333	-6.16	-1.34426229508	1.64349206349
1801	0.9005	5.13333333333	-4.728	-2.77049180328	-3.98952380952
1802	0.901	0.833333333333	-4.728	-2.77049180328	3.05174603175
1803	0.9015	3.7	-10.456	-1.34426229508	1.64349206349
1804	0.902	8.0	-7.592	4.3606557377	3.05174603175
1805	0.9025	-12.0666666667	-6.16	1.50819672131	4.46
1806	0.903	0.833333333333	-6.16	1.50819672131	-8.21428571429
1807	0.9035	0.833333333333	-4.728	-1.34426229508	18.5425396825
1808	0.904	0.833333333333	-9.024	18.6229508197	1.64349206349
1809	0.9045	2.26666666667	-13.32	2.93442622951	1.64349206349
1810	0.905	2.26666666667	6.728	1.50819672131	1.64349206349
1811	0.9055	-4.9	-4.728	0.0819672131147	1.64349206349
1812	0.906	-3.46666666667	-7.592	0.0819672131147	0.235238095238
1813	0.9065	0.833333333333	-6.16	1.50819672131	-6.80603174603
1814	0.907	-0.6	-3.296	-4.19672131148	3.05174603175
1815	0.9075	5.13333333333	-1.864	14.3442622951	3.05174603175
1816	0.908	5.13333333333	-6.16	0.0819672131147	1.64349206349
1817	0.9085	-0.6	-1.864	0.0819672131147	0.235238095238
1818	0.909	8.0	-6.16	1.50819672131	-3.98952380952
1819	0.9095	-4.9	-4.728	-1.34426229508	0.235238095238
1820	0.91	0.833333333333	-6.16	1.50819672131	5.86825396825
1821	0.9105	0.833333333333	-4.728	7.2131147541	0.235238095238
1822	0.911	2.26666666667	-0.432	1.50819672131	1.64349206349
1823	0.9115	-2.03333333333	-7.592	1.50819672131	1.64349206349
1824	0.912	-10.6333333333	-4.728	1.50819672131	1.64349206349
1825	0.9125	22.3333333333	-6.16	0.0819672131147	-2.58126984127
1826	0.913	0.833333333333	-3.296	0.0819672131147	-11.0307936508
1827	0.9135	2.26666666667	-3.296	-4.19672131148	1.64349206349
1828	0.914	3.7	-3.296	11.4918032787	-1.17301587302
1829	0.9145	0.833333333333	-3.296	2.93442622951	3.05174603175
1830	0.915	-6.33333333333	-3.296	2.93442622951	-1.17301587302
1831	0.9155	8.0	-4.728	1.50819672131	1.64349206349
1832	0.916	-2.03333333333	-3.296	1.50819672131	3.05174603175
1833	0.9165	0.833333333333	-3.296	5.7868852459	0.235238095238
1834	0.917	0.833333333333	-4.728	11.4918032787	-1.17301587302
1835	0.9175	-2.03333333333	-11.888	1.50819672131	-2.58126984127
1836	0.918	-2.03333333333	13.888	1.50819672131	0.235238095238
1837	0.9185	-12.0666666667	-0.432	1.50819672131	1.64349206349
1838	0.919	-4.9	-1.864	2.93442622951	-2.58126984127
1839	0.9195	0.833333333333	-4.728	0.0819672131147	10.093015873
1840	0.92	-0.6	1.0	18.6229508197	-2.58126984127
1841	0.9205	-0.6	-6.16	2.93442622951	-1.17301587302
1842	0.921	-0.6	-10.456	4.3606557377	-5.39777777778
1843	0.9215	2.26666666667	-6.16	0.0819672131147	-2.58126984127
1844	0.922	-12.0666666667	-1.864	1.50819672131	-1.17301587302
1845	0.9225	-7.76666666667	-1.864	4.3606557377	-1.17301587302
1846	0.923	0.833333333333	-0.432	5.7868852459	-11.0307936508
1847	0.9235	-3.46666666667	-6.16	-4.19672131148	-3.98952380952
1848	0.924	-2.03333333333	2.432	-4.19672131148	-2.58126984127
1849	0.9245	-4.9	-9.024	-1.34426229508	-2.58126984127
1850	0.925	5.13333333333	-1.864	-1.34426229508	-1.17301587302
1851	0.9255	18.0333333333	-1.864	2.93442622951	1.64349206349
1852	0.926	0.833333333333	-3.296	7.2131147541	-11.0307936508
1853	0.9265	0.833333333333	1.0	-7.04918032787	0.235238095238
1854	0.927	-0.6	1.0	2.93442622951	-2.58126984127
1855	0.9275	-0.6	15.32	2.93442622951	0.235238095238
1856	0.928	-3.46666666667	-10.456	2.93442622951	-2.58126984127
1857	0.9285	20.9	-3.296	2.93442622951	-11.0307936508
1858	0.929	-3.46666666667	-3.296	2.93442622951	-3.98952380952
1859	0.9295	0.833333333333	-4.728	2.93442622951	5.86825396825
1860	0.93	-2.03333333333	-3.296	14.3442622951	-6.80603174603
1861	0.9305	-2.03333333333	-3.296	0.0819672131147	-5.39777777778
1862	0.931	0.833333333333	-3.296	2.93442622951	-5.39777777778
1863	0.9315	-0.6	-1.864	4.3606557377	-2.58126984127
1864	0.932	-3.46666666667	-1.864	2.93442622951	-5.39777777778
1865	0.9325	-0.6	-1.864	1.50819672131	-13.8473015873
1866	0.933	-2.03333333333	1.0	0.0819672131147	12.9095238095
1867	0.9335	-2.03333333333	-0.432	2.93442622951	-1.17301587302
1868	0.934	0.833333333333	-17.616	1.50819672131	-2.58126984127
1869	0.9345	-0.6	-10.456	1.50819672131	-1.17301587302
1870	0.935	-14.9333333333	-3.296	4.3606557377	-3.98952380952
1871	0.9355	-10.6333333333	-1.864	4.3606557377	7.27650793651
1872	0.936	-0.6	-1.864	5.7868852459	-9.62253968254
1873	0.9365	-2.03333333333	-1.864	7.2131147541	-8.21428571429
1874	0.937	-0.6	-11.888	1.50819672131	-11.0307936508
1875	0.9375	0.833333333333	15.32	2.93442622951	-8.21428571429
1876	0.938	-4.9	-3.296	2.93442622951	-6.80603174603
1877	0.9385	-9.2	-0.432	2.93442622951	-9.62253968254
1878	0.939	-0.6	-0.432	4.3606557377	-19.4803174603
1879	0.9395	-4.9	-3.296	-7.04918032787	-11.0307936508
1880	0.94	-4.9	-4.728	-1.34426229508	-12.439047619
1881	0.9405	-2.03333333333	-4.728	-5.62295081967	-12.439047619
1882	0.941	-2.03333333333	-6.16	2.93442622951	-8.21428571429
1883	0.9415	-4.9	1.0	1.50819672131	-9.62253968254
1884	0.942	-10.6333333333	1.0	2.93442622951	-12.439047619
1885	0.9425	-3.46666666667	1.0	-2.77049180328	-11.0307936508
1886	0.943	-3.46666666667	2.432	0.0819672131147	-19.4803174603
1887	0.9435	-3.46666666667	-7.592	-2.77049180328	-9.62253968254
1888	0.944	0.833333333333	2.432	2.93442622951	-8.21428571429
1889	0.9445	0.833333333333	-4.728	2.93442622951	-6.80603174603
1890	0.945	0.833333333333	1.0	1.50819672131	-8.21428571429
1891	0.9455	-6.33333333333	1.0	2.93442622951	-5.39777777778
1892	0.946	-3.46666666667	1.0	0.0819672131147	-6.80603174603
1893	0.9465	-4.9	-0.432	14.3442622951	-13.8473015873
1894	0.947	-3.46666666667	-11.888	1.50819672131	-8.21428571429
1895	0.9475	0.833333333333	-9.024	0.0819672131147	-8.21428571429
1896	0.948	15.1666666667	-0.432	0.0819672131147	-5.39777777778
1897	0.9485	-6.33333333333	1.0	2.93442622951	-3.98952380952
1898	0.949	-0.6	1.0	4.3606557377	-18.0720634921
1899	0.9495	-4.9	2.432	-9.90163934426	-9.62253968254
1900	0.95	-0.6	3.864	0.0819672131147	-8.21428571429
1901	0.9505	2.26666666667	-6.16	1.50819672131	-6.80603174603
1902	0.951	0.833333333333	1.0	-1.34426229508	-6.80603174603
1903	0.9515	9.43333333333	3.864	0.0819672131147	-3.98952380952
1904	0.952	-2.03333333333	1.0	4.3606557377	-8.21428571429
1905	0.9525	-0.6	-0.432	2.93442622951	-9.62253968254
1906	0.953	-3.46666666667	1.0	15.7704918033	-5.39777777778
1907	0.9535	-2.03333333333	21.048	-1.34426229508	-2.58126984127
1908	0.954	-4.9	2.432	-1.34426229508	-3.98952380952
1909	0.9545	-14.9333333333	2.432	0.0819672131147	-3.98952380952
1910	0.955	-4.9	5.296	1.50819672131	-2.58126984127
1911	0.9555	-0.6	3.864	2.93442622951	7.27650793651
1912	0.956	-2.03333333333	2.432	15.7704918033	-3.98952380952
1913	0.9565	-2.03333333333	-6.16	4.3606557377	-6.80603174603
1914	0.957	-0.6	26.776	1.50819672131	-9.62253968254
1915	0.9575	-17.8	3.864	0.0819672131147	-9.62253968254
1916	0.958	16.6	1.0	-1.34426229508	-12.439047619
1917	0.9585	-2.03333333333	5.296	-2.77049180328	7.27650793651
1918	0.959	-2.03333333333	6.728	15.7704918033	-11.0307936508
1919	0.9595	0.833333333333	2.432	1.50819672131	-11.0307936508
1920	0.96	-2.03333333333	-3.296	-1.34426229508	-11.0307936508
1921	0.9605	-3.46666666667	19.616	-1.34426229508	-11.0307936508
1922	0.961	-6.33333333333	5.296	-1.34426229508	-12.439047619
1923	0.9615	-7.76666666667	6.728	-1.34426229508	-12.439047619
1924	0.962	-2.03333333333	5.296	-2.77049180328	3.05174603175
1925	0.9625	-0.6	5.296	12.9180327869	-13.8473015873
1926	0.963	-2.03333333333	2.432	8.6393442623	-18.0720634921
1927	0.9635	-0.6	13.888	-1.34426229508	-15.2555555556
1928	0.964	-2.03333333333	1.0	0.0819672131147	-16.6638095238
1929	0.9645	5.13333333333	3.864	-1.34426229508	-16.6638095238
1930	0.965	-2.03333333333	2.432	-1.34426229508	-22.2968253968
1931	0.9655	-2.03333333333	2.432	0.0819672131147	-6.80603174603
1932	0.966	-2.03333333333	1.0	5.7868852459	-15.2555555556
1933	0.9665	-4.9	13.888	-1.34426229508	-13.8473015873
1934	0.967	-6.33333333333	2.432	0.0819672131147	-16.6638095238
1935	0.9675	15.1666666667	3.864	0.0819672131147	-13.8473015873
1936	0.968	-10.6333333333	2.432	4.3606557377	-1.17301587302
1937	0.9685	-3.46666666667	3.864	1.50819672131	-25.1133333333
1938	0.969	-3.46666666667	8.16	-12.7540983607	-16.6638095238
1939	0.9695	-4.9	6.728	-1.34426229508	-15.2555555556
1940	0.97	-3.46666666667	-1.864	0.0819672131147	-13.8473015873
1941	0.9705	-4.9	-1.864	-1.34426229508	-13.8473015873
1942	0.971	2.26666666667	5.296	0.0819672131147	-13.8473015873
1943	0.9715	-9.2	6.728	2.93442622951	-15.2555555556
1944	0.972	-3.46666666667	5.296	-2.77049180328	-19.4803174603
1945	0.9725	-4.9	6.728	-1.34426229508	-16.6638095238
1946	0.973	-4.9	-0.432	-2.77049180328	-13.8473015873
1947	0.9735	-0.6	-0.432	0.0819672131147	-13.8473015873
1948	0.974	-16.3666666667	5.296	2.93442622951	-8.21428571429
1949	0.9745	-3.46666666667	3.864	4.3606557377	-23.7050793651
1950	0.975	-3.46666666667	6.728	-1.34426229508	4.46
1951	0.9755	-4.9	8.16	17.1967213115	-13.8473015873
1952	0.976	-4.9	-3.296	2.93442622951	-12.439047619
1953	0.9765	-3.46666666667	-7.592	4.3606557377	-11.0307936508
1954	0.977	0.833333333333	3.864	1.50819672131	-9.62253968254
1955	0.9775	-12.0666666667	3.864	2.93442622951	-11.0307936508
1956	0.978	-4.9	2.432	-1.34426229508	-19.4803174603
1957	0.9785	-3.46666666667	3.864	-9.90163934426	-11.0307936508
1958	0.979	-2.03333333333	11.024	1.50819672131	-12.439047619
1959	0.9795	-3.46666666667	-3.296	-1.34426229508	-9.62253968254
1960	0.98	-2.03333333333	5.296	1.50819672131	-12.439047619
1961	0.9805	8.0	6.728	2.93442622951	-9.62253968254
1962	0.981	-3.46666666667	6.728	2.93442622951	-11.0307936508
1963	0.9815	-3.46666666667	6.728	4.3606557377	-13.8473015873
1964	0.982	-6.33333333333	5.296	5.7868852459	-8.21428571429
1965	0.9825	-3.46666666667	5.296	7.2131147541	-9.62253968254
1966	0.983	-6.33333333333	5.296	1.50819672131	-11.0307936508
1967	0.9835	-3.46666666667	22.48	-1.34426229508	-8.21428571429
1968	0.984	-2.03333333333	9.592	2.93442622951	-8.21428571429
1969	0.9845	8.0	8.16	1.50819672131	-11.0307936508
1970	0.985	-4.9	11.024	0.0819672131147	4.46
1971	0.9855	-3.46666666667	9.592	20.0491803279	-9.62253968254
1972	0.986	-3.46666666667	8.16	20.0491803279	-12.439047619
1973	0.9865	-3.46666666667	28.208	1.50819672131	-11.0307936508
1974	0.987	-7.76666666667	9.592	1.50819672131	-11.0307936508
1975	0.9875	-13.5	6.728	2.93442622951	-11.0307936508
1976	0.988	-4.9	5.296	5.7868852459	-9.62253968254
1977	0.9885	-3.46666666667	8.16	5.7868852459	-12.439047619
1978	0.989	-4.9	6.728	2.93442622951	-11.0307936508
1979	0.9895	-3.46666666667	6.728	0.0819672131147	-11.0307936508
1980	0.99	-2.03333333333	5.296	0.0819672131147	-8.21428571429
1981	0.9905	-0.6	5.296	4.3606557377	-12.439047619
1982	0.991	-7.76666666667	6.728	4.3606557377	-9.62253968254
1983	0.9915	-4.9	6.728	4.3606557377	-18.0720634921
1984	0.992	-3.46666666667	6.728	-7.04918032787	-9.62253968254
1985	0.9925	-4.9	9.592	5.7868852459	-6.80603174603
1986	0.993	-3.46666666667	-1.864	7.2131147541	-8.21428571429
1987	0.9935	-2.03333333333	1.0	4.3606557377	-8.21428571429
1988	0.994	-9.2	6.728	4.3606557377	-5.39777777778
1989	0.9945	-6.33333333333	6.728	7.2131147541	-19.4803174603
1990	0.995	-0.6	5.296	-5.62295081967	-16.6638095238
1991	0.9955	-0.6	6.728	-2.77049180328	-8.21428571429
1992	0.996	-0.6	3.864	4.3606557377	-12.439047619
1993	0.9965	0.833333333333	3.864	4.3606557377	-15.2555555556
1994	0.997	-6.33333333333	6.728	1.50819672131	-12.439047619
1995	0.9975	-2.03333333333	5.296	5.7868852459	-20.8885714286
1996	0.998	-4.9	6.728	4.3606557377	-23.7050793651
1997	0.9985	-2.03333333333	3.864	-9.90163934426	-18.0720634921
1998	0.999	-2.03333333333	5.296	-4.19672131148	-18.0720634921
1999	0.9995	-0.6	3.864	1.50819672131	-16.6638095238
2000	1.0	-3.46666666667	2.432	2.93442622951	-15.2555555556
2001	1.0005	-4.9	8.16	8.6393442623	-23.7050793651
2002	1.001	-3.46666666667	6.728	4.3606557377	-23.7050793651
2003	1.0015	-3.46666666667	3.864	1.50819672131	0.235238095238
2004	1.002	-0.6	2.432	22.9016393443	-12.439047619
2005	1.0025	-3.46666666667	-7.592	1.50819672131	-9.62253968254
2006	1.003	0.833333333333	-6.16	-1.34426229508	-9.62253968254
2007	1.0035	19.4666666667	1.0	0.0819672131147	-11.0307936508
2008	1.004	-9.2	3.864	4.3606557377	-12.439047619
2009	1.0045	-0.6	2.432	2.93442622951	-27.9298412698
2010	1.005	-3.46666666667	3.864	-5.62295081967	-13.8473015873
2011	1.0055	-0.6	5.296	4.3606557377	-11.0307936508
2012	1.006	0.833333333333	-6.16	7.2131147541	-12.439047619
2013	1.0065	2.26666666667	3.864	7.2131147541	-12.439047619
2014	1.007	-13.5	-0.432	4.3606557377	-11.0307936508
2015	1.0075	-0.6	2.432	5.7868852459	-16.6638095238
2016	1.008	2.26666666667	2.432	-5.62295081967	-15.2555555556
2017	1.0085	0.833333333333	2.432	-7.04918032787	-11.0307936508
2018	1.009	-0.6	-9.024	4.3606557377	-8.21428571429
2019	1.0095	5.13333333333	-10.456	8.6393442623	-11.0307936508
2020	1.01	3.7	2.432	4.3606557377	-9.62253968254
2021	1.0105	-0.6	3.864	0.0819672131147	3.05174603175
2022	1.011	0.833333333333	-0.432	1.50819672131	5.86825396825
2023	1.0115	0.833333333333	1.0	22.9016393443	-6.80603174603
2024	1.012	0.833333333333	-3.296	18.6229508197	-5.39777777778
2025	1.0125	0.833333333333	21.048	5.7868852459	-5.39777777778
2026	1.013	-2.03333333333	1.0	7.2131147541	-5.39777777778
2027	1.0135	-6.33333333333	1.0	7.2131147541	-6.80603174603
2028	1.014	-2.03333333333	1.0	4.3606557377	-11.0307936508
2029	1.0145	-0.6	1.0	4.3606557377	-3.98952380952
2030	1.015	-0.6	1.0	17.1967213115	-9.62253968254
2031	1.0155	2.26666666667	-0.432	4.3606557377	-9.62253968254
2032	1.016	-0.6	-7.592	4.3606557377	-8.21428571429
2033	1.0165	-6.33333333333	-1.864	-1.34426229508	-6.80603174603
2034	1.017	3.7	2.432	2.93442622951	-11.0307936508
2035	1.0175	2.26666666667	3.864	-1.34426229508	4.46
2036	1.018	-2.03333333333	3.864	7.2131147541	-5.39777777778
2037	1.0185	2.26666666667	3.864	4.3606557377	-5.39777777778
2038	1.019	-2.03333333333	9.592	2.93442622951	-1.17301587302
2039	1.0195	-7.76666666667	1.0	0.0819672131147	-3.98952380952
2040	1.02	13.7333333333	1.0	0.0819672131147	-3.98952380952
2041	1.0205	-3.46666666667	1.0	-1.34426229508	-3.98952380952
2042	1.021	0.833333333333	2.432	-1.34426229508	12.9095238095
2043	1.0215	-0.6	-1.864	18.6229508197	0.235238095238
2044	1.022	-0.6	-10.456	4.3606557377	-1.17301587302
2045	1.0225	8.0	18.184	0.0819672131147	0.235238095238
2046	1.023	-10.6333333333	2.432	0.0819672131147	-2.58126984127
2047	1.0235	23.7666666667	1.0	4.3606557377	-3.98952380952
2048	1.024	0.833333333333	1.0	1.50819672131	17.1342857143
2049	1.0245	-0.6	2.432	20.0491803279	0.235238095238
2050	1.025	0.833333333333	-0.432	21.4754098361	-1.17301587302
2051	1.0255	3.7	18.184	1.50819672131	0.235238095238
2052	1.026	-0.6	2.432	2.93442622951	1.64349206349
2053	1.0265	20.9	1.0	2.93442622951	3.05174603175
2054	1.027	3.7	3.864	2.93442622951	0.235238095238
2055	1.0275	0.833333333333	1.0	2.93442622951	22.7673015873
2056	1.028	0.833333333333	1.0	14.3442622951	10.093015873
2057	1.0285	0.833333333333	-0.432	1.50819672131	14.3177777778
2058	1.029	2.26666666667	6.728	4.3606557377	12.9095238095
2059	1.0295	10.8666666667	-0.432	1.50819672131	15.726031746
2060	1.03	8.0	1.0	-1.34426229508	10.093015873
2061	1.0305	0.833333333333	1.0	-1.34426229508	3.05174603175
2062	1.031	3.7	1.0	11.4918032787	8.68476190476
2063	1.0315	2.26666666667	1.0	12.9180327869	8.68476190476
2064	1.032	2.26666666667	9.592	1.50819672131	5.86825396825
2065	1.0325	3.7	-1.864	1.50819672131	7.27650793651
2066	1.033	6.56666666667	2.432	0.0819672131147	5.86825396825
2067	1.0335	-2.03333333333	2.432	1.50819672131	5.86825396825
2068	1.034	2.26666666667	1.0	0.0819672131147	5.86825396825
2069	1.0345	5.13333333333	3.864	-4.19672131148	8.68476190476
2070	1.035	0.833333333333	-7.592	2.93442622951	4.46
2071	1.0355	2.26666666667	-3.296	1.50819672131	5.86825396825
2072	1.036	-7.76666666667	2.432	0.0819672131147	12.9095238095
2073	1.0365	-6.33333333333	1.0	-1.34426229508	7.27650793651
2074	1.037	3.7	1.0	0.0819672131147	15.726031746
2075	1.0375	0.833333333333	-3.296	-2.77049180328	10.093015873
2076	1.038	0.833333333333	2.432	1.50819672131	10.093015873
2077	1.0385	0.833333333333	5.296	2.93442622951	12.9095238095
2078	1.039	-4.9	1.0	1.50819672131	14.3177777778
2079	1.0395	16.6	1.0	0.0819672131147	17.1342857143
2080	1.04	2.26666666667	-0.432	0.0819672131147	10.093015873
2081	1.0405	0.833333333333	1.0	1.50819672131	21.359047619
2082	1.041	2.26666666667	-4.728	-1.34426229508	15.726031746
2083	1.0415	2.26666666667	9.592	0.0819672131147	17.1342857143
2084	1.042	0.833333333333	-3.296	0.0819672131147	18.5425396825
2085	1.0425	-0.6	1.0	0.0819672131147	8.68476190476
2086	1.043	-0.6	-0.432	1.50819672131	17.1342857143
2087	1.0435	-2.03333333333	-0.432	-11.3278688525	24.1755555556
2088	1.044	3.7	1.0	-8.47540983607	26.9920634921
2089	1.0445	2.26666666667	-4.728	-1.34426229508	26.9920634921
2090	1.045	3.7	-6.16	0.0819672131147	25.5838095238
2091	1.0455	-2.03333333333	1.0	-1.34426229508	26.9920634921
2092	1.046	-4.9	-0.432	0.0819672131147	31.2168253968
2093	1.0465	2.26666666667	-1.864	1.50819672131	21.359047619
2094	1.047	0.833333333333	1.0	4.3606557377	24.1755555556
2095	1.0475	-0.6	-0.432	0.0819672131147	25.5838095238
2096	1.048	2.26666666667	3.864	-4.19672131148	25.5838095238
2097	1.0485	2.26666666667	-3.296	-2.77049180328	28.4003174603
2098	1.049	-10.6333333333	-1.864	-2.77049180328	26.9920634921
2099	1.0495	0.833333333333	-1.864	-1.34426229508	15.726031746
2100	1.05	0.833333333333	1.0	-4.19672131148	39.6663492063
2101	1.0505	3.7	1.0	17.1967213115	24.1755555556
2102	1.051	0.833333333333	-4.728	0.0819672131147	25.5838095238
2103	1.0515	3.7	-4.728	-1.34426229508	25.5838095238
2104	1.052	-4.9	-1.864	-1.34426229508	25.5838095238
2105	1.0525	13.7333333333	-0.432	0.0819672131147	26.9920634921
2106	1.053	0.833333333333	-1.864	-2.77049180328	22.7673015873
2107	1.0535	2.26666666667	2.432	2.93442622951	18.5425396825
2108	1.054	0.833333333333	-3.296	-2.77049180328	24.1755555556
2109	1.0545	3.7	-3.296	-1.34426229508	28.4003174603
2110	1.055	3.7	-1.864	0.0819672131147	28.4003174603
2111	1.0555	-10.6333333333	-3.296	-1.34426229508	28.4003174603
2112	1.056	-2.03333333333	-3.296	-1.34426229508	36.8498412698
