	Time	Channel 1	Channel 2	Channel 3	Channel 4
0	0.0	0.891304347826	1.96176470588	0.5	71.878125
1	0.0005	2.3	1.96176470588	0.5	71.878125
2	0.001	0.891304347826	1.96176470588	1.925	66.240625
3	0.0015	-1.92608695652	0.517647058824	1.925	64.83125
4	0.002	-1.92608695652	1.96176470588	-0.925	66.240625
5	0.0025	-1.92608695652	6.29411764706	1.925	71.878125
6	0.003	-1.92608695652	1.96176470588	-2.35	57.784375
7	0.0035	-3.3347826087	-9.59117647059	1.925	54.965625
8	0.004	-4.74347826087	-3.81470588235	-2.35	81.74375
9	0.0045	-4.74347826087	14.9588235294	-0.925	66.240625
10	0.005	-8.96956521739	-8.14705882353	-0.925	66.240625
11	0.0055	14.9782608696	1.96176470588	-2.35	63.421875
12	0.006	-4.74347826087	0.517647058824	-9.475	66.240625
13	0.0065	-4.74347826087	0.517647058824	16.175	69.059375
14	0.007	0.891304347826	-0.926470588235	3.35	70.46875
15	0.0075	0.891304347826	-0.926470588235	4.775	70.46875
16	0.008	3.70869565217	1.96176470588	4.775	71.878125
17	0.0085	0.891304347826	3.40588235294	7.625	73.2875
18	0.009	-4.74347826087	4.85	9.05	74.696875
19	0.0095	-1.92608695652	1.96176470588	7.625	67.65
20	0.01	-0.517391304348	1.96176470588	14.75	74.696875
21	0.0105	-1.92608695652	1.96176470588	3.35	77.515625
22	0.011	-0.517391304348	-0.926470588235	13.325	76.10625
23	0.0115	0.891304347826	0.517647058824	7.625	76.10625
24	0.012	-3.3347826087	-8.14705882353	4.775	76.10625
25	0.0125	-3.3347826087	-5.25882352941	3.35	73.2875
26	0.013	-11.7869565217	-2.37058823529	7.625	70.46875
27	0.0135	-6.15217391304	-5.25882352941	0.5	87.38125
28	0.014	-4.74347826087	-2.37058823529	1.925	60.603125
29	0.0145	-3.3347826087	-3.81470588235	3.35	84.5625
30	0.015	0.891304347826	0.517647058824	9.05	64.83125
31	0.0155	0.891304347826	1.96176470588	7.625	73.2875
32	0.016	0.891304347826	-5.25882352941	9.05	70.46875
33	0.0165	0.891304347826	17.8470588235	9.05	70.46875
34	0.017	-7.56086956522	1.96176470588	6.2	71.878125
35	0.0175	19.2043478261	1.96176470588	4.775	74.696875
36	0.018	-10.3782608696	1.96176470588	4.775	60.603125
37	0.0185	-1.92608695652	3.40588235294	0.5	87.38125
38	0.019	0.891304347826	0.517647058824	21.875	71.878125
39	0.0195	-0.517391304348	0.517647058824	-2.35	71.878125
40	0.02	-0.517391304348	4.85	4.775	70.46875
41	0.0205	-0.517391304348	17.8470588235	-0.925	67.65
42	0.021	-6.15217391304	-5.25882352941	-2.35	64.83125
43	0.0215	-0.517391304348	-2.37058823529	0.5	66.240625
44	0.022	-8.96956521739	-2.37058823529	0.5	57.784375
45	0.0225	-4.74347826087	-0.926470588235	-0.925	71.878125
46	0.023	-0.517391304348	-0.926470588235	1.925	71.878125
47	0.0235	-1.92608695652	0.517647058824	-2.35	64.83125
48	0.024	0.891304347826	1.96176470588	7.625	70.46875
49	0.0245	-0.517391304348	3.40588235294	14.75	71.878125
50	0.025	-1.92608695652	-0.926470588235	1.925	70.46875
51	0.0255	-3.3347826087	0.517647058824	6.2	74.696875
52	0.026	-8.96956521739	3.40588235294	6.2	74.696875
53	0.0265	3.70869565217	3.40588235294	4.775	78.925
54	0.027	-3.3347826087	0.517647058824	4.775	78.925
55	0.0275	-0.517391304348	-0.926470588235	3.35	74.696875
56	0.028	-1.92608695652	0.517647058824	-0.925	84.5625
57	0.0285	-0.517391304348	-2.37058823529	4.775	73.2875
58	0.029	-3.3347826087	3.40588235294	-6.625	70.46875
59	0.0295	-4.74347826087	6.29411764706	-0.925	69.059375
60	0.03	-3.3347826087	-8.14705882353	0.5	71.878125
61	0.0305	-7.56086956522	-3.81470588235	-0.925	67.65
62	0.031	2.3	-3.81470588235	-0.925	67.65
63	0.0315	-4.74347826087	0.517647058824	1.925	77.515625
64	0.032	-1.92608695652	0.517647058824	-0.925	64.83125
65	0.0325	-4.74347826087	3.40588235294	0.5	67.65
66	0.033	-1.92608695652	4.85	14.75	67.65
67	0.0335	-0.517391304348	1.96176470588	-8.05	69.059375
68	0.034	-1.92608695652	-0.926470588235	4.775	67.65
69	0.0345	-0.517391304348	22.1794117647	0.5	63.421875
70	0.035	-6.15217391304	0.517647058824	3.35	64.83125
71	0.0355	14.9782608696	1.96176470588	1.925	63.421875
72	0.036	-10.3782608696	0.517647058824	4.775	52.146875
73	0.0365	-3.3347826087	-0.926470588235	0.5	74.696875
74	0.037	-4.74347826087	-2.37058823529	0.5	50.7375
75	0.0375	-7.56086956522	-0.926470588235	-12.325	59.19375
76	0.038	-7.56086956522	-12.4794117647	-3.775	59.19375
77	0.0385	-3.3347826087	-11.0352941176	-2.35	62.0125
78	0.039	-7.56086956522	0.517647058824	-0.925	59.19375
79	0.0395	-1.92608695652	0.517647058824	1.925	60.603125
80	0.04	-11.7869565217	0.517647058824	4.775	59.19375
81	0.0405	-4.74347826087	3.40588235294	7.625	60.603125
82	0.041	-4.74347826087	3.40588235294	13.325	69.059375
83	0.0415	-4.74347826087	1.96176470588	4.775	57.784375
84	0.042	-6.15217391304	1.96176470588	1.925	64.83125
85	0.0425	-1.92608695652	0.517647058824	21.875	63.421875
86	0.043	-0.517391304348	23.6235294118	1.925	62.0125
87	0.0435	-6.15217391304	0.517647058824	3.35	59.19375
88	0.044	2.3	3.40588235294	0.5	59.19375
89	0.0445	10.752173913	3.40588235294	4.775	59.19375
90	0.045	-4.74347826087	1.96176470588	4.775	59.19375
91	0.0455	-10.3782608696	0.517647058824	-0.925	53.55625
92	0.046	-4.74347826087	1.96176470588	-0.925	53.55625
93	0.0465	-3.3347826087	0.517647058824	3.35	54.965625
94	0.047	-4.74347826087	-5.25882352941	-3.775	52.146875
95	0.0475	-3.3347826087	13.5147058824	0.5	50.7375
96	0.048	-1.92608695652	-9.59117647059	7.625	49.328125
97	0.0485	-13.1956521739	0.517647058824	9.05	50.7375
98	0.049	16.3869565217	0.517647058824	4.775	50.7375
99	0.0495	-11.7869565217	1.96176470588	1.925	45.1
100	0.05	-3.3347826087	3.40588235294	-8.05	47.91875
101	0.0505	-0.517391304348	4.85	20.45	47.91875
102	0.051	-0.517391304348	-5.25882352941	-3.775	49.328125
103	0.0515	-1.92608695652	6.29411764706	4.775	49.328125
104	0.052	-0.517391304348	16.4029411765	3.35	47.91875
105	0.0525	-6.15217391304	1.96176470588	9.05	46.509375
106	0.053	0.891304347826	0.517647058824	6.2	45.1
107	0.0535	-16.0130434783	-3.81470588235	4.775	45.1
108	0.054	-7.56086956522	-0.926470588235	4.775	45.1
109	0.0545	-6.15217391304	0.517647058824	6.2	52.146875
110	0.055	-4.74347826087	0.517647058824	6.2	43.690625
111	0.0555	-4.74347826087	0.517647058824	-0.925	42.28125
112	0.056	-4.74347826087	-2.37058823529	1.925	43.690625
113	0.0565	-6.15217391304	-8.14705882353	1.925	42.28125
114	0.057	-3.3347826087	0.517647058824	1.925	42.28125
115	0.0575	-3.3347826087	-5.25882352941	3.35	42.28125
116	0.058	-8.96956521739	3.40588235294	4.775	40.871875
117	0.0585	-10.3782608696	4.85	4.775	31.00625
118	0.059	-1.92608695652	1.96176470588	-3.775	39.4625
119	0.0595	-3.3347826087	1.96176470588	20.45	38.053125
120	0.06	-4.74347826087	0.517647058824	-6.625	35.234375
121	0.0605	-6.15217391304	1.96176470588	0.5	33.825
122	0.061	-4.74347826087	22.1794117647	1.925	33.825
123	0.0615	-8.96956521739	-6.70294117647	0.5	32.415625
124	0.062	-3.3347826087	-0.926470588235	4.775	33.825
125	0.0625	-10.3782608696	-0.926470588235	4.775	29.596875
126	0.063	-11.7869565217	-0.926470588235	7.625	26.778125
127	0.0635	-3.3347826087	-0.926470588235	6.2	45.1
128	0.064	-8.96956521739	0.517647058824	7.625	21.140625
129	0.0645	-10.3782608696	1.96176470588	-9.475	25.36875
130	0.065	-10.3782608696	3.40588235294	0.5	26.778125
131	0.0655	-4.74347826087	22.1794117647	3.35	26.778125
132	0.066	-6.15217391304	0.517647058824	9.05	23.959375
133	0.0665	0.891304347826	4.85	4.775	21.140625
134	0.067	-3.3347826087	3.40588235294	0.5	22.55
135	0.0675	-11.7869565217	6.29411764706	-0.925	12.684375
136	0.068	-4.74347826087	6.29411764706	-3.775	11.275
137	0.0685	-7.56086956522	3.40588235294	4.775	32.415625
138	0.069	-7.56086956522	1.96176470588	-0.925	18.321875
139	0.0695	-6.15217391304	6.29411764706	6.2	16.9125
140	0.07	-4.74347826087	-9.59117647059	1.925	11.275
141	0.0705	-4.74347826087	0.517647058824	3.35	9.865625
142	0.071	-18.8304347826	3.40588235294	1.925	12.684375
143	0.0715	9.34347826087	3.40588235294	3.35	8.45625
144	0.072	-7.56086956522	1.96176470588	9.05	2.81875
145	0.0725	-6.15217391304	0.517647058824	-5.2	-1.409375
146	0.073	-8.96956521739	0.517647058824	7.625	1.409375
147	0.0735	-8.96956521739	3.40588235294	11.9	4.228125
148	0.074	-6.15217391304	-2.37058823529	1.925	4.228125
149	0.0745	-4.74347826087	9.18235294118	11.9	2.81875
150	0.075	-11.7869565217	1.96176470588	6.2	1.409375
151	0.0755	-7.56086956522	1.96176470588	7.625	0.0
152	0.076	-1.92608695652	0.517647058824	9.05	-2.81875
153	0.0765	-7.56086956522	-0.926470588235	4.775	-5.6375
154	0.077	-7.56086956522	-2.37058823529	4.775	4.228125
155	0.0775	-7.56086956522	-2.37058823529	14.75	-5.6375
156	0.078	-6.15217391304	-5.25882352941	0.5	-7.046875
157	0.0785	-7.56086956522	7.73823529412	6.2	-8.45625
158	0.079	-7.56086956522	-11.0352941176	4.775	-11.275
159	0.0795	-16.0130434783	-2.37058823529	4.775	-9.865625
160	0.08	13.5695652174	0.517647058824	-0.925	-8.45625
161	0.0805	-14.6043478261	-3.81470588235	4.775	1.409375
162	0.081	-4.74347826087	-2.37058823529	4.775	-23.959375
163	0.0815	-6.15217391304	-0.926470588235	-9.475	-14.09375
164	0.082	-6.15217391304	-0.926470588235	21.875	-16.9125
165	0.0825	-3.3347826087	-6.70294117647	13.325	-16.9125
166	0.083	-3.3347826087	0.517647058824	13.325	-19.73125
167	0.0835	-6.15217391304	6.29411764706	7.625	-14.09375
168	0.084	-10.3782608696	4.85	4.775	-16.9125
169	0.0845	16.3869565217	3.40588235294	1.925	-22.55
170	0.085	-11.7869565217	4.85	6.2	-21.140625
171	0.0855	-4.74347826087	4.85	0.5	-25.36875
172	0.086	-4.74347826087	3.40588235294	19.025	-23.959375
173	0.0865	-4.74347826087	-0.926470588235	1.925	-22.55
174	0.087	-4.74347826087	4.85	9.05	-28.1875
175	0.0875	-4.74347826087	-12.4794117647	9.05	-28.1875
176	0.088	-4.74347826087	-6.70294117647	7.625	-31.00625
177	0.0885	-16.0130434783	-0.926470588235	6.2	-28.1875
178	0.089	-14.6043478261	-0.926470588235	11.9	-29.596875
179	0.0895	-7.56086956522	-3.81470588235	17.6	-40.871875
180	0.09	-7.56086956522	-0.926470588235	19.025	-29.596875
181	0.0905	-6.15217391304	-0.926470588235	0.5	-35.234375
182	0.091	-4.74347826087	4.85	1.925	-32.415625
183	0.0915	-4.74347826087	-6.70294117647	-0.925	-31.00625
184	0.092	-4.74347826087	9.18235294118	-0.925	-36.64375
185	0.0925	-4.74347826087	-2.37058823529	3.35	-36.64375
186	0.093	0.891304347826	0.517647058824	4.775	-35.234375
187	0.0935	5.11739130435	0.517647058824	6.2	-32.415625
188	0.094	-14.6043478261	3.40588235294	9.05	-36.64375
189	0.0945	-7.56086956522	3.40588235294	3.35	-33.825
190	0.095	-8.96956521739	4.85	27.575	-36.64375
191	0.0955	-10.3782608696	-0.926470588235	-0.925	-38.053125
192	0.096	-11.7869565217	-12.4794117647	-0.925	-38.053125
193	0.0965	-7.56086956522	10.6264705882	1.925	-39.4625
194	0.097	-10.3782608696	-2.37058823529	6.2	-39.4625
195	0.0975	9.34347826087	-0.926470588235	7.625	-36.64375
196	0.098	-8.96956521739	4.85	6.2	-43.690625
197	0.0985	-11.7869565217	6.29411764706	7.625	-40.871875
198	0.099	-4.74347826087	3.40588235294	11.9	-49.328125
199	0.0995	-4.74347826087	3.40588235294	11.9	-45.1
200	0.1	-4.74347826087	0.517647058824	19.025	-43.690625
201	0.1005	-6.15217391304	-3.81470588235	9.05	-47.91875
202	0.101	-4.74347826087	10.6264705882	7.625	-45.1
203	0.1015	-7.56086956522	-3.81470588235	9.05	-47.91875
204	0.102	-3.3347826087	4.85	7.625	-46.509375
205	0.1025	-14.6043478261	3.40588235294	1.925	-50.7375
206	0.103	-4.74347826087	1.96176470588	-0.925	-46.509375
207	0.1035	-6.15217391304	-0.926470588235	1.925	-59.19375
208	0.104	-8.96956521739	0.517647058824	-6.625	-62.0125
209	0.1045	-10.3782608696	-3.81470588235	0.5	-54.965625
210	0.105	-7.56086956522	-6.70294117647	4.775	-57.784375
211	0.1055	-7.56086956522	10.6264705882	7.625	-54.965625
212	0.106	-11.7869565217	-13.9235294118	9.05	-59.19375
213	0.1065	-4.74347826087	-5.25882352941	14.75	-56.375
214	0.107	-16.0130434783	-2.37058823529	17.6	-56.375
215	0.1075	-6.15217391304	0.517647058824	21.875	-53.55625
216	0.108	-3.3347826087	1.96176470588	24.725	-52.146875
217	0.1085	-4.74347826087	0.517647058824	19.025	-56.375
218	0.109	-7.56086956522	-2.37058823529	9.05	-53.55625
219	0.1095	-7.56086956522	-0.926470588235	17.6	-54.965625
220	0.11	-7.56086956522	-12.4794117647	14.75	-56.375
221	0.1105	-6.15217391304	-11.0352941176	13.325	-54.965625
222	0.111	-18.8304347826	0.517647058824	16.175	-56.375
223	0.1115	10.752173913	-0.926470588235	13.325	-57.784375
224	0.112	-7.56086956522	-5.25882352941	11.9	-62.0125
225	0.1125	-7.56086956522	-3.81470588235	9.05	-57.784375
226	0.113	-7.56086956522	-6.70294117647	11.9	-50.7375
227	0.1135	-8.96956521739	-3.81470588235	11.9	-67.65
228	0.114	-8.96956521739	-6.70294117647	17.6	-64.83125
229	0.1145	-8.96956521739	-6.70294117647	16.175	-62.0125
230	0.115	-10.3782608696	-6.70294117647	14.75	-63.421875
231	0.1155	-6.15217391304	1.96176470588	17.6	-62.0125
232	0.116	3.70869565217	1.96176470588	20.45	-62.0125
233	0.1165	-14.6043478261	1.96176470588	20.45	-73.2875
234	0.117	-4.74347826087	1.96176470588	14.75	-47.91875
235	0.1175	-4.74347826087	1.96176470588	23.3	-70.46875
236	0.118	-6.15217391304	4.85	6.2	-69.059375
237	0.1185	-7.56086956522	0.517647058824	26.15	-70.46875
238	0.119	-4.74347826087	6.29411764706	19.025	-69.059375
239	0.1195	-6.15217391304	-5.25882352941	19.025	-71.878125
240	0.12	-7.56086956522	-3.81470588235	16.175	-76.10625
241	0.1205	-18.8304347826	-2.37058823529	14.75	-81.74375
242	0.121	-6.15217391304	-2.37058823529	13.325	-64.83125
243	0.1215	-7.56086956522	-2.37058823529	19.025	-76.10625
244	0.122	-6.15217391304	-0.926470588235	9.05	-83.153125
245	0.1225	-6.15217391304	-0.926470588235	19.025	-78.925
246	0.123	-7.56086956522	-0.926470588235	16.175	-81.74375
247	0.1235	-6.15217391304	-11.0352941176	20.45	-80.334375
248	0.124	-1.92608695652	-5.25882352941	20.45	-83.153125
249	0.1245	-0.517391304348	-2.37058823529	20.45	-83.153125
250	0.125	-11.7869565217	1.96176470588	19.025	-85.971875
251	0.1255	-8.96956521739	1.96176470588	19.025	-87.38125
252	0.126	-4.74347826087	0.517647058824	17.6	-83.153125
253	0.1265	-4.74347826087	-0.926470588235	17.6	-94.428125
254	0.127	-4.74347826087	0.517647058824	6.2	-88.790625
255	0.1275	-4.74347826087	1.96176470588	16.175	-85.971875
256	0.128	-7.56086956522	-13.9235294118	17.6	-88.790625
257	0.1285	-6.15217391304	6.29411764706	16.175	-91.609375
258	0.129	-16.0130434783	-3.81470588235	19.025	-93.01875
259	0.1295	-4.74347826087	-2.37058823529	19.025	-93.01875
260	0.13	5.11739130435	-3.81470588235	21.875	-102.884375
261	0.1305	-8.96956521739	-2.37058823529	19.025	-80.334375
262	0.131	-8.96956521739	-2.37058823529	23.3	-104.29375
263	0.1315	-7.56086956522	0.517647058824	14.75	-95.8375
264	0.132	-7.56086956522	1.96176470588	16.175	-98.65625
265	0.1325	-4.74347826087	-3.81470588235	23.3	-97.246875
266	0.133	-3.3347826087	-0.926470588235	26.15	-95.8375
267	0.1335	-3.3347826087	4.85	23.3	-95.8375
268	0.134	-13.1956521739	3.40588235294	21.875	-98.65625
269	0.1345	14.9782608696	0.517647058824	20.45	-101.475
270	0.135	-6.15217391304	1.96176470588	20.45	-102.884375
271	0.1355	-3.3347826087	1.96176470588	14.75	-84.5625
272	0.136	-1.92608695652	0.517647058824	20.45	-95.8375
273	0.1365	-4.74347826087	-0.926470588235	21.875	-97.246875
274	0.137	-3.3347826087	-5.25882352941	14.75	-100.065625
275	0.1375	-3.3347826087	13.5147058824	21.875	-95.8375
276	0.138	-1.92608695652	-9.59117647059	21.875	-98.65625
277	0.1385	-0.517391304348	-3.81470588235	16.175	-95.8375
278	0.139	-6.15217391304	-3.81470588235	14.75	-98.65625
279	0.1395	-11.7869565217	-2.37058823529	16.175	-83.153125
280	0.14	-6.15217391304	-2.37058823529	17.6	-95.8375
281	0.1405	-4.74347826087	0.517647058824	21.875	-93.01875
282	0.141	-3.3347826087	-0.926470588235	31.85	-88.790625
283	0.1415	-1.92608695652	3.40588235294	27.575	-88.790625
284	0.142	-1.92608695652	-9.59117647059	26.15	-85.971875
285	0.1425	-1.92608695652	16.4029411765	20.45	-84.5625
286	0.143	-1.92608695652	3.40588235294	20.45	-88.790625
287	0.1435	-8.96956521739	-0.926470588235	19.025	-90.2
288	0.144	3.70869565217	-0.926470588235	21.875	-87.38125
289	0.1445	-14.6043478261	-0.926470588235	21.875	-88.790625
290	0.145	-4.74347826087	0.517647058824	7.625	-88.790625
291	0.1455	-6.15217391304	-0.926470588235	34.7	-88.790625
292	0.146	-6.15217391304	-2.37058823529	23.3	-90.2
293	0.1465	-6.15217391304	3.40588235294	23.3	-90.2
294	0.147	-6.15217391304	1.96176470588	17.6	-90.2
295	0.1475	-4.74347826087	0.517647058824	13.325	-90.2
296	0.148	-11.7869565217	0.517647058824	14.75	-90.2
297	0.1485	7.9347826087	-0.926470588235	17.6	-88.790625
298	0.149	-11.7869565217	1.96176470588	19.025	-87.38125
299	0.1495	-3.3347826087	3.40588235294	11.9	-81.74375
300	0.15	-3.3347826087	4.85	21.875	-88.790625
301	0.1505	-4.74347826087	6.29411764706	14.75	-81.74375
302	0.151	-4.74347826087	-0.926470588235	21.875	-83.153125
303	0.1515	-3.3347826087	-3.81470588235	23.3	-85.971875
304	0.152	-8.96956521739	4.85	21.875	-85.971875
305	0.1525	-17.4217391304	0.517647058824	23.3	-87.38125
306	0.153	16.3869565217	1.96176470588	21.875	-81.74375
307	0.1535	-4.74347826087	-0.926470588235	21.875	-91.609375
308	0.154	-8.96956521739	-0.926470588235	7.625	-84.5625
309	0.1545	-7.56086956522	0.517647058824	37.55	-83.153125
310	0.155	-6.15217391304	-3.81470588235	9.05	-80.334375
311	0.1555	-7.56086956522	-8.14705882353	19.025	-80.334375
312	0.156	-4.74347826087	-8.14705882353	19.025	-80.334375
313	0.1565	-13.1956521739	-0.926470588235	20.45	-76.10625
314	0.157	10.752173913	1.96176470588	21.875	-77.515625
315	0.1575	-10.3782608696	6.29411764706	24.725	-69.059375
316	0.158	-4.74347826087	0.517647058824	21.875	-80.334375
317	0.1585	-3.3347826087	3.40588235294	19.025	-78.925
318	0.159	-6.15217391304	-0.926470588235	13.325	-78.925
319	0.1595	-6.15217391304	-6.70294117647	17.6	-81.74375
320	0.16	-4.74347826087	1.96176470588	16.175	-77.515625
321	0.1605	-3.3347826087	-5.25882352941	16.175	-77.515625
322	0.161	-8.96956521739	0.517647058824	20.45	-74.696875
323	0.1615	0.891304347826	0.517647058824	21.875	-74.696875
324	0.162	-4.74347826087	0.517647058824	26.15	-64.83125
325	0.1625	-6.15217391304	-3.81470588235	21.875	-83.153125
326	0.163	-6.15217391304	-3.81470588235	11.9	-74.696875
327	0.1635	-6.15217391304	-2.37058823529	33.275	-76.10625
328	0.164	-4.74347826087	0.517647058824	6.2	-73.2875
329	0.1645	-3.3347826087	22.1794117647	9.05	-69.059375
330	0.165	-3.3347826087	-2.37058823529	11.9	-69.059375
331	0.1655	-11.7869565217	3.40588235294	7.625	-70.46875
332	0.166	16.3869565217	3.40588235294	11.9	-64.83125
333	0.1665	-6.15217391304	4.85	16.175	-57.784375
334	0.167	-1.92608695652	3.40588235294	-0.925	-67.65
335	0.1675	-3.3347826087	6.29411764706	11.9	-66.240625
336	0.168	-4.74347826087	1.96176470588	7.625	-67.65
337	0.1685	-4.74347826087	3.40588235294	9.05	-64.83125
338	0.169	-7.56086956522	3.40588235294	4.775	-63.421875
339	0.1695	-0.517391304348	1.96176470588	6.2	-64.83125
340	0.17	-4.74347826087	1.96176470588	1.925	-69.059375
341	0.1705	13.5695652174	-2.37058823529	3.35	-60.603125
342	0.171	-14.6043478261	-2.37058823529	-0.925	-71.878125
343	0.1715	-7.56086956522	0.517647058824	-13.75	-63.421875
344	0.172	-4.74347826087	0.517647058824	7.625	-54.965625
345	0.1725	-4.74347826087	-0.926470588235	-9.475	-46.509375
346	0.173	-3.3347826087	12.0705882353	0.5	-50.7375
347	0.1735	0.891304347826	-0.926470588235	9.05	-47.91875
348	0.174	2.3	0.517647058824	7.625	-45.1
349	0.1745	-10.3782608696	3.40588235294	7.625	-43.690625
350	0.175	-7.56086956522	1.96176470588	4.775	-42.28125
351	0.1755	-6.15217391304	0.517647058824	1.925	-29.596875
352	0.176	-4.74347826087	3.40588235294	-0.925	-45.1
353	0.1765	-1.92608695652	1.96176470588	-9.475	-35.234375
354	0.177	-3.3347826087	-0.926470588235	14.75	-36.64375
355	0.1775	-7.56086956522	-12.4794117647	-0.925	-35.234375
356	0.178	-7.56086956522	0.517647058824	-0.925	-35.234375
357	0.1785	-1.92608695652	-0.926470588235	-0.925	-36.64375
358	0.179	-18.8304347826	-5.25882352941	-0.925	-40.871875
359	0.1795	-7.56086956522	-5.25882352941	4.775	-46.509375
360	0.18	-7.56086956522	-6.70294117647	-5.2	-39.4625
361	0.1805	-6.15217391304	-2.37058823529	9.05	-35.234375
362	0.181	-7.56086956522	-6.70294117647	9.05	-35.234375
363	0.1815	-6.15217391304	-0.926470588235	-0.925	-33.825
364	0.182	-4.74347826087	-0.926470588235	-9.475	-35.234375
365	0.1825	-6.15217391304	-6.70294117647	-0.925	-35.234375
366	0.183	-0.517391304348	0.517647058824	-6.625	-31.00625
367	0.1835	-16.0130434783	0.517647058824	-5.2	-29.596875
368	0.184	-7.56086956522	3.40588235294	-6.625	-40.871875
369	0.1845	-0.517391304348	0.517647058824	-16.6	-35.234375
370	0.185	-0.517391304348	1.96176470588	-0.925	-26.778125
371	0.1855	0.891304347826	0.517647058824	-9.475	-25.36875
372	0.186	-0.517391304348	4.85	-18.025	-25.36875
373	0.1865	-0.517391304348	3.40588235294	-18.025	-28.1875
374	0.187	-4.74347826087	-9.59117647059	-13.75	-25.36875
375	0.1875	-3.3347826087	-0.926470588235	-9.475	-25.36875
376	0.188	13.5695652174	-2.37058823529	-3.775	-26.778125
377	0.1885	-14.6043478261	0.517647058824	0.5	-38.053125
378	0.189	-4.74347826087	-0.926470588235	-6.625	-14.09375
379	0.1895	-3.3347826087	1.96176470588	-0.925	-28.1875
380	0.19	-4.74347826087	0.517647058824	-6.625	-25.36875
381	0.1905	-4.74347826087	4.85	-6.625	-25.36875
382	0.191	-0.517391304348	13.5147058824	-2.35	-21.140625
383	0.1915	-4.74347826087	13.5147058824	-2.35	-22.55
384	0.192	-0.517391304348	4.85	-0.925	-19.73125
385	0.1925	16.3869565217	3.40588235294	-2.35	-11.275
386	0.193	-13.1956521739	1.96176470588	-2.35	-18.321875
387	0.1935	-1.92608695652	4.85	-8.05	5.6375
388	0.194	-0.517391304348	3.40588235294	-6.625	-18.321875
389	0.1945	-3.3347826087	4.85	-18.025	-8.45625
390	0.195	-1.92608695652	3.40588235294	-10.9	-9.865625
391	0.1955	-4.74347826087	-6.70294117647	-15.175	-11.275
392	0.196	-7.56086956522	-2.37058823529	1.925	-12.684375
393	0.1965	-0.517391304348	-3.81470588235	3.35	-12.684375
394	0.197	-13.1956521739	-2.37058823529	3.35	-29.596875
395	0.1975	-11.7869565217	-3.81470588235	-2.35	-19.73125
396	0.198	-7.56086956522	-2.37058823529	-12.325	-23.959375
397	0.1985	-7.56086956522	-2.37058823529	-3.775	-4.228125
398	0.199	-3.3347826087	1.96176470588	-2.35	-16.9125
399	0.1995	-4.74347826087	-0.926470588235	0.5	-9.865625
400	0.2	-4.74347826087	16.4029411765	-0.925	-8.45625
401	0.2005	-0.517391304348	-6.70294117647	-2.35	-11.275
402	0.201	-13.1956521739	1.96176470588	-2.35	-15.503125
403	0.2015	16.3869565217	-0.926470588235	-0.925	-9.865625
404	0.202	-13.1956521739	-0.926470588235	0.5	-2.81875
405	0.2025	-0.517391304348	-0.926470588235	0.5	-12.684375
406	0.203	-4.74347826087	0.517647058824	-2.35	-14.09375
407	0.2035	-6.15217391304	0.517647058824	-3.775	-14.09375
408	0.204	-4.74347826087	-2.37058823529	4.775	-12.684375
409	0.2045	-4.74347826087	-5.25882352941	-5.2	-14.09375
410	0.205	-7.56086956522	-12.4794117647	-3.775	-18.321875
411	0.2055	-7.56086956522	-2.37058823529	-3.775	-19.73125
412	0.206	-16.0130434783	-0.926470588235	-5.2	-18.321875
413	0.2065	-4.74347826087	0.517647058824	-6.625	-14.09375
414	0.207	-6.15217391304	0.517647058824	-5.2	-23.959375
415	0.2075	-4.74347826087	1.96176470588	-8.05	-1.409375
416	0.208	-7.56086956522	-0.926470588235	-6.625	-15.503125
417	0.2085	-4.74347826087	-11.0352941176	-6.625	-15.503125
418	0.209	-6.15217391304	19.2911764706	-6.625	-8.45625
419	0.2095	-7.56086956522	-5.25882352941	-5.2	-1.409375
420	0.21	12.1608695652	0.517647058824	-3.775	5.6375
421	0.2105	-14.6043478261	1.96176470588	-6.625	0.0
422	0.211	-4.74347826087	-0.926470588235	-3.775	4.228125
423	0.2115	-6.15217391304	0.517647058824	-3.775	-16.9125
424	0.212	-7.56086956522	0.517647058824	-15.175	-12.684375
425	0.2125	-7.56086956522	1.96176470588	-6.625	-12.684375
426	0.213	-7.56086956522	-9.59117647059	-6.625	-12.684375
427	0.2135	-10.3782608696	-6.70294117647	-6.625	-11.275
428	0.214	-8.96956521739	1.96176470588	-6.625	-9.865625
429	0.2145	-8.96956521739	0.517647058824	-6.625	-7.046875
430	0.215	-7.56086956522	1.96176470588	-6.625	-2.81875
431	0.2155	-8.96956521739	4.85	-10.9	-21.140625
432	0.216	-4.74347826087	4.85	4.775	-19.73125
433	0.2165	-4.74347826087	6.29411764706	-12.325	-21.140625
434	0.217	-7.56086956522	-6.70294117647	-2.35	-7.046875
435	0.2175	-3.3347826087	23.6235294118	-0.925	1.409375
436	0.218	-8.96956521739	-6.70294117647	-3.775	4.228125
437	0.2185	-4.74347826087	4.85	-9.475	1.409375
438	0.219	-17.4217391304	0.517647058824	-6.625	-8.45625
439	0.2195	-8.96956521739	4.85	-3.775	1.409375
440	0.22	-11.7869565217	-0.926470588235	-3.775	-7.046875
441	0.2205	-13.1956521739	0.517647058824	-13.75	1.409375
442	0.221	-10.3782608696	0.517647058824	-5.2	0.0
443	0.2215	-14.6043478261	-9.59117647059	-3.775	-4.228125
444	0.222	-11.7869565217	16.4029411765	-3.775	-12.684375
445	0.2225	-11.7869565217	1.96176470588	-3.775	-16.9125
446	0.223	-0.517391304348	0.517647058824	-5.2	-12.684375
447	0.2235	-21.647826087	1.96176470588	-6.625	-11.275
448	0.224	-11.7869565217	6.29411764706	0.5	-1.409375
449	0.2245	-6.15217391304	1.96176470588	17.6	-8.45625
450	0.225	-7.56086956522	0.517647058824	-12.325	-14.09375
451	0.2255	-6.15217391304	6.29411764706	-0.925	-16.9125
452	0.226	-7.56086956522	-6.70294117647	-3.775	-16.9125
453	0.2265	-10.3782608696	20.7352941176	-2.35	-21.140625
454	0.227	-13.1956521739	0.517647058824	-0.925	-15.503125
455	0.2275	5.11739130435	0.517647058824	-0.925	7.046875
456	0.228	-17.4217391304	1.96176470588	0.5	32.415625
457	0.2285	-10.3782608696	6.29411764706	-3.775	11.275
458	0.229	-7.56086956522	3.40588235294	11.9	-1.409375
459	0.2295	-7.56086956522	-0.926470588235	-18.025	-9.865625
460	0.23	-10.3782608696	3.40588235294	9.05	-21.140625
461	0.2305	-8.96956521739	-3.81470588235	-10.9	-25.36875
462	0.231	-10.3782608696	-9.59117647059	-0.925	-33.825
463	0.2315	-10.3782608696	-0.926470588235	-2.35	-38.053125
464	0.232	-21.647826087	0.517647058824	3.35	-42.28125
465	0.2325	-8.96956521739	4.85	1.925	-4.228125
466	0.233	-7.56086956522	3.40588235294	4.775	-16.9125
467	0.2335	-4.74347826087	1.96176470588	-6.625	0.0
468	0.234	-7.56086956522	0.517647058824	-3.775	5.6375
469	0.2345	-8.96956521739	-11.0352941176	-2.35	2.81875
470	0.235	-8.96956521739	17.8470588235	-5.2	0.0
471	0.2355	-10.3782608696	-9.59117647059	-5.2	-5.6375
472	0.236	-16.0130434783	-0.926470588235	-3.775	-5.6375
473	0.2365	-17.4217391304	1.96176470588	-5.2	-15.503125
474	0.237	-13.1956521739	-2.37058823529	-2.35	-4.228125
475	0.2375	-10.3782608696	-3.81470588235	-0.925	-18.321875
476	0.238	-13.1956521739	-2.37058823529	-2.35	-14.09375
477	0.2385	-13.1956521739	-5.25882352941	-0.925	-11.275
478	0.239	-11.7869565217	-6.70294117647	0.5	-9.865625
479	0.2395	-13.1956521739	7.73823529412	-3.775	-11.275
480	0.24	-11.7869565217	-2.37058823529	0.5	-8.45625
481	0.2405	-10.3782608696	1.96176470588	6.2	-8.45625
482	0.241	3.70869565217	0.517647058824	7.625	-12.684375
483	0.2415	-13.1956521739	1.96176470588	6.2	-9.865625
484	0.242	-6.15217391304	0.517647058824	3.35	5.6375
485	0.2425	-8.96956521739	0.517647058824	3.35	-18.321875
486	0.243	-7.56086956522	0.517647058824	-2.35	-8.45625
487	0.2435	-8.96956521739	0.517647058824	1.925	-7.046875
488	0.244	-10.3782608696	14.9588235294	3.35	-4.228125
489	0.2445	-6.15217391304	-6.70294117647	4.775	-4.228125
490	0.245	9.34347826087	0.517647058824	1.925	-4.228125
491	0.2455	-18.8304347826	-0.926470588235	4.775	-15.503125
492	0.246	-8.96956521739	0.517647058824	0.5	7.046875
493	0.2465	-7.56086956522	-3.81470588235	0.5	-15.503125
494	0.247	-11.7869565217	-0.926470588235	-16.6	-9.865625
495	0.2475	-8.96956521739	-3.81470588235	-12.325	-9.865625
496	0.248	-10.3782608696	-6.70294117647	-10.9	-11.275
497	0.2485	-7.56086956522	13.5147058824	-5.2	-15.503125
498	0.249	-13.1956521739	1.96176470588	0.5	-15.503125
499	0.2495	-6.15217391304	1.96176470588	3.35	-14.09375
500	0.25	-1.92608695652	6.29411764706	4.775	-15.503125
501	0.2505	-14.6043478261	6.29411764706	0.5	-9.865625
502	0.251	-10.3782608696	3.40588235294	0.5	2.81875
503	0.2515	-8.96956521739	1.96176470588	11.9	-7.046875
504	0.252	-8.96956521739	0.517647058824	-9.475	-7.046875
505	0.2525	-6.15217391304	-2.37058823529	4.775	-12.684375
506	0.253	-7.56086956522	20.7352941176	4.775	-14.09375
507	0.2535	-17.4217391304	0.517647058824	1.925	-21.140625
508	0.254	10.752173913	0.517647058824	3.35	-15.503125
509	0.2545	-21.647826087	-0.926470588235	-0.925	-21.140625
510	0.255	-13.1956521739	-2.37058823529	1.925	-12.684375
511	0.2555	-13.1956521739	-0.926470588235	3.35	-22.55
512	0.256	-11.7869565217	-0.926470588235	-6.625	-26.778125
513	0.2565	-11.7869565217	0.517647058824	-3.775	-12.684375
514	0.257	-8.96956521739	-0.926470588235	6.2	-9.865625
515	0.2575	-7.56086956522	-6.70294117647	1.925	-8.45625
516	0.258	-0.517391304348	0.517647058824	0.5	-5.6375
517	0.2585	-21.647826087	4.85	0.5	-5.6375
518	0.259	-7.56086956522	0.517647058824	-0.925	11.275
519	0.2595	-10.3782608696	1.96176470588	7.625	-15.503125
520	0.26	-7.56086956522	0.517647058824	-6.625	-15.503125
521	0.2605	-8.96956521739	1.96176470588	16.175	-12.684375
522	0.261	-8.96956521739	-5.25882352941	7.625	-7.046875
523	0.2615	-7.56086956522	-2.37058823529	1.925	-7.046875
524	0.262	-4.74347826087	-6.70294117647	0.5	-8.45625
525	0.2625	-11.7869565217	-3.81470588235	4.775	-11.275
526	0.263	5.11739130435	-5.25882352941	6.2	-12.684375
527	0.2635	-18.8304347826	-2.37058823529	6.2	-23.959375
528	0.264	-8.96956521739	-0.926470588235	4.775	-8.45625
529	0.2645	-7.56086956522	0.517647058824	-0.925	-14.09375
530	0.265	-7.56086956522	0.517647058824	-3.775	-8.45625
531	0.2655	-7.56086956522	4.85	0.5	-11.275
532	0.266	-6.15217391304	-5.25882352941	-2.35	-11.275
533	0.2665	-3.3347826087	-5.25882352941	-3.775	-12.684375
534	0.267	-8.96956521739	3.40588235294	-2.35	-12.684375
535	0.2675	14.9782608696	6.29411764706	-3.775	-8.45625
536	0.268	-14.6043478261	3.40588235294	-3.775	-14.09375
537	0.2685	-7.56086956522	3.40588235294	-0.925	-8.45625
538	0.269	-4.74347826087	0.517647058824	13.325	-7.046875
539	0.2695	-3.3347826087	-0.926470588235	0.5	-8.45625
540	0.27	-4.74347826087	1.96176470588	-0.925	-16.9125
541	0.2705	-7.56086956522	6.29411764706	-0.925	-11.275
542	0.271	-8.96956521739	-6.70294117647	1.925	-16.9125
543	0.2715	-6.15217391304	-0.926470588235	1.925	-19.73125
544	0.272	-14.6043478261	-0.926470588235	4.775	-19.73125
545	0.2725	-7.56086956522	-5.25882352941	4.775	-11.275
546	0.273	-4.74347826087	-0.926470588235	4.775	-18.321875
547	0.2735	-6.15217391304	0.517647058824	-8.05	-14.09375
548	0.274	-4.74347826087	-0.926470588235	16.175	-18.321875
549	0.2745	-3.3347826087	3.40588235294	-3.775	-14.09375
550	0.275	-3.3347826087	13.5147058824	0.5	-11.275
551	0.2755	-3.3347826087	6.29411764706	-3.775	-7.046875
552	0.276	-3.3347826087	3.40588235294	-2.35	-7.046875
553	0.2765	9.34347826087	-0.926470588235	-3.775	-9.865625
554	0.277	-14.6043478261	-2.37058823529	-0.925	-28.1875
555	0.2775	-4.74347826087	-0.926470588235	-5.2	-8.45625
556	0.278	-3.3347826087	0.517647058824	6.2	-29.596875
557	0.2785	-6.15217391304	0.517647058824	-5.2	-35.234375
558	0.279	-4.74347826087	-8.14705882353	16.175	-31.00625
559	0.2795	-6.15217391304	6.29411764706	1.925	-23.959375
560	0.28	-7.56086956522	-5.25882352941	-0.925	-19.73125
561	0.2805	-1.92608695652	-5.25882352941	-2.35	-22.55
562	0.281	9.34347826087	-3.81470588235	-3.775	-25.36875
563	0.2815	-10.3782608696	-0.926470588235	-5.2	-33.825
564	0.282	-6.15217391304	-0.926470588235	-9.475	-18.321875
565	0.2825	-6.15217391304	3.40588235294	7.625	4.228125
566	0.283	-7.56086956522	3.40588235294	7.625	26.778125
567	0.2835	-6.15217391304	3.40588235294	-3.775	35.234375
568	0.284	-4.74347826087	14.9588235294	-5.2	19.73125
569	0.2845	-7.56086956522	3.40588235294	-3.775	0.0
570	0.285	-0.517391304348	1.96176470588	-3.775	-16.9125
571	0.2855	14.9782608696	0.517647058824	-3.775	-18.321875
572	0.286	-4.74347826087	1.96176470588	-5.2	-29.596875
573	0.2865	-1.92608695652	1.96176470588	-9.475	-19.73125
574	0.287	-7.56086956522	0.517647058824	-6.625	-15.503125
575	0.2875	-7.56086956522	0.517647058824	-8.05	-25.36875
576	0.288	-4.74347826087	-11.0352941176	-0.925	-21.140625
577	0.2885	-4.74347826087	9.18235294118	-0.925	-22.55
578	0.289	-4.74347826087	-8.14705882353	0.5	-18.321875
579	0.2895	-17.4217391304	-0.926470588235	0.5	-16.9125
580	0.29	14.9782608696	-0.926470588235	1.925	-8.45625
581	0.2905	-8.96956521739	0.517647058824	3.35	-26.778125
582	0.291	-4.74347826087	3.40588235294	1.925	-14.09375
583	0.2915	-3.3347826087	0.517647058824	11.9	-21.140625
584	0.292	-1.92608695652	0.517647058824	0.5	-16.9125
585	0.2925	-6.15217391304	3.40588235294	-6.625	-12.684375
586	0.293	-6.15217391304	1.96176470588	-3.775	-12.684375
587	0.2935	-4.74347826087	-3.81470588235	-5.2	-9.865625
588	0.294	-4.74347826087	1.96176470588	-2.35	-1.409375
589	0.2945	14.9782608696	1.96176470588	-2.35	-2.81875
590	0.295	-13.1956521739	1.96176470588	-3.775	5.6375
591	0.2955	-4.74347826087	-0.926470588235	0.5	1.409375
592	0.296	-4.74347826087	-0.926470588235	-5.2	-2.81875
593	0.2965	-4.74347826087	0.517647058824	-10.9	-12.684375
594	0.297	-4.74347826087	0.517647058824	-2.35	-7.046875
595	0.2975	-4.74347826087	-12.4794117647	-0.925	-8.45625
596	0.298	-3.3347826087	9.18235294118	-0.925	-8.45625
597	0.2985	-11.7869565217	3.40588235294	3.35	-2.81875
598	0.299	3.70869565217	4.85	6.2	2.81875
599	0.2995	10.752173913	4.85	6.2	11.275
600	0.3	-1.92608695652	3.40588235294	6.2	19.73125
601	0.3005	-3.3347826087	0.517647058824	-5.2	28.1875
602	0.301	-3.3347826087	1.96176470588	17.6	18.321875
603	0.3015	-3.3347826087	6.29411764706	7.625	5.6375
604	0.302	-3.3347826087	6.29411764706	1.925	-2.81875
605	0.3025	0.891304347826	13.5147058824	0.5	-7.046875
606	0.303	-1.92608695652	3.40588235294	1.925	-9.865625
607	0.3035	-11.7869565217	0.517647058824	-0.925	-12.684375
608	0.304	16.3869565217	-2.37058823529	-3.775	-12.684375
609	0.3045	-3.3347826087	-0.926470588235	-0.925	-14.09375
610	0.305	0.891304347826	-0.926470588235	-10.9	-26.778125
611	0.3055	0.891304347826	-0.926470588235	-8.05	-19.73125
612	0.306	-1.92608695652	0.517647058824	-15.175	-16.9125
613	0.3065	-3.3347826087	-12.4794117647	-6.625	-11.275
614	0.307	-1.92608695652	-6.70294117647	0.5	-12.684375
615	0.3075	-4.74347826087	1.96176470588	1.925	4.228125
616	0.308	-13.1956521739	0.517647058824	1.925	22.55
617	0.3085	13.5695652174	0.517647058824	-0.925	28.1875
618	0.309	-1.92608695652	0.517647058824	1.925	22.55
619	0.3095	-6.15217391304	-0.926470588235	-10.9	36.64375
620	0.31	-4.74347826087	0.517647058824	6.2	62.0125
621	0.3105	-4.74347826087	-0.926470588235	-3.775	74.696875
622	0.311	-3.3347826087	-0.926470588235	0.5	63.421875
623	0.3115	-6.15217391304	-5.25882352941	-0.925	39.4625
624	0.312	-6.15217391304	1.96176470588	-0.925	18.321875
625	0.3125	-11.7869565217	-6.70294117647	-2.35	7.046875
626	0.313	-16.0130434783	1.96176470588	-2.35	23.959375
627	0.3135	-11.7869565217	-0.926470588235	-3.775	2.81875
628	0.314	-10.3782608696	0.517647058824	-15.175	14.09375
629	0.3145	-8.96956521739	0.517647058824	7.625	19.73125
630	0.315	-8.96956521739	1.96176470588	-12.325	29.596875
631	0.3155	-8.96956521739	-12.4794117647	-0.925	43.690625
632	0.316	-4.74347826087	-5.25882352941	-0.925	42.28125
633	0.3165	-21.647826087	6.29411764706	0.5	40.871875
634	0.317	12.1608695652	6.29411764706	3.35	56.375
635	0.3175	-10.3782608696	4.85	6.2	53.55625
636	0.318	-7.56086956522	1.96176470588	4.775	53.55625
637	0.3185	-6.15217391304	4.85	4.775	35.234375
638	0.319	-4.74347826087	0.517647058824	-3.775	16.9125
639	0.3195	-6.15217391304	-2.37058823529	14.75	8.45625
640	0.32	-4.74347826087	-8.14705882353	-0.925	2.81875
641	0.3205	-6.15217391304	-8.14705882353	-0.925	5.6375
642	0.321	-3.3347826087	-0.926470588235	-0.925	2.81875
643	0.3215	-16.0130434783	-3.81470588235	-2.35	4.228125
644	0.322	-4.74347826087	-2.37058823529	-3.775	15.503125
645	0.3225	-4.74347826087	-2.37058823529	-0.925	16.9125
646	0.323	-4.74347826087	-5.25882352941	-10.9	18.321875
647	0.3235	-4.74347826087	-0.926470588235	-8.05	29.596875
648	0.324	2.3	3.40588235294	-3.775	33.825
649	0.3245	-0.517391304348	-6.70294117647	-19.45	28.1875
650	0.325	-0.517391304348	6.29411764706	-13.75	26.778125
651	0.3255	-10.3782608696	0.517647058824	-9.475	22.55
652	0.326	5.11739130435	3.40588235294	-8.05	21.140625
653	0.3265	3.70869565217	0.517647058824	-0.925	19.73125
654	0.327	-1.92608695652	0.517647058824	-6.625	18.321875
655	0.3275	-3.3347826087	0.517647058824	1.925	25.36875
656	0.328	-0.517391304348	1.96176470588	21.875	21.140625
657	0.3285	-3.3347826087	-0.926470588235	-5.2	19.73125
658	0.329	-4.74347826087	-2.37058823529	0.5	14.09375
659	0.3295	-6.15217391304	-9.59117647059	3.35	7.046875
660	0.33	-4.74347826087	-3.81470588235	3.35	4.228125
661	0.3305	-17.4217391304	-2.37058823529	0.5	7.046875
662	0.331	-6.15217391304	0.517647058824	0.5	2.81875
663	0.3315	-4.74347826087	-0.926470588235	-5.2	5.6375
664	0.332	-3.3347826087	1.96176470588	3.35	11.275
665	0.3325	-1.92608695652	4.85	9.05	11.275
666	0.333	-3.3347826087	1.96176470588	-2.35	8.45625
667	0.3335	0.891304347826	1.96176470588	1.925	7.046875
668	0.334	-1.92608695652	-5.25882352941	3.35	8.45625
669	0.3345	-4.74347826087	1.96176470588	6.2	11.275
670	0.335	-10.3782608696	0.517647058824	6.2	5.6375
671	0.3355	17.7956521739	0.517647058824	3.35	14.09375
672	0.336	0.891304347826	3.40588235294	4.775	2.81875
673	0.3365	-0.517391304348	0.517647058824	-0.925	7.046875
674	0.337	-4.74347826087	0.517647058824	-2.35	1.409375
675	0.3375	-3.3347826087	0.517647058824	-12.325	-18.321875
676	0.338	-3.3347826087	-2.37058823529	-9.475	-4.228125
677	0.3385	-0.517391304348	9.18235294118	-6.625	-7.046875
678	0.339	-3.3347826087	-11.0352941176	-2.35	-8.45625
679	0.3395	-10.3782608696	-0.926470588235	4.775	-7.046875
680	0.34	17.7956521739	0.517647058824	3.35	-8.45625
681	0.3405	-3.3347826087	3.40588235294	6.2	12.684375
682	0.341	-3.3347826087	1.96176470588	14.75	-1.409375
683	0.3415	-1.92608695652	0.517647058824	20.45	4.228125
684	0.342	-3.3347826087	3.40588235294	24.725	2.81875
685	0.3425	-3.3347826087	6.29411764706	29.0	4.228125
686	0.343	-4.74347826087	-5.25882352941	7.625	2.81875
687	0.3435	-1.92608695652	-2.37058823529	1.925	7.046875
688	0.344	-14.6043478261	1.96176470588	3.35	11.275
689	0.3445	9.34347826087	0.517647058824	0.5	1.409375
690	0.345	-7.56086956522	-0.926470588235	3.35	15.503125
691	0.3455	-4.74347826087	-2.37058823529	6.2	-8.45625
692	0.346	-7.56086956522	-2.37058823529	-0.925	0.0
693	0.3465	-6.15217391304	-9.59117647059	21.875	-4.228125
694	0.347	-7.56086956522	0.517647058824	-5.2	-4.228125
695	0.3475	-4.74347826087	13.5147058824	0.5	-2.81875
696	0.348	-1.92608695652	-3.81470588235	1.925	0.0
697	0.3485	-13.1956521739	0.517647058824	4.775	4.228125
698	0.349	7.9347826087	0.517647058824	7.625	12.684375
699	0.3495	-1.92608695652	0.517647058824	9.05	14.09375
700	0.35	-0.517391304348	1.96176470588	1.925	-7.046875
701	0.3505	0.891304347826	3.40588235294	-3.775	-4.228125
702	0.351	-1.92608695652	0.517647058824	17.6	-4.228125
703	0.3515	-1.92608695652	0.517647058824	-2.35	-2.81875
704	0.352	-3.3347826087	-6.70294117647	11.9	0.0
705	0.3525	0.891304347826	0.517647058824	7.625	2.81875
706	0.353	-16.0130434783	0.517647058824	6.2	-1.409375
707	0.3535	12.1608695652	-0.926470588235	-0.925	-9.865625
708	0.354	-10.3782608696	-2.37058823529	1.925	18.321875
709	0.3545	-10.3782608696	-3.81470588235	1.925	1.409375
710	0.355	-10.3782608696	-6.70294117647	0.5	8.45625
711	0.3555	-10.3782608696	-5.25882352941	4.775	8.45625
712	0.356	-7.56086956522	-8.14705882353	6.2	5.6375
713	0.3565	-3.3347826087	6.29411764706	4.775	8.45625
714	0.357	-4.74347826087	-3.81470588235	3.35	7.046875
715	0.3575	-7.56086956522	1.96176470588	4.775	5.6375
716	0.358	-13.1956521739	3.40588235294	4.775	8.45625
717	0.3585	-6.15217391304	1.96176470588	1.925	4.228125
718	0.359	-3.3347826087	0.517647058824	1.925	-7.046875
719	0.3595	-3.3347826087	0.517647058824	-6.625	1.409375
720	0.36	-4.74347826087	3.40588235294	3.35	2.81875
721	0.3605	-4.74347826087	-11.0352941176	0.5	2.81875
722	0.361	-4.74347826087	20.7352941176	-0.925	4.228125
723	0.3615	-4.74347826087	0.517647058824	-3.775	1.409375
724	0.362	-16.0130434783	-0.926470588235	-0.925	-1.409375
725	0.3625	12.1608695652	-2.37058823529	-0.925	-1.409375
726	0.363	-4.74347826087	-0.926470588235	4.775	-12.684375
727	0.3635	-6.15217391304	0.517647058824	-6.625	-7.046875
728	0.364	-6.15217391304	-0.926470588235	-9.475	-7.046875
729	0.3645	-4.74347826087	-2.37058823529	13.325	-4.228125
730	0.365	-1.92608695652	17.8470588235	-2.35	-4.228125
731	0.3655	-6.15217391304	1.96176470588	3.35	-4.228125
732	0.366	0.891304347826	3.40588235294	1.925	-2.81875
733	0.3665	-10.3782608696	1.96176470588	1.925	-1.409375
734	0.367	-0.517391304348	0.517647058824	0.5	-12.684375
735	0.3675	0.891304347826	3.40588235294	-6.625	-11.275
736	0.368	-0.517391304348	4.85	4.775	-16.9125
737	0.3685	-0.517391304348	3.40588235294	-8.05	-18.321875
738	0.369	-1.92608695652	-8.14705882353	1.925	-12.684375
739	0.3695	0.891304347826	-5.25882352941	1.925	-15.503125
740	0.37	0.891304347826	-0.926470588235	0.5	-18.321875
741	0.3705	-14.6043478261	-0.926470588235	1.925	-18.321875
742	0.371	5.11739130435	0.517647058824	1.925	-18.321875
743	0.3715	-4.74347826087	-0.926470588235	1.925	-21.140625
744	0.372	-4.74347826087	-0.926470588235	1.925	-29.596875
745	0.3725	-4.74347826087	1.96176470588	-3.775	-18.321875
746	0.373	-8.96956521739	-2.37058823529	19.025	-8.45625
747	0.3735	-4.74347826087	1.96176470588	-3.775	22.55
748	0.374	-3.3347826087	-5.25882352941	7.625	35.234375
749	0.3745	-4.74347826087	1.96176470588	4.775	22.55
750	0.375	-8.96956521739	3.40588235294	3.35	-4.228125
751	0.3755	16.3869565217	3.40588235294	3.35	-16.9125
752	0.376	-1.92608695652	1.96176470588	3.35	-36.64375
753	0.3765	-6.15217391304	3.40588235294	-2.35	-15.503125
754	0.377	-1.92608695652	3.40588235294	13.325	-25.36875
755	0.3775	-3.3347826087	4.85	4.775	-18.321875
756	0.378	-4.74347826087	17.8470588235	4.775	-12.684375
757	0.3785	-4.74347826087	0.517647058824	1.925	-7.046875
758	0.379	-8.96956521739	-5.25882352941	1.925	-8.45625
759	0.3795	3.70869565217	-2.37058823529	-0.925	-2.81875
760	0.38	-3.3347826087	-2.37058823529	-3.775	-1.409375
761	0.3805	-10.3782608696	-2.37058823529	1.925	-5.6375
762	0.381	-3.3347826087	-0.926470588235	4.775	16.9125
763	0.3815	-3.3347826087	-0.926470588235	11.9	-12.684375
764	0.382	3.70869565217	0.517647058824	0.5	-9.865625
765	0.3825	3.70869565217	-6.70294117647	6.2	-8.45625
766	0.383	12.1608695652	-0.926470588235	6.2	-8.45625
767	0.3835	12.1608695652	0.517647058824	7.625	-2.81875
768	0.384	23.4304347826	0.517647058824	4.775	-2.81875
769	0.3845	14.9782608696	0.517647058824	4.775	-12.684375
770	0.385	7.9347826087	1.96176470588	3.35	-11.275
771	0.3855	13.5695652174	1.96176470588	-2.35	1.409375
772	0.386	17.7956521739	4.85	4.775	-7.046875
773	0.3865	19.2043478261	0.517647058824	-12.325	-12.684375
774	0.387	23.4304347826	9.18235294118	-0.925	-18.321875
775	0.3875	27.6565217391	-6.70294117647	1.925	-21.140625
776	0.388	29.0652173913	0.517647058824	3.35	-14.09375
777	0.3885	27.6565217391	1.96176470588	3.35	-14.09375
778	0.389	26.247826087	-0.926470588235	7.625	-28.1875
779	0.3895	33.2913043478	-0.926470588235	4.775	-15.503125
780	0.39	34.7	0.517647058824	9.05	-42.28125
781	0.3905	29.0652173913	-0.926470588235	3.35	-39.4625
782	0.391	31.8826086957	-9.59117647059	7.625	-35.234375
783	0.3915	29.0652173913	16.4029411765	14.75	-31.00625
784	0.392	22.0217391304	4.85	14.75	-28.1875
785	0.3925	22.0217391304	0.517647058824	11.9	-25.36875
786	0.393	10.752173913	3.40588235294	1.925	-25.36875
787	0.3935	-1.92608695652	0.517647058824	1.925	-32.415625
788	0.394	0.891304347826	-0.926470588235	3.35	-36.64375
789	0.3945	-1.92608695652	1.96176470588	11.9	-36.64375
790	0.395	-3.3347826087	0.517647058824	-3.775	-35.234375
791	0.3955	-4.74347826087	-5.25882352941	-2.35	-28.1875
792	0.396	-6.15217391304	3.40588235294	0.5	-25.36875
793	0.3965	-6.15217391304	-3.81470588235	-0.925	-28.1875
794	0.397	-18.8304347826	-0.926470588235	-0.925	-33.825
795	0.3975	-11.7869565217	-2.37058823529	0.5	-26.778125
796	0.398	-8.96956521739	0.517647058824	6.2	-42.28125
797	0.3985	-10.3782608696	0.517647058824	-3.775	-32.415625
798	0.399	-11.7869565217	4.85	3.35	-35.234375
799	0.3995	-16.0130434783	-8.14705882353	9.05	-35.234375
800	0.4	-24.4652173913	17.8470588235	11.9	-35.234375
801	0.4005	-30.1	-3.81470588235	9.05	-36.64375
802	0.401	-23.0565217391	0.517647058824	7.625	-36.64375
803	0.4015	-32.9173913043	3.40588235294	6.2	-47.91875
804	0.402	-20.2391304348	3.40588235294	4.775	-22.55
805	0.4025	-14.6043478261	3.40588235294	4.775	-42.28125
806	0.403	-11.7869565217	3.40588235294	-5.2	-33.825
807	0.4035	-13.1956521739	3.40588235294	4.775	-28.1875
808	0.404	-16.0130434783	-11.0352941176	4.775	-25.36875
809	0.4045	-11.7869565217	16.4029411765	6.2	-29.596875
810	0.405	-1.92608695652	-2.37058823529	7.625	-38.053125
811	0.4055	-8.96956521739	-3.81470588235	4.775	-45.1
812	0.406	17.7956521739	-2.37058823529	3.35	-46.509375
813	0.4065	-1.92608695652	0.517647058824	-0.925	-53.55625
814	0.407	-6.15217391304	3.40588235294	1.925	-43.690625
815	0.4075	-4.74347826087	0.517647058824	11.9	-49.328125
816	0.408	-4.74347826087	0.517647058824	6.2	-49.328125
817	0.4085	-11.7869565217	-2.37058823529	4.775	-45.1
818	0.409	-8.96956521739	-2.37058823529	7.625	-45.1
819	0.4095	-13.1956521739	0.517647058824	9.05	-52.146875
820	0.41	-3.3347826087	0.517647058824	7.625	-60.603125
821	0.4105	-3.3347826087	0.517647058824	4.775	-57.784375
822	0.411	2.3	0.517647058824	6.2	-59.19375
823	0.4115	2.3	-0.926470588235	1.925	-56.375
824	0.412	-0.517391304348	0.517647058824	19.025	-47.91875
825	0.4125	-7.56086956522	-6.70294117647	3.35	-36.64375
826	0.413	-14.6043478261	-2.37058823529	7.625	-25.36875
827	0.4135	-34.3260869565	0.517647058824	3.35	-12.684375
828	0.414	-21.647826087	-2.37058823529	-0.925	-11.275
829	0.4145	-35.7347826087	-2.37058823529	-0.925	-33.825
830	0.415	-30.1	0.517647058824	-10.9	-35.234375
831	0.4155	-21.647826087	4.85	17.6	-23.959375
832	0.416	-13.1956521739	-0.926470588235	-6.625	15.503125
833	0.4165	-11.7869565217	4.85	3.35	39.4625
834	0.417	-11.7869565217	-6.70294117647	1.925	23.959375
835	0.4175	-10.3782608696	3.40588235294	1.925	-14.09375
836	0.418	-11.7869565217	0.517647058824	1.925	-40.871875
837	0.4185	10.752173913	-0.926470588235	-0.925	-57.784375
838	0.419	-14.6043478261	1.96176470588	-0.925	-54.965625
839	0.4195	-23.0565217391	1.96176470588	14.75	-54.965625
840	0.42	-25.8739130435	-0.926470588235	3.35	-53.55625
841	0.4205	-32.9173913043	1.96176470588	-2.35	-52.146875
842	0.421	-27.2826086957	-11.0352941176	-8.05	-52.146875
843	0.4215	-27.2826086957	-8.14705882353	-9.475	-50.7375
844	0.422	-13.1956521739	0.517647058824	-16.6	-35.234375
845	0.4225	-25.8739130435	-2.37058823529	-2.35	-11.275
846	0.423	-7.56086956522	-2.37058823529	3.35	15.503125
847	0.4235	-4.74347826087	1.96176470588	4.775	7.046875
848	0.424	2.3	3.40588235294	-5.2	5.6375
849	0.4245	10.752173913	6.29411764706	21.875	-12.684375
850	0.425	10.752173913	-11.0352941176	3.35	-33.825
851	0.4255	9.34347826087	22.1794117647	4.775	-46.509375
852	0.426	-1.92608695652	-0.926470588235	3.35	-56.375
853	0.4265	-3.3347826087	-0.926470588235	3.35	-57.784375
854	0.427	-16.0130434783	-0.926470588235	3.35	-60.603125
855	0.4275	-20.2391304348	3.40588235294	1.925	-29.596875
856	0.428	-13.1956521739	0.517647058824	4.775	-14.09375
857	0.4285	-16.0130434783	1.96176470588	-3.775	1.409375
858	0.429	-17.4217391304	1.96176470588	-0.925	-4.228125
859	0.4295	-23.0565217391	-9.59117647059	-0.925	-18.321875
860	0.43	-20.2391304348	3.40588235294	0.5	-23.959375
861	0.4305	-23.0565217391	1.96176470588	1.925	-19.73125
862	0.431	-17.4217391304	-2.37058823529	0.5	-8.45625
863	0.4315	-4.74347826087	0.517647058824	4.775	7.046875
864	0.432	-14.6043478261	-0.926470588235	4.775	11.275
865	0.4325	-4.74347826087	1.96176470588	-0.925	2.81875
866	0.433	-11.7869565217	4.85	21.875	-2.81875
867	0.4335	-20.2391304348	-0.926470588235	-2.35	-9.865625
868	0.434	-20.2391304348	3.40588235294	4.775	-11.275
869	0.4345	-18.8304347826	-8.14705882353	4.775	-11.275
870	0.435	-16.0130434783	4.85	4.775	-11.275
871	0.4355	-16.0130434783	0.517647058824	4.775	-8.45625
872	0.436	-0.517391304348	3.40588235294	6.2	-8.45625
873	0.4365	-10.3782608696	3.40588235294	-2.35	-15.503125
874	0.437	-13.1956521739	-0.926470588235	-0.925	-1.409375
875	0.4375	-7.56086956522	-3.81470588235	-0.925	-9.865625
876	0.438	-6.15217391304	-11.0352941176	-0.925	-5.6375
877	0.4385	-6.15217391304	0.517647058824	1.925	-7.046875
878	0.439	-10.3782608696	9.18235294118	4.775	-5.6375
879	0.4395	-7.56086956522	0.517647058824	1.925	-1.409375
880	0.44	-18.8304347826	1.96176470588	7.625	4.228125
881	0.4405	-13.1956521739	1.96176470588	7.625	-1.409375
882	0.441	-8.96956521739	0.517647058824	9.05	-1.409375
883	0.4415	-8.96956521739	0.517647058824	1.925	0.0
884	0.442	-8.96956521739	6.29411764706	6.2	-1.409375
885	0.4425	-6.15217391304	-9.59117647059	4.775	0.0
886	0.443	-4.74347826087	7.73823529412	4.775	1.409375
887	0.4435	-1.92608695652	0.517647058824	3.35	2.81875
888	0.444	2.3	1.96176470588	3.35	0.0
889	0.4445	16.3869565217	0.517647058824	4.775	-1.409375
890	0.445	9.34347826087	0.517647058824	4.775	-12.684375
891	0.4455	3.70869565217	0.517647058824	-0.925	14.09375
892	0.446	2.3	1.96176470588	19.025	-2.81875
893	0.4465	3.70869565217	1.96176470588	-8.05	-5.6375
894	0.447	2.3	-8.14705882353	1.925	-2.81875
895	0.4475	5.11739130435	22.1794117647	-0.925	-5.6375
896	0.448	-0.517391304348	1.96176470588	0.5	-4.228125
897	0.4485	27.6565217391	0.517647058824	4.775	-4.228125
898	0.449	10.752173913	1.96176470588	4.775	12.684375
899	0.4495	19.2043478261	4.85	4.775	-8.45625
900	0.45	12.1608695652	6.29411764706	-3.775	0.0
901	0.4505	10.752173913	0.517647058824	0.5	-1.409375
902	0.451	6.52608695652	-5.25882352941	1.925	0.0
903	0.4515	5.11739130435	-0.926470588235	4.775	-2.81875
904	0.452	7.9347826087	4.85	6.2	0.0
905	0.4525	24.8391304348	0.517647058824	9.05	-4.228125
906	0.453	-4.74347826087	0.517647058824	9.05	-2.81875
907	0.4535	0.891304347826	0.517647058824	11.9	-5.6375
908	0.454	-3.3347826087	0.517647058824	-0.925	-8.45625
909	0.4545	-1.92608695652	-2.37058823529	6.2	-14.09375
910	0.455	2.3	0.517647058824	26.15	-9.865625
911	0.4555	3.70869565217	-8.14705882353	7.625	-5.6375
912	0.456	0.891304347826	-2.37058823529	6.2	1.409375
913	0.4565	-8.96956521739	0.517647058824	11.9	2.81875
914	0.457	3.70869565217	1.96176470588	6.2	1.409375
915	0.4575	-35.7347826087	1.96176470588	7.625	1.409375
916	0.458	-62.5	3.40588235294	-3.775	7.046875
917	0.4585	-80.8130434783	6.29411764706	24.725	7.046875
918	0.459	-83.6304347826	-2.37058823529	0.5	0.0
919	0.4595	-73.7695652174	-6.70294117647	3.35	0.0
920	0.46	-56.8652173913	3.40588235294	3.35	1.409375
921	0.4605	-48.4130434783	-5.25882352941	7.625	1.409375
922	0.461	-49.8217391304	0.517647058824	7.625	2.81875
923	0.4615	-38.552173913	4.85	6.2	0.0
924	0.462	-66.7260869565	-0.926470588235	7.625	14.09375
925	0.4625	-45.5956521739	-2.37058823529	3.35	-9.865625
926	0.463	-32.9173913043	-0.926470588235	14.75	15.503125
927	0.4635	-23.0565217391	-3.81470588235	4.775	-1.409375
928	0.464	-17.4217391304	17.8470588235	9.05	-2.81875
929	0.4645	-11.7869565217	-11.0352941176	1.925	-4.228125
930	0.465	-0.517391304348	-0.926470588235	1.925	-1.409375
931	0.4655	-7.56086956522	1.96176470588	3.35	1.409375
932	0.466	14.9782608696	4.85	3.35	19.73125
933	0.4665	24.8391304348	3.40588235294	14.75	0.0
934	0.467	36.1086956522	3.40588235294	0.5	1.409375
935	0.4675	34.7	6.29411764706	27.575	-5.6375
936	0.468	27.6565217391	0.517647058824	14.75	-7.046875
937	0.4685	-4.74347826087	6.29411764706	9.05	-5.6375
938	0.469	-27.2826086957	4.85	13.325	-8.45625
939	0.4695	-37.1434782609	6.29411764706	7.625	-2.81875
940	0.47	-59.6826086957	3.40588235294	7.625	-1.409375
941	0.4705	-49.8217391304	3.40588235294	4.775	12.684375
942	0.471	-38.552173913	-0.926470588235	14.75	-1.409375
943	0.4715	-23.0565217391	4.85	-2.35	5.6375
944	0.472	-10.3782608696	0.517647058824	21.875	0.0
945	0.4725	-1.92608695652	10.6264705882	1.925	-8.45625
946	0.473	16.3869565217	-3.81470588235	6.2	-9.865625
947	0.4735	12.1608695652	4.85	13.325	-14.09375
948	0.474	48.7869565217	3.40588235294	17.6	-23.959375
949	0.4745	31.8826086957	3.40588235294	13.325	0.0
950	0.475	34.7	4.85	13.325	-31.00625
951	0.4755	37.5173913043	6.29411764706	-0.925	-22.55
952	0.476	40.3347826087	3.40588235294	19.025	-25.36875
953	0.4765	41.7434782609	4.85	-3.775	-19.73125
954	0.477	43.152173913	-5.25882352941	3.35	-12.684375
955	0.4775	50.1956521739	4.85	4.775	-9.865625
956	0.478	36.1086956522	3.40588235294	4.775	-14.09375
957	0.4785	60.0565217391	6.29411764706	4.775	-12.684375
958	0.479	37.5173913043	1.96176470588	0.5	-31.00625
959	0.4795	26.247826087	0.517647058824	-8.05	-23.959375
960	0.48	26.247826087	1.96176470588	17.6	-1.409375
961	0.4805	23.4304347826	4.85	1.925	38.053125
962	0.481	16.3869565217	16.4029411765	1.925	74.696875
963	0.4815	14.9782608696	3.40588235294	4.775	87.38125
964	0.482	0.891304347826	7.73823529412	7.625	69.059375
965	0.4825	30.4739130435	6.29411764706	4.775	43.690625
966	0.483	12.1608695652	4.85	11.9	5.6375
967	0.4835	14.9782608696	4.85	6.2	-1.409375
968	0.484	10.752173913	3.40588235294	11.9	-2.81875
969	0.4845	12.1608695652	6.29411764706	3.35	-1.409375
970	0.485	3.70869565217	-3.81470588235	7.625	4.228125
971	0.4855	0.891304347826	1.96176470588	9.05	2.81875
972	0.486	-8.96956521739	1.96176470588	11.9	-8.45625
973	0.4865	-0.517391304348	3.40588235294	6.2	-14.09375
974	0.487	-18.8304347826	3.40588235294	3.35	-14.09375
975	0.4875	-21.647826087	3.40588235294	3.35	-8.45625
976	0.488	-20.2391304348	-0.926470588235	17.6	2.81875
977	0.4885	-21.647826087	-2.37058823529	1.925	8.45625
978	0.489	-16.0130434783	4.85	1.925	7.046875
979	0.4895	-16.0130434783	-5.25882352941	3.35	1.409375
980	0.49	-14.6043478261	3.40588235294	6.2	-1.409375
981	0.4905	-7.56086956522	1.96176470588	7.625	-2.81875
982	0.491	-16.0130434783	3.40588235294	7.625	-7.046875
983	0.4915	-4.74347826087	4.85	7.625	0.0
984	0.492	-1.92608695652	4.85	10.475	-11.275
985	0.4925	-3.3347826087	1.96176470588	0.5	-21.140625
986	0.493	-6.15217391304	1.96176470588	9.05	-9.865625
987	0.4935	-6.15217391304	6.29411764706	7.625	-4.228125
988	0.494	-4.74347826087	9.18235294118	7.625	2.81875
989	0.4945	-4.74347826087	3.40588235294	6.2	4.228125
990	0.495	-28.6913043478	3.40588235294	4.775	-7.046875
991	0.4955	-30.1	3.40588235294	3.35	-1.409375
992	0.496	-44.1869565217	0.517647058824	7.625	-7.046875
993	0.4965	-51.2304347826	0.517647058824	4.775	-11.275
994	0.497	-37.1434782609	-2.37058823529	4.775	8.45625
995	0.4975	-28.6913043478	1.96176470588	19.025	-1.409375
996	0.498	-17.4217391304	0.517647058824	-3.775	4.228125
997	0.4985	-10.3782608696	-0.926470588235	6.2	16.9125
998	0.499	-1.92608695652	16.4029411765	9.05	22.55
999	0.4995	19.2043478261	4.85	9.05	14.09375
1000	0.5	29.0652173913	6.29411764706	9.05	-5.6375
1001	0.5005	34.7	4.85	4.775	-12.684375
1002	0.501	43.152173913	3.40588235294	10.475	-5.6375
1003	0.5015	44.5608695652	1.96176470588	11.9	15.503125
1004	0.502	40.3347826087	4.85	0.5	36.64375
1005	0.5025	33.2913043478	-6.70294117647	4.775	35.234375
1006	0.503	37.5173913043	0.517647058824	3.35	21.140625
1007	0.5035	45.9695652174	1.96176470588	3.35	1.409375
1008	0.504	36.1086956522	-0.926470588235	0.5	-4.228125
1009	0.5045	44.5608695652	0.517647058824	-2.35	18.321875
1010	0.505	38.9260869565	-0.926470588235	1.925	22.55
1011	0.5055	27.6565217391	-2.37058823529	-6.625	12.684375
1012	0.506	14.9782608696	-2.37058823529	7.625	8.45625
1013	0.5065	12.1608695652	3.40588235294	-0.925	18.321875
1014	0.507	10.752173913	14.9588235294	-0.925	31.00625
1015	0.5075	19.2043478261	0.517647058824	-0.925	39.4625
1016	0.508	0.891304347826	4.85	-2.35	29.596875
1017	0.5085	27.6565217391	6.29411764706	-6.625	36.64375
1018	0.509	3.70869565217	4.85	-13.75	21.140625
1019	0.5095	7.9347826087	0.517647058824	-19.45	21.140625
1020	0.51	5.11739130435	3.40588235294	13.325	8.45625
1021	0.5105	7.9347826087	-0.926470588235	-8.05	2.81875
1022	0.511	10.752173913	-11.0352941176	-0.925	11.275
1023	0.5115	20.6130434783	19.2911764706	0.5	19.73125
1024	0.512	22.0217391304	-9.59117647059	3.35	19.73125
1025	0.5125	45.9695652174	-2.37058823529	4.775	21.140625
1026	0.513	19.2043478261	-2.37058823529	4.775	21.140625
1027	0.5135	27.6565217391	-2.37058823529	3.35	18.321875
1028	0.514	26.247826087	-3.81470588235	-0.925	1.409375
1029	0.5145	23.4304347826	-2.37058823529	1.925	1.409375
1030	0.515	17.7956521739	-6.70294117647	3.35	-1.409375
1031	0.5155	16.3869565217	3.40588235294	9.05	-4.228125
1032	0.516	14.9782608696	9.18235294118	11.9	-7.046875
1033	0.5165	27.6565217391	4.85	11.9	-5.6375
1034	0.517	19.2043478261	0.517647058824	13.325	-8.45625
1035	0.5175	26.247826087	0.517647058824	13.325	-8.45625
1036	0.518	27.6565217391	0.517647058824	7.625	-23.959375
1037	0.5185	27.6565217391	3.40588235294	-5.2	-14.09375
1038	0.519	34.7	3.40588235294	20.45	-14.09375
1039	0.5195	40.3347826087	0.517647058824	-0.925	-15.503125
1040	0.52	51.6043478261	-3.81470588235	4.775	-15.503125
1041	0.5205	45.9695652174	0.517647058824	4.775	-18.321875
1042	0.521	69.9173913043	-0.926470588235	6.2	-22.55
1043	0.5215	61.4652173913	-0.926470588235	7.625	-25.36875
1044	0.522	45.9695652174	0.517647058824	-5.2	-32.415625
1045	0.5225	23.4304347826	0.517647058824	9.05	-29.596875
1046	0.523	0.891304347826	-0.926470588235	3.35	-29.596875
1047	0.5235	-10.3782608696	-5.25882352941	1.925	-31.00625
1048	0.524	-3.3347826087	6.29411764706	4.775	-35.234375
1049	0.5245	-4.74347826087	3.40588235294	7.625	-33.825
1050	0.525	-3.3347826087	1.96176470588	9.05	-33.825
1051	0.5255	-17.4217391304	1.96176470588	7.625	-43.690625
1052	0.526	-28.6913043478	1.96176470588	1.925	-36.64375
1053	0.5265	-28.6913043478	3.40588235294	4.775	-43.690625
1054	0.527	-21.647826087	0.517647058824	4.775	-36.64375
1055	0.5275	-18.8304347826	4.85	3.35	-36.64375
1056	0.528	-17.4217391304	-5.25882352941	4.775	-40.871875
1057	0.5285	-51.2304347826	13.5147058824	4.775	-46.509375
1058	0.529	-113.213043478	-6.70294117647	4.775	-50.7375
1059	0.5295	-139.97826087	-0.926470588235	1.925	-45.1
1060	0.53	-161.108695652	0.517647058824	1.925	-54.965625
1061	0.5305	-147.02173913	-0.926470588235	-0.925	-29.596875
1062	0.531	-135.752173913	-0.926470588235	1.925	-49.328125
1063	0.5315	-118.847826087	0.517647058824	-9.475	-45.1
1064	0.532	-94.9	3.40588235294	0.5	-43.690625
1065	0.5325	-68.1347826087	3.40588235294	-3.775	-43.690625
1066	0.533	-41.3695652174	0.517647058824	4.775	-45.1
1067	0.5335	-28.6913043478	6.29411764706	4.775	-42.28125
1068	0.534	3.70869565217	4.85	1.925	-42.28125
1069	0.5345	30.4739130435	1.96176470588	3.35	-40.871875
1070	0.535	40.3347826087	0.517647058824	3.35	-39.4625
1071	0.5355	55.8304347826	1.96176470588	4.775	-33.825
1072	0.536	55.8304347826	6.29411764706	-5.2	-46.509375
1073	0.5365	53.0130434783	0.517647058824	7.625	-39.4625
1074	0.537	48.7869565217	14.9588235294	-2.35	-39.4625
1075	0.5375	43.152173913	-2.37058823529	-3.775	-39.4625
1076	0.538	44.5608695652	1.96176470588	-5.2	-39.4625
1077	0.5385	24.8391304348	-3.81470588235	-3.775	-39.4625
1078	0.539	24.8391304348	0.517647058824	-2.35	-35.234375
1079	0.5395	-32.9173913043	0.517647058824	-0.925	-43.690625
1080	0.54	-107.57826087	0.517647058824	1.925	-39.4625
1081	0.5405	-139.97826087	1.96176470588	-0.925	-29.596875
1082	0.541	-134.343478261	1.96176470588	9.05	-28.1875
1083	0.5415	-107.57826087	3.40588235294	-2.35	-26.778125
1084	0.542	-83.6304347826	-3.81470588235	7.625	-23.959375
1085	0.5425	-59.6826086957	1.96176470588	4.775	-19.73125
1086	0.543	-37.1434782609	1.96176470588	1.925	-14.09375
1087	0.5435	0.891304347826	1.96176470588	-2.35	-26.778125
1088	0.544	30.4739130435	0.517647058824	-0.925	-12.684375
1089	0.5445	47.3782608696	3.40588235294	-6.625	-14.09375
1090	0.545	54.4217391304	1.96176470588	3.35	-22.55
1091	0.5455	53.0130434783	-3.81470588235	6.2	-19.73125
1092	0.546	51.6043478261	-5.25882352941	6.2	-19.73125
1093	0.5465	45.9695652174	13.5147058824	4.775	-15.503125
1094	0.547	38.9260869565	-3.81470588235	3.35	-14.09375
1095	0.5475	67.1	-2.37058823529	4.775	-7.046875
1096	0.548	54.4217391304	-0.926470588235	1.925	-16.9125
1097	0.5485	68.5086956522	3.40588235294	0.5	8.45625
1098	0.549	64.2826086957	1.96176470588	7.625	-12.684375
1099	0.5495	48.7869565217	6.29411764706	-5.2	-8.45625
1100	0.55	33.2913043478	-8.14705882353	4.775	-9.865625
1101	0.5505	20.6130434783	-5.25882352941	3.35	-11.275
1102	0.551	5.11739130435	0.517647058824	1.925	-7.046875
1103	0.5515	2.3	0.517647058824	0.5	-7.046875
1104	0.552	-18.8304347826	4.85	0.5	-8.45625
1105	0.5525	-20.2391304348	3.40588235294	1.925	-1.409375
1106	0.553	-27.2826086957	4.85	4.775	-12.684375
1107	0.5535	-45.5956521739	3.40588235294	-3.775	-7.046875
1108	0.554	-61.0913043478	6.29411764706	-2.35	-7.046875
1109	0.5545	-59.6826086957	-8.14705882353	3.35	-7.046875
1110	0.555	-39.9608695652	10.6264705882	1.925	-4.228125
1111	0.5555	-17.4217391304	1.96176470588	0.5	-2.81875
1112	0.556	17.7956521739	-0.926470588235	-0.925	1.409375
1113	0.5565	-0.517391304348	1.96176470588	3.35	-14.09375
1114	0.557	26.247826087	6.29411764706	0.5	5.6375
1115	0.5575	38.9260869565	1.96176470588	3.35	-21.140625
1116	0.558	45.9695652174	3.40588235294	-2.35	-9.865625
1117	0.5585	50.1956521739	1.96176470588	14.75	-12.684375
1118	0.559	54.4217391304	-0.926470588235	-3.775	-9.865625
1119	0.5595	51.6043478261	0.517647058824	4.775	-14.09375
1120	0.56	37.5173913043	3.40588235294	6.2	-14.09375
1121	0.5605	58.647826087	4.85	0.5	-1.409375
1122	0.561	45.9695652174	0.517647058824	6.2	-12.684375
1123	0.5615	48.7869565217	0.517647058824	-10.9	2.81875
1124	0.562	43.152173913	0.517647058824	16.175	11.275
1125	0.5625	31.8826086957	1.96176470588	-10.9	22.55
1126	0.563	19.2043478261	-3.81470588235	17.6	23.959375
1127	0.5635	5.11739130435	16.4029411765	0.5	14.09375
1128	0.564	0.891304347826	-9.59117647059	-0.925	-4.228125
1129	0.5645	-6.15217391304	0.517647058824	-3.775	-8.45625
1130	0.565	-10.3782608696	1.96176470588	-2.35	-7.046875
1131	0.5655	-3.3347826087	3.40588235294	-10.9	-1.409375
1132	0.566	5.11739130435	3.40588235294	-8.05	2.81875
1133	0.5665	14.9782608696	4.85	-3.775	-7.046875
1134	0.567	17.7956521739	6.29411764706	-8.05	-15.503125
1135	0.5675	22.0217391304	22.1794117647	-9.475	-15.503125
1136	0.568	20.6130434783	0.517647058824	-9.475	-16.9125
1137	0.5685	19.2043478261	0.517647058824	-8.05	-19.73125
1138	0.569	37.5173913043	1.96176470588	-8.05	-23.959375
1139	0.5695	12.1608695652	0.517647058824	-6.625	-40.871875
1140	0.57	13.5695652174	3.40588235294	-12.325	-9.865625
1141	0.5705	3.70869565217	0.517647058824	4.775	-23.959375
1142	0.571	3.70869565217	0.517647058824	-18.025	-33.825
1143	0.5715	10.752173913	-0.926470588235	7.625	-43.690625
1144	0.572	13.5695652174	0.517647058824	-12.325	-43.690625
1145	0.5725	3.70869565217	-9.59117647059	-3.775	-36.64375
1146	0.573	-3.3347826087	0.517647058824	-2.35	-32.415625
1147	0.5735	-8.96956521739	3.40588235294	0.5	-22.55
1148	0.574	3.70869565217	1.96176470588	0.5	8.45625
1149	0.5745	2.3	1.96176470588	-2.35	-7.046875
1150	0.575	0.891304347826	3.40588235294	6.2	-8.45625
1151	0.5755	-4.74347826087	1.96176470588	0.5	-11.275
1152	0.576	-6.15217391304	10.6264705882	0.5	-8.45625
1153	0.5765	-7.56086956522	-3.81470588235	-2.35	-7.046875
1154	0.577	-0.517391304348	1.96176470588	-0.925	-16.9125
1155	0.5775	-11.7869565217	1.96176470588	-5.2	-29.596875
1156	0.578	3.70869565217	0.517647058824	-5.2	-31.00625
1157	0.5785	2.3	0.517647058824	-2.35	-47.91875
1158	0.579	-0.517391304348	-0.926470588235	-2.35	-33.825
1159	0.5795	-6.15217391304	-0.926470588235	-0.925	-38.053125
1160	0.58	-7.56086956522	-11.0352941176	-6.625	-35.234375
1161	0.5805	-3.3347826087	14.9588235294	-0.925	-35.234375
1162	0.581	2.3	-9.59117647059	-0.925	-36.64375
1163	0.5815	30.4739130435	-0.926470588235	-3.775	-42.28125
1164	0.582	9.34347826087	0.517647058824	-0.925	-47.91875
1165	0.5825	17.7956521739	0.517647058824	0.5	-31.00625
1166	0.583	16.3869565217	3.40588235294	6.2	-36.64375
1167	0.5835	14.9782608696	1.96176470588	-2.35	-25.36875
1168	0.584	14.9782608696	6.29411764706	-0.925	-23.959375
1169	0.5845	16.3869565217	0.517647058824	-0.925	-26.778125
1170	0.585	16.3869565217	-2.37058823529	-0.925	-26.778125
1171	0.5855	26.247826087	0.517647058824	-0.925	-33.825
1172	0.586	24.8391304348	4.85	-3.775	-36.64375
1173	0.5865	24.8391304348	0.517647058824	-3.775	-40.871875
1174	0.587	27.6565217391	0.517647058824	-0.925	-54.965625
1175	0.5875	24.8391304348	1.96176470588	-6.625	-47.91875
1176	0.588	22.0217391304	1.96176470588	-6.625	-49.328125
1177	0.5885	19.2043478261	-12.4794117647	-0.925	-40.871875
1178	0.589	17.7956521739	3.40588235294	-2.35	-39.4625
1179	0.5895	7.9347826087	0.517647058824	-2.35	-28.1875
1180	0.59	10.752173913	-2.37058823529	-0.925	-16.9125
1181	0.5905	5.11739130435	3.40588235294	0.5	-19.73125
1182	0.591	22.0217391304	1.96176470588	1.925	11.275
1183	0.5915	20.6130434783	1.96176470588	4.775	-8.45625
1184	0.592	19.2043478261	0.517647058824	-3.775	-18.321875
1185	0.5925	16.3869565217	0.517647058824	14.75	-26.778125
1186	0.593	10.752173913	-0.926470588235	-2.35	-25.36875
1187	0.5935	5.11739130435	-0.926470588235	-0.925	-21.140625
1188	0.594	13.5695652174	0.517647058824	0.5	-14.09375
1189	0.5945	-8.96956521739	0.517647058824	1.925	-15.503125
1190	0.595	-10.3782608696	0.517647058824	0.5	-26.778125
1191	0.5955	-14.6043478261	0.517647058824	1.925	-22.55
1192	0.596	-14.6043478261	0.517647058824	-0.925	-14.09375
1193	0.5965	-7.56086956522	-0.926470588235	-6.625	-12.684375
1194	0.597	0.891304347826	0.517647058824	19.025	-18.321875
1195	0.5975	9.34347826087	-12.4794117647	-0.925	-18.321875
1196	0.598	14.9782608696	17.8470588235	0.5	-12.684375
1197	0.5985	29.0652173913	3.40588235294	0.5	-11.275
1198	0.599	44.5608695652	4.85	3.35	1.409375
1199	0.5995	31.8826086957	4.85	3.35	-7.046875
1200	0.6	33.2913043478	4.85	-6.625	-15.503125
1201	0.6005	36.1086956522	3.40588235294	14.75	-15.503125
1202	0.601	36.1086956522	4.85	-0.925	-14.09375
1203	0.6015	31.8826086957	6.29411764706	4.775	-9.865625
1204	0.602	19.2043478261	0.517647058824	1.925	-5.6375
1205	0.6025	13.5695652174	3.40588235294	1.925	-4.228125
1206	0.603	0.891304347826	4.85	1.925	-5.6375
1207	0.6035	22.0217391304	0.517647058824	-0.925	-4.228125
1208	0.604	-4.74347826087	0.517647058824	-0.925	-16.9125
1209	0.6045	-6.15217391304	1.96176470588	-12.325	-7.046875
1210	0.605	-3.3347826087	1.96176470588	16.175	-5.6375
1211	0.6055	-4.74347826087	-9.59117647059	1.925	-5.6375
1212	0.606	-13.1956521739	14.9588235294	1.925	-1.409375
1213	0.6065	-62.5	-8.14705882353	0.5	-1.409375
1214	0.607	-116.030434783	4.85	4.775	-1.409375
1215	0.6075	-111.804347826	1.96176470588	6.2	4.228125
1216	0.608	-121.665217391	4.85	4.775	2.81875
1217	0.6085	-94.9	4.85	16.175	4.228125
1218	0.609	-79.4043478261	6.29411764706	1.925	4.228125
1219	0.6095	-61.0913043478	0.517647058824	24.725	14.09375
1220	0.61	-35.7347826087	-11.0352941176	9.05	22.55
1221	0.6105	-21.647826087	-2.37058823529	7.625	25.36875
1222	0.611	-0.517391304348	-0.926470588235	4.775	18.321875
1223	0.6115	-4.74347826087	0.517647058824	3.35	18.321875
1224	0.612	2.3	0.517647058824	1.925	32.415625
1225	0.6125	-32.9173913043	-0.926470588235	11.9	15.503125
1226	0.613	-62.5	1.96176470588	-6.625	12.684375
1227	0.6135	-72.3608695652	-2.37058823529	0.5	11.275
1228	0.614	-90.6739130435	-11.0352941176	4.775	9.865625
1229	0.6145	-110.395652174	14.9588235294	-0.925	7.046875
1230	0.615	-108.986956522	-2.37058823529	-0.925	8.45625
1231	0.6155	-73.7695652174	1.96176470588	7.625	12.684375
1232	0.616	-45.5956521739	6.29411764706	7.625	2.81875
1233	0.6165	-8.96956521739	1.96176470588	6.2	33.825
1234	0.617	22.0217391304	6.29411764706	9.05	40.871875
1235	0.6175	38.9260869565	3.40588235294	-0.925	50.7375
1236	0.618	61.4652173913	1.96176470588	19.025	46.509375
1237	0.6185	84.0043478261	7.73823529412	11.9	39.4625
1238	0.619	105.134782609	17.8470588235	6.2	35.234375
1239	0.6195	114.995652174	0.517647058824	6.2	32.415625
1240	0.62	103.726086957	0.517647058824	3.35	32.415625
1241	0.6205	113.586956522	-0.926470588235	0.5	35.234375
1242	0.621	88.2304347826	1.96176470588	3.35	22.55
1243	0.6215	86.8217391304	-0.926470588235	-9.475	35.234375
1244	0.622	82.5956521739	0.517647058824	21.875	38.053125
1245	0.6225	75.552173913	-2.37058823529	-5.2	40.871875
1246	0.623	69.9173913043	0.517647058824	20.45	43.690625
1247	0.6235	64.2826086957	19.2911764706	1.925	47.91875
1248	0.624	34.7	-3.81470588235	4.775	45.1
1249	0.6245	-17.4217391304	3.40588235294	1.925	40.871875
1250	0.625	-77.9956521739	1.96176470588	10.475	31.00625
1251	0.6255	-92.0826086957	3.40588235294	1.925	57.784375
1252	0.626	-86.447826087	0.517647058824	6.2	39.4625
1253	0.6265	-72.3608695652	3.40588235294	-10.9	46.509375
1254	0.627	-54.047826087	0.517647058824	3.35	46.509375
1255	0.6275	-28.6913043478	-5.25882352941	-0.925	45.1
1256	0.628	-1.92608695652	23.6235294118	0.5	43.690625
1257	0.6285	26.247826087	-8.14705882353	-0.925	45.1
1258	0.629	45.9695652174	-2.37058823529	-0.925	43.690625
1259	0.6295	79.7782608696	-0.926470588235	-2.35	43.690625
1260	0.63	72.7347826087	1.96176470588	-3.775	47.91875
1261	0.6305	67.1	-0.926470588235	-6.625	33.825
1262	0.631	61.4652173913	1.96176470588	3.35	43.690625
1263	0.6315	61.4652173913	1.96176470588	-0.925	43.690625
1264	0.632	71.3260869565	-5.25882352941	-0.925	45.1
1265	0.6325	78.3695652174	17.8470588235	4.775	46.509375
1266	0.633	72.7347826087	-2.37058823529	9.05	46.509375
1267	0.6335	82.5956521739	3.40588235294	4.775	49.328125
1268	0.634	40.3347826087	4.85	-0.925	39.4625
1269	0.6345	22.0217391304	1.96176470588	-2.35	45.1
1270	0.635	9.34347826087	1.96176470588	1.925	32.415625
1271	0.6355	2.3	4.85	-10.9	43.690625
1272	0.636	3.70869565217	4.85	14.75	40.871875
1273	0.6365	-4.74347826087	6.29411764706	-5.2	38.053125
1274	0.637	-8.96956521739	-6.70294117647	1.925	40.871875
1275	0.6375	-6.15217391304	0.517647058824	-3.775	40.871875
1276	0.638	-14.6043478261	-2.37058823529	-0.925	38.053125
1277	0.6385	10.752173913	-0.926470588235	-2.35	43.690625
1278	0.639	-27.2826086957	0.517647058824	-0.925	33.825
1279	0.6395	-62.5	0.517647058824	-0.925	53.55625
1280	0.64	-83.6304347826	3.40588235294	0.5	28.1875
1281	0.6405	-80.8130434783	4.85	-0.925	38.053125
1282	0.641	-63.9086956522	20.7352941176	-0.925	40.871875
1283	0.6415	-47.0043478261	-5.25882352941	-2.35	36.64375
1284	0.642	-34.3260869565	3.40588235294	-2.35	36.64375
1285	0.6425	-1.92608695652	4.85	-0.925	38.053125
1286	0.643	-11.7869565217	4.85	1.925	29.596875
1287	0.6435	14.9782608696	4.85	-2.35	50.7375
1288	0.644	23.4304347826	3.40588235294	4.775	42.28125
1289	0.6445	36.1086956522	6.29411764706	-3.775	38.053125
1290	0.645	23.4304347826	-8.14705882353	-0.925	35.234375
1291	0.6455	-44.1869565217	9.18235294118	-2.35	35.234375
1292	0.646	-101.943478261	-2.37058823529	-2.35	33.825
1293	0.6465	-125.891304348	-0.926470588235	-2.35	32.415625
1294	0.647	-94.9	0.517647058824	-5.2	33.825
1295	0.6475	-72.3608695652	-2.37058823529	-2.35	31.00625
1296	0.648	-51.2304347826	0.517647058824	-2.35	28.1875
1297	0.6485	-35.7347826087	0.517647058824	-2.35	52.146875
1298	0.649	-11.7869565217	6.29411764706	1.925	40.871875
1299	0.6495	14.9782608696	0.517647058824	-0.925	39.4625
1300	0.65	34.7	14.9588235294	3.35	36.64375
1301	0.6505	48.7869565217	0.517647058824	1.925	32.415625
1302	0.651	75.552173913	3.40588235294	0.5	36.64375
1303	0.6515	60.0565217391	1.96176470588	-0.925	23.959375
1304	0.652	75.552173913	3.40588235294	-2.35	31.00625
1305	0.6525	76.9608695652	4.85	-6.625	26.778125
1306	0.653	75.552173913	3.40588235294	-0.925	40.871875
1307	0.6535	74.1434782609	3.40588235294	-5.2	31.00625
1308	0.654	71.3260869565	-9.59117647059	-6.625	28.1875
1309	0.6545	64.2826086957	-6.70294117647	-3.775	32.415625
1310	0.655	54.4217391304	-5.25882352941	-5.2	31.00625
1311	0.6555	57.2391304348	-5.25882352941	-6.625	26.778125
1312	0.656	51.6043478261	0.517647058824	-2.35	16.9125
1313	0.6565	62.8739130435	0.517647058824	-8.05	39.4625
1314	0.657	69.9173913043	4.85	0.5	19.73125
1315	0.6575	64.2826086957	6.29411764706	-8.05	32.415625
1316	0.658	60.0565217391	0.517647058824	-0.925	29.596875
1317	0.6585	43.152173913	0.517647058824	-6.625	29.596875
1318	0.659	-16.0130434783	-3.81470588235	-0.925	29.596875
1319	0.6595	-76.5869565217	3.40588235294	-2.35	29.596875
1320	0.66	-80.8130434783	1.96176470588	0.5	28.1875
1321	0.6605	-87.8565217391	6.29411764706	6.2	26.778125
1322	0.661	-66.7260869565	3.40588235294	0.5	40.871875
1323	0.6615	-38.552173913	1.96176470588	21.875	23.959375
1324	0.662	-7.56086956522	-0.926470588235	-0.925	21.140625
1325	0.6625	22.0217391304	1.96176470588	7.625	18.321875
1326	0.663	36.1086956522	-12.4794117647	6.2	16.9125
1327	0.6635	41.7434782609	16.4029411765	4.775	19.73125
1328	0.664	38.9260869565	-0.926470588235	4.775	16.9125
1329	0.6645	71.3260869565	0.517647058824	3.35	19.73125
1330	0.665	53.0130434783	0.517647058824	4.775	18.321875
1331	0.6655	53.0130434783	3.40588235294	4.775	21.140625
1332	0.666	43.152173913	3.40588235294	16.175	18.321875
1333	0.6665	33.2913043478	0.517647058824	9.05	18.321875
1334	0.667	30.4739130435	7.73823529412	6.2	15.503125
1335	0.6675	40.3347826087	-5.25882352941	-5.2	15.503125
1336	0.668	48.7869565217	0.517647058824	-6.625	15.503125
1337	0.6685	41.7434782609	6.29411764706	-8.05	15.503125
1338	0.669	58.647826087	4.85	-13.75	14.09375
1339	0.6695	41.7434782609	3.40588235294	-12.325	7.046875
1340	0.67	30.4739130435	0.517647058824	-25.15	5.6375
1341	0.6705	12.1608695652	3.40588235294	-2.35	5.6375
1342	0.671	0.891304347826	-3.81470588235	-23.725	11.275
1343	0.6715	-4.74347826087	6.29411764706	-26.575	12.684375
1344	0.672	-6.15217391304	16.4029411765	-30.85	21.140625
1345	0.6725	-16.0130434783	-3.81470588235	-32.275	19.73125
1346	0.673	-16.0130434783	0.517647058824	-32.275	18.321875
1347	0.6735	-0.517391304348	0.517647058824	-28.0	25.36875
1348	0.674	-30.1	6.29411764706	-20.875	11.275
1349	0.6745	-27.2826086957	4.85	-25.15	40.871875
1350	0.675	-34.3260869565	6.29411764706	-5.2	21.140625
1351	0.6755	-39.9608695652	3.40588235294	-28.0	19.73125
1352	0.676	-45.5956521739	1.96176470588	-22.3	19.73125
1353	0.6765	-44.1869565217	13.5147058824	-23.725	22.55
1354	0.677	-41.3695652174	3.40588235294	-19.45	23.959375
1355	0.6775	-44.1869565217	6.29411764706	-18.025	22.55
1356	0.678	-28.6913043478	3.40588235294	-12.325	18.321875
1357	0.6785	-34.3260869565	0.517647058824	-10.9	23.959375
1358	0.679	-27.2826086957	0.517647058824	-0.925	19.73125
1359	0.6795	-25.8739130435	-0.926470588235	-22.3	15.503125
1360	0.68	-21.647826087	-2.37058823529	3.35	16.9125
1361	0.6805	-16.0130434783	3.40588235294	-9.475	15.503125
1362	0.681	-14.6043478261	-11.0352941176	-5.2	18.321875
1363	0.6815	-8.96956521739	0.517647058824	-8.05	16.9125
1364	0.682	-13.1956521739	1.96176470588	-3.775	18.321875
1365	0.6825	14.9782608696	1.96176470588	-3.775	15.503125
1366	0.683	-6.15217391304	3.40588235294	-10.9	7.046875
1367	0.6835	-4.74347826087	0.517647058824	-3.775	26.778125
1368	0.684	-1.92608695652	4.85	-6.625	11.275
1369	0.6845	-0.517391304348	-2.37058823529	-3.775	15.503125
1370	0.685	3.70869565217	3.40588235294	-6.625	8.45625
1371	0.6855	3.70869565217	14.9588235294	-6.625	11.275
1372	0.686	-1.92608695652	-6.70294117647	-5.2	8.45625
1373	0.6865	9.34347826087	0.517647058824	-10.9	8.45625
1374	0.687	-11.7869565217	-2.37058823529	-12.325	1.409375
1375	0.6875	-4.74347826087	0.517647058824	-12.325	29.596875
1376	0.688	-0.517391304348	-2.37058823529	-5.2	2.81875
1377	0.6885	0.891304347826	0.517647058824	-12.325	14.09375
1378	0.689	0.891304347826	-2.37058823529	-5.2	15.503125
1379	0.6895	0.891304347826	-5.25882352941	0.5	14.09375
1380	0.69	0.891304347826	-6.70294117647	-2.35	19.73125
1381	0.6905	-4.74347826087	0.517647058824	-0.925	29.596875
1382	0.691	24.8391304348	3.40588235294	0.5	39.4625
1383	0.6915	16.3869565217	4.85	4.775	21.140625
1384	0.692	16.3869565217	3.40588235294	-10.9	26.778125
1385	0.6925	17.7956521739	1.96176470588	11.9	26.778125
1386	0.693	16.3869565217	0.517647058824	-12.325	22.55
1387	0.6935	12.1608695652	1.96176470588	-8.05	18.321875
1388	0.694	5.11739130435	3.40588235294	-3.775	15.503125
1389	0.6945	10.752173913	-3.81470588235	-3.775	16.9125
1390	0.695	-3.3347826087	-0.926470588235	-3.775	16.9125
1391	0.6955	7.9347826087	0.517647058824	-5.2	21.140625
1392	0.696	10.752173913	-2.37058823529	-0.925	18.321875
1393	0.6965	9.34347826087	-0.926470588235	19.025	12.684375
1394	0.697	7.9347826087	-0.926470588235	-9.475	7.046875
1395	0.6975	2.3	-6.70294117647	-3.775	0.0
1396	0.698	7.9347826087	-8.14705882353	-6.625	-2.81875
1397	0.6985	7.9347826087	0.517647058824	0.5	-2.81875
1398	0.699	-11.7869565217	1.96176470588	7.625	-1.409375
1399	0.6995	17.7956521739	3.40588235294	14.75	2.81875
1400	0.7	-11.7869565217	4.85	16.175	-1.409375
1401	0.7005	0.891304347826	1.96176470588	1.925	7.046875
1402	0.701	3.70869565217	1.96176470588	24.725	15.503125
1403	0.7015	3.70869565217	-0.926470588235	-0.925	21.140625
1404	0.702	-0.517391304348	-2.37058823529	7.625	18.321875
1405	0.7025	-0.517391304348	3.40588235294	-0.925	14.09375
1406	0.703	3.70869565217	-3.81470588235	4.775	11.275
1407	0.7035	-6.15217391304	3.40588235294	3.35	5.6375
1408	0.704	10.752173913	-0.926470588235	1.925	-1.409375
1409	0.7045	0.891304347826	-3.81470588235	6.2	2.81875
1410	0.705	3.70869565217	-0.926470588235	-2.35	-2.81875
1411	0.7055	3.70869565217	-2.37058823529	13.325	4.228125
1412	0.706	7.9347826087	-2.37058823529	11.9	5.6375
1413	0.7065	9.34347826087	-12.4794117647	9.05	5.6375
1414	0.707	12.1608695652	-6.70294117647	11.9	4.228125
1415	0.7075	3.70869565217	-5.25882352941	13.325	4.228125
1416	0.708	-0.517391304348	1.96176470588	16.175	2.81875
1417	0.7085	-63.9086956522	0.517647058824	14.75	0.0
1418	0.709	-79.4043478261	0.517647058824	14.75	8.45625
1419	0.7095	-79.4043478261	3.40588235294	4.775	1.409375
1420	0.71	-66.7260869565	3.40588235294	21.875	4.228125
1421	0.7105	-52.6391304348	6.29411764706	6.2	4.228125
1422	0.711	-35.7347826087	-6.70294117647	13.325	1.409375
1423	0.7115	-16.0130434783	20.7352941176	13.325	-1.409375
1424	0.712	-4.74347826087	-2.37058823529	9.05	-5.6375
1425	0.7125	38.9260869565	-5.25882352941	9.05	-4.228125
1426	0.713	27.6565217391	-3.81470588235	11.9	-5.6375
1427	0.7135	45.9695652174	-6.70294117647	13.325	-2.81875
1428	0.714	47.3782608696	-2.37058823529	14.75	-2.81875
1429	0.7145	47.3782608696	-2.37058823529	11.9	-4.228125
1430	0.715	51.6043478261	0.517647058824	20.45	-4.228125
1431	0.7155	58.647826087	-5.25882352941	19.025	-4.228125
1432	0.716	64.2826086957	-2.37058823529	19.025	-7.046875
1433	0.7165	43.152173913	1.96176470588	20.45	-7.046875
1434	0.717	61.4652173913	1.96176470588	14.75	-4.228125
1435	0.7175	23.4304347826	0.517647058824	16.175	-7.046875
1436	0.718	23.4304347826	1.96176470588	9.05	0.0
1437	0.7185	14.9782608696	0.517647058824	24.725	-1.409375
1438	0.719	13.5695652174	0.517647058824	6.2	-2.81875
1439	0.7195	13.5695652174	-8.14705882353	13.325	-7.046875
1440	0.72	12.1608695652	7.73823529412	10.475	-12.684375
1441	0.7205	16.3869565217	-12.4794117647	11.9	-15.503125
1442	0.721	0.891304347826	-2.37058823529	9.05	-14.09375
1443	0.7215	26.247826087	-3.81470588235	14.75	-11.275
1444	0.722	10.752173913	-5.25882352941	14.75	-15.503125
1445	0.7225	13.5695652174	-3.81470588235	-0.925	-15.503125
1446	0.723	10.752173913	-6.70294117647	26.15	-14.09375
1447	0.7235	12.1608695652	0.517647058824	-0.925	-12.684375
1448	0.724	14.9782608696	-0.926470588235	27.575	-4.228125
1449	0.7245	19.2043478261	17.8470588235	13.325	-7.046875
1450	0.725	16.3869565217	-5.25882352941	9.05	-8.45625
1451	0.7255	22.0217391304	1.96176470588	14.75	-7.046875
1452	0.726	12.1608695652	0.517647058824	11.9	-11.275
1453	0.7265	36.1086956522	-0.926470588235	13.325	-12.684375
1454	0.727	19.2043478261	0.517647058824	11.9	-21.140625
1455	0.7275	23.4304347826	0.517647058824	9.05	2.81875
1456	0.728	26.247826087	1.96176470588	11.9	-9.865625
1457	0.7285	26.247826087	-2.37058823529	13.325	-9.865625
1458	0.729	29.0652173913	9.18235294118	10.475	-11.275
1459	0.7295	26.247826087	-11.0352941176	14.75	-14.09375
1460	0.73	30.4739130435	-3.81470588235	13.325	-21.140625
1461	0.7305	22.0217391304	-2.37058823529	14.75	-32.415625
1462	0.731	17.7956521739	-5.25882352941	11.9	-15.503125
1463	0.7315	17.7956521739	-3.81470588235	16.175	-25.36875
1464	0.732	22.0217391304	0.517647058824	6.2	-31.00625
1465	0.7325	22.0217391304	3.40588235294	19.025	-35.234375
1466	0.733	16.3869565217	-9.59117647059	17.6	-31.00625
1467	0.7335	5.11739130435	22.1794117647	17.6	-23.959375
1468	0.734	0.891304347826	-5.25882352941	17.6	-16.9125
1469	0.7345	-7.56086956522	0.517647058824	16.175	-11.275
1470	0.735	-14.6043478261	-0.926470588235	19.025	-7.046875
1471	0.7355	-16.0130434783	0.517647058824	17.6	-7.046875
1472	0.736	-10.3782608696	1.96176470588	20.45	-15.503125
1473	0.7365	-13.1956521739	0.517647058824	26.15	-16.9125
1474	0.737	-16.0130434783	-2.37058823529	4.775	-23.959375
1475	0.7375	-14.6043478261	-3.81470588235	21.875	-29.596875
1476	0.738	-13.1956521739	0.517647058824	14.75	-26.778125
1477	0.7385	-7.56086956522	-5.25882352941	11.9	-25.36875
1478	0.739	-18.8304347826	-11.0352941176	10.475	-19.73125
1479	0.7395	3.70869565217	-0.926470588235	9.05	-14.09375
1480	0.74	-0.517391304348	-0.926470588235	16.175	-18.321875
1481	0.7405	5.11739130435	0.517647058824	-0.925	-19.73125
1482	0.741	3.70869565217	1.96176470588	20.45	-21.140625
1483	0.7415	5.11739130435	0.517647058824	19.025	-23.959375
1484	0.742	10.752173913	0.517647058824	14.75	-26.778125
1485	0.7425	10.752173913	0.517647058824	14.75	-25.36875
1486	0.743	12.1608695652	-8.14705882353	16.175	-23.959375
1487	0.7435	2.3	-0.926470588235	11.9	-21.140625
1488	0.744	14.9782608696	-3.81470588235	7.625	-19.73125
1489	0.7445	7.9347826087	-2.37058823529	7.625	-19.73125
1490	0.745	3.70869565217	0.517647058824	-3.775	-26.778125
1491	0.7455	5.11739130435	-2.37058823529	13.325	-23.959375
1492	0.746	7.9347826087	-0.926470588235	-0.925	-19.73125
1493	0.7465	9.34347826087	-12.4794117647	13.325	-21.140625
1494	0.747	6.52608695652	14.9588235294	13.325	-19.73125
1495	0.7475	-1.92608695652	-9.59117647059	11.9	-21.140625
1496	0.748	-8.96956521739	-0.926470588235	13.325	-22.55
1497	0.7485	-21.647826087	0.517647058824	20.45	-25.36875
1498	0.749	-6.15217391304	1.96176470588	19.025	-8.45625
1499	0.7495	0.891304347826	0.517647058824	23.3	-33.825
1500	0.75	2.3	1.96176470588	21.875	-8.45625
1501	0.7505	10.752173913	4.85	37.55	-22.55
1502	0.751	12.1608695652	4.85	23.3	-21.140625
1503	0.7515	16.3869565217	-3.81470588235	23.3	-16.9125
1504	0.752	20.6130434783	17.8470588235	21.875	-19.73125
1505	0.7525	22.0217391304	-6.70294117647	21.875	-21.140625
1506	0.753	40.3347826087	1.96176470588	20.45	-22.55
1507	0.7535	14.9782608696	-0.926470588235	16.175	-26.778125
1508	0.754	22.0217391304	-2.37058823529	17.6	-22.55
1509	0.7545	19.2043478261	-0.926470588235	16.175	-28.1875
1510	0.755	20.6130434783	-0.926470588235	7.625	-25.36875
1511	0.7555	20.6130434783	-2.37058823529	27.575	-32.415625
1512	0.756	16.3869565217	-9.59117647059	11.9	-42.28125
1513	0.7565	12.1608695652	-0.926470588235	13.325	-45.1
1514	0.757	-1.92608695652	1.96176470588	17.6	-45.1
1515	0.7575	3.70869565217	4.85	17.6	-39.4625
1516	0.758	5.11739130435	0.517647058824	16.175	-29.596875
1517	0.7585	-6.15217391304	1.96176470588	13.325	-19.73125
1518	0.759	3.70869565217	0.517647058824	3.35	-18.321875
1519	0.7595	-0.517391304348	-0.926470588235	13.325	-19.73125
1520	0.76	0.891304347826	-0.926470588235	13.325	-21.140625
1521	0.7605	-0.517391304348	-12.4794117647	13.325	-12.684375
1522	0.761	5.11739130435	17.8470588235	7.625	-9.865625
1523	0.7615	-0.517391304348	-6.70294117647	9.05	-9.865625
1524	0.762	7.9347826087	-2.37058823529	9.05	-14.09375
1525	0.7625	-3.3347826087	-2.37058823529	9.05	-14.09375
1526	0.763	-3.3347826087	-0.926470588235	9.05	2.81875
1527	0.7635	-0.517391304348	-2.37058823529	11.9	11.275
1528	0.764	-20.2391304348	-5.25882352941	20.45	8.45625
1529	0.7645	-65.3173913043	-2.37058823529	9.05	-7.046875
1530	0.765	-104.760869565	-8.14705882353	13.325	-18.321875
1531	0.7655	-104.760869565	1.96176470588	13.325	-18.321875
1532	0.766	-87.8565217391	3.40588235294	14.75	-14.09375
1533	0.7665	-83.6304347826	3.40588235294	16.175	-9.865625
1534	0.767	-49.8217391304	3.40588235294	17.6	7.046875
1535	0.7675	-62.5	1.96176470588	20.45	8.45625
1536	0.768	-51.2304347826	1.96176470588	14.75	23.959375
1537	0.7685	-30.1	1.96176470588	34.7	-4.228125
1538	0.769	-6.15217391304	1.96176470588	7.625	-12.684375
1539	0.7695	12.1608695652	-8.14705882353	19.025	-16.9125
1540	0.77	24.8391304348	20.7352941176	19.025	-18.321875
1541	0.7705	33.2913043478	-12.4794117647	19.025	-18.321875
1542	0.771	57.2391304348	-3.81470588235	19.025	-14.09375
1543	0.7715	57.2391304348	-2.37058823529	17.6	-18.321875
1544	0.772	76.9608695652	-0.926470588235	16.175	1.409375
1545	0.7725	74.1434782609	0.517647058824	16.175	-25.36875
1546	0.773	61.4652173913	-2.37058823529	6.2	-15.503125
1547	0.7735	50.1956521739	0.517647058824	14.75	-23.959375
1548	0.774	43.152173913	0.517647058824	11.9	-14.09375
1549	0.7745	31.8826086957	-2.37058823529	14.75	-5.6375
1550	0.775	33.2913043478	16.4029411765	16.175	1.409375
1551	0.7755	30.4739130435	-8.14705882353	19.025	11.275
1552	0.776	34.7	0.517647058824	16.175	1.409375
1553	0.7765	22.0217391304	3.40588235294	13.325	15.503125
1554	0.777	17.7956521739	0.517647058824	16.175	-11.275
1555	0.7775	14.9782608696	-2.37058823529	14.75	1.409375
1556	0.778	9.34347826087	0.517647058824	14.75	-7.046875
1557	0.7785	7.9347826087	1.96176470588	14.75	-1.409375
1558	0.779	2.3	-12.4794117647	16.175	-2.81875
1559	0.7795	5.11739130435	14.9588235294	14.75	-5.6375
1560	0.78	-7.56086956522	-2.37058823529	16.175	-11.275
1561	0.7805	24.8391304348	-0.926470588235	19.025	-8.45625
1562	0.781	-3.3347826087	-2.37058823529	19.025	-28.1875
1563	0.7815	0.891304347826	-0.926470588235	17.6	-11.275
1564	0.782	3.70869565217	1.96176470588	38.975	-25.36875
1565	0.7825	3.70869565217	0.517647058824	17.6	-22.55
1566	0.783	7.9347826087	6.29411764706	20.45	-29.596875
1567	0.7835	9.34347826087	0.517647058824	14.75	-32.415625
1568	0.784	9.34347826087	-5.25882352941	20.45	-31.00625
1569	0.7845	12.1608695652	-0.926470588235	16.175	-26.778125
1570	0.785	3.70869565217	0.517647058824	14.75	-21.140625
1571	0.7855	7.9347826087	0.517647058824	16.175	-5.6375
1572	0.786	10.752173913	-2.37058823529	13.325	-23.959375
1573	0.7865	10.752173913	-0.926470588235	16.175	-8.45625
1574	0.787	5.11739130435	0.517647058824	26.15	-15.503125
1575	0.7875	6.52608695652	-2.37058823529	6.2	12.684375
1576	0.788	9.34347826087	-6.70294117647	9.05	26.778125
1577	0.7885	7.9347826087	6.29411764706	11.9	23.959375
1578	0.789	9.34347826087	-11.0352941176	9.05	31.00625
1579	0.7895	3.70869565217	-0.926470588235	13.325	56.375
1580	0.79	-1.92608695652	0.517647058824	14.75	57.784375
1581	0.7905	7.9347826087	1.96176470588	14.75	43.690625
1582	0.791	14.9782608696	3.40588235294	14.75	2.81875
1583	0.7915	23.4304347826	1.96176470588	11.9	2.81875
1584	0.792	27.6565217391	1.96176470588	16.175	-16.9125
1585	0.7925	30.4739130435	-8.14705882353	16.175	-15.503125
1586	0.793	33.2913043478	17.8470588235	16.175	-9.865625
1587	0.7935	31.8826086957	-12.4794117647	14.75	-4.228125
1588	0.794	19.2043478261	0.517647058824	13.325	-2.81875
1589	0.7945	43.152173913	1.96176470588	13.325	0.0
1590	0.795	24.8391304348	-0.926470588235	9.05	-14.09375
1591	0.7955	30.4739130435	-0.926470588235	-2.35	-8.45625
1592	0.796	30.4739130435	-3.81470588235	6.2	-4.228125
1593	0.7965	30.4739130435	-0.926470588235	-0.925	-4.228125
1594	0.797	20.6130434783	-8.14705882353	4.775	7.046875
1595	0.7975	14.9782608696	-0.926470588235	7.625	11.275
1596	0.798	-3.3347826087	7.73823529412	4.775	8.45625
1597	0.7985	-4.74347826087	-6.70294117647	9.05	4.228125
1598	0.799	7.9347826087	0.517647058824	13.325	7.046875
1599	0.7995	-16.0130434783	1.96176470588	9.05	12.684375
1600	0.8	-8.96956521739	1.96176470588	11.9	22.55
1601	0.8005	-14.6043478261	1.96176470588	23.3	14.09375
1602	0.801	-14.6043478261	3.40588235294	1.925	-1.409375
1603	0.8015	-14.6043478261	-0.926470588235	23.3	-2.81875
1604	0.802	-11.7869565217	4.85	14.75	0.0
1605	0.8025	-11.7869565217	0.517647058824	14.75	4.228125
1606	0.803	-6.15217391304	-2.37058823529	13.325	7.046875
1607	0.8035	-17.4217391304	-0.926470588235	11.9	7.046875
1608	0.804	-14.6043478261	-2.37058823529	14.75	2.81875
1609	0.8045	-4.74347826087	-3.81470588235	11.9	25.36875
1610	0.805	-3.3347826087	-2.37058823529	17.6	0.0
1611	0.8055	-4.74347826087	0.517647058824	4.775	11.275
1612	0.806	0.891304347826	-5.25882352941	14.75	7.046875
1613	0.8065	3.70869565217	-15.3676470588	14.75	4.228125
1614	0.807	13.5695652174	9.18235294118	17.6	4.228125
1615	0.8075	17.7956521739	10.6264705882	19.025	8.45625
1616	0.808	23.4304347826	1.96176470588	14.75	9.865625
1617	0.8085	33.2913043478	6.29411764706	14.75	18.321875
1618	0.809	14.9782608696	1.96176470588	9.05	14.09375
1619	0.8095	24.8391304348	1.96176470588	9.05	15.503125
1620	0.81	17.7956521739	-2.37058823529	20.45	8.45625
1621	0.8105	-16.0130434783	4.85	-8.05	8.45625
1622	0.811	-47.0043478261	-2.37058823529	4.775	14.09375
1623	0.8115	-61.0913043478	3.40588235294	-5.2	12.684375
1624	0.812	-59.6826086957	-9.59117647059	-6.625	8.45625
1625	0.8125	-59.6826086957	-0.926470588235	-8.05	11.275
1626	0.813	-42.7782608696	-3.81470588235	-10.9	8.45625
1627	0.8135	-34.3260869565	-2.37058823529	-10.9	5.6375
1628	0.814	-18.8304347826	-3.81470588235	-13.75	4.228125
1629	0.8145	10.752173913	-0.926470588235	-15.175	28.1875
1630	0.815	36.1086956522	0.517647058824	-12.325	4.228125
1631	0.8155	51.6043478261	1.96176470588	-25.15	8.45625
1632	0.816	53.0130434783	0.517647058824	0.5	14.09375
1633	0.8165	54.4217391304	14.9588235294	-12.325	11.275
1634	0.817	55.8304347826	0.517647058824	-10.9	7.046875
1635	0.8175	68.5086956522	-6.70294117647	-10.9	5.6375
1636	0.818	72.7347826087	0.517647058824	-8.05	0.0
1637	0.8185	55.8304347826	0.517647058824	-8.05	4.228125
1638	0.819	44.5608695652	0.517647058824	-6.625	15.503125
1639	0.8195	27.6565217391	0.517647058824	-3.775	1.409375
1640	0.82	10.752173913	1.96176470588	-16.6	12.684375
1641	0.8205	-0.517391304348	-5.25882352941	4.775	4.228125
1642	0.821	-0.517391304348	-0.926470588235	-12.325	1.409375
1643	0.8215	2.3	-9.59117647059	-10.9	4.228125
1644	0.822	10.752173913	-5.25882352941	-9.475	0.0
1645	0.8225	-8.96956521739	-0.926470588235	-8.05	-1.409375
1646	0.823	9.34347826087	-3.81470588235	-9.475	1.409375
1647	0.8235	-11.7869565217	0.517647058824	-0.925	-4.228125
1648	0.824	-6.15217391304	1.96176470588	-6.625	8.45625
1649	0.8245	0.891304347826	0.517647058824	-2.35	2.81875
1650	0.825	5.11739130435	-0.926470588235	-0.925	4.228125
1651	0.8255	5.11739130435	4.85	-12.325	11.275
1652	0.826	3.70869565217	6.29411764706	-2.35	4.228125
1653	0.8265	3.70869565217	-6.70294117647	-0.925	5.6375
1654	0.827	3.70869565217	-5.25882352941	-2.35	5.6375
1655	0.8275	12.1608695652	0.517647058824	-0.925	2.81875
1656	0.828	10.752173913	-2.37058823529	-3.775	11.275
1657	0.8285	14.9782608696	-0.926470588235	0.5	-2.81875
1658	0.829	16.3869565217	-5.25882352941	-6.625	-4.228125
1659	0.8295	13.5695652174	-2.37058823529	9.05	-4.228125
1660	0.83	16.3869565217	-9.59117647059	6.2	-8.45625
1661	0.8305	14.9782608696	-3.81470588235	11.9	-8.45625
1662	0.831	3.70869565217	9.18235294118	7.625	-8.45625
1663	0.8315	-4.74347826087	-6.70294117647	6.2	-7.046875
1664	0.832	-21.647826087	0.517647058824	7.625	-9.865625
1665	0.8325	9.34347826087	0.517647058824	7.625	-7.046875
1666	0.833	-16.0130434783	1.96176470588	7.625	-23.959375
1667	0.8335	-0.517391304348	4.85	-6.625	-15.503125
1668	0.834	3.70869565217	6.29411764706	20.45	-16.9125
1669	0.8345	2.3	0.517647058824	1.925	-19.73125
1670	0.835	0.891304347826	6.29411764706	0.5	-21.140625
1671	0.8355	-0.517391304348	0.517647058824	4.775	-15.503125
1672	0.836	-6.15217391304	-2.37058823529	4.775	-15.503125
1673	0.8365	-0.517391304348	4.85	1.925	-19.73125
1674	0.837	-11.7869565217	0.517647058824	-0.925	-19.73125
1675	0.8375	-10.3782608696	0.517647058824	3.35	-18.321875
1676	0.838	-4.74347826087	-0.926470588235	0.5	-7.046875
1677	0.8385	-3.3347826087	-0.926470588235	1.925	-19.73125
1678	0.839	-1.92608695652	-2.37058823529	16.175	-19.73125
1679	0.8395	-3.3347826087	-0.926470588235	-5.2	-11.275
1680	0.84	-1.92608695652	-0.926470588235	1.925	1.409375
1681	0.8405	2.3	17.8470588235	6.2	9.865625
1682	0.841	3.70869565217	1.96176470588	7.625	2.81875
1683	0.8415	12.1608695652	0.517647058824	9.05	-4.228125
1684	0.842	-0.517391304348	3.40588235294	11.9	-16.9125
1685	0.8425	7.9347826087	0.517647058824	4.775	0.0
1686	0.843	9.34347826087	-2.37058823529	9.05	-19.73125
1687	0.8435	12.1608695652	-2.37058823529	11.9	-31.00625
1688	0.844	13.5695652174	-0.926470588235	20.45	-31.00625
1689	0.8445	12.1608695652	4.85	14.75	-40.871875
1690	0.845	7.9347826087	-0.926470588235	11.9	-40.871875
1691	0.8455	13.5695652174	-6.70294117647	11.9	-43.690625
1692	0.846	-3.3347826087	-2.37058823529	17.6	-43.690625
1693	0.8465	20.6130434783	-2.37058823529	16.175	-36.64375
1694	0.847	0.891304347826	-2.37058823529	17.6	-39.4625
1695	0.8475	-4.74347826087	-3.81470588235	11.9	-21.140625
1696	0.848	-16.0130434783	0.517647058824	17.6	-40.871875
1697	0.8485	-14.6043478261	0.517647058824	6.2	-42.28125
1698	0.849	-8.96956521739	-6.70294117647	20.45	-46.509375
1699	0.8495	-3.3347826087	16.4029411765	21.875	-49.328125
1700	0.85	-4.74347826087	0.517647058824	20.45	-54.965625
1701	0.8505	7.9347826087	4.85	20.45	-56.375
1702	0.851	2.3	3.40588235294	16.175	-59.19375
1703	0.8515	0.891304347826	1.96176470588	14.75	-54.965625
1704	0.852	3.70869565217	1.96176470588	19.025	-69.059375
1705	0.8525	0.891304347826	-0.926470588235	-0.925	-73.2875
1706	0.853	-1.92608695652	3.40588235294	6.2	-77.515625
1707	0.8535	-3.3347826087	-12.4794117647	3.35	-74.696875
1708	0.854	-10.3782608696	-15.3676470588	3.35	-67.65
1709	0.8545	-32.9173913043	-5.25882352941	1.925	-57.784375
1710	0.855	-83.6304347826	-3.81470588235	0.5	-57.784375
1711	0.8555	-69.5434782609	-0.926470588235	-0.925	-54.965625
1712	0.856	-87.8565217391	-0.926470588235	-5.2	-66.240625
1713	0.8565	-65.3173913043	-0.926470588235	-9.475	-74.696875
1714	0.857	-49.8217391304	0.517647058824	9.05	-77.515625
1715	0.8575	-31.5086956522	3.40588235294	-9.475	-83.153125
1716	0.858	-7.56086956522	1.96176470588	14.75	-88.790625
1717	0.8585	14.9782608696	17.8470588235	-0.925	-88.790625
1718	0.859	27.6565217391	-6.70294117647	-2.35	-91.609375
1719	0.8595	43.152173913	1.96176470588	-0.925	-95.8375
1720	0.86	40.3347826087	-0.926470588235	0.5	-95.8375
1721	0.8605	65.6913043478	1.96176470588	1.925	-95.8375
1722	0.861	64.2826086957	0.517647058824	-0.925	-100.065625
1723	0.8615	71.3260869565	1.96176470588	-3.775	-93.01875
1724	0.862	74.1434782609	-0.926470588235	-0.925	-104.29375
1725	0.8625	65.6913043478	-9.59117647059	0.5	-98.65625
1726	0.863	47.3782608696	1.96176470588	1.925	-104.29375
1727	0.8635	23.4304347826	1.96176470588	1.925	-107.1125
1728	0.864	9.34347826087	-2.37058823529	3.35	-108.521875
1729	0.8645	-10.3782608696	-0.926470588235	3.35	-104.29375
1730	0.865	2.3	-0.926470588235	3.35	-112.75
1731	0.8655	5.11739130435	1.96176470588	-2.35	-111.340625
1732	0.866	6.52608695652	0.517647058824	29.0	-109.93125
1733	0.8665	3.70869565217	6.29411764706	3.35	-114.159375
1734	0.867	7.9347826087	-0.926470588235	30.425	-115.56875
1735	0.8675	13.5695652174	14.9588235294	14.75	-115.56875
1736	0.868	14.9782608696	-6.70294117647	14.75	-116.978125
1737	0.8685	10.752173913	0.517647058824	17.6	-119.796875
1738	0.869	10.752173913	1.96176470588	16.175	-116.978125
1739	0.8695	14.9782608696	1.96176470588	21.875	-114.159375
1740	0.87	13.5695652174	1.96176470588	21.875	-122.615625
1741	0.8705	9.34347826087	-2.37058823529	23.3	-105.703125
1742	0.871	2.3	-2.37058823529	20.45	-126.84375
1743	0.8715	0.891304347826	-5.25882352941	19.025	-112.75
1744	0.872	3.70869565217	-3.81470588235	13.325	-109.93125
1745	0.8725	7.9347826087	4.85	13.325	-109.93125
1746	0.873	5.11739130435	-8.14705882353	7.625	-105.703125
1747	0.8735	23.4304347826	1.96176470588	7.625	-94.428125
1748	0.874	7.9347826087	1.96176470588	3.35	-85.971875
1749	0.8745	12.1608695652	1.96176470588	4.775	-91.609375
1750	0.875	12.1608695652	1.96176470588	19.025	-98.65625
1751	0.8755	10.752173913	1.96176470588	0.5	-102.884375
1752	0.876	12.1608695652	0.517647058824	7.625	-104.29375
1753	0.8765	14.9782608696	-2.37058823529	3.35	-102.884375
1754	0.877	16.3869565217	-5.25882352941	1.925	-102.884375
1755	0.8775	10.752173913	0.517647058824	3.35	-100.065625
1756	0.878	16.3869565217	0.517647058824	-2.35	-108.521875
1757	0.8785	12.1608695652	-2.37058823529	-5.2	-97.246875
1758	0.879	20.6130434783	-3.81470588235	-2.35	-100.065625
1759	0.8795	19.2043478261	-2.37058823529	-5.2	-95.8375
1760	0.88	17.7956521739	-5.25882352941	-6.625	-101.475
1761	0.8805	22.0217391304	0.517647058824	-5.2	-101.475
1762	0.881	12.1608695652	13.5147058824	-10.9	-102.884375
1763	0.8815	-13.1956521739	-6.70294117647	-9.475	-102.884375
1764	0.882	-58.2739130435	1.96176470588	-6.625	-100.065625
1765	0.8825	-44.1869565217	3.40588235294	-0.925	-91.609375
1766	0.883	-68.1347826087	0.517647058824	-3.775	-102.884375
1767	0.8835	-56.8652173913	3.40588235294	-2.35	-87.38125
1768	0.884	-49.8217391304	1.96176470588	-3.775	-94.428125
1769	0.8845	-34.3260869565	4.85	-8.05	-97.246875
1770	0.885	-3.3347826087	-11.0352941176	-5.2	-101.475
1771	0.8855	23.4304347826	-12.4794117647	-5.2	-102.884375
1772	0.886	43.152173913	1.96176470588	-0.925	-98.65625
1773	0.8865	30.4739130435	0.517647058824	-5.2	-102.884375
1774	0.887	61.4652173913	-2.37058823529	-2.35	-100.065625
1775	0.8875	40.3347826087	-2.37058823529	-5.2	-115.56875
1776	0.888	51.6043478261	-2.37058823529	-6.625	-105.703125
1777	0.8885	50.1956521739	-2.37058823529	3.35	-108.521875
1778	0.889	45.9695652174	-0.926470588235	-12.325	-105.703125
1779	0.8895	43.152173913	-9.59117647059	-5.2	-100.065625
1780	0.89	20.6130434783	0.517647058824	-9.475	-100.065625
1781	0.8905	-11.7869565217	0.517647058824	-0.925	-98.65625
1782	0.891	-56.8652173913	3.40588235294	-0.925	-98.65625
1783	0.8915	-39.9608695652	0.517647058824	-2.35	-100.065625
1784	0.892	-51.2304347826	1.96176470588	-0.925	-111.340625
1785	0.8925	-42.7782608696	0.517647058824	-3.775	-81.74375
1786	0.893	-34.3260869565	-0.926470588235	-6.625	-94.428125
1787	0.8935	-45.5956521739	-6.70294117647	-5.2	-94.428125
1788	0.894	-63.9086956522	6.29411764706	-6.625	-94.428125
1789	0.8945	-72.3608695652	-0.926470588235	-3.775	-95.8375
1790	0.895	-66.7260869565	-5.25882352941	-0.925	-94.428125
1791	0.8955	-75.1782608696	-2.37058823529	4.775	-95.8375
1792	0.896	-51.2304347826	-3.81470588235	4.775	-80.334375
1793	0.8965	-24.4652173913	-2.37058823529	13.325	-105.703125
1794	0.897	-0.517391304348	-6.70294117647	4.775	-98.65625
1795	0.8975	24.8391304348	-2.37058823529	17.6	-104.29375
1796	0.898	37.5173913043	-6.70294117647	13.325	-100.065625
1797	0.8985	45.9695652174	3.40588235294	19.025	-97.246875
1798	0.899	45.9695652174	0.517647058824	19.025	-97.246875
1799	0.8995	51.6043478261	0.517647058824	20.45	-97.246875
1800	0.9	38.9260869565	-0.926470588235	19.025	-97.246875
1801	0.9005	54.4217391304	3.40588235294	19.025	-80.334375
1802	0.901	60.0565217391	1.96176470588	17.6	-102.884375
1803	0.9015	54.4217391304	0.517647058824	9.05	-95.8375
1804	0.902	40.3347826087	1.96176470588	3.35	-98.65625
1805	0.9025	23.4304347826	-0.926470588235	3.35	-91.609375
1806	0.903	12.1608695652	4.85	1.925	-94.428125
1807	0.9035	-6.15217391304	-3.81470588235	-0.925	-91.609375
1808	0.904	-4.74347826087	-6.70294117647	-3.775	-90.2
1809	0.9045	-17.4217391304	-0.926470588235	-5.2	-87.38125
1810	0.905	-0.517391304348	-2.37058823529	-3.775	-78.925
1811	0.9055	3.70869565217	-2.37058823529	-2.35	-93.01875
1812	0.906	0.891304347826	-3.81470588235	-6.625	-83.153125
1813	0.9065	-0.517391304348	0.517647058824	-8.05	-80.334375
1814	0.907	-0.517391304348	0.517647058824	-3.775	-74.696875
1815	0.9075	7.9347826087	-9.59117647059	-2.35	-71.878125
1816	0.908	10.752173913	-3.81470588235	-0.925	-74.696875
1817	0.9085	-1.92608695652	0.517647058824	-2.35	-74.696875
1818	0.909	27.6565217391	1.96176470588	-6.625	-74.696875
1819	0.9095	3.70869565217	1.96176470588	-9.475	-81.74375
1820	0.91	10.752173913	-0.926470588235	-15.175	-69.059375
1821	0.9105	3.70869565217	0.517647058824	-22.3	-80.334375
1822	0.911	2.3	-0.926470588235	-5.2	-74.696875
1823	0.9115	-3.3347826087	-0.926470588235	-18.025	-70.46875
1824	0.912	-0.517391304348	-9.59117647059	-22.3	-70.46875
1825	0.9125	-1.92608695652	-2.37058823529	-22.3	-67.65
1826	0.913	0.891304347826	-0.926470588235	-18.025	-71.878125
1827	0.9135	9.34347826087	-2.37058823529	-18.025	-71.878125
1828	0.914	3.70869565217	0.517647058824	-12.325	-70.46875
1829	0.9145	5.11739130435	-0.926470588235	-15.175	-73.2875
1830	0.915	6.52608695652	-2.37058823529	1.925	-69.059375
1831	0.9155	2.3	0.517647058824	-8.05	-64.83125
1832	0.916	-1.92608695652	0.517647058824	-0.925	-63.421875
1833	0.9165	-6.15217391304	17.8470588235	-6.625	-63.421875
1834	0.917	-4.74347826087	-2.37058823529	-5.2	-62.0125
1835	0.9175	3.70869565217	1.96176470588	-0.925	-66.240625
1836	0.918	-4.74347826087	0.517647058824	-5.2	-60.603125
1837	0.9185	2.3	1.96176470588	-3.775	-46.509375
1838	0.919	0.891304347826	1.96176470588	-5.2	-60.603125
1839	0.9195	0.891304347826	0.517647058824	6.2	-57.784375
1840	0.92	2.3	1.96176470588	-2.35	-57.784375
1841	0.9205	-1.92608695652	-11.0352941176	-9.475	-62.0125
1842	0.921	0.891304347826	7.73823529412	-0.925	-60.603125
1843	0.9215	-10.3782608696	-3.81470588235	-0.925	-60.603125
1844	0.922	14.9782608696	-5.25882352941	-0.925	-53.55625
1845	0.9225	-4.74347826087	-2.37058823529	3.35	-69.059375
1846	0.923	0.891304347826	-3.81470588235	1.925	-54.965625
1847	0.9235	-0.517391304348	-0.926470588235	7.625	-62.0125
1848	0.924	2.3	3.40588235294	-3.775	-52.146875
1849	0.9245	0.891304347826	0.517647058824	20.45	-47.91875
1850	0.925	12.1608695652	6.29411764706	4.775	-45.1
1851	0.9255	14.9782608696	-8.14705882353	4.775	-46.509375
1852	0.926	19.2043478261	-0.926470588235	4.775	-42.28125
1853	0.9265	10.752173913	-0.926470588235	4.775	-46.509375
1854	0.927	33.2913043478	0.517647058824	6.2	-52.146875
1855	0.9275	14.9782608696	-2.37058823529	4.775	-45.1
1856	0.928	22.0217391304	-0.926470588235	7.625	-39.4625
1857	0.9285	22.0217391304	-2.37058823529	11.9	-47.91875
1858	0.929	19.2043478261	-6.70294117647	19.025	-46.509375
1859	0.9295	14.9782608696	0.517647058824	14.75	-47.91875
1860	0.93	12.1608695652	-15.3676470588	14.75	-52.146875
1861	0.9305	10.752173913	-9.59117647059	13.325	-49.328125
1862	0.931	-7.56086956522	-0.926470588235	14.75	-46.509375
1863	0.9315	27.6565217391	-2.37058823529	14.75	-35.234375
1864	0.932	0.891304347826	1.96176470588	16.175	-36.64375
1865	0.9325	7.9347826087	0.517647058824	16.175	-36.64375
1866	0.933	-7.56086956522	1.96176470588	11.9	-49.328125
1867	0.9335	-24.4652173913	4.85	6.2	-40.871875
1868	0.934	-28.6913043478	4.85	0.5	-45.1
1869	0.9345	-23.0565217391	6.29411764706	0.5	-45.1
1870	0.935	-14.6043478261	-0.926470588235	-6.625	-43.690625
1871	0.9355	-4.74347826087	1.96176470588	-8.05	-40.871875
1872	0.936	-14.6043478261	1.96176470588	-8.05	-52.146875
1873	0.9365	-6.15217391304	0.517647058824	-12.325	-22.55
1874	0.937	-4.74347826087	0.517647058824	-15.175	-36.64375
1875	0.9375	-7.56086956522	-3.81470588235	-29.425	-25.36875
1876	0.938	-6.15217391304	-0.926470588235	-8.05	-21.140625
1877	0.9385	-6.15217391304	-3.81470588235	-22.3	-22.55
1878	0.939	-1.92608695652	0.517647058824	-22.3	-18.321875
1879	0.9395	-4.74347826087	1.96176470588	-18.025	-12.684375
1880	0.94	2.3	0.517647058824	-12.325	-9.865625
1881	0.9405	-8.96956521739	1.96176470588	-8.05	-23.959375
1882	0.941	-0.517391304348	0.517647058824	-10.9	-1.409375
1883	0.9415	0.891304347826	0.517647058824	-6.625	-28.1875
1884	0.942	0.891304347826	1.96176470588	-9.475	-2.81875
1885	0.9425	0.891304347826	-0.926470588235	-9.475	-18.321875
1886	0.943	2.3	1.96176470588	-6.625	-16.9125
1887	0.9435	5.11739130435	-2.37058823529	-8.05	-14.09375
1888	0.944	3.70869565217	20.7352941176	-13.75	-14.09375
1889	0.9445	-4.74347826087	1.96176470588	-13.75	-11.275
1890	0.945	14.9782608696	-0.926470588235	-13.75	-14.09375
1891	0.9455	-6.15217391304	-2.37058823529	-15.175	-14.09375
1892	0.946	0.891304347826	-2.37058823529	-12.325	-8.45625
1893	0.9465	2.3	-2.37058823529	-15.175	-5.6375
1894	0.947	2.3	-3.81470588235	0.5	0.0
1895	0.9475	0.891304347826	-0.926470588235	-19.45	-1.409375
1896	0.948	0.891304347826	-11.0352941176	-9.475	-1.409375
1897	0.9485	0.891304347826	-0.926470588235	-5.2	-2.81875
1898	0.949	12.1608695652	1.96176470588	-3.775	1.409375
1899	0.9495	9.34347826087	0.517647058824	-2.35	0.0
1900	0.95	3.70869565217	1.96176470588	-5.2	14.09375
1901	0.9505	7.9347826087	1.96176470588	-2.35	-11.275
1902	0.951	5.11739130435	4.85	-13.75	-1.409375
1903	0.9515	3.70869565217	0.517647058824	-8.05	-1.409375
1904	0.952	3.70869565217	-0.926470588235	-6.625	0.0
1905	0.9525	5.11739130435	1.96176470588	-2.35	0.0
1906	0.953	-0.517391304348	0.517647058824	-6.625	-1.409375
1907	0.9535	13.5695652174	0.517647058824	-6.625	4.228125
1908	0.954	2.3	-0.926470588235	-6.625	1.409375
1909	0.9545	-1.92608695652	-0.926470588235	-3.775	12.684375
1910	0.955	2.3	0.517647058824	0.5	-7.046875
1911	0.9555	-0.517391304348	0.517647058824	-12.325	5.6375
1912	0.956	0.891304347826	-3.81470588235	-3.775	5.6375
1913	0.9565	2.3	0.517647058824	-10.9	7.046875
1914	0.957	3.70869565217	-3.81470588235	-5.2	12.684375
1915	0.9575	-0.517391304348	3.40588235294	-5.2	18.321875
1916	0.958	10.752173913	1.96176470588	-8.05	21.140625
1917	0.9585	12.1608695652	0.517647058824	-6.625	18.321875
1918	0.959	-3.3347826087	0.517647058824	-9.475	16.9125
1919	0.9595	0.891304347826	0.517647058824	-8.05	21.140625
1920	0.96	3.70869565217	1.96176470588	-12.325	14.09375
1921	0.9605	0.891304347826	0.517647058824	-10.9	21.140625
1922	0.961	5.11739130435	0.517647058824	6.2	22.55
1923	0.9615	0.891304347826	1.96176470588	-2.35	19.73125
1924	0.962	3.70869565217	-6.70294117647	-3.775	21.140625
1925	0.9625	-7.56086956522	-3.81470588235	-5.2	19.73125
1926	0.963	5.11739130435	-6.70294117647	-5.2	21.140625
1927	0.9635	5.11739130435	-2.37058823529	-3.775	15.503125
1928	0.964	0.891304347826	-0.926470588235	-3.775	29.596875
1929	0.9645	-0.517391304348	-2.37058823529	-5.2	21.140625
1930	0.965	2.3	1.96176470588	-13.75	21.140625
1931	0.9655	2.3	-2.37058823529	7.625	22.55
1932	0.966	3.70869565217	20.7352941176	-5.2	21.140625
1933	0.9665	3.70869565217	-9.59117647059	-5.2	25.36875
1934	0.967	3.70869565217	4.85	-8.05	22.55
1935	0.9675	14.9782608696	1.96176470588	-5.2	21.140625
1936	0.968	-1.92608695652	1.96176470588	-2.35	18.321875
1937	0.9685	2.3	0.517647058824	-3.775	16.9125
1938	0.969	3.70869565217	0.517647058824	0.5	18.321875
1939	0.9695	2.3	-0.926470588235	-8.05	19.73125
1940	0.97	3.70869565217	0.517647058824	-8.05	18.321875
1941	0.9705	0.891304347826	-3.81470588235	-9.475	19.73125
1942	0.971	0.891304347826	-5.25882352941	-3.775	16.9125
1943	0.9715	-13.1956521739	-3.81470588235	-3.775	18.321875
1944	0.972	7.9347826087	-2.37058823529	-3.775	19.73125
1945	0.9725	0.891304347826	-0.926470588235	-9.475	15.503125
1946	0.973	-7.56086956522	-3.81470588235	-19.45	15.503125
1947	0.9735	-27.2826086957	1.96176470588	-6.625	22.55
1948	0.974	-62.5	4.85	-9.475	22.55
1949	0.9745	-85.0391304348	4.85	1.925	21.140625
1950	0.975	-80.8130434783	22.1794117647	1.925	23.959375
1951	0.9755	-69.5434782609	-6.70294117647	0.5	19.73125
1952	0.976	-49.8217391304	0.517647058824	-3.775	23.959375
1953	0.9765	-49.8217391304	0.517647058824	-8.05	21.140625
1954	0.977	-17.4217391304	1.96176470588	-10.9	40.871875
1955	0.9775	7.9347826087	0.517647058824	-6.625	15.503125
1956	0.978	26.247826087	-2.37058823529	-9.475	40.871875
1957	0.9785	38.9260869565	-3.81470588235	7.625	26.778125
1958	0.979	44.5608695652	-6.70294117647	-5.2	23.959375
1959	0.9795	55.8304347826	3.40588235294	-0.925	23.959375
1960	0.98	60.0565217391	-2.37058823529	-0.925	23.959375
1961	0.9805	71.3260869565	-5.25882352941	-2.35	22.55
1962	0.981	62.8739130435	-0.926470588235	-3.775	15.503125
1963	0.9815	62.8739130435	0.517647058824	-8.05	45.1
1964	0.982	48.7869565217	0.517647058824	-0.925	23.959375
1965	0.9825	31.8826086957	1.96176470588	-15.175	38.053125
1966	0.983	17.7956521739	6.29411764706	11.9	40.871875
1967	0.9835	12.1608695652	-0.926470588235	-0.925	43.690625
1968	0.984	19.2043478261	10.6264705882	-2.35	43.690625
1969	0.9845	16.3869565217	0.517647058824	-0.925	43.690625
1970	0.985	20.6130434783	3.40588235294	-3.775	45.1
1971	0.9855	-0.517391304348	4.85	-0.925	38.053125
1972	0.986	5.11739130435	3.40588235294	-6.625	54.965625
1973	0.9865	10.752173913	0.517647058824	-9.475	23.959375
1974	0.987	10.752173913	0.517647058824	-15.175	31.00625
1975	0.9875	13.5695652174	-2.37058823529	-12.325	42.28125
1976	0.988	12.1608695652	-8.14705882353	-9.475	26.778125
1977	0.9885	14.9782608696	-0.926470588235	-9.475	25.36875
1978	0.989	10.752173913	-3.81470588235	-6.625	19.73125
1979	0.9895	24.8391304348	-0.926470588235	-9.475	19.73125
1980	0.99	-0.517391304348	-0.926470588235	-5.2	14.09375
1981	0.9905	5.11739130435	1.96176470588	-6.625	28.1875
1982	0.991	-1.92608695652	3.40588235294	-5.2	-1.409375
1983	0.9915	-10.3782608696	3.40588235294	-8.05	4.228125
1984	0.992	-16.0130434783	6.29411764706	0.5	-1.409375
1985	0.9925	-20.2391304348	-6.70294117647	-10.9	-1.409375
1986	0.993	-8.96956521739	0.517647058824	-12.325	-4.228125
1987	0.9935	-25.8739130435	1.96176470588	-12.325	-9.865625
1988	0.994	12.1608695652	3.40588235294	-16.6	-8.45625
1989	0.9945	-11.7869565217	0.517647058824	-15.175	-9.865625
1990	0.995	-6.15217391304	0.517647058824	-15.175	-11.275
1991	0.9955	-4.74347826087	-2.37058823529	0.5	-15.503125
1992	0.996	-10.3782608696	-2.37058823529	-15.175	-14.09375
1993	0.9965	-7.56086956522	-9.59117647059	-9.475	-18.321875
1994	0.997	-8.96956521739	0.517647058824	-13.75	-22.55
1995	0.9975	-4.74347826087	-0.926470588235	-10.9	-23.959375
1996	0.998	-21.647826087	0.517647058824	-12.325	-23.959375
1997	0.9985	16.3869565217	1.96176470588	-10.9	-33.825
1998	0.999	-4.74347826087	4.85	-8.05	-22.55
1999	0.9995	7.9347826087	3.40588235294	-9.475	-7.046875
2000	1.0	10.752173913	4.85	-3.775	-28.1875
2001	1.0005	7.9347826087	1.96176470588	-6.625	-25.36875
2002	1.001	0.891304347826	4.85	-6.625	-31.00625
2003	1.0015	-4.74347826087	9.18235294118	-3.775	-33.825
2004	1.002	0.891304347826	0.517647058824	-9.475	-31.00625
2005	1.0025	-6.15217391304	3.40588235294	-10.9	-29.596875
2006	1.003	3.70869565217	0.517647058824	-16.6	-16.9125
2007	1.0035	5.11739130435	-0.926470588235	-12.325	-36.64375
2008	1.004	3.70869565217	0.517647058824	-16.6	-14.09375
2009	1.0045	9.34347826087	-2.37058823529	-12.325	-25.36875
2010	1.005	12.1608695652	3.40588235294	-19.45	-25.36875
2011	1.0055	10.752173913	-11.0352941176	-13.75	-25.36875
2012	1.006	12.1608695652	16.4029411765	-12.325	-22.55
2013	1.0065	-3.3347826087	-0.926470588235	-16.6	-19.73125
2014	1.007	17.7956521739	3.40588235294	-12.325	-14.09375
2015	1.0075	-11.7869565217	0.517647058824	-12.325	-21.140625
2016	1.008	-7.56086956522	-0.926470588235	-12.325	-12.684375
2017	1.0085	-10.3782608696	4.85	-6.625	-8.45625
2018	1.009	-8.96956521739	3.40588235294	-12.325	-2.81875
2019	1.0095	-8.96956521739	6.29411764706	-12.325	-2.81875
2020	1.01	-7.56086956522	-6.70294117647	-9.475	0.0
2021	1.0105	-4.74347826087	20.7352941176	-8.05	1.409375
2022	1.011	-17.4217391304	-0.926470588235	-8.05	-1.409375
2023	1.0115	12.1608695652	-2.37058823529	-6.625	4.228125
2024	1.012	-20.2391304348	-0.926470588235	-8.05	-1.409375
2025	1.0125	-14.6043478261	0.517647058824	-13.75	15.503125
2026	1.013	-13.1956521739	-0.926470588235	6.2	0.0
2027	1.0135	-8.96956521739	-0.926470588235	-19.45	0.0
2028	1.014	-7.56086956522	-5.25882352941	3.35	-1.409375
2029	1.0145	-6.15217391304	-2.37058823529	-6.625	0.0
2030	1.015	-4.74347826087	-6.70294117647	-6.625	4.228125
2031	1.0155	-10.3782608696	1.96176470588	-8.05	4.228125
2032	1.016	7.9347826087	0.517647058824	-9.475	5.6375
2033	1.0165	-7.56086956522	3.40588235294	-9.475	1.409375
2034	1.017	-0.517391304348	3.40588235294	-6.625	4.228125
2035	1.0175	-1.92608695652	4.85	-18.025	1.409375
2036	1.018	0.891304347826	1.96176470588	-6.625	-4.228125
2037	1.0185	-0.517391304348	-5.25882352941	-5.2	7.046875
2038	1.019	-0.517391304348	1.96176470588	-8.05	5.6375
2039	1.0195	-3.3347826087	6.29411764706	-6.625	2.81875
2040	1.02	3.70869565217	0.517647058824	-10.9	5.6375
2041	1.0205	-7.56086956522	-2.37058823529	-12.325	-5.6375
2042	1.021	-4.74347826087	-2.37058823529	-16.6	8.45625
2043	1.0215	-3.3347826087	-3.81470588235	-13.75	-2.81875
2044	1.022	-1.92608695652	-2.37058823529	-22.3	19.73125
2045	1.0225	-4.74347826087	-2.37058823529	-20.875	1.409375
2046	1.023	-0.517391304348	1.96176470588	-16.6	5.6375
2047	1.0235	-1.92608695652	14.9588235294	-16.6	2.81875
2048	1.024	2.3	-5.25882352941	-10.9	5.6375
2049	1.0245	-1.92608695652	4.85	-10.9	4.228125
2050	1.025	7.9347826087	0.517647058824	-12.325	4.228125
2051	1.0255	-6.15217391304	3.40588235294	-10.9	7.046875
2052	1.026	-0.517391304348	3.40588235294	-9.475	11.275
2053	1.0265	-1.92608695652	0.517647058824	-19.45	-1.409375
2054	1.027	-0.517391304348	-2.37058823529	-13.75	4.228125
2055	1.0275	-1.92608695652	4.85	-15.175	5.6375
2056	1.028	0.891304347826	-9.59117647059	-15.175	1.409375
2057	1.0285	0.891304347826	-2.37058823529	-16.6	2.81875
2058	1.029	-13.1956521739	-0.926470588235	-16.6	-1.409375
2059	1.0295	16.3869565217	-3.81470588235	-16.6	2.81875
2060	1.03	-11.7869565217	-2.37058823529	-15.175	-1.409375
2061	1.0305	0.891304347826	-2.37058823529	-18.025	-1.409375
2062	1.031	0.891304347826	-0.926470588235	-5.2	2.81875
2063	1.0315	2.3	0.517647058824	-13.75	2.81875
2064	1.032	2.3	6.29411764706	-2.35	2.81875
2065	1.0325	6.52608695652	3.40588235294	-9.475	4.228125
2066	1.033	13.5695652174	1.96176470588	-8.05	1.409375
2067	1.0335	-7.56086956522	4.85	-2.35	-1.409375
2068	1.034	26.247826087	3.40588235294	-0.925	-7.046875
2069	1.0345	0.891304347826	1.96176470588	-2.35	5.6375
2070	1.035	3.70869565217	3.40588235294	0.5	-7.046875
2071	1.0355	2.3	4.85	-10.9	-1.409375
2072	1.036	5.11739130435	0.517647058824	14.75	-2.81875
2073	1.0365	0.891304347826	4.85	-12.325	-4.228125
2074	1.037	-21.647826087	-11.0352941176	-8.05	-7.046875
2075	1.0375	-58.2739130435	-2.37058823529	-9.475	-4.228125
2076	1.038	-96.3086956522	-2.37058823529	-9.475	0.0
2077	1.0385	-63.9086956522	-3.81470588235	-9.475	2.81875
2078	1.039	-75.1782608696	0.517647058824	-6.625	-7.046875
2079	1.0395	-48.4130434783	-5.25882352941	-12.325	2.81875
2080	1.04	-31.5086956522	1.96176470588	-6.625	-2.81875
2081	1.0405	-11.7869565217	1.96176470588	-12.325	7.046875
2082	1.041	13.5695652174	3.40588235294	9.05	5.6375
2083	1.0415	31.8826086957	10.6264705882	-5.2	5.6375
2084	1.042	41.7434782609	-2.37058823529	-2.35	4.228125
2085	1.0425	37.5173913043	1.96176470588	-6.625	4.228125
2086	1.043	45.9695652174	0.517647058824	-12.325	0.0
2087	1.0435	40.3347826087	-0.926470588235	-8.05	4.228125
2088	1.044	43.152173913	1.96176470588	-16.6	-1.409375
2089	1.0445	43.152173913	0.517647058824	-8.05	12.684375
2090	1.045	37.5173913043	1.96176470588	-15.175	0.0
2091	1.0455	22.0217391304	-9.59117647059	-10.9	7.046875
2092	1.046	9.34347826087	6.29411764706	-9.475	11.275
2093	1.0465	-1.92608695652	1.96176470588	-5.2	11.275
2094	1.047	-0.517391304348	-6.70294117647	-6.625	8.45625
2095	1.0475	-1.92608695652	-2.37058823529	0.5	2.81875
2096	1.048	2.3	-2.37058823529	-0.925	21.140625
2097	1.0485	9.34347826087	0.517647058824	1.925	9.865625
2098	1.049	12.1608695652	3.40588235294	-10.9	11.275
2099	1.0495	16.3869565217	3.40588235294	14.75	12.684375
2100	1.05	17.7956521739	6.29411764706	-8.05	14.09375
2101	1.0505	22.0217391304	-9.59117647059	-3.775	12.684375
2102	1.051	17.7956521739	19.2911764706	-5.2	11.275
2103	1.0515	12.1608695652	0.517647058824	-6.625	16.9125
2104	1.052	23.4304347826	1.96176470588	-8.05	14.09375
2105	1.0525	2.3	-0.926470588235	-6.625	16.9125
2106	1.053	16.3869565217	3.40588235294	-2.35	18.321875
2107	1.0535	19.2043478261	-0.926470588235	11.9	15.503125
2108	1.054	20.6130434783	0.517647058824	-12.325	19.73125
2109	1.0545	23.4304347826	-5.25882352941	-5.2	16.9125
2110	1.055	20.6130434783	-0.926470588235	-13.75	21.140625
2111	1.0555	20.6130434783	-11.0352941176	-9.475	22.55
2112	1.056	30.4739130435	-2.37058823529	-3.775	25.36875
2113	1.0565	26.247826087	0.517647058824	-5.2	25.36875
2114	1.057	54.4217391304	1.96176470588	-3.775	25.36875
2115	1.0575	30.4739130435	-0.926470588235	-3.775	22.55
2116	1.058	22.0217391304	3.40588235294	-6.625	33.825
2117	1.0585	19.2043478261	1.96176470588	-2.35	33.825
2118	1.059	16.3869565217	6.29411764706	-0.925	28.1875
2119	1.0595	2.3	-3.81470588235	-5.2	29.596875
2120	1.06	-13.1956521739	3.40588235294	-3.775	33.825
2121	1.0605	-24.4652173913	9.18235294118	-5.2	31.00625
2122	1.061	-34.3260869565	-0.926470588235	-0.925	29.596875
2123	1.0615	-28.6913043478	1.96176470588	-3.775	26.778125
2124	1.062	-35.7347826087	-2.37058823529	-6.625	26.778125
2125	1.0625	-23.0565217391	0.517647058824	-6.625	21.140625
2126	1.063	-18.8304347826	-2.37058823529	-5.2	40.871875
2127	1.0635	-23.0565217391	-5.25882352941	-13.75	28.1875
2128	1.064	-27.2826086957	-3.81470588235	-5.2	25.36875
2129	1.0645	-37.1434782609	-6.70294117647	-6.625	25.36875
2130	1.065	-38.552173913	-6.70294117647	-2.35	28.1875
2131	1.0655	-28.6913043478	3.40588235294	-0.925	32.415625
2132	1.066	-32.9173913043	6.29411764706	-0.925	29.596875
2133	1.0665	-6.15217391304	4.85	-2.35	29.596875
2134	1.067	-14.6043478261	4.85	-6.625	22.55
2135	1.0675	-10.3782608696	4.85	-8.05	43.690625
2136	1.068	-13.1956521739	3.40588235294	-10.9	22.55
2137	1.0685	-11.7869565217	4.85	-18.025	29.596875
2138	1.069	-13.1956521739	-2.37058823529	-9.475	29.596875
2139	1.0695	-11.7869565217	20.7352941176	-8.05	29.596875
2140	1.07	-16.0130434783	-5.25882352941	-8.05	29.596875
2141	1.0705	-3.3347826087	0.517647058824	-9.475	28.1875
2142	1.071	-20.2391304348	0.517647058824	-9.475	21.140625
2143	1.0715	-11.7869565217	0.517647058824	-10.9	42.28125
2144	1.072	-24.4652173913	1.96176470588	-6.625	25.36875
2145	1.0725	-51.2304347826	-0.926470588235	9.05	31.00625
2146	1.073	-89.2652173913	1.96176470588	-8.05	33.825
2147	1.0735	-107.57826087	-9.59117647059	7.625	36.64375
2148	1.074	-94.9	22.1794117647	11.9	33.825
2149	1.0745	-85.0391304348	-0.926470588235	7.625	33.825
2150	1.075	-48.4130434783	6.29411764706	13.325	36.64375
2151	1.0755	-58.2739130435	4.85	6.2	31.00625
2152	1.076	-23.0565217391	3.40588235294	0.5	47.91875
2153	1.0765	2.3	3.40588235294	-2.35	26.778125
2154	1.077	22.0217391304	1.96176470588	-12.325	38.053125
2155	1.0775	36.1086956522	1.96176470588	-6.625	36.64375
2156	1.078	44.5608695652	1.96176470588	-6.625	35.234375
2157	1.0785	51.6043478261	1.96176470588	-0.925	33.825
2158	1.079	44.5608695652	-2.37058823529	3.35	32.415625
2159	1.0795	68.5086956522	0.517647058824	4.775	36.64375
2160	1.08	53.0130434783	-0.926470588235	13.325	33.825
2161	1.0805	51.6043478261	0.517647058824	4.775	49.328125
2162	1.081	38.9260869565	-0.926470588235	0.5	23.959375
2163	1.0815	24.8391304348	1.96176470588	-15.175	35.234375
2164	1.082	20.6130434783	3.40588235294	-2.35	36.64375
2165	1.0825	14.9782608696	6.29411764706	-15.175	35.234375
2166	1.083	17.7956521739	-2.37058823529	-8.05	32.415625
2167	1.0835	13.5695652174	4.85	-6.625	36.64375
2168	1.084	34.7	6.29411764706	-0.925	36.64375
2169	1.0845	27.6565217391	1.96176470588	-0.925	36.64375
2170	1.085	23.4304347826	4.85	-0.925	38.053125
2171	1.0855	26.247826087	3.40588235294	9.05	33.825
2172	1.086	20.6130434783	3.40588235294	-5.2	32.415625
2173	1.0865	16.3869565217	-0.926470588235	4.775	28.1875
2174	1.087	14.9782608696	3.40588235294	-8.05	28.1875
2175	1.0875	10.752173913	0.517647058824	-0.925	28.1875
2176	1.088	13.5695652174	-3.81470588235	0.5	29.596875
2177	1.0885	-6.15217391304	0.517647058824	6.2	31.00625
2178	1.089	9.34347826087	0.517647058824	4.775	33.825
2179	1.0895	-14.6043478261	3.40588235294	0.5	31.00625
2180	1.09	-13.1956521739	6.29411764706	-3.775	36.64375
2181	1.0905	-11.7869565217	4.85	7.625	33.825
2182	1.091	-6.15217391304	9.18235294118	7.625	35.234375
2183	1.0915	-3.3347826087	-2.37058823529	7.625	33.825
2184	1.092	-6.15217391304	6.29411764706	3.35	36.64375
2185	1.0925	-11.7869565217	0.517647058824	-0.925	36.64375
2186	1.093	-21.647826087	7.73823529412	-6.625	36.64375
2187	1.0935	-13.1956521739	6.29411764706	-3.775	36.64375
2188	1.094	-14.6043478261	4.85	-2.35	43.690625
2189	1.0945	-16.0130434783	4.85	-3.775	35.234375
2190	1.095	-14.6043478261	4.85	11.9	35.234375
