	Time	Channel 1	Channel 2	Channel 3	Channel 4
0	0.0	0.810810810811	11.8263888889	1.86909090909	-5.7358490566
1	0.0005	-0.612162162162	-2.24305555556	0.44	-0.0150943396226
2	0.001	0.810810810811	4.79166666667	-2.41818181818	18.5773584906
3	0.0015	0.810810810811	6.19861111111	-5.27636363636	5.70566037736
4	0.002	-2.03513513514	4.79166666667	-6.70545454545	-4.30566037736
5	0.0025	0.810810810811	1.97777777778	-0.989090909091	-5.7358490566
6	0.003	-3.45810810811	0.570833333333	-0.989090909091	-4.30566037736
7	0.0035	-0.612162162162	1.97777777778	-6.70545454545	-14.3169811321
8	0.004	0.810810810811	-7.87083333333	0.44	-25.758490566
9	0.0045	0.810810810811	1.97777777778	-9.56363636364	-25.758490566
10	0.005	5.07972972973	0.570833333333	4.72727272727	-22.8981132075
11	0.0055	0.810810810811	4.79166666667	0.44	-14.3169811321
12	0.006	-2.03513513514	3.38472222222	1.86909090909	-7.16603773585
13	0.0065	12.1945945946	4.79166666667	-0.989090909091	-1.44528301887
14	0.007	-0.612162162162	6.19861111111	0.44	-1.44528301887
15	0.0075	0.810810810811	0.570833333333	-8.13454545455	11.4264150943
16	0.008	0.810810810811	0.570833333333	0.44	12.8566037736
17	0.0085	-4.88108108108	13.2333333333	-0.989090909091	15.7169811321
18	0.009	-3.45810810811	-10.6847222222	1.86909090909	18.5773584906
19	0.0095	3.65675675676	-10.6847222222	0.44	18.5773584906
20	0.01	3.65675675676	-9.27777777778	-3.84727272727	15.7169811321
21	0.0105	-0.612162162162	-7.87083333333	-0.989090909091	4.27547169811
22	0.011	-2.03513513514	-5.05694444444	0.44	4.27547169811
23	0.0115	-3.45810810811	-5.05694444444	-3.84727272727	1.41509433962
24	0.012	-4.88108108108	-5.05694444444	-2.41818181818	-0.0150943396226
25	0.0125	-3.45810810811	-10.6847222222	-2.41818181818	-0.0150943396226
26	0.013	-2.03513513514	-5.05694444444	-0.989090909091	2.84528301887
27	0.0135	-4.88108108108	-5.05694444444	-0.989090909091	4.27547169811
28	0.014	2.23378378378	-10.6847222222	-0.989090909091	-5.7358490566
29	0.0145	2.23378378378	-12.0916666667	-9.56363636364	-7.16603773585
30	0.015	-0.612162162162	-12.0916666667	-9.56363636364	-2.87547169811
31	0.0155	0.810810810811	4.79166666667	-0.989090909091	-0.0150943396226
32	0.016	-3.45810810811	-24.7541666667	0.44	-2.87547169811
33	0.0165	3.65675675676	-17.7194444444	0.44	-2.87547169811
34	0.017	20.7324324324	-16.3125	0.44	-0.0150943396226
35	0.0175	-0.612162162162	-10.6847222222	4.72727272727	17.1471698113
36	0.018	0.810810810811	-5.05694444444	20.4472727273	-2.87547169811
37	0.0185	-0.612162162162	0.570833333333	-5.27636363636	-1.44528301887
38	0.019	0.810810810811	9.0125	-2.41818181818	-4.30566037736
39	0.0195	-2.03513513514	9.0125	4.72727272727	-1.44528301887
40	0.02	-16.2648648649	20.2680555556	4.72727272727	-1.44528301887
41	0.0205	15.0405405405	24.4888888889	1.86909090909	-10.0264150943
42	0.021	-0.612162162162	28.7097222222	-6.70545454545	-7.16603773585
43	0.0215	2.23378378378	27.3027777778	10.4436363636	-8.59622641509
44	0.022	0.810810810811	17.4541666667	4.72727272727	-2.87547169811
45	0.0225	0.810810810811	1.97777777778	-2.41818181818	-5.7358490566
46	0.023	2.23378378378	7.60555555556	-2.41818181818	-1.44528301887
47	0.0235	-6.30405405405	6.19861111111	-3.84727272727	-1.44528301887
48	0.024	0.810810810811	3.38472222222	0.44	-7.16603773585
49	0.0245	-3.45810810811	3.38472222222	0.44	-1.44528301887
50	0.025	-2.03513513514	3.38472222222	3.29818181818	-1.44528301887
51	0.0255	0.810810810811	4.79166666667	-6.70545454545	-2.87547169811
52	0.026	-0.612162162162	7.60555555556	-8.13454545455	-4.30566037736
53	0.0265	-0.612162162162	13.2333333333	-0.989090909091	-1.44528301887
54	0.027	-0.612162162162	23.0819444444	-0.989090909091	-1.44528301887
55	0.0275	10.7716216216	20.2680555556	-0.989090909091	-1.44528301887
56	0.028	-0.612162162162	14.6402777778	0.44	2.84528301887
57	0.0285	-0.612162162162	10.4194444444	1.86909090909	-8.59622641509
58	0.029	2.23378378378	1.97777777778	-5.27636363636	-1.44528301887
59	0.0295	-0.612162162162	0.570833333333	0.44	-0.0150943396226
60	0.03	-3.45810810811	-3.65	1.86909090909	2.84528301887
61	0.0305	-10.572972973	-7.87083333333	3.29818181818	-1.44528301887
62	0.031	17.8864864865	-10.6847222222	1.86909090909	-2.87547169811
63	0.0315	-0.612162162162	-6.46388888889	-0.989090909091	14.2867924528
64	0.032	0.810810810811	-2.24305555556	19.0181818182	-1.44528301887
65	0.0325	-0.612162162162	-7.87083333333	0.44	-1.44528301887
66	0.033	3.65675675676	-12.0916666667	4.72727272727	-4.30566037736
67	0.0335	7.92567567568	-17.7194444444	3.29818181818	-2.87547169811
68	0.034	-11.9959459459	-26.1611111111	3.29818181818	-1.44528301887
69	0.0345	-4.88108108108	-27.5680555556	1.86909090909	11.4264150943
70	0.035	0.810810810811	-19.1263888889	3.29818181818	-0.0150943396226
71	0.0355	0.810810810811	-10.6847222222	-3.84727272727	1.41509433962
72	0.036	-0.612162162162	3.38472222222	-0.989090909091	2.84528301887
73	0.0365	-0.612162162162	7.60555555556	-0.989090909091	-0.0150943396226
74	0.037	5.07972972973	1.97777777778	0.44	-1.44528301887
75	0.0375	9.34864864865	0.570833333333	-5.27636363636	-1.44528301887
76	0.038	9.34864864865	-2.24305555556	0.44	-2.87547169811
77	0.0385	0.810810810811	-6.46388888889	7.58545454545	-7.16603773585
78	0.039	-2.03513513514	-7.87083333333	-0.989090909091	-4.30566037736
79	0.0395	-0.612162162162	-17.7194444444	0.44	-4.30566037736
80	0.04	-0.612162162162	3.38472222222	0.44	1.41509433962
81	0.0405	-11.9959459459	-5.05694444444	1.86909090909	-0.0150943396226
82	0.041	3.65675675676	-7.87083333333	-0.989090909091	1.41509433962
83	0.0415	-7.72702702703	-10.6847222222	0.44	15.7169811321
84	0.042	0.810810810811	-10.6847222222	4.72727272727	-14.3169811321
85	0.0425	2.23378378378	-6.46388888889	-6.70545454545	-2.87547169811
86	0.043	-2.03513513514	0.570833333333	0.44	-2.87547169811
87	0.0435	-2.03513513514	-12.0916666667	-0.989090909091	-1.44528301887
88	0.044	3.65675675676	-9.27777777778	3.29818181818	-0.0150943396226
89	0.0445	10.7716216216	-10.6847222222	1.86909090909	2.84528301887
90	0.045	0.810810810811	-9.27777777778	3.29818181818	-7.16603773585
91	0.0455	-0.612162162162	-10.6847222222	-6.70545454545	-1.44528301887
92	0.046	0.810810810811	-14.9055555556	-5.27636363636	-0.0150943396226
93	0.0465	-0.612162162162	-33.1958333333	-6.70545454545	4.27547169811
94	0.047	2.23378378378	-30.3819444444	0.44	4.27547169811
95	0.0475	0.810810810811	-33.1958333333	1.86909090909	4.27547169811
96	0.048	-3.45810810811	-28.975	6.15636363636	2.84528301887
97	0.0485	-3.45810810811	-27.5680555556	4.72727272727	-2.87547169811
98	0.049	-4.88108108108	-30.3819444444	3.29818181818	-1.44528301887
99	0.0495	-0.612162162162	-28.975	-6.70545454545	-4.30566037736
100	0.05	3.65675675676	-37.4166666667	-2.41818181818	-1.44528301887
101	0.0505	2.23378378378	-26.1611111111	-0.989090909091	-4.30566037736
102	0.051	-10.572972973	-7.87083333333	-0.989090909091	-1.44528301887
103	0.0515	-7.72702702703	6.19861111111	0.44	12.8566037736
104	0.052	0.810810810811	16.0472222222	-8.13454545455	-11.4566037736
105	0.0525	2.23378378378	28.7097222222	-19.5672727273	-1.44528301887
106	0.053	0.810810810811	38.5583333333	-8.13454545455	1.41509433962
107	0.0535	0.810810810811	28.7097222222	-5.27636363636	1.41509433962
108	0.054	7.92567567568	45.5930555556	-2.41818181818	-1.44528301887
109	0.0545	-17.6878378378	51.2208333333	-3.84727272727	1.41509433962
110	0.055	-9.15	49.8138888889	-3.84727272727	-2.87547169811
111	0.0555	-4.88108108108	48.4069444444	-2.41818181818	5.70566037736
112	0.056	-3.45810810811	51.2208333333	9.01454545455	-4.30566037736
113	0.0565	2.23378378378	20.2680555556	-2.41818181818	-4.30566037736
114	0.057	2.23378378378	10.4194444444	-0.989090909091	-4.30566037736
115	0.0575	3.65675675676	-0.836111111111	4.72727272727	-2.87547169811
116	0.058	16.4635135135	-5.05694444444	4.72727272727	2.84528301887
117	0.0585	-11.9959459459	4.79166666667	9.01454545455	2.84528301887
118	0.059	-7.72702702703	17.4541666667	14.7309090909	1.41509433962
119	0.0595	-10.572972973	28.7097222222	10.4436363636	-0.0150943396226
120	0.06	-11.9959459459	14.6402777778	13.3018181818	-1.44528301887
121	0.0605	-6.30405405405	-16.3125	7.58545454545	-1.44528301887
122	0.061	9.34864864865	-31.7888888889	4.72727272727	-0.0150943396226
123	0.0615	16.4635135135	-20.5333333333	6.15636363636	-1.44528301887
124	0.062	7.92567567568	-6.46388888889	3.29818181818	-11.4566037736
125	0.0625	3.65675675676	0.570833333333	0.44	12.8566037736
126	0.063	2.23378378378	1.97777777778	16.16	-1.44528301887
127	0.0635	2.23378378378	1.97777777778	-0.989090909091	-1.44528301887
128	0.064	0.810810810811	7.60555555556	-5.27636363636	-1.44528301887
129	0.0645	0.810810810811	1.97777777778	-0.989090909091	-0.0150943396226
130	0.065	9.34864864865	3.38472222222	3.29818181818	-5.7358490566
131	0.0655	-0.612162162162	1.97777777778	-0.989090909091	-5.7358490566
132	0.066	-0.612162162162	3.38472222222	11.8727272727	-4.30566037736
133	0.0665	-3.45810810811	1.97777777778	14.7309090909	-2.87547169811
134	0.067	-2.03513513514	0.570833333333	-0.989090909091	-0.0150943396226
135	0.0675	2.23378378378	25.8958333333	3.29818181818	2.84528301887
136	0.068	-11.9959459459	9.0125	3.29818181818	1.41509433962
137	0.0685	20.7324324324	4.79166666667	1.86909090909	-7.16603773585
138	0.069	-2.03513513514	0.570833333333	-9.56363636364	-2.87547169811
139	0.0695	-0.612162162162	1.97777777778	7.58545454545	-8.59622641509
140	0.07	-2.03513513514	-6.46388888889	10.4436363636	-0.0150943396226
141	0.0705	-3.45810810811	9.0125	1.86909090909	4.27547169811
142	0.071	-3.45810810811	-6.46388888889	-0.989090909091	4.27547169811
143	0.0715	-7.72702702703	-5.05694444444	0.44	-1.44528301887
144	0.072	-6.30405405405	-2.24305555556	1.86909090909	-1.44528301887
145	0.0725	0.810810810811	-2.24305555556	-0.989090909091	-11.4566037736
146	0.073	-0.612162162162	0.570833333333	-10.9927272727	-1.44528301887
147	0.0735	0.810810810811	3.38472222222	-2.41818181818	-2.87547169811
148	0.074	0.810810810811	-10.6847222222	1.86909090909	-4.30566037736
149	0.0745	2.23378378378	0.570833333333	-0.989090909091	-4.30566037736
150	0.075	-14.8418918919	0.570833333333	-2.41818181818	-2.87547169811
151	0.0755	-3.45810810811	3.38472222222	0.44	-10.0264150943
152	0.076	-2.03513513514	3.38472222222	-5.27636363636	-5.7358490566
153	0.0765	0.810810810811	4.79166666667	1.86909090909	-11.4566037736
154	0.077	-3.45810810811	-0.836111111111	-5.27636363636	-0.0150943396226
155	0.0775	0.810810810811	13.2333333333	1.86909090909	2.84528301887
156	0.078	-3.45810810811	-9.27777777778	3.29818181818	2.84528301887
157	0.0785	17.8864864865	-2.24305555556	4.72727272727	-1.44528301887
158	0.079	-2.03513513514	-2.24305555556	3.29818181818	2.84528301887
159	0.0795	0.810810810811	-2.24305555556	4.72727272727	1.41509433962
160	0.08	-2.03513513514	0.570833333333	-0.989090909091	-0.0150943396226
161	0.0805	-2.03513513514	-3.65	-6.70545454545	-1.44528301887
162	0.081	-2.03513513514	3.38472222222	-0.989090909091	-0.0150943396226
163	0.0815	-0.612162162162	-7.87083333333	1.86909090909	1.41509433962
164	0.082	10.7716216216	0.570833333333	0.44	2.84528301887
165	0.0825	-10.572972973	1.97777777778	1.86909090909	18.5773584906
166	0.083	-4.88108108108	3.38472222222	4.72727272727	-2.87547169811
167	0.0835	-2.03513513514	6.19861111111	17.5890909091	-2.87547169811
168	0.084	-4.88108108108	-7.87083333333	-0.989090909091	-4.30566037736
169	0.0845	-0.612162162162	20.2680555556	0.44	-0.0150943396226
170	0.085	-2.03513513514	-2.24305555556	-0.989090909091	1.41509433962
171	0.0855	16.4635135135	0.570833333333	-3.84727272727	-4.30566037736
172	0.086	-0.612162162162	3.38472222222	-2.41818181818	-11.4566037736
173	0.0865	-2.03513513514	1.97777777778	-0.989090909091	14.2867924528
174	0.087	-2.03513513514	-0.836111111111	-0.989090909091	-4.30566037736
175	0.0875	-0.612162162162	-16.3125	1.86909090909	-1.44528301887
176	0.088	2.23378378378	-17.7194444444	4.72727272727	-2.87547169811
177	0.0885	5.07972972973	-7.87083333333	3.29818181818	-4.30566037736
178	0.089	-6.30405405405	-2.24305555556	3.29818181818	-2.87547169811
179	0.0895	-0.612162162162	0.570833333333	0.44	-7.16603773585
180	0.09	-0.612162162162	3.38472222222	4.72727272727	-5.7358490566
181	0.0905	-0.612162162162	3.38472222222	11.8727272727	-5.7358490566
182	0.091	-2.03513513514	-2.24305555556	-5.27636363636	-5.7358490566
183	0.0915	0.810810810811	0.570833333333	-2.41818181818	-1.44528301887
184	0.092	-0.612162162162	0.570833333333	0.44	-1.44528301887
185	0.0925	17.8864864865	0.570833333333	0.44	-4.30566037736
186	0.093	3.65675675676	-2.24305555556	1.86909090909	2.84528301887
187	0.0935	2.23378378378	-2.24305555556	1.86909090909	-5.7358490566
188	0.094	0.810810810811	0.570833333333	-8.13454545455	-0.0150943396226
189	0.0945	2.23378378378	14.6402777778	-0.989090909091	-0.0150943396226
190	0.095	-4.88108108108	16.0472222222	-0.989090909091	1.41509433962
191	0.0955	-17.6878378378	-3.65	-0.989090909091	-0.0150943396226
192	0.096	-11.9959459459	-3.65	0.44	2.84528301887
193	0.0965	-0.612162162162	-2.24305555556	-12.4218181818	-2.87547169811
194	0.097	0.810810810811	6.19861111111	-6.70545454545	-4.30566037736
195	0.0975	-0.612162162162	6.19861111111	0.44	-1.44528301887
196	0.098	-2.03513513514	13.2333333333	4.72727272727	-1.44528301887
197	0.0985	-7.72702702703	7.60555555556	1.86909090909	2.84528301887
198	0.099	-14.8418918919	0.570833333333	1.86909090909	-0.0150943396226
199	0.0995	-13.4189189189	-0.836111111111	4.72727272727	-2.87547169811
200	0.1	-0.612162162162	4.79166666667	0.44	20.0075471698
201	0.1005	-3.45810810811	10.4194444444	19.0181818182	-1.44528301887
202	0.101	-0.612162162162	-2.24305555556	3.29818181818	-1.44528301887
203	0.1015	-0.612162162162	-10.6847222222	-0.989090909091	-1.44528301887
204	0.102	3.65675675676	0.570833333333	0.44	-2.87547169811
205	0.1025	10.7716216216	-0.836111111111	-0.989090909091	-1.44528301887
206	0.103	0.810810810811	-2.24305555556	3.29818181818	-8.59622641509
207	0.1035	-0.612162162162	1.97777777778	-0.989090909091	18.5773584906
208	0.104	-3.45810810811	6.19861111111	17.5890909091	-1.44528301887
209	0.1045	-2.03513513514	1.97777777778	-2.41818181818	-1.44528301887
210	0.105	0.810810810811	0.570833333333	0.44	-5.7358490566
211	0.1055	2.23378378378	4.79166666667	-0.989090909091	-4.30566037736
212	0.106	-0.612162162162	14.6402777778	0.44	-5.7358490566
213	0.1065	-6.30405405405	10.4194444444	3.29818181818	-8.59622641509
214	0.107	-2.03513513514	4.79166666667	1.86909090909	-11.4566037736
215	0.1075	-2.03513513514	0.570833333333	-6.70545454545	-2.87547169811
216	0.108	-3.45810810811	1.97777777778	-6.70545454545	-1.44528301887
217	0.1085	-3.45810810811	-2.24305555556	1.86909090909	2.84528301887
218	0.109	-13.4189189189	-3.65	-0.989090909091	-1.44528301887
219	0.1095	17.8864864865	-6.46388888889	0.44	-5.7358490566
220	0.11	-2.03513513514	-9.27777777778	1.86909090909	2.84528301887
221	0.1105	-0.612162162162	-9.27777777778	-6.70545454545	4.27547169811
222	0.111	-2.03513513514	-6.46388888889	-12.4218181818	1.41509433962
223	0.1115	-2.03513513514	-14.9055555556	-2.41818181818	5.70566037736
224	0.112	-4.88108108108	-7.87083333333	1.86909090909	4.27547169811
225	0.1125	0.810810810811	-6.46388888889	0.44	1.41509433962
226	0.113	17.8864864865	-5.05694444444	-0.989090909091	8.56603773585
227	0.1135	-0.612162162162	13.2333333333	4.72727272727	-1.44528301887
228	0.114	-0.612162162162	23.0819444444	3.29818181818	-10.0264150943
229	0.1145	-0.612162162162	10.4194444444	1.86909090909	-22.8981132075
230	0.115	-2.03513513514	4.79166666667	6.15636363636	-20.0377358491
231	0.1155	-4.88108108108	-7.87083333333	3.29818181818	-14.3169811321
232	0.116	-9.15	-0.836111111111	1.86909090909	-8.59622641509
233	0.1165	-10.572972973	-3.65	4.72727272727	-2.87547169811
234	0.117	-3.45810810811	-3.65	1.86909090909	-5.7358490566
235	0.1175	-3.45810810811	-3.65	3.29818181818	24.2981132075
236	0.118	-2.03513513514	-5.05694444444	17.5890909091	15.7169811321
237	0.1185	0.810810810811	0.570833333333	4.72727272727	18.5773584906
238	0.119	0.810810810811	1.97777777778	6.15636363636	18.5773584906
239	0.1195	-13.4189189189	3.38472222222	1.86909090909	21.4377358491
240	0.12	-14.8418918919	17.4541666667	3.29818181818	1.41509433962
241	0.1205	-7.72702702703	31.5236111111	-9.56363636364	4.27547169811
242	0.121	-4.88108108108	35.7444444444	-3.84727272727	4.27547169811
243	0.1215	0.810810810811	6.19861111111	-0.989090909091	-1.44528301887
244	0.122	0.810810810811	-16.3125	1.86909090909	-4.30566037736
245	0.1225	3.65675675676	-19.1263888889	-3.84727272727	-4.30566037736
246	0.123	3.65675675676	-12.0916666667	-0.989090909091	-2.87547169811
247	0.1235	-2.03513513514	-12.0916666667	1.86909090909	-8.59622641509
248	0.124	-0.612162162162	-16.3125	-0.989090909091	7.1358490566
249	0.1245	-4.88108108108	-16.3125	17.5890909091	-11.4566037736
250	0.125	-2.03513513514	-27.5680555556	-0.989090909091	-10.0264150943
251	0.1255	0.810810810811	3.38472222222	-2.41818181818	-2.87547169811
252	0.126	-16.2648648649	-16.3125	-0.989090909091	-0.0150943396226
253	0.1265	17.8864864865	-26.1611111111	-0.989090909091	-0.0150943396226
254	0.127	-4.88108108108	-43.0444444444	-0.989090909091	-0.0150943396226
255	0.1275	0.810810810811	-51.4861111111	-6.70545454545	4.27547169811
256	0.128	-2.03513513514	-45.8583333333	-10.9927272727	4.27547169811
257	0.1285	-0.612162162162	-40.2305555556	-0.989090909091	4.27547169811
258	0.129	-0.612162162162	-50.0791666667	-0.989090909091	1.41509433962
259	0.1295	6.5027027027	-43.0444444444	-0.989090909091	-1.44528301887
260	0.13	19.3094594595	-38.8236111111	-0.989090909091	-1.44528301887
261	0.1305	0.810810810811	-28.975	0.44	-15.7471698113
262	0.131	-0.612162162162	-13.4986111111	-9.56363636364	-4.30566037736
263	0.1315	-2.03513513514	6.19861111111	-5.27636363636	-8.59622641509
264	0.132	-0.612162162162	28.7097222222	-6.70545454545	-4.30566037736
265	0.1325	0.810810810811	56.8486111111	-0.989090909091	-5.7358490566
266	0.133	-4.88108108108	45.5930555556	0.44	-5.7358490566
267	0.1335	13.6175675676	51.2208333333	-0.989090909091	-15.7471698113
268	0.134	-3.45810810811	48.4069444444	-2.41818181818	-1.44528301887
269	0.1345	-2.03513513514	48.4069444444	1.86909090909	11.4264150943
270	0.135	-3.45810810811	38.5583333333	-6.70545454545	-1.44528301887
271	0.1355	-0.612162162162	24.4888888889	-3.84727272727	2.84528301887
272	0.136	0.810810810811	7.60555555556	-5.27636363636	5.70566037736
273	0.1365	0.810810810811	1.97777777778	-0.989090909091	7.1358490566
274	0.137	0.810810810811	4.79166666667	-0.989090909091	7.1358490566
275	0.1375	-6.30405405405	0.570833333333	0.44	14.2867924528
276	0.138	0.810810810811	3.38472222222	16.16	-2.87547169811
277	0.1385	-2.03513513514	6.19861111111	20.4472727273	-4.30566037736
278	0.139	0.810810810811	-0.836111111111	3.29818181818	-1.44528301887
279	0.1395	0.810810810811	25.8958333333	0.44	-1.44528301887
280	0.14	-10.572972973	7.60555555556	3.29818181818	2.84528301887
281	0.1405	-10.572972973	9.0125	4.72727272727	-4.30566037736
282	0.141	0.810810810811	14.6402777778	1.86909090909	-5.7358490566
283	0.1415	-0.612162162162	14.6402777778	0.44	11.4264150943
284	0.142	0.810810810811	6.19861111111	13.3018181818	-4.30566037736
285	0.1425	-0.612162162162	-2.24305555556	-3.84727272727	-2.87547169811
286	0.143	0.810810810811	6.19861111111	-6.70545454545	-0.0150943396226
287	0.1435	-11.9959459459	3.38472222222	-5.27636363636	1.41509433962
288	0.144	-0.612162162162	3.38472222222	-0.989090909091	-2.87547169811
289	0.1445	-4.88108108108	4.79166666667	-2.41818181818	-5.7358490566
290	0.145	0.810810810811	4.79166666667	-6.70545454545	-1.44528301887
291	0.1455	0.810810810811	4.79166666667	-2.41818181818	-1.44528301887
292	0.146	0.810810810811	1.97777777778	0.44	-0.0150943396226
293	0.1465	-3.45810810811	-23.3472222222	0.44	-0.0150943396226
294	0.147	7.92567567568	-24.7541666667	6.15636363636	-0.0150943396226
295	0.1475	5.07972972973	-21.9402777778	4.72727272727	-0.0150943396226
296	0.148	-2.03513513514	-20.5333333333	6.15636363636	-2.87547169811
297	0.1485	-4.88108108108	-17.7194444444	16.16	-1.44528301887
298	0.149	-0.612162162162	-9.27777777778	20.4472727273	-1.44528301887
299	0.1495	-2.03513513514	-6.46388888889	7.58545454545	-2.87547169811
300	0.15	3.65675675676	14.6402777778	7.58545454545	-0.0150943396226
301	0.1505	-3.45810810811	1.97777777778	7.58545454545	1.41509433962
302	0.151	-9.15	4.79166666667	6.15636363636	-4.30566037736
303	0.1515	-0.612162162162	7.60555555556	1.86909090909	-8.59622641509
304	0.152	-2.03513513514	14.6402777778	-5.27636363636	-0.0150943396226
305	0.1525	-2.03513513514	14.6402777778	14.7309090909	-2.87547169811
306	0.153	-3.45810810811	3.38472222222	1.86909090909	-2.87547169811
307	0.1535	-0.612162162162	18.8611111111	0.44	-1.44528301887
308	0.154	13.6175675676	27.3027777778	-0.989090909091	-1.44528301887
309	0.1545	-0.612162162162	27.3027777778	-0.989090909091	2.84528301887
310	0.155	0.810810810811	18.8611111111	-0.989090909091	-5.7358490566
311	0.1555	3.65675675676	6.19861111111	0.44	-4.30566037736
312	0.156	-0.612162162162	0.570833333333	1.86909090909	-5.7358490566
313	0.1565	-4.88108108108	-10.6847222222	1.86909090909	-4.30566037736
314	0.157	-3.45810810811	-10.6847222222	1.86909090909	-7.16603773585
315	0.1575	16.4635135135	-7.87083333333	0.44	-1.44528301887
316	0.158	-6.30405405405	-9.27777777778	3.29818181818	-1.44528301887
317	0.1585	-3.45810810811	-9.27777777778	-0.989090909091	-5.7358490566
318	0.159	0.810810810811	-5.05694444444	-0.989090909091	14.2867924528
319	0.1595	0.810810810811	-5.05694444444	16.16	-0.0150943396226
320	0.16	-0.612162162162	-14.9055555556	-2.41818181818	1.41509433962
321	0.1605	-3.45810810811	16.0472222222	-0.989090909091	-0.0150943396226
322	0.161	-16.2648648649	-5.05694444444	-2.41818181818	4.27547169811
323	0.1615	-6.30405405405	-6.46388888889	0.44	-2.87547169811
324	0.162	-3.45810810811	-9.27777777778	-3.84727272727	5.70566037736
325	0.1625	0.810810810811	-12.0916666667	3.29818181818	-4.30566037736
326	0.163	-3.45810810811	-10.6847222222	-10.9927272727	-1.44528301887
327	0.1635	0.810810810811	-3.65	-5.27636363636	-1.44528301887
328	0.164	-3.45810810811	-14.9055555556	-2.41818181818	-2.87547169811
329	0.1645	-3.45810810811	-5.05694444444	-0.989090909091	-7.16603773585
330	0.165	-4.88108108108	-2.24305555556	-2.41818181818	14.2867924528
331	0.1655	-2.03513513514	-2.24305555556	0.44	11.4264150943
332	0.166	-2.03513513514	-3.65	19.0181818182	-2.87547169811
333	0.1665	-3.45810810811	-3.65	1.86909090909	-1.44528301887
334	0.167	0.810810810811	-16.3125	3.29818181818	-2.87547169811
335	0.1675	3.65675675676	-6.46388888889	3.29818181818	-1.44528301887
336	0.168	-10.572972973	-0.836111111111	4.72727272727	-1.44528301887
337	0.1685	-3.45810810811	-3.65	4.72727272727	-5.7358490566
338	0.169	-0.612162162162	0.570833333333	-0.989090909091	8.56603773585
339	0.1695	-0.612162162162	4.79166666667	6.15636363636	-11.4566037736
340	0.17	-0.612162162162	6.19861111111	-0.989090909091	-2.87547169811
341	0.1705	-0.612162162162	6.19861111111	1.86909090909	-2.87547169811
342	0.171	-13.4189189189	3.38472222222	1.86909090909	-2.87547169811
343	0.1715	3.65675675676	4.79166666667	-0.989090909091	-5.7358490566
344	0.172	-10.572972973	1.97777777778	-0.989090909091	-2.87547169811
345	0.1725	-2.03513513514	0.570833333333	16.16	-8.59622641509
346	0.173	-3.45810810811	7.60555555556	-5.27636363636	-2.87547169811
347	0.1735	-2.03513513514	7.60555555556	-0.989090909091	-5.7358490566
348	0.174	0.810810810811	32.9305555556	-2.41818181818	-4.30566037736
349	0.1745	-2.03513513514	7.60555555556	0.44	-1.44528301887
350	0.175	-6.30405405405	-0.836111111111	1.86909090909	-7.16603773585
351	0.1755	-3.45810810811	-6.46388888889	0.44	7.1358490566
352	0.176	-0.612162162162	-7.87083333333	-0.989090909091	-1.44528301887
353	0.1765	-4.88108108108	-7.87083333333	16.16	-0.0150943396226
354	0.177	-0.612162162162	-19.1263888889	1.86909090909	-0.0150943396226
355	0.1775	-0.612162162162	-14.9055555556	0.44	-1.44528301887
356	0.178	-0.612162162162	0.570833333333	3.29818181818	-1.44528301887
357	0.1785	-2.03513513514	0.570833333333	1.86909090909	-2.87547169811
358	0.179	2.23378378378	0.570833333333	3.29818181818	-1.44528301887
359	0.1795	0.810810810811	0.570833333333	0.44	8.56603773585
360	0.18	0.810810810811	-0.836111111111	17.5890909091	-4.30566037736
361	0.1805	0.810810810811	-6.46388888889	0.44	-1.44528301887
362	0.181	-4.88108108108	21.675	3.29818181818	-1.44528301887
363	0.1815	-16.2648648649	0.570833333333	1.86909090909	-1.44528301887
364	0.182	0.810810810811	0.570833333333	1.86909090909	-1.44528301887
365	0.1825	-2.03513513514	1.97777777778	1.86909090909	7.1358490566
366	0.183	-6.30405405405	-0.836111111111	-3.84727272727	-10.0264150943
367	0.1835	-7.72702702703	0.570833333333	-6.70545454545	-1.44528301887
368	0.184	-4.88108108108	9.0125	0.44	-2.87547169811
369	0.1845	-0.612162162162	-0.836111111111	1.86909090909	-1.44528301887
370	0.185	-9.15	0.570833333333	1.86909090909	1.41509433962
371	0.1855	-10.572972973	0.570833333333	1.86909090909	-1.44528301887
372	0.186	0.810810810811	1.97777777778	-3.84727272727	-2.87547169811
373	0.1865	0.810810810811	1.97777777778	-10.9927272727	-2.87547169811
374	0.187	2.23378378378	-6.46388888889	-0.989090909091	-7.16603773585
375	0.1875	-2.03513513514	0.570833333333	-0.989090909091	-7.16603773585
376	0.188	-2.03513513514	-0.836111111111	1.86909090909	-7.16603773585
377	0.1885	6.5027027027	1.97777777778	-2.41818181818	-7.16603773585
378	0.189	-10.572972973	1.97777777778	0.44	-1.44528301887
379	0.1895	-3.45810810811	-2.24305555556	1.86909090909	-7.16603773585
380	0.19	-3.45810810811	-3.65	-6.70545454545	-2.87547169811
381	0.1905	-2.03513513514	0.570833333333	-3.84727272727	2.84528301887
382	0.191	-2.03513513514	-3.65	-0.989090909091	4.27547169811
383	0.1915	0.810810810811	-0.836111111111	-2.41818181818	1.41509433962
384	0.192	-4.88108108108	-5.05694444444	1.86909090909	1.41509433962
385	0.1925	0.810810810811	-2.24305555556	0.44	-7.16603773585
386	0.193	0.810810810811	-3.65	4.72727272727	12.8566037736
387	0.1935	-0.612162162162	-5.05694444444	-0.989090909091	-1.44528301887
388	0.194	-2.03513513514	-12.0916666667	-0.989090909091	-2.87547169811
389	0.1945	2.23378378378	-0.836111111111	0.44	-4.30566037736
390	0.195	17.8864864865	-0.836111111111	3.29818181818	-2.87547169811
391	0.1955	-10.572972973	6.19861111111	9.01454545455	14.2867924528
392	0.196	-2.03513513514	9.0125	4.72727272727	-10.0264150943
393	0.1965	2.23378378378	6.19861111111	-6.70545454545	1.41509433962
394	0.197	-0.612162162162	3.38472222222	-5.27636363636	-1.44528301887
395	0.1975	0.810810810811	16.0472222222	-0.989090909091	2.84528301887
396	0.198	-13.4189189189	6.19861111111	-0.989090909091	-4.30566037736
397	0.1985	17.8864864865	7.60555555556	-0.989090909091	-1.44528301887
398	0.199	-4.88108108108	-0.836111111111	-2.41818181818	2.84528301887
399	0.1995	-3.45810810811	-0.836111111111	-2.41818181818	-1.44528301887
400	0.2	-3.45810810811	1.97777777778	1.86909090909	-2.87547169811
401	0.2005	-3.45810810811	0.570833333333	-0.989090909091	-0.0150943396226
402	0.201	-4.88108108108	-2.24305555556	0.44	-1.44528301887
403	0.2015	0.810810810811	3.38472222222	-0.989090909091	-2.87547169811
404	0.202	-13.4189189189	4.79166666667	-0.989090909091	2.84528301887
405	0.2025	-4.88108108108	4.79166666667	0.44	-12.8867924528
406	0.203	-4.88108108108	4.79166666667	0.44	-15.7471698113
407	0.2035	-0.612162162162	-5.05694444444	-6.70545454545	-11.4566037736
408	0.204	-2.03513513514	-3.65	-2.41818181818	-11.4566037736
409	0.2045	-2.03513513514	-7.87083333333	1.86909090909	-10.0264150943
410	0.205	3.65675675676	-6.46388888889	0.44	-8.59622641509
411	0.2055	10.7716216216	-9.27777777778	3.29818181818	-5.7358490566
412	0.206	-2.03513513514	-9.27777777778	3.29818181818	-18.6075471698
413	0.2065	-0.612162162162	-7.87083333333	-5.27636363636	-12.8867924528
414	0.207	-3.45810810811	-6.46388888889	9.01454545455	-18.6075471698
415	0.2075	-3.45810810811	-2.24305555556	-2.41818181818	-10.0264150943
416	0.208	-0.612162162162	9.0125	-0.989090909091	2.84528301887
417	0.2085	-2.03513513514	1.97777777778	-0.989090909091	12.8566037736
418	0.209	13.6175675676	3.38472222222	-0.989090909091	15.7169811321
419	0.2095	-4.88108108108	6.19861111111	-2.41818181818	20.0075471698
420	0.21	-3.45810810811	3.38472222222	4.72727272727	7.1358490566
421	0.2105	-4.88108108108	4.79166666667	-5.27636363636	15.7169811321
422	0.211	-2.03513513514	17.4541666667	1.86909090909	14.2867924528
423	0.2115	-2.03513513514	17.4541666667	3.29818181818	14.2867924528
424	0.212	-7.72702702703	16.0472222222	3.29818181818	8.56603773585
425	0.2125	19.3094594595	9.0125	1.86909090909	4.27547169811
426	0.213	-0.612162162162	7.60555555556	-0.989090909091	12.8566037736
427	0.2135	-3.45810810811	9.0125	17.5890909091	-7.16603773585
428	0.214	0.810810810811	4.79166666667	-0.989090909091	-11.4566037736
429	0.2145	0.810810810811	0.570833333333	-2.41818181818	-8.59622641509
430	0.215	5.07972972973	-2.24305555556	0.44	-2.87547169811
431	0.2155	-13.4189189189	-2.24305555556	3.29818181818	-0.0150943396226
432	0.216	-0.612162162162	-0.836111111111	3.29818181818	-7.16603773585
433	0.2165	-2.03513513514	0.570833333333	-3.84727272727	-0.0150943396226
434	0.217	-3.45810810811	3.38472222222	-6.70545454545	-4.30566037736
435	0.2175	-2.03513513514	6.19861111111	-2.41818181818	-0.0150943396226
436	0.218	-2.03513513514	0.570833333333	-6.70545454545	-2.87547169811
437	0.2185	-0.612162162162	0.570833333333	1.86909090909	1.41509433962
438	0.219	-2.03513513514	4.79166666667	-0.989090909091	-0.0150943396226
439	0.2195	0.810810810811	1.97777777778	-3.84727272727	21.4377358491
440	0.22	-0.612162162162	3.38472222222	-0.989090909091	17.1471698113
441	0.2205	-2.03513513514	3.38472222222	17.5890909091	-2.87547169811
442	0.221	-0.612162162162	7.60555555556	3.29818181818	-1.44528301887
443	0.2215	0.810810810811	21.675	-3.84727272727	-4.30566037736
444	0.222	2.23378378378	-6.46388888889	-2.41818181818	-7.16603773585
445	0.2225	-4.88108108108	-34.6027777778	-2.41818181818	-7.16603773585
446	0.223	13.6175675676	-52.8930555556	0.44	-5.7358490566
447	0.2235	0.810810810811	-52.8930555556	3.29818181818	-12.8867924528
448	0.224	-2.03513513514	-44.4513888889	-8.13454545455	-8.59622641509
449	0.2245	-2.03513513514	-43.0444444444	-8.13454545455	-0.0150943396226
450	0.225	0.810810810811	-34.6027777778	-0.989090909091	-1.44528301887
451	0.2255	-0.612162162162	-54.3	-2.41818181818	-0.0150943396226
452	0.226	23.5783783784	-27.5680555556	0.44	-2.87547169811
453	0.2265	-4.88108108108	-6.46388888889	1.86909090909	5.70566037736
454	0.227	-0.612162162162	1.97777777778	-0.989090909091	-5.7358490566
455	0.2275	-3.45810810811	3.38472222222	-2.41818181818	-0.0150943396226
456	0.228	-2.03513513514	7.60555555556	14.7309090909	-1.44528301887
457	0.2285	-0.612162162162	34.3375	-0.989090909091	-1.44528301887
458	0.229	-3.45810810811	35.7444444444	-0.989090909091	-4.30566037736
459	0.2295	-13.4189189189	45.5930555556	1.86909090909	-5.7358490566
460	0.23	0.810810810811	52.6277777778	0.44	-15.7471698113
461	0.2305	2.23378378378	48.4069444444	-0.989090909091	8.56603773585
462	0.231	0.810810810811	38.5583333333	19.0181818182	-5.7358490566
463	0.2315	-3.45810810811	13.2333333333	-0.989090909091	-2.87547169811
464	0.232	-2.03513513514	4.79166666667	-0.989090909091	-0.0150943396226
465	0.2325	-2.03513513514	14.6402777778	-2.41818181818	-1.44528301887
466	0.233	-7.72702702703	14.6402777778	-0.989090909091	-4.30566037736
467	0.2335	-13.4189189189	18.8611111111	-2.41818181818	-0.0150943396226
468	0.234	-0.612162162162	10.4194444444	-5.27636363636	17.1471698113
469	0.2345	3.65675675676	16.0472222222	14.7309090909	1.41509433962
470	0.235	2.23378378378	-0.836111111111	-2.41818181818	-0.0150943396226
471	0.2355	2.23378378378	6.19861111111	-5.27636363636	-1.44528301887
472	0.236	2.23378378378	10.4194444444	-5.27636363636	-2.87547169811
473	0.2365	0.810810810811	16.0472222222	-0.989090909091	2.84528301887
474	0.237	-3.45810810811	23.0819444444	-2.41818181818	11.4264150943
475	0.2375	-0.612162162162	23.0819444444	4.72727272727	-8.59622641509
476	0.238	0.810810810811	18.8611111111	1.86909090909	-4.30566037736
477	0.2385	0.810810810811	14.6402777778	3.29818181818	-4.30566037736
478	0.239	-2.03513513514	1.97777777778	1.86909090909	-2.87547169811
479	0.2395	0.810810810811	-2.24305555556	6.15636363636	-5.7358490566
480	0.24	19.3094594595	3.38472222222	4.72727272727	-15.7471698113
481	0.2405	-3.45810810811	4.79166666667	4.72727272727	-1.44528301887
482	0.241	-3.45810810811	13.2333333333	7.58545454545	-5.7358490566
483	0.2415	-2.03513513514	9.0125	3.29818181818	-4.30566037736
484	0.242	-2.03513513514	14.6402777778	4.72727272727	-7.16603773585
485	0.2425	-6.30405405405	3.38472222222	4.72727272727	-2.87547169811
486	0.243	0.810810810811	-6.46388888889	1.86909090909	-0.0150943396226
487	0.2435	-6.30405405405	-16.3125	-0.989090909091	-1.44528301887
488	0.244	-0.612162162162	-10.6847222222	-0.989090909091	-4.30566037736
489	0.2445	-2.03513513514	0.570833333333	-0.989090909091	1.41509433962
490	0.245	-4.88108108108	-3.65	1.86909090909	-0.0150943396226
491	0.2455	-2.03513513514	-13.4986111111	0.44	1.41509433962
492	0.246	2.23378378378	-31.7888888889	0.44	1.41509433962
493	0.2465	19.3094594595	-31.7888888889	-2.41818181818	4.27547169811
494	0.247	-9.15	-28.975	0.44	7.1358490566
495	0.2475	-0.612162162162	-17.7194444444	4.72727272727	1.41509433962
496	0.248	-2.03513513514	-6.46388888889	3.29818181818	-1.44528301887
497	0.2485	0.810810810811	0.570833333333	-9.56363636364	4.27547169811
498	0.249	0.810810810811	21.675	-0.989090909091	4.27547169811
499	0.2495	-2.03513513514	0.570833333333	-2.41818181818	-0.0150943396226
500	0.25	20.7324324324	20.2680555556	-2.41818181818	-8.59622641509
501	0.2505	-0.612162162162	35.7444444444	-0.989090909091	2.84528301887
502	0.251	-4.88108108108	39.9652777778	-0.989090909091	-4.30566037736
503	0.2515	-4.88108108108	34.3375	-6.70545454545	1.41509433962
504	0.252	-3.45810810811	32.9305555556	-6.70545454545	1.41509433962
505	0.2525	-4.88108108108	18.8611111111	1.86909090909	1.41509433962
506	0.253	5.07972972973	13.2333333333	0.44	-2.87547169811
507	0.2535	12.1945945946	-2.24305555556	1.86909090909	-8.59622641509
508	0.254	-0.612162162162	-14.9055555556	1.86909090909	-2.87547169811
509	0.2545	-2.03513513514	-24.7541666667	1.86909090909	-8.59622641509
510	0.255	-0.612162162162	-24.7541666667	-6.70545454545	-1.44528301887
511	0.2555	0.810810810811	-10.6847222222	-0.989090909091	-5.7358490566
512	0.256	-2.03513513514	-23.3472222222	3.29818181818	-7.16603773585
513	0.2565	3.65675675676	-19.1263888889	-0.989090909091	-2.87547169811
514	0.257	20.7324324324	-20.5333333333	0.44	-0.0150943396226
515	0.2575	0.810810810811	-17.7194444444	3.29818181818	-2.87547169811
516	0.258	-0.612162162162	-13.4986111111	1.86909090909	-2.87547169811
517	0.2585	-2.03513513514	-10.6847222222	-0.989090909091	-0.0150943396226
518	0.259	-3.45810810811	1.97777777778	0.44	-1.44528301887
519	0.2595	-0.612162162162	-6.46388888889	4.72727272727	-0.0150943396226
520	0.26	7.92567567568	-9.27777777778	0.44	-1.44528301887
521	0.2605	-3.45810810811	-10.6847222222	-0.989090909091	4.27547169811
522	0.261	0.810810810811	-9.27777777778	-5.27636363636	-4.30566037736
523	0.2615	0.810810810811	-5.05694444444	-12.4218181818	2.84528301887
524	0.262	0.810810810811	-0.836111111111	-0.989090909091	1.41509433962
525	0.2625	-2.03513513514	16.0472222222	-3.84727272727	1.41509433962
526	0.263	-0.612162162162	-9.27777777778	-0.989090909091	1.41509433962
527	0.2635	16.4635135135	-16.3125	0.44	-0.0150943396226
528	0.264	9.34864864865	-27.5680555556	-0.989090909091	-2.87547169811
529	0.2645	0.810810810811	-31.7888888889	3.29818181818	11.4264150943
530	0.265	-2.03513513514	-30.3819444444	17.5890909091	-2.87547169811
531	0.2655	-0.612162162162	-31.7888888889	21.8763636364	-2.87547169811
532	0.266	-2.03513513514	-33.1958333333	4.72727272727	-1.44528301887
533	0.2665	-3.45810810811	-17.7194444444	4.72727272727	-1.44528301887
534	0.267	-14.8418918919	-14.9055555556	4.72727272727	-0.0150943396226
535	0.2675	-0.612162162162	-16.3125	11.8727272727	-7.16603773585
536	0.268	-0.612162162162	-16.3125	6.15636363636	-2.87547169811
537	0.2685	0.810810810811	-12.0916666667	3.29818181818	-2.87547169811
538	0.269	2.23378378378	-0.836111111111	10.4436363636	-1.44528301887
539	0.2695	-2.03513513514	16.0472222222	0.44	-2.87547169811
540	0.27	-4.88108108108	30.1166666667	0.44	-2.87547169811
541	0.2705	-11.9959459459	23.0819444444	1.86909090909	2.84528301887
542	0.271	-3.45810810811	23.0819444444	1.86909090909	-7.16603773585
543	0.2715	-0.612162162162	20.2680555556	0.44	-2.87547169811
544	0.272	0.810810810811	10.4194444444	-5.27636363636	-2.87547169811
545	0.2725	-2.03513513514	14.6402777778	-3.84727272727	-4.30566037736
546	0.273	-10.572972973	6.19861111111	1.86909090909	-0.0150943396226
547	0.2735	-17.6878378378	7.60555555556	-3.84727272727	-1.44528301887
548	0.274	9.34864864865	6.19861111111	-2.41818181818	-12.8867924528
549	0.2745	0.810810810811	4.79166666667	-10.9927272727	-7.16603773585
550	0.275	0.810810810811	4.79166666667	-6.70545454545	-10.0264150943
551	0.2755	0.810810810811	4.79166666667	-5.27636363636	-7.16603773585
552	0.276	-0.612162162162	0.570833333333	-6.70545454545	-4.30566037736
553	0.2765	-4.88108108108	-9.27777777778	1.86909090909	-7.16603773585
554	0.277	2.23378378378	0.570833333333	-0.989090909091	-5.7358490566
555	0.2775	-6.30405405405	9.0125	-0.989090909091	-2.87547169811
556	0.278	-2.03513513514	13.2333333333	1.86909090909	-7.16603773585
557	0.2785	0.810810810811	7.60555555556	-0.989090909091	-2.87547169811
558	0.279	2.23378378378	7.60555555556	1.86909090909	-1.44528301887
559	0.2795	0.810810810811	17.4541666667	0.44	4.27547169811
560	0.28	2.23378378378	20.2680555556	1.86909090909	5.70566037736
561	0.2805	5.07972972973	16.0472222222	0.44	2.84528301887
562	0.281	-10.572972973	14.6402777778	0.44	1.41509433962
563	0.2815	-2.03513513514	7.60555555556	-0.989090909091	-8.59622641509
564	0.282	-2.03513513514	-2.24305555556	-8.13454545455	-0.0150943396226
565	0.2825	2.23378378378	-7.87083333333	-0.989090909091	4.27547169811
566	0.283	-2.03513513514	3.38472222222	0.44	4.27547169811
567	0.2835	-0.612162162162	-16.3125	3.29818181818	7.1358490566
568	0.284	12.1945945946	-10.6847222222	1.86909090909	4.27547169811
569	0.2845	-2.03513513514	-9.27777777778	3.29818181818	1.41509433962
570	0.285	-0.612162162162	-7.87083333333	0.44	5.70566037736
571	0.2855	0.810810810811	-6.46388888889	-6.70545454545	-5.7358490566
572	0.286	0.810810810811	-3.65	-2.41818181818	-1.44528301887
573	0.2865	0.810810810811	-5.05694444444	0.44	-1.44528301887
574	0.287	2.23378378378	4.79166666667	-0.989090909091	-1.44528301887
575	0.2875	7.92567567568	-3.65	-2.41818181818	-5.7358490566
576	0.288	-7.72702702703	-0.836111111111	-0.989090909091	-5.7358490566
577	0.2885	0.810810810811	1.97777777778	-3.84727272727	14.2867924528
578	0.289	-0.612162162162	3.38472222222	16.16	-1.44528301887
579	0.2895	-3.45810810811	0.570833333333	16.16	-2.87547169811
580	0.29	-0.612162162162	27.3027777778	-2.41818181818	2.84528301887
581	0.2905	-4.88108108108	9.0125	-3.84727272727	4.27547169811
582	0.291	-10.572972973	11.8263888889	1.86909090909	-10.0264150943
583	0.2915	-0.612162162162	7.60555555556	-2.41818181818	-10.0264150943
584	0.292	-0.612162162162	10.4194444444	-6.70545454545	-1.44528301887
585	0.2925	-2.03513513514	31.5236111111	16.16	-7.16603773585
586	0.293	-4.88108108108	37.1513888889	3.29818181818	-1.44528301887
587	0.2935	-2.03513513514	27.3027777778	4.72727272727	-1.44528301887
588	0.294	2.23378378378	-6.46388888889	1.86909090909	-0.0150943396226
589	0.2945	5.07972972973	-20.5333333333	4.72727272727	1.41509433962
590	0.295	-3.45810810811	-19.1263888889	6.15636363636	-2.87547169811
591	0.2955	-0.612162162162	-14.9055555556	4.72727272727	-8.59622641509
592	0.296	-2.03513513514	-12.0916666667	-2.41818181818	-1.44528301887
593	0.2965	-3.45810810811	-9.27777777778	-6.70545454545	-4.30566037736
594	0.297	-2.03513513514	-16.3125	-0.989090909091	-1.44528301887
595	0.2975	3.65675675676	-14.9055555556	-0.989090909091	-10.0264150943
596	0.298	17.8864864865	-5.05694444444	-0.989090909091	-34.3396226415
597	0.2985	-0.612162162162	0.570833333333	-0.989090909091	-21.4679245283
598	0.299	0.810810810811	6.19861111111	17.5890909091	-18.6075471698
599	0.2995	0.810810810811	3.38472222222	11.8727272727	-8.59622641509
600	0.3	-2.03513513514	-2.24305555556	-0.989090909091	-0.0150943396226
601	0.3005	0.810810810811	1.97777777778	-0.989090909091	7.1358490566
602	0.301	-9.15	6.19861111111	0.44	14.2867924528
603	0.3015	7.92567567568	3.38472222222	0.44	15.7169811321
604	0.302	-3.45810810811	1.97777777778	1.86909090909	14.2867924528
605	0.3025	0.810810810811	-0.836111111111	4.72727272727	4.27547169811
606	0.303	3.65675675676	-3.65	-5.27636363636	15.7169811321
607	0.3035	0.810810810811	3.38472222222	0.44	18.5773584906
608	0.304	-2.03513513514	0.570833333333	1.86909090909	15.7169811321
609	0.3045	-10.572972973	3.38472222222	1.86909090909	7.1358490566
610	0.305	-6.30405405405	3.38472222222	0.44	-2.87547169811
611	0.3055	-2.03513513514	6.19861111111	-0.989090909091	-22.8981132075
612	0.306	0.810810810811	6.19861111111	-2.41818181818	-2.87547169811
613	0.3065	0.810810810811	3.38472222222	7.58545454545	-14.3169811321
614	0.307	9.34864864865	-6.46388888889	0.44	-12.8867924528
615	0.3075	0.810810810811	11.8263888889	-0.989090909091	-8.59622641509
616	0.308	-6.30405405405	1.97777777778	0.44	-2.87547169811
617	0.3085	3.65675675676	1.97777777778	0.44	-2.87547169811
618	0.309	-3.45810810811	1.97777777778	-5.27636363636	1.41509433962
619	0.3095	-0.612162162162	4.79166666667	-3.84727272727	-1.44528301887
620	0.31	0.810810810811	4.79166666667	-5.27636363636	5.70566037736
621	0.3105	-0.612162162162	9.0125	3.29818181818	4.27547169811
622	0.311	0.810810810811	-0.836111111111	0.44	2.84528301887
623	0.3115	-4.88108108108	3.38472222222	-0.989090909091	2.84528301887
624	0.312	-0.612162162162	3.38472222222	4.72727272727	1.41509433962
625	0.3125	-2.03513513514	6.19861111111	7.58545454545	-4.30566037736
626	0.313	0.810810810811	9.0125	6.15636363636	-1.44528301887
627	0.3135	0.810810810811	10.4194444444	1.86909090909	-1.44528301887
628	0.314	0.810810810811	13.2333333333	3.29818181818	-2.87547169811
629	0.3145	0.810810810811	9.0125	0.44	-5.7358490566
630	0.315	-4.88108108108	-6.46388888889	0.44	-7.16603773585
631	0.3155	-7.72702702703	-9.27777777778	1.86909090909	-10.0264150943
632	0.316	-2.03513513514	-5.05694444444	-0.989090909091	17.1471698113
633	0.3165	-2.03513513514	-2.24305555556	20.4472727273	-0.0150943396226
634	0.317	0.810810810811	-2.24305555556	19.0181818182	1.41509433962
635	0.3175	3.65675675676	18.8611111111	-0.989090909091	1.41509433962
636	0.318	-0.612162162162	0.570833333333	0.44	-0.0150943396226
637	0.3185	-7.72702702703	-2.24305555556	1.86909090909	-11.4566037736
638	0.319	-2.03513513514	-0.836111111111	0.44	-1.44528301887
639	0.3195	-3.45810810811	0.570833333333	-12.4218181818	2.84528301887
640	0.32	-3.45810810811	3.38472222222	-10.9927272727	-5.7358490566
641	0.3205	-6.30405405405	-10.6847222222	0.44	-2.87547169811
642	0.321	-2.03513513514	3.38472222222	-0.989090909091	-2.87547169811
643	0.3215	5.07972972973	13.2333333333	-0.989090909091	-2.87547169811
644	0.322	-4.88108108108	4.79166666667	-0.989090909091	4.27547169811
645	0.3225	3.65675675676	0.570833333333	0.44	-12.8867924528
646	0.323	6.5027027027	0.570833333333	-10.9927272727	-1.44528301887
647	0.3235	9.34864864865	3.38472222222	0.44	-1.44528301887
648	0.324	3.65675675676	18.8611111111	-0.989090909091	-1.44528301887
649	0.3245	-3.45810810811	-2.24305555556	1.86909090909	-1.44528301887
650	0.325	17.8864864865	9.0125	1.86909090909	2.84528301887
651	0.3255	-2.03513513514	10.4194444444	1.86909090909	5.70566037736
652	0.326	0.810810810811	9.0125	0.44	-7.16603773585
653	0.3265	0.810810810811	6.19861111111	-0.989090909091	2.84528301887
654	0.327	-2.03513513514	7.60555555556	-5.27636363636	2.84528301887
655	0.3275	-0.612162162162	0.570833333333	0.44	2.84528301887
656	0.328	0.810810810811	0.570833333333	3.29818181818	-0.0150943396226
657	0.3285	-0.612162162162	-3.65	0.44	4.27547169811
658	0.329	-0.612162162162	-0.836111111111	1.86909090909	1.41509433962
659	0.3295	0.810810810811	-2.24305555556	4.72727272727	2.84528301887
660	0.33	2.23378378378	-3.65	7.58545454545	-7.16603773585
661	0.3305	0.810810810811	-6.46388888889	-6.70545454545	-1.44528301887
662	0.331	3.65675675676	-0.836111111111	0.44	-1.44528301887
663	0.3315	0.810810810811	-28.975	-0.989090909091	-1.44528301887
664	0.332	17.8864864865	-17.7194444444	1.86909090909	-1.44528301887
665	0.3325	-0.612162162162	-9.27777777778	-0.989090909091	18.5773584906
666	0.333	-2.03513513514	-5.05694444444	1.86909090909	18.5773584906
667	0.3335	-0.612162162162	-6.46388888889	16.16	-0.0150943396226
668	0.334	0.810810810811	-9.27777777778	-0.989090909091	-1.44528301887
669	0.3345	3.65675675676	23.0819444444	-2.41818181818	-2.87547169811
670	0.335	-2.03513513514	10.4194444444	-2.41818181818	-2.87547169811
671	0.3355	20.7324324324	16.0472222222	-0.989090909091	-4.30566037736
672	0.336	-0.612162162162	10.4194444444	-2.41818181818	-7.16603773585
673	0.3365	-0.612162162162	4.79166666667	-12.4218181818	-1.44528301887
674	0.337	-2.03513513514	6.19861111111	-0.989090909091	-0.0150943396226
675	0.3375	-0.612162162162	-7.87083333333	0.44	-2.87547169811
676	0.338	0.810810810811	3.38472222222	4.72727272727	-4.30566037736
677	0.3385	-10.572972973	3.38472222222	4.72727272727	-4.30566037736
678	0.339	2.23378378378	13.2333333333	4.72727272727	-0.0150943396226
679	0.3395	-0.612162162162	9.0125	6.15636363636	-4.30566037736
680	0.34	-0.612162162162	9.0125	7.58545454545	-10.0264150943
681	0.3405	0.810810810811	6.19861111111	-3.84727272727	-1.44528301887
682	0.341	-2.03513513514	14.6402777778	-3.84727272727	-0.0150943396226
683	0.3415	-3.45810810811	14.6402777778	0.44	2.84528301887
684	0.342	-16.2648648649	13.2333333333	1.86909090909	-0.0150943396226
685	0.3425	10.7716216216	4.79166666667	-0.989090909091	-7.16603773585
686	0.343	2.23378378378	0.570833333333	-2.41818181818	-7.16603773585
687	0.3435	-0.612162162162	6.19861111111	-5.27636363636	-8.59622641509
688	0.344	2.23378378378	9.0125	-9.56363636364	1.41509433962
689	0.3445	0.810810810811	23.0819444444	0.44	-4.30566037736
690	0.345	-0.612162162162	0.570833333333	1.86909090909	-5.7358490566
691	0.3455	3.65675675676	0.570833333333	0.44	-4.30566037736
692	0.346	7.92567567568	-3.65	-0.989090909091	-2.87547169811
693	0.3465	-0.612162162162	-0.836111111111	-0.989090909091	-10.0264150943
694	0.347	-0.612162162162	-2.24305555556	13.3018181818	-4.30566037736
695	0.3475	-0.612162162162	-3.65	-12.4218181818	-4.30566037736
696	0.348	-3.45810810811	0.570833333333	0.44	-4.30566037736
697	0.3485	-2.03513513514	-5.05694444444	-0.989090909091	-1.44528301887
698	0.349	-11.9959459459	-0.836111111111	0.44	-2.87547169811
699	0.3495	12.1945945946	0.570833333333	0.44	-4.30566037736
700	0.35	-4.88108108108	-0.836111111111	3.29818181818	2.84528301887
701	0.3505	0.810810810811	-0.836111111111	-2.41818181818	-12.8867924528
702	0.351	0.810810810811	-0.836111111111	-6.70545454545	-2.87547169811
703	0.3515	0.810810810811	-0.836111111111	-3.84727272727	-2.87547169811
704	0.352	-3.45810810811	-6.46388888889	3.29818181818	-1.44528301887
705	0.3525	0.810810810811	0.570833333333	3.29818181818	-0.0150943396226
706	0.353	16.4635135135	-0.836111111111	1.86909090909	2.84528301887
707	0.3535	-2.03513513514	-2.24305555556	3.29818181818	-4.30566037736
708	0.354	-0.612162162162	-2.24305555556	-3.84727272727	12.8566037736
709	0.3545	-0.612162162162	-3.65	17.5890909091	-0.0150943396226
710	0.355	0.810810810811	-10.6847222222	3.29818181818	1.41509433962
711	0.3555	2.23378378378	16.0472222222	0.44	2.84528301887
712	0.356	0.810810810811	6.19861111111	0.44	7.1358490566
713	0.3565	10.7716216216	3.38472222222	-2.41818181818	7.1358490566
714	0.357	-7.72702702703	3.38472222222	0.44	4.27547169811
715	0.3575	-0.612162162162	16.0472222222	1.86909090909	-2.87547169811
716	0.358	0.810810810811	24.4888888889	-6.70545454545	4.27547169811
717	0.3585	-0.612162162162	17.4541666667	-2.41818181818	2.84528301887
718	0.359	-0.612162162162	-3.65	-0.989090909091	2.84528301887
719	0.3595	-4.88108108108	-3.65	0.44	-1.44528301887
720	0.36	-4.88108108108	3.38472222222	3.29818181818	5.70566037736
721	0.3605	0.810810810811	3.38472222222	4.72727272727	-2.87547169811
722	0.361	0.810810810811	3.38472222222	4.72727272727	5.70566037736
723	0.3615	3.65675675676	3.38472222222	17.5890909091	-2.87547169811
724	0.362	0.810810810811	-0.836111111111	20.4472727273	-0.0150943396226
725	0.3625	0.810810810811	16.0472222222	1.86909090909	4.27547169811
726	0.363	-4.88108108108	-9.27777777778	0.44	2.84528301887
727	0.3635	3.65675675676	-7.87083333333	3.29818181818	2.84528301887
728	0.364	-6.30405405405	-6.46388888889	-0.989090909091	17.1471698113
729	0.3645	-0.612162162162	-3.65	1.86909090909	15.7169811321
730	0.365	2.23378378378	-6.46388888889	0.44	-2.87547169811
731	0.3655	2.23378378378	-10.6847222222	3.29818181818	-2.87547169811
732	0.366	3.65675675676	18.8611111111	0.44	-4.30566037736
733	0.3665	-7.72702702703	14.6402777778	0.44	-1.44528301887
734	0.367	3.65675675676	6.19861111111	3.29818181818	-2.87547169811
735	0.3675	-2.03513513514	1.97777777778	0.44	-4.30566037736
736	0.368	10.7716216216	1.97777777778	0.44	15.7169811321
737	0.3685	0.810810810811	1.97777777778	16.16	-1.44528301887
738	0.369	2.23378378378	1.97777777778	-9.56363636364	-0.0150943396226
739	0.3695	-2.03513513514	1.97777777778	-3.84727272727	-1.44528301887
740	0.37	0.810810810811	9.0125	-0.989090909091	-4.30566037736
741	0.3705	7.92567567568	10.4194444444	-3.84727272727	-2.87547169811
742	0.371	3.65675675676	0.570833333333	-2.41818181818	-11.4566037736
743	0.3715	2.23378378378	-6.46388888889	-2.41818181818	14.2867924528
744	0.372	2.23378378378	-12.0916666667	17.5890909091	-4.30566037736
745	0.3725	3.65675675676	-10.6847222222	-5.27636363636	-2.87547169811
746	0.373	6.5027027027	-16.3125	-3.84727272727	-1.44528301887
747	0.3735	5.07972972973	-0.836111111111	-2.41818181818	-5.7358490566
748	0.374	-4.88108108108	4.79166666667	-0.989090909091	-2.87547169811
749	0.3745	-2.03513513514	13.2333333333	-2.41818181818	-0.0150943396226
750	0.375	0.810810810811	13.2333333333	-5.27636363636	-10.0264150943
751	0.3755	2.23378378378	0.570833333333	-8.13454545455	-1.44528301887
752	0.376	0.810810810811	-3.65	0.44	-4.30566037736
753	0.3765	0.810810810811	-5.05694444444	0.44	-4.30566037736
754	0.377	-13.4189189189	-5.05694444444	0.44	-4.30566037736
755	0.3775	13.6175675676	-10.6847222222	0.44	-7.16603773585
756	0.378	0.810810810811	-5.05694444444	-8.13454545455	-1.44528301887
757	0.3785	0.810810810811	-5.05694444444	9.01454545455	-1.44528301887
758	0.379	0.810810810811	-2.24305555556	19.0181818182	-2.87547169811
759	0.3795	-0.612162162162	-10.6847222222	3.29818181818	-1.44528301887
760	0.38	-2.03513513514	14.6402777778	3.29818181818	-2.87547169811
761	0.3805	-10.572972973	1.97777777778	0.44	-2.87547169811
762	0.381	5.07972972973	4.79166666667	3.29818181818	-4.30566037736
763	0.3815	0.810810810811	-0.836111111111	4.72727272727	15.7169811321
764	0.382	0.810810810811	1.97777777778	6.15636363636	-10.0264150943
765	0.3825	-0.612162162162	4.79166666667	0.44	-2.87547169811
766	0.383	-0.612162162162	17.4541666667	3.29818181818	-2.87547169811
767	0.3835	-3.45810810811	3.38472222222	3.29818181818	-2.87547169811
768	0.384	7.92567567568	1.97777777778	3.29818181818	-2.87547169811
769	0.3845	-6.30405405405	4.79166666667	0.44	-1.44528301887
770	0.385	0.810810810811	4.79166666667	-2.41818181818	-12.8867924528
771	0.3855	0.810810810811	1.97777777778	-10.9927272727	-4.30566037736
772	0.386	0.810810810811	7.60555555556	-3.84727272727	-2.87547169811
773	0.3865	-0.612162162162	7.60555555556	-0.989090909091	-2.87547169811
774	0.387	2.23378378378	14.6402777778	-0.989090909091	-5.7358490566
775	0.3875	-6.30405405405	-0.836111111111	-2.41818181818	-2.87547169811
776	0.388	20.7324324324	-6.46388888889	0.44	-4.30566037736
777	0.3885	0.810810810811	-2.24305555556	-6.70545454545	-2.87547169811
778	0.389	-0.612162162162	6.19861111111	-5.27636363636	-8.59622641509
779	0.3895	0.810810810811	4.79166666667	-6.70545454545	-2.87547169811
780	0.39	2.23378378378	1.97777777778	-0.989090909091	-2.87547169811
781	0.3905	-0.612162162162	-2.24305555556	0.44	-2.87547169811
782	0.391	-14.8418918919	-0.836111111111	0.44	-1.44528301887
783	0.3915	0.810810810811	0.570833333333	-5.27636363636	-4.30566037736
784	0.392	0.810810810811	0.570833333333	-5.27636363636	15.7169811321
785	0.3925	0.810810810811	1.97777777778	16.16	-1.44528301887
786	0.393	2.23378378378	-3.65	16.16	-2.87547169811
787	0.3935	2.23378378378	-9.27777777778	-0.989090909091	1.41509433962
788	0.394	3.65675675676	-10.6847222222	-0.989090909091	-1.44528301887
789	0.3945	12.1945945946	-10.6847222222	0.44	1.41509433962
790	0.395	-0.612162162162	-6.46388888889	-2.41818181818	-4.30566037736
791	0.3955	0.810810810811	-9.27777777778	10.4436363636	-8.59622641509
792	0.396	-2.03513513514	-9.27777777778	1.86909090909	-1.44528301887
793	0.3965	-0.612162162162	-0.836111111111	-0.989090909091	-1.44528301887
794	0.397	-3.45810810811	4.79166666667	4.72727272727	-1.44528301887
795	0.3975	-9.15	6.19861111111	7.58545454545	-1.44528301887
796	0.398	20.7324324324	-0.836111111111	7.58545454545	-7.16603773585
797	0.3985	3.65675675676	-2.24305555556	-2.41818181818	-4.30566037736
798	0.399	3.65675675676	0.570833333333	-0.989090909091	-8.59622641509
799	0.3995	0.810810810811	1.97777777778	-2.41818181818	-4.30566037736
800	0.4	0.810810810811	-0.836111111111	-0.989090909091	-5.7358490566
801	0.4005	0.810810810811	0.570833333333	0.44	-5.7358490566
802	0.401	-4.88108108108	1.97777777778	-2.41818181818	-4.30566037736
803	0.4015	-2.03513513514	1.97777777778	1.86909090909	-2.87547169811
804	0.402	0.810810810811	4.79166666667	1.86909090909	-4.30566037736
805	0.4025	0.810810810811	4.79166666667	3.29818181818	-14.3169811321
806	0.403	-0.612162162162	0.570833333333	-0.989090909091	-1.44528301887
807	0.4035	5.07972972973	25.8958333333	0.44	-2.87547169811
808	0.404	-0.612162162162	21.675	-0.989090909091	-1.44528301887
809	0.4045	-11.9959459459	1.97777777778	-0.989090909091	-0.0150943396226
810	0.405	3.65675675676	0.570833333333	3.29818181818	-11.4566037736
811	0.4055	0.810810810811	1.97777777778	-0.989090909091	-12.8867924528
812	0.406	2.23378378378	4.79166666667	-6.70545454545	-4.30566037736
813	0.4065	-0.612162162162	1.97777777778	-0.989090909091	-8.59622641509
814	0.407	-0.612162162162	-3.65	0.44	-18.6075471698
815	0.4075	-9.15	-5.05694444444	0.44	-24.3283018868
816	0.408	5.07972972973	-5.05694444444	-0.989090909091	-15.7471698113
817	0.4085	0.810810810811	-5.05694444444	-0.989090909091	-17.1773584906
818	0.409	0.810810810811	-3.65	17.5890909091	1.41509433962
819	0.4095	-3.45810810811	-6.46388888889	-3.84727272727	5.70566037736
820	0.41	-4.88108108108	-12.0916666667	-2.41818181818	11.4264150943
821	0.4105	-2.03513513514	-5.05694444444	-2.41818181818	14.2867924528
822	0.411	-6.30405405405	-0.836111111111	-0.989090909091	11.4264150943
823	0.4115	22.1554054054	-2.24305555556	-2.41818181818	8.56603773585
824	0.412	2.23378378378	-5.05694444444	4.72727272727	22.8679245283
825	0.4125	2.23378378378	-6.46388888889	3.29818181818	17.1471698113
826	0.413	0.810810810811	-6.46388888889	1.86909090909	12.8566037736
827	0.4135	5.07972972973	0.570833333333	0.44	5.70566037736
828	0.414	5.07972972973	-5.05694444444	1.86909090909	-1.44528301887
829	0.4145	20.7324324324	0.570833333333	-0.989090909091	-5.7358490566
830	0.415	-4.88108108108	6.19861111111	3.29818181818	-5.7358490566
831	0.4155	2.23378378378	6.19861111111	1.86909090909	-12.8867924528
832	0.416	-2.03513513514	3.38472222222	1.86909090909	11.4264150943
833	0.4165	-3.45810810811	-0.836111111111	19.0181818182	-2.87547169811
834	0.417	0.810810810811	-12.0916666667	-0.989090909091	-1.44528301887
835	0.4175	3.65675675676	-5.05694444444	-0.989090909091	-1.44528301887
836	0.418	-13.4189189189	-7.87083333333	0.44	-2.87547169811
837	0.4185	-4.88108108108	-5.05694444444	0.44	-1.44528301887
838	0.419	-3.45810810811	-2.24305555556	-2.41818181818	-7.16603773585
839	0.4195	-3.45810810811	0.570833333333	-2.41818181818	-4.30566037736
840	0.42	-4.88108108108	0.570833333333	-9.56363636364	-4.30566037736
841	0.4205	-0.612162162162	16.0472222222	-2.41818181818	-2.87547169811
842	0.421	-3.45810810811	-10.6847222222	-2.41818181818	-5.7358490566
843	0.4215	19.3094594595	0.570833333333	-2.41818181818	-15.7471698113
844	0.422	-0.612162162162	-0.836111111111	-0.989090909091	-2.87547169811
845	0.4225	2.23378378378	6.19861111111	-0.989090909091	-7.16603773585
846	0.423	3.65675675676	20.2680555556	-0.989090909091	-7.16603773585
847	0.4235	3.65675675676	24.4888888889	1.86909090909	-7.16603773585
848	0.424	5.07972972973	0.570833333333	4.72727272727	-7.16603773585
849	0.4245	6.5027027027	-24.7541666667	7.58545454545	-5.7358490566
850	0.425	20.7324324324	-21.9402777778	7.58545454545	-4.30566037736
851	0.4255	-7.72702702703	-17.7194444444	4.72727272727	-1.44528301887
852	0.426	-4.88108108108	-10.6847222222	1.86909090909	-7.16603773585
853	0.4265	-3.45810810811	-5.05694444444	0.44	2.84528301887
854	0.427	-3.45810810811	-0.836111111111	-3.84727272727	5.70566037736
855	0.4275	0.810810810811	17.4541666667	3.29818181818	2.84528301887
856	0.428	7.92567567568	-0.836111111111	3.29818181818	2.84528301887
857	0.4285	12.1945945946	-2.24305555556	0.44	-2.87547169811
858	0.429	-4.88108108108	-0.836111111111	0.44	-5.7358490566
859	0.4295	-2.03513513514	-0.836111111111	-2.41818181818	14.2867924528
860	0.43	-4.88108108108	-3.65	16.16	-4.30566037736
861	0.4305	-3.45810810811	-16.3125	-0.989090909091	-2.87547169811
862	0.431	0.810810810811	-10.6847222222	0.44	-4.30566037736
863	0.4315	2.23378378378	-2.24305555556	-0.989090909091	-2.87547169811
864	0.432	-11.9959459459	-2.24305555556	-2.41818181818	-4.30566037736
865	0.4325	-2.03513513514	-5.05694444444	-3.84727272727	-12.8867924528
866	0.433	-3.45810810811	-5.05694444444	-10.9927272727	-1.44528301887
867	0.4335	-2.03513513514	-0.836111111111	-2.41818181818	-0.0150943396226
868	0.434	-2.03513513514	-10.6847222222	-0.989090909091	-1.44528301887
869	0.4345	2.23378378378	-6.46388888889	-0.989090909091	-2.87547169811
870	0.435	-9.15	-10.6847222222	3.29818181818	-1.44528301887
871	0.4355	3.65675675676	-9.27777777778	3.29818181818	-2.87547169811
872	0.436	2.23378378378	-5.05694444444	0.44	-8.59622641509
873	0.4365	-0.612162162162	0.570833333333	0.44	15.7169811321
874	0.437	-3.45810810811	1.97777777778	23.3054545455	-0.0150943396226
875	0.4375	-3.45810810811	-9.27777777778	0.44	-1.44528301887
876	0.438	2.23378378378	1.97777777778	1.86909090909	1.41509433962
877	0.4385	-4.88108108108	4.79166666667	3.29818181818	-2.87547169811
878	0.439	19.3094594595	0.570833333333	0.44	-7.16603773585
879	0.4395	-0.612162162162	-0.836111111111	6.15636363636	-10.0264150943
880	0.44	0.810810810811	-2.24305555556	0.44	-5.7358490566
881	0.4405	2.23378378378	-2.24305555556	3.29818181818	-8.59622641509
882	0.441	0.810810810811	6.19861111111	0.44	-4.30566037736
883	0.4415	2.23378378378	-7.87083333333	-2.41818181818	-2.87547169811
884	0.442	0.810810810811	-2.24305555556	-0.989090909091	-4.30566037736
885	0.4425	17.8864864865	-5.05694444444	-0.989090909091	-1.44528301887
886	0.443	2.23378378378	-2.24305555556	3.29818181818	-7.16603773585
887	0.4435	-0.612162162162	-2.24305555556	17.5890909091	-1.44528301887
888	0.444	-0.612162162162	-3.65	14.7309090909	1.41509433962
889	0.4445	2.23378378378	23.0819444444	1.86909090909	4.27547169811
890	0.445	-2.03513513514	0.570833333333	1.86909090909	8.56603773585
891	0.4455	-11.9959459459	-0.836111111111	4.72727272727	4.27547169811
892	0.446	-0.612162162162	-3.65	3.29818181818	-2.87547169811
893	0.4465	-0.612162162162	0.570833333333	-6.70545454545	-5.7358490566
894	0.447	-3.45810810811	0.570833333333	7.58545454545	-8.59622641509
895	0.4475	-4.88108108108	-14.9055555556	3.29818181818	-7.16603773585
896	0.448	-0.612162162162	-12.0916666667	1.86909090909	-7.16603773585
897	0.4485	-0.612162162162	-10.6847222222	0.44	-2.87547169811
898	0.449	-2.03513513514	-7.87083333333	-0.989090909091	-0.0150943396226
899	0.4495	0.810810810811	-9.27777777778	0.44	4.27547169811
900	0.45	-0.612162162162	-7.87083333333	0.44	2.84528301887
901	0.4505	-0.612162162162	-9.27777777778	0.44	2.84528301887
902	0.451	-3.45810810811	-6.46388888889	-0.989090909091	5.70566037736
903	0.4515	-0.612162162162	-7.87083333333	-0.989090909091	4.27547169811
904	0.452	2.23378378378	-5.05694444444	-3.84727272727	5.70566037736
905	0.4525	-3.45810810811	-5.05694444444	1.86909090909	2.84528301887
906	0.453	-4.88108108108	-3.65	-0.989090909091	-1.44528301887
907	0.4535	-2.03513513514	-2.24305555556	-5.27636363636	-1.44528301887
908	0.454	-2.03513513514	0.570833333333	-5.27636363636	4.27547169811
909	0.4545	-3.45810810811	-2.24305555556	-6.70545454545	-0.0150943396226
910	0.455	-4.88108108108	0.570833333333	0.44	-1.44528301887
911	0.4555	-9.15	-2.24305555556	0.44	-4.30566037736
912	0.456	19.3094594595	-0.836111111111	0.44	-20.0377358491
913	0.4565	3.65675675676	1.97777777778	1.86909090909	-4.30566037736
914	0.457	2.23378378378	0.570833333333	4.72727272727	-7.16603773585
915	0.4575	0.810810810811	-6.46388888889	1.86909090909	-5.7358490566
916	0.458	-2.03513513514	-6.46388888889	-2.41818181818	-2.87547169811
917	0.4585	-3.45810810811	-16.3125	3.29818181818	-1.44528301887
918	0.459	-9.15	-17.7194444444	1.86909090909	-0.0150943396226
919	0.4595	-7.72702702703	-14.9055555556	1.86909090909	-1.44528301887
920	0.46	-0.612162162162	-13.4986111111	1.86909090909	-5.7358490566
921	0.4605	0.810810810811	-9.27777777778	3.29818181818	12.8566037736
922	0.461	-2.03513513514	-5.05694444444	19.0181818182	-2.87547169811
923	0.4615	-0.612162162162	-10.6847222222	3.29818181818	-1.44528301887
924	0.462	3.65675675676	-0.836111111111	4.72727272727	2.84528301887
925	0.4625	-11.9959459459	-0.836111111111	3.29818181818	4.27547169811
926	0.463	2.23378378378	1.97777777778	3.29818181818	5.70566037736
927	0.4635	0.810810810811	0.570833333333	0.44	4.27547169811
928	0.464	3.65675675676	6.19861111111	4.72727272727	-5.7358490566
929	0.4645	2.23378378378	-10.6847222222	1.86909090909	-0.0150943396226
930	0.465	3.65675675676	18.8611111111	-0.989090909091	-1.44528301887
931	0.4655	-2.03513513514	-2.24305555556	1.86909090909	-2.87547169811
932	0.466	3.65675675676	1.97777777778	-0.989090909091	-2.87547169811
933	0.4665	-10.572972973	-0.836111111111	-3.84727272727	17.1471698113
934	0.467	-2.03513513514	-5.05694444444	-10.9927272727	-4.30566037736
935	0.4675	-0.612162162162	-5.05694444444	7.58545454545	-7.16603773585
936	0.468	-0.612162162162	-13.4986111111	-0.989090909091	-1.44528301887
937	0.4685	0.810810810811	0.570833333333	1.86909090909	-1.44528301887
938	0.469	-3.45810810811	-9.27777777778	-0.989090909091	1.41509433962
939	0.4695	-14.8418918919	-9.27777777778	-0.989090909091	-0.0150943396226
940	0.47	-7.72702702703	-0.836111111111	0.44	-1.44528301887
941	0.4705	-3.45810810811	10.4194444444	-0.989090909091	-2.87547169811
942	0.471	-0.612162162162	14.6402777778	-6.70545454545	-1.44528301887
943	0.4715	-0.612162162162	7.60555555556	0.44	-2.87547169811
944	0.472	0.810810810811	-16.3125	0.44	-4.30566037736
945	0.4725	5.07972972973	-6.46388888889	-0.989090909091	-4.30566037736
946	0.473	0.810810810811	0.570833333333	-2.41818181818	-2.87547169811
947	0.4735	-2.03513513514	3.38472222222	-0.989090909091	1.41509433962
948	0.474	-0.612162162162	0.570833333333	3.29818181818	5.70566037736
949	0.4745	-2.03513513514	6.19861111111	-3.84727272727	-0.0150943396226
950	0.475	-3.45810810811	10.4194444444	3.29818181818	-2.87547169811
951	0.4755	-0.612162162162	32.9305555556	4.72727272727	-2.87547169811
952	0.476	0.810810810811	-2.24305555556	1.86909090909	-2.87547169811
953	0.4765	-2.03513513514	-7.87083333333	1.86909090909	-2.87547169811
954	0.477	-6.30405405405	-7.87083333333	-0.989090909091	15.7169811321
955	0.4775	-0.612162162162	-7.87083333333	-8.13454545455	-0.0150943396226
956	0.478	0.810810810811	-2.24305555556	-5.27636363636	-0.0150943396226
957	0.4785	-0.612162162162	0.570833333333	-5.27636363636	-1.44528301887
958	0.479	-0.612162162162	9.0125	-0.989090909091	-1.44528301887
959	0.4795	-2.03513513514	1.97777777778	-2.41818181818	1.41509433962
960	0.48	-11.9959459459	0.570833333333	-0.989090909091	2.84528301887
961	0.4805	-3.45810810811	4.79166666667	-2.41818181818	-1.44528301887
962	0.481	-0.612162162162	6.19861111111	-0.989090909091	-2.87547169811
963	0.4815	-0.612162162162	0.570833333333	-9.56363636364	-1.44528301887
964	0.482	-0.612162162162	-6.46388888889	-3.84727272727	-1.44528301887
965	0.4825	0.810810810811	3.38472222222	4.72727272727	1.41509433962
966	0.483	5.07972972973	-2.24305555556	1.86909090909	1.41509433962
967	0.4835	3.65675675676	0.570833333333	1.86909090909	1.41509433962
968	0.484	-9.15	-0.836111111111	3.29818181818	-2.87547169811
969	0.4845	0.810810810811	1.97777777778	-8.13454545455	-1.44528301887
970	0.485	-0.612162162162	3.38472222222	-9.56363636364	-4.30566037736
971	0.4855	-2.03513513514	16.0472222222	-0.989090909091	1.41509433962
972	0.486	-0.612162162162	-0.836111111111	1.86909090909	1.41509433962
973	0.4865	-3.45810810811	-3.65	3.29818181818	-0.0150943396226
974	0.487	-10.572972973	-6.46388888889	1.86909090909	2.84528301887
975	0.4875	-0.612162162162	-7.87083333333	4.72727272727	-5.7358490566
976	0.488	-0.612162162162	-7.87083333333	1.86909090909	-4.30566037736
977	0.4885	-0.612162162162	-10.6847222222	-8.13454545455	-4.30566037736
978	0.489	-2.03513513514	-16.3125	-2.41818181818	-4.30566037736
979	0.4895	0.810810810811	10.4194444444	-2.41818181818	-2.87547169811
980	0.49	-14.8418918919	-5.05694444444	0.44	-0.0150943396226
981	0.4905	-4.88108108108	-9.27777777778	1.86909090909	1.41509433962
982	0.491	-2.03513513514	-0.836111111111	1.86909090909	-8.59622641509
983	0.4915	-2.03513513514	1.97777777778	17.5890909091	-21.4679245283
984	0.492	-3.45810810811	1.97777777778	17.5890909091	-21.4679245283
985	0.4925	-4.88108108108	-5.05694444444	4.72727272727	-15.7471698113
986	0.493	-2.03513513514	-5.05694444444	4.72727272727	-8.59622641509
987	0.4935	0.810810810811	-9.27777777778	4.72727272727	1.41509433962
988	0.494	-4.88108108108	-10.6847222222	4.72727272727	12.8566037736
989	0.4945	3.65675675676	-5.05694444444	6.15636363636	4.27547169811
990	0.495	3.65675675676	1.97777777778	4.72727272727	18.5773584906
991	0.4955	2.23378378378	-7.87083333333	1.86909090909	14.2867924528
992	0.496	0.810810810811	-7.87083333333	3.29818181818	17.1471698113
993	0.4965	0.810810810811	-12.0916666667	4.72727272727	14.2867924528
994	0.497	0.810810810811	-0.836111111111	3.29818181818	12.8566037736
995	0.4975	-10.572972973	-2.24305555556	0.44	7.1358490566
996	0.498	-3.45810810811	0.570833333333	-0.989090909091	-1.44528301887
997	0.4985	-3.45810810811	1.97777777778	-2.41818181818	14.2867924528
998	0.499	0.810810810811	1.97777777778	3.29818181818	-8.59622641509
999	0.4995	0.810810810811	-13.4986111111	-0.989090909091	-5.7358490566
1000	0.5	0.810810810811	-12.0916666667	0.44	-1.44528301887
1001	0.5005	5.07972972973	-5.05694444444	3.29818181818	-2.87547169811
1002	0.501	-7.72702702703	-6.46388888889	3.29818181818	1.41509433962
1003	0.5015	-0.612162162162	-3.65	3.29818181818	-7.16603773585
1004	0.502	-2.03513513514	-5.05694444444	0.44	2.84528301887
1005	0.5025	-0.612162162162	-12.0916666667	-0.989090909091	-2.87547169811
1006	0.503	-3.45810810811	-12.0916666667	-2.41818181818	-2.87547169811
1007	0.5035	-3.45810810811	-10.6847222222	0.44	-2.87547169811
1008	0.504	17.8864864865	0.570833333333	-0.989090909091	-10.0264150943
1009	0.5045	-4.88108108108	1.97777777778	0.44	-2.87547169811
1010	0.505	0.810810810811	0.570833333333	0.44	-1.44528301887
1011	0.5055	-0.612162162162	-2.24305555556	4.72727272727	-10.0264150943
1012	0.506	2.23378378378	-6.46388888889	-3.84727272727	-5.7358490566
1013	0.5065	3.65675675676	7.60555555556	1.86909090909	-1.44528301887
1014	0.507	2.23378378378	-10.6847222222	3.29818181818	-0.0150943396226
1015	0.5075	23.5783783784	-2.24305555556	1.86909090909	-8.59622641509
1016	0.508	0.810810810811	-6.46388888889	1.86909090909	8.56603773585
1017	0.5085	-0.612162162162	-3.65	-0.989090909091	-2.87547169811
1018	0.509	-3.45810810811	-2.24305555556	14.7309090909	-5.7358490566
1019	0.5095	-7.72702702703	-9.27777777778	-5.27636363636	-5.7358490566
1020	0.51	-7.72702702703	13.2333333333	-2.41818181818	-0.0150943396226
1021	0.5105	-3.45810810811	10.4194444444	-0.989090909091	-0.0150943396226
1022	0.511	5.07972972973	0.570833333333	-0.989090909091	-1.44528301887
1023	0.5115	0.810810810811	-7.87083333333	-0.989090909091	-2.87547169811
1024	0.512	7.92567567568	-9.27777777778	0.44	-8.59622641509
1025	0.5125	3.65675675676	-7.87083333333	-9.56363636364	2.84528301887
1026	0.513	0.810810810811	0.570833333333	-8.13454545455	2.84528301887
1027	0.5135	-4.88108108108	-0.836111111111	-2.41818181818	1.41509433962
1028	0.514	-13.4189189189	1.97777777778	1.86909090909	4.27547169811
1029	0.5145	5.07972972973	1.97777777778	3.29818181818	4.27547169811
1030	0.515	0.810810810811	3.38472222222	1.86909090909	21.4377358491
1031	0.5155	-2.03513513514	1.97777777778	6.15636363636	2.84528301887
1032	0.516	-0.612162162162	6.19861111111	0.44	4.27547169811
1033	0.5165	-3.45810810811	0.570833333333	0.44	7.1358490566
1034	0.517	-3.45810810811	-9.27777777778	3.29818181818	4.27547169811
1035	0.5175	2.23378378378	-0.836111111111	4.72727272727	1.41509433962
1036	0.518	-0.612162162162	1.97777777778	1.86909090909	-10.0264150943
1037	0.5185	-0.612162162162	1.97777777778	0.44	-0.0150943396226
1038	0.519	-2.03513513514	-0.836111111111	21.8763636364	-2.87547169811
1039	0.5195	-4.88108108108	-10.6847222222	16.16	-4.30566037736
1040	0.52	2.23378378378	-7.87083333333	6.15636363636	-4.30566037736
1041	0.5205	2.23378378378	-7.87083333333	1.86909090909	-2.87547169811
1042	0.521	-9.15	-6.46388888889	4.72727272727	-0.0150943396226
1043	0.5215	-6.30405405405	-2.24305555556	1.86909090909	-5.7358490566
1044	0.522	-0.612162162162	-6.46388888889	4.72727272727	-2.87547169811
1045	0.5225	0.810810810811	-6.46388888889	13.3018181818	-8.59622641509
1046	0.523	-0.612162162162	-6.46388888889	20.4472727273	-8.59622641509
1047	0.5235	0.810810810811	-14.9055555556	3.29818181818	-2.87547169811
1048	0.524	0.810810810811	-3.65	0.44	-0.0150943396226
1049	0.5245	-9.15	-0.836111111111	3.29818181818	8.56603773585
1050	0.525	0.810810810811	3.38472222222	0.44	7.1358490566
1051	0.5255	-2.03513513514	1.97777777778	-5.27636363636	4.27547169811
1052	0.526	-6.30405405405	4.79166666667	-8.13454545455	-0.0150943396226
1053	0.5265	-2.03513513514	6.19861111111	3.29818181818	-0.0150943396226
1054	0.527	-0.612162162162	17.4541666667	0.44	4.27547169811
1055	0.5275	-0.612162162162	1.97777777778	0.44	8.56603773585
1056	0.528	-13.4189189189	-0.836111111111	-0.989090909091	8.56603773585
1057	0.5285	-2.03513513514	3.38472222222	1.86909090909	1.41509433962
1058	0.529	-0.612162162162	1.97777777778	-2.41818181818	-0.0150943396226
1059	0.5295	0.810810810811	-0.836111111111	-6.70545454545	2.84528301887
1060	0.53	-0.612162162162	3.38472222222	-2.41818181818	-5.7358490566
1061	0.5305	-3.45810810811	-5.05694444444	-2.41818181818	-8.59622641509
1062	0.531	0.810810810811	-0.836111111111	-0.989090909091	-7.16603773585
1063	0.5315	-0.612162162162	-2.24305555556	-2.41818181818	-5.7358490566
1064	0.532	-2.03513513514	-3.65	1.86909090909	-12.8867924528
1065	0.5325	-2.03513513514	-0.836111111111	17.5890909091	-4.30566037736
1066	0.533	-0.612162162162	-2.24305555556	-8.13454545455	-2.87547169811
1067	0.5335	0.810810810811	3.38472222222	0.44	-1.44528301887
1068	0.534	-2.03513513514	0.570833333333	-0.989090909091	1.41509433962
1069	0.5345	-4.88108108108	-0.836111111111	0.44	-0.0150943396226
1070	0.535	26.4243243243	-10.6847222222	0.44	-4.30566037736
1071	0.5355	15.0405405405	-10.6847222222	-6.70545454545	4.27547169811
1072	0.536	9.34864864865	-14.9055555556	3.29818181818	5.70566037736
1073	0.5365	5.07972972973	-16.3125	3.29818181818	8.56603773585
1074	0.537	-2.03513513514	-7.87083333333	1.86909090909	4.27547169811
1075	0.5375	-4.88108108108	-6.46388888889	1.86909090909	-0.0150943396226
1076	0.538	15.0405405405	-7.87083333333	1.86909090909	-11.4566037736
1077	0.5385	-6.30405405405	-6.46388888889	0.44	-15.7471698113
1078	0.539	-7.72702702703	-5.05694444444	0.44	14.2867924528
1079	0.5395	-7.72702702703	-2.24305555556	1.86909090909	-2.87547169811
1080	0.54	-6.30405405405	-14.9055555556	0.44	-2.87547169811
1081	0.5405	-4.88108108108	0.570833333333	0.44	-7.16603773585
1082	0.541	3.65675675676	6.19861111111	0.44	-1.44528301887
1083	0.5415	-2.03513513514	9.0125	0.44	-0.0150943396226
1084	0.542	5.07972972973	10.4194444444	3.29818181818	-4.30566037736
1085	0.5425	3.65675675676	6.19861111111	-9.56363636364	-4.30566037736
1086	0.543	2.23378378378	6.19861111111	-0.989090909091	4.27547169811
1087	0.5435	0.810810810811	6.19861111111	-0.989090909091	4.27547169811
1088	0.544	-4.88108108108	0.570833333333	-0.989090909091	4.27547169811
1089	0.5445	-10.572972973	0.570833333333	-0.989090909091	-2.87547169811
1090	0.545	-11.9959459459	-2.24305555556	0.44	-4.30566037736
1091	0.5455	-9.15	-2.24305555556	-3.84727272727	-1.44528301887
1092	0.546	-10.572972973	-2.24305555556	17.5890909091	-1.44528301887
1093	0.5465	-7.72702702703	-2.24305555556	-0.989090909091	-1.44528301887
1094	0.547	-6.30405405405	-17.7194444444	0.44	-2.87547169811
1095	0.5475	-6.30405405405	-2.24305555556	-2.41818181818	-1.44528301887
1096	0.548	-6.30405405405	1.97777777778	1.86909090909	-0.0150943396226
1097	0.5485	-0.612162162162	4.79166666667	7.58545454545	-8.59622641509
1098	0.549	0.810810810811	0.570833333333	21.8763636364	-0.0150943396226
1099	0.5495	-0.612162162162	-0.836111111111	1.86909090909	-0.0150943396226
1100	0.55	-0.612162162162	-6.46388888889	-0.989090909091	2.84528301887
1101	0.5505	2.23378378378	6.19861111111	3.29818181818	-0.0150943396226
1102	0.551	-9.15	-7.87083333333	1.86909090909	-2.87547169811
1103	0.5515	19.3094594595	-5.05694444444	3.29818181818	-15.7471698113
1104	0.552	-2.03513513514	-2.24305555556	7.58545454545	-4.30566037736
1105	0.5525	2.23378378378	-0.836111111111	4.72727272727	-4.30566037736
1106	0.553	0.810810810811	-6.46388888889	1.86909090909	-4.30566037736
1107	0.5535	-0.612162162162	-5.05694444444	0.44	-2.87547169811
1108	0.554	0.810810810811	-10.6847222222	4.72727272727	-5.7358490566
1109	0.5545	-13.4189189189	0.570833333333	0.44	-5.7358490566
1110	0.555	-9.15	0.570833333333	6.15636363636	-18.6075471698
1111	0.5555	-2.03513513514	-2.24305555556	0.44	-31.479245283
1112	0.556	0.810810810811	-7.87083333333	6.15636363636	-20.0377358491
1113	0.5565	0.810810810811	-7.87083333333	14.7309090909	-8.59622641509
1114	0.557	-2.03513513514	-7.87083333333	1.86909090909	-1.44528301887
1115	0.5575	0.810810810811	-2.24305555556	0.44	-1.44528301887
1116	0.558	16.4635135135	-2.24305555556	0.44	-7.16603773585
1117	0.5585	-6.30405405405	-3.65	3.29818181818	12.8566037736
1118	0.559	-2.03513513514	-0.836111111111	0.44	21.4377358491
1119	0.5595	-0.612162162162	-0.836111111111	-0.989090909091	4.27547169811
1120	0.56	-3.45810810811	-10.6847222222	1.86909090909	5.70566037736
1121	0.5605	-2.03513513514	-6.46388888889	0.44	8.56603773585
1122	0.561	2.23378378378	-6.46388888889	0.44	12.8566037736
1123	0.5615	2.23378378378	-3.65	1.86909090909	15.7169811321
1124	0.562	-2.03513513514	-0.836111111111	-0.989090909091	12.8566037736
1125	0.5625	0.810810810811	-0.836111111111	-5.27636363636	30.0188679245
1126	0.563	0.810810810811	-5.05694444444	17.5890909091	2.84528301887
1127	0.5635	-0.612162162162	-16.3125	-0.989090909091	-7.16603773585
1128	0.564	3.65675675676	-14.9055555556	0.44	-2.87547169811
1129	0.5645	2.23378378378	-2.24305555556	0.44	-2.87547169811
1130	0.565	-6.30405405405	0.570833333333	3.29818181818	-1.44528301887
1131	0.5655	-2.03513513514	4.79166666667	1.86909090909	-10.0264150943
1132	0.566	-3.45810810811	7.60555555556	-3.84727272727	-1.44528301887
1133	0.5665	-3.45810810811	9.0125	-10.9927272727	-1.44528301887
1134	0.567	-0.612162162162	27.3027777778	0.44	-2.87547169811
1135	0.5675	-4.88108108108	-0.836111111111	3.29818181818	-1.44528301887
1136	0.568	10.7716216216	-9.27777777778	0.44	-2.87547169811
1137	0.5685	-7.72702702703	-12.0916666667	1.86909090909	-1.44528301887
1138	0.569	-2.03513513514	-14.9055555556	1.86909090909	-12.8867924528
1139	0.5695	0.810810810811	-10.6847222222	-3.84727272727	-5.7358490566
1140	0.57	-2.03513513514	-7.87083333333	0.44	-2.87547169811
1141	0.5705	-2.03513513514	-2.24305555556	1.86909090909	-1.44528301887
1142	0.571	0.810810810811	16.0472222222	-2.41818181818	2.84528301887
1143	0.5715	-11.9959459459	0.570833333333	-6.70545454545	2.84528301887
1144	0.572	-0.612162162162	-2.24305555556	-3.84727272727	-5.7358490566
1145	0.5725	-0.612162162162	-9.27777777778	-5.27636363636	-10.0264150943
1146	0.573	-3.45810810811	-7.87083333333	-15.28	-1.44528301887
1147	0.5735	-2.03513513514	-3.65	-3.84727272727	-1.44528301887
1148	0.574	-3.45810810811	1.97777777778	-3.84727272727	-1.44528301887
1149	0.5745	-2.03513513514	-12.0916666667	-6.70545454545	-0.0150943396226
1150	0.575	0.810810810811	-6.46388888889	-0.989090909091	-12.8867924528
1151	0.5755	-9.15	-6.46388888889	3.29818181818	-21.4679245283
1152	0.576	3.65675675676	-9.27777777778	4.72727272727	-24.3283018868
1153	0.5765	-0.612162162162	-9.27777777778	3.29818181818	-11.4566037736
1154	0.577	-2.03513513514	-7.87083333333	3.29818181818	-12.8867924528
1155	0.5775	-2.03513513514	-12.0916666667	6.15636363636	-4.30566037736
1156	0.578	-3.45810810811	-9.27777777778	6.15636363636	4.27547169811
1157	0.5785	9.34864864865	1.97777777778	6.15636363636	14.2867924528
1158	0.579	-9.15	6.19861111111	3.29818181818	18.5773584906
1159	0.5795	-3.45810810811	3.38472222222	7.58545454545	4.27547169811
1160	0.58	2.23378378378	6.19861111111	-5.27636363636	12.8566037736
1161	0.5805	0.810810810811	6.19861111111	1.86909090909	12.8566037736
1162	0.581	0.810810810811	9.0125	4.72727272727	12.8566037736
1163	0.5815	-3.45810810811	-9.27777777778	0.44	11.4264150943
1164	0.582	-4.88108108108	-2.24305555556	3.29818181818	-0.0150943396226
1165	0.5825	-6.30405405405	-2.24305555556	-0.989090909091	-11.4566037736
1166	0.583	-4.88108108108	-2.24305555556	-9.56363636364	-4.30566037736
1167	0.5835	-4.88108108108	-2.24305555556	-0.989090909091	-1.44528301887
1168	0.584	-3.45810810811	4.79166666667	9.01454545455	-0.0150943396226
1169	0.5845	-3.45810810811	-10.6847222222	0.44	2.84528301887
1170	0.585	-0.612162162162	-6.46388888889	-2.41818181818	4.27547169811
1171	0.5855	-14.8418918919	-7.87083333333	-3.84727272727	4.27547169811
1172	0.586	-0.612162162162	-6.46388888889	1.86909090909	2.84528301887
1173	0.5865	-3.45810810811	-5.05694444444	0.44	5.70566037736
1174	0.587	-3.45810810811	-0.836111111111	6.15636363636	-1.44528301887
1175	0.5875	-2.03513513514	0.570833333333	13.3018181818	-2.87547169811
1176	0.588	-0.612162162162	16.0472222222	-2.41818181818	-7.16603773585
1177	0.5885	-2.03513513514	9.0125	-0.989090909091	-4.30566037736
1178	0.589	16.4635135135	3.38472222222	-2.41818181818	-7.16603773585
1179	0.5895	-2.03513513514	0.570833333333	-3.84727272727	-12.8867924528
1180	0.59	-0.612162162162	0.570833333333	0.44	12.8566037736
1181	0.5905	-0.612162162162	0.570833333333	0.44	-5.7358490566
1182	0.591	-2.03513513514	17.4541666667	0.44	-2.87547169811
1183	0.5915	-3.45810810811	1.97777777778	-0.989090909091	-1.44528301887
1184	0.592	9.34864864865	0.570833333333	-3.84727272727	-7.16603773585
1185	0.5925	-9.15	0.570833333333	-2.41818181818	-1.44528301887
1186	0.593	-4.88108108108	-0.836111111111	-5.27636363636	-5.7358490566
1187	0.5935	0.810810810811	3.38472222222	-8.13454545455	2.84528301887
1188	0.594	-3.45810810811	1.97777777778	0.44	4.27547169811
1189	0.5945	-3.45810810811	16.0472222222	1.86909090909	-0.0150943396226
1190	0.595	-17.6878378378	0.570833333333	6.15636363636	-1.44528301887
1191	0.5955	3.65675675676	0.570833333333	11.8727272727	-1.44528301887
1192	0.596	-11.9959459459	3.38472222222	9.01454545455	2.84528301887
1193	0.5965	-6.30405405405	1.97777777778	7.58545454545	14.2867924528
1194	0.597	-4.88108108108	-2.24305555556	3.29818181818	-1.44528301887
1195	0.5975	-2.03513513514	4.79166666667	11.8727272727	-0.0150943396226
1196	0.598	-3.45810810811	0.570833333333	7.58545454545	-0.0150943396226
1197	0.5985	-7.72702702703	1.97777777778	3.29818181818	-1.44528301887
1198	0.599	16.4635135135	3.38472222222	3.29818181818	-12.8867924528
1199	0.5995	-2.03513513514	4.79166666667	-0.989090909091	-12.8867924528
1200	0.6	-3.45810810811	6.19861111111	-2.41818181818	11.4264150943
1201	0.6005	-7.72702702703	0.570833333333	11.8727272727	-0.0150943396226
1202	0.601	-6.30405405405	-10.6847222222	-0.989090909091	-2.87547169811
1203	0.6015	-0.612162162162	-2.24305555556	-2.41818181818	-1.44528301887
1204	0.602	-11.9959459459	-6.46388888889	-2.41818181818	-2.87547169811
1205	0.6025	7.92567567568	-3.65	-2.41818181818	-5.7358490566
1206	0.603	-2.03513513514	-7.87083333333	-2.41818181818	1.41509433962
1207	0.6035	-3.45810810811	-6.46388888889	16.16	-1.44528301887
1208	0.604	0.810810810811	-6.46388888889	13.3018181818	-0.0150943396226
1209	0.6045	-0.612162162162	-2.24305555556	-3.84727272727	-0.0150943396226
1210	0.605	0.810810810811	0.570833333333	-0.989090909091	-2.87547169811
1211	0.6055	-4.88108108108	1.97777777778	0.44	-1.44528301887
1212	0.606	-11.9959459459	3.38472222222	-0.989090909091	11.4264150943
1213	0.6065	0.810810810811	1.97777777778	0.44	-15.7471698113
1214	0.607	0.810810810811	1.97777777778	-9.56363636364	-7.16603773585
1215	0.6075	0.810810810811	1.97777777778	-2.41818181818	-1.44528301887
1216	0.608	-2.03513513514	0.570833333333	-0.989090909091	-0.0150943396226
1217	0.6085	-2.03513513514	6.19861111111	-5.27636363636	1.41509433962
1218	0.609	-11.9959459459	-3.65	-2.41818181818	1.41509433962
1219	0.6095	-16.2648648649	-3.65	-0.989090909091	-4.30566037736
1220	0.61	-2.03513513514	-6.46388888889	-6.70545454545	-0.0150943396226
1221	0.6105	2.23378378378	-10.6847222222	9.01454545455	1.41509433962
1222	0.611	-2.03513513514	-13.4986111111	3.29818181818	-0.0150943396226
1223	0.6115	-0.612162162162	9.0125	1.86909090909	-0.0150943396226
1224	0.612	-13.4189189189	-2.24305555556	4.72727272727	-4.30566037736
1225	0.6125	9.34864864865	-0.836111111111	3.29818181818	2.84528301887
1226	0.613	-10.572972973	0.570833333333	4.72727272727	4.27547169811
1227	0.6135	-2.03513513514	-0.836111111111	20.4472727273	-0.0150943396226
1228	0.614	7.92567567568	-0.836111111111	-0.989090909091	-0.0150943396226
1229	0.6145	5.07972972973	-5.05694444444	4.72727272727	-1.44528301887
1230	0.615	3.65675675676	16.0472222222	1.86909090909	1.41509433962
1231	0.6155	3.65675675676	0.570833333333	3.29818181818	1.41509433962
1232	0.616	2.23378378378	6.19861111111	3.29818181818	-2.87547169811
1233	0.6165	-0.612162162162	6.19861111111	3.29818181818	-10.0264150943
1234	0.617	-4.88108108108	-0.836111111111	-6.70545454545	-1.44528301887
1235	0.6175	-4.88108108108	-5.05694444444	3.29818181818	-1.44528301887
1236	0.618	-7.72702702703	-7.87083333333	9.01454545455	-4.30566037736
1237	0.6185	-4.88108108108	-20.5333333333	1.86909090909	-1.44528301887
1238	0.619	-2.03513513514	-16.3125	3.29818181818	-4.30566037736
1239	0.6195	19.3094594595	-13.4986111111	3.29818181818	-15.7471698113
1240	0.62	-4.88108108108	-9.27777777778	3.29818181818	-0.0150943396226
1241	0.6205	-6.30405405405	0.570833333333	3.29818181818	-1.44528301887
1242	0.621	-3.45810810811	4.79166666667	-9.56363636364	-2.87547169811
1243	0.6215	-4.88108108108	23.0819444444	-0.989090909091	-2.87547169811
1244	0.622	-6.30405405405	-3.65	1.86909090909	-4.30566037736
1245	0.6225	-7.72702702703	-3.65	1.86909090909	-1.44528301887
1246	0.623	12.1945945946	-3.65	0.44	-7.16603773585
1247	0.6235	-2.03513513514	-3.65	-0.989090909091	-11.4566037736
1248	0.624	-0.612162162162	-3.65	-10.9927272727	-0.0150943396226
1249	0.6245	-2.03513513514	0.570833333333	-3.84727272727	-0.0150943396226
1250	0.625	-2.03513513514	4.79166666667	-2.41818181818	-1.44528301887
1251	0.6255	-3.45810810811	-6.46388888889	-2.41818181818	2.84528301887
1252	0.626	0.810810810811	0.570833333333	-0.989090909091	-2.87547169811
1253	0.6265	10.7716216216	0.570833333333	-2.41818181818	-2.87547169811
1254	0.627	-4.88108108108	0.570833333333	-3.84727272727	2.84528301887
1255	0.6275	-0.612162162162	1.97777777778	17.5890909091	-0.0150943396226
1256	0.628	2.23378378378	3.38472222222	-0.989090909091	-4.30566037736
1257	0.6285	-0.612162162162	-9.27777777778	-5.27636363636	-4.30566037736
1258	0.629	0.810810810811	1.97777777778	1.86909090909	-2.87547169811
1259	0.6295	-2.03513513514	3.38472222222	1.86909090909	-2.87547169811
1260	0.63	16.4635135135	4.79166666667	3.29818181818	-7.16603773585
1261	0.6305	-4.88108108108	6.19861111111	-0.989090909091	-8.59622641509
1262	0.631	-6.30405405405	9.0125	-3.84727272727	-1.44528301887
1263	0.6315	-4.88108108108	10.4194444444	-0.989090909091	-4.30566037736
1264	0.632	-3.45810810811	4.79166666667	4.72727272727	-2.87547169811
1265	0.6325	2.23378378378	0.570833333333	4.72727272727	-4.30566037736
1266	0.633	-6.30405405405	0.570833333333	3.29818181818	1.41509433962
1267	0.6335	-9.15	-0.836111111111	-2.41818181818	12.8566037736
1268	0.634	2.23378378378	-3.65	0.44	-1.44528301887
1269	0.6345	-2.03513513514	-2.24305555556	-2.41818181818	-1.44528301887
1270	0.635	-2.03513513514	0.570833333333	-5.27636363636	-0.0150943396226
1271	0.6355	0.810810810811	17.4541666667	3.29818181818	-1.44528301887
1272	0.636	-11.9959459459	0.570833333333	4.72727272727	1.41509433962
1273	0.6365	10.7716216216	0.570833333333	4.72727272727	-1.44528301887
1274	0.637	-10.572972973	-2.24305555556	3.29818181818	2.84528301887
1275	0.6375	-0.612162162162	-2.24305555556	16.16	-1.44528301887
1276	0.638	-0.612162162162	-2.24305555556	-0.989090909091	-1.44528301887
1277	0.6385	-3.45810810811	-2.24305555556	-2.41818181818	-1.44528301887
1278	0.639	-0.612162162162	14.6402777778	-0.989090909091	-4.30566037736
1279	0.6395	-14.8418918919	-6.46388888889	1.86909090909	-5.7358490566
1280	0.64	0.810810810811	-9.27777777778	3.29818181818	-8.59622641509
1281	0.6405	-2.03513513514	1.97777777778	0.44	-15.7471698113
1282	0.641	-0.612162162162	17.4541666667	-0.989090909091	4.27547169811
1283	0.6415	-3.45810810811	23.0819444444	-3.84727272727	-5.7358490566
1284	0.642	0.810810810811	-0.836111111111	1.86909090909	-4.30566037736
1285	0.6425	2.23378378378	-16.3125	1.86909090909	-0.0150943396226
1286	0.643	6.5027027027	-10.6847222222	1.86909090909	-1.44528301887
1287	0.6435	15.0405405405	-12.0916666667	0.44	-2.87547169811
1288	0.644	-6.30405405405	-7.87083333333	1.86909090909	20.0075471698
1289	0.6445	-2.03513513514	-2.24305555556	1.86909090909	1.41509433962
1290	0.645	-3.45810810811	14.6402777778	1.86909090909	-1.44528301887
1291	0.6455	-2.03513513514	16.0472222222	-0.989090909091	-0.0150943396226
1292	0.646	-4.88108108108	-3.65	-0.989090909091	-0.0150943396226
1293	0.6465	-0.612162162162	3.38472222222	0.44	-1.44528301887
1294	0.647	-3.45810810811	-0.836111111111	-2.41818181818	-0.0150943396226
1295	0.6475	-0.612162162162	0.570833333333	0.44	-10.0264150943
1296	0.648	-0.612162162162	0.570833333333	-9.56363636364	4.27547169811
1297	0.6485	-0.612162162162	3.38472222222	-2.41818181818	-10.0264150943
1298	0.649	-2.03513513514	-7.87083333333	3.29818181818	-2.87547169811
1299	0.6495	0.810810810811	-3.65	1.86909090909	-0.0150943396226
1300	0.65	-0.612162162162	-13.4986111111	0.44	-1.44528301887
1301	0.6505	15.0405405405	-7.87083333333	3.29818181818	-1.44528301887
1302	0.651	-6.30405405405	-9.27777777778	-0.989090909091	2.84528301887
1303	0.6515	-4.88108108108	-5.05694444444	-0.989090909091	-8.59622641509
1304	0.652	-2.03513513514	-7.87083333333	-6.70545454545	-1.44528301887
1305	0.6525	0.810810810811	-14.9055555556	-0.989090909091	-1.44528301887
1306	0.653	2.23378378378	-13.4986111111	-2.41818181818	-1.44528301887
1307	0.6535	3.65675675676	-17.7194444444	1.86909090909	-2.87547169811
1308	0.654	19.3094594595	-6.46388888889	1.86909090909	-11.4566037736
1309	0.6545	-4.88108108108	-7.87083333333	0.44	-1.44528301887
1310	0.655	2.23378378378	-10.6847222222	3.29818181818	-15.7471698113
1311	0.6555	0.810810810811	-12.0916666667	-2.41818181818	-4.30566037736
1312	0.656	-0.612162162162	-3.65	9.01454545455	-2.87547169811
1313	0.6565	2.23378378378	-6.46388888889	4.72727272727	-1.44528301887
1314	0.657	0.810810810811	0.570833333333	3.29818181818	1.41509433962
1315	0.6575	-14.8418918919	9.0125	4.72727272727	1.41509433962
1316	0.658	-2.03513513514	7.60555555556	1.86909090909	-0.0150943396226
1317	0.6585	-3.45810810811	14.6402777778	1.86909090909	-5.7358490566
1318	0.659	0.810810810811	20.2680555556	-0.989090909091	-1.44528301887
1319	0.6595	0.810810810811	17.4541666667	1.86909090909	-1.44528301887
1320	0.66	0.810810810811	17.4541666667	3.29818181818	-4.30566037736
1321	0.6605	-0.612162162162	-20.5333333333	1.86909090909	-2.87547169811
1322	0.661	19.3094594595	-16.3125	3.29818181818	-0.0150943396226
1323	0.6615	-3.45810810811	-14.9055555556	4.72727272727	11.4264150943
1324	0.662	-2.03513513514	-12.0916666667	3.29818181818	-7.16603773585
1325	0.6625	-2.03513513514	-9.27777777778	-5.27636363636	-2.87547169811
1326	0.663	-3.45810810811	-7.87083333333	3.29818181818	-7.16603773585
1327	0.6635	-2.03513513514	4.79166666667	1.86909090909	-5.7358490566
1328	0.664	-0.612162162162	-16.3125	3.29818181818	-1.44528301887
1329	0.6645	2.23378378378	-9.27777777778	0.44	2.84528301887
1330	0.665	-10.572972973	-5.05694444444	-0.989090909091	20.0075471698
1331	0.6655	-7.72702702703	-2.24305555556	3.29818181818	18.5773584906
1332	0.666	-4.88108108108	1.97777777778	3.29818181818	4.27547169811
1333	0.6665	-4.88108108108	9.0125	-0.989090909091	-0.0150943396226
1334	0.667	0.810810810811	13.2333333333	-2.41818181818	-1.44528301887
1335	0.6675	-7.72702702703	6.19861111111	0.44	-0.0150943396226
1336	0.668	2.23378378378	6.19861111111	-0.989090909091	1.41509433962
1337	0.6685	-7.72702702703	1.97777777778	0.44	20.0075471698
1338	0.669	0.810810810811	6.19861111111	-0.989090909091	-8.59622641509
1339	0.6695	-4.88108108108	4.79166666667	-5.27636363636	-0.0150943396226
1340	0.67	-0.612162162162	9.0125	0.44	-2.87547169811
1341	0.6705	-0.612162162162	0.570833333333	0.44	-2.87547169811
1342	0.671	-6.30405405405	6.19861111111	0.44	-2.87547169811
1343	0.6715	-9.15	6.19861111111	4.72727272727	-1.44528301887
1344	0.672	-11.9959459459	7.60555555556	6.15636363636	-1.44528301887
1345	0.6725	-0.612162162162	4.79166666667	3.29818181818	-0.0150943396226
1346	0.673	-2.03513513514	4.79166666667	1.86909090909	-1.44528301887
1347	0.6735	-2.03513513514	0.570833333333	9.01454545455	-7.16603773585
1348	0.674	-0.612162162162	10.4194444444	-2.41818181818	-7.16603773585
1349	0.6745	-2.03513513514	-2.24305555556	-2.41818181818	-4.30566037736
1350	0.675	10.7716216216	0.570833333333	-0.989090909091	-1.44528301887
1351	0.6755	-3.45810810811	4.79166666667	-2.41818181818	-8.59622641509
1352	0.676	-3.45810810811	6.19861111111	-0.989090909091	20.0075471698
1353	0.6765	-0.612162162162	-2.24305555556	16.16	1.41509433962
1354	0.677	-0.612162162162	-20.5333333333	-0.989090909091	5.70566037736
1355	0.6775	2.23378378378	-27.5680555556	0.44	4.27547169811
1356	0.678	17.8864864865	-21.9402777778	0.44	4.27547169811
1357	0.6785	-10.572972973	-10.6847222222	3.29818181818	4.27547169811
1358	0.679	-4.88108108108	-2.24305555556	7.58545454545	8.56603773585
1359	0.6795	-3.45810810811	1.97777777778	14.7309090909	4.27547169811
1360	0.68	0.810810810811	-3.65	7.58545454545	4.27547169811
1361	0.6805	0.810810810811	10.4194444444	4.72727272727	1.41509433962
1362	0.681	2.23378378378	-5.05694444444	4.72727272727	-5.7358490566
1363	0.6815	3.65675675676	-0.836111111111	3.29818181818	-17.1773584906
1364	0.682	-0.612162162162	-0.836111111111	-0.989090909091	-7.16603773585
1365	0.6825	-0.612162162162	-2.24305555556	0.44	-14.3169811321
1366	0.683	-2.03513513514	-0.836111111111	0.44	-15.7471698113
1367	0.6835	-0.612162162162	0.570833333333	-5.27636363636	-1.44528301887
1368	0.684	-2.03513513514	17.4541666667	0.44	2.84528301887
1369	0.6845	-3.45810810811	0.570833333333	6.15636363636	8.56603773585
1370	0.685	-13.4189189189	3.38472222222	4.72727272727	8.56603773585
1371	0.6855	-4.88108108108	6.19861111111	4.72727272727	-4.30566037736
1372	0.686	-0.612162162162	7.60555555556	1.86909090909	-20.0377358491
1373	0.6865	-2.03513513514	9.0125	-3.84727272727	-17.1773584906
1374	0.687	-2.03513513514	3.38472222222	0.44	-7.16603773585
1375	0.6875	-0.612162162162	14.6402777778	-0.989090909091	-2.87547169811
1376	0.688	-2.03513513514	-14.9055555556	1.86909090909	-8.59622641509
1377	0.6885	17.8864864865	-0.836111111111	-2.41818181818	-24.3283018868
1378	0.689	-4.88108108108	3.38472222222	-3.84727272727	-22.8981132075
1379	0.6895	-0.612162162162	4.79166666667	-8.13454545455	-8.59622641509
1380	0.69	-3.45810810811	3.38472222222	-2.41818181818	-5.7358490566
1381	0.6905	-2.03513513514	-6.46388888889	-5.27636363636	4.27547169811
1382	0.691	2.23378378378	18.8611111111	-3.84727272727	7.1358490566
1383	0.6915	-4.88108108108	-3.65	-6.70545454545	15.7169811321
1384	0.692	-6.30405405405	-2.24305555556	-3.84727272727	17.1471698113
1385	0.6925	-7.72702702703	3.38472222222	-3.84727272727	28.5886792453
1386	0.693	-2.03513513514	6.19861111111	1.86909090909	32.879245283
1387	0.6935	-2.03513513514	1.97777777778	0.44	14.2867924528
1388	0.694	-2.03513513514	-12.0916666667	7.58545454545	4.27547169811
1389	0.6945	0.810810810811	-0.836111111111	7.58545454545	2.84528301887
1390	0.695	-2.03513513514	-12.0916666667	6.15636363636	1.41509433962
1391	0.6955	19.3094594595	-3.65	11.8727272727	-7.16603773585
1392	0.696	-4.88108108108	-3.65	7.58545454545	1.41509433962
1393	0.6965	-0.612162162162	-3.65	4.72727272727	-2.87547169811
1394	0.697	2.23378378378	-3.65	-6.70545454545	-4.30566037736
1395	0.6975	0.810810810811	0.570833333333	3.29818181818	-2.87547169811
1396	0.698	0.810810810811	-12.0916666667	4.72727272727	-2.87547169811
1397	0.6985	0.810810810811	1.97777777778	1.86909090909	-1.44528301887
1398	0.699	-3.45810810811	3.38472222222	3.29818181818	-2.87547169811
1399	0.6995	-9.15	3.38472222222	-0.989090909091	-4.30566037736
1400	0.7	-0.612162162162	0.570833333333	-8.13454545455	-2.87547169811
1401	0.7005	-2.03513513514	0.570833333333	7.58545454545	-4.30566037736
1402	0.701	0.810810810811	-2.24305555556	-0.989090909091	-2.87547169811
1403	0.7015	0.810810810811	13.2333333333	1.86909090909	-2.87547169811
1404	0.702	-2.03513513514	-14.9055555556	-3.84727272727	-1.44528301887
1405	0.7025	10.7716216216	-12.0916666667	0.44	-4.30566037736
1406	0.703	-10.572972973	-10.6847222222	3.29818181818	2.84528301887
1407	0.7035	-3.45810810811	-14.9055555556	7.58545454545	-2.87547169811
1408	0.704	0.810810810811	-17.7194444444	7.58545454545	-1.44528301887
1409	0.7045	0.810810810811	-10.6847222222	17.5890909091	-2.87547169811
1410	0.705	-0.612162162162	-13.4986111111	1.86909090909	-2.87547169811
1411	0.7055	5.07972972973	0.570833333333	0.44	-4.30566037736
1412	0.706	-0.612162162162	1.97777777778	-0.989090909091	-2.87547169811
1413	0.7065	-11.9959459459	-3.65	3.29818181818	-2.87547169811
1414	0.707	-0.612162162162	-13.4986111111	-6.70545454545	-0.0150943396226
1415	0.7075	0.810810810811	-13.4986111111	9.01454545455	-1.44528301887
1416	0.708	2.23378378378	-10.6847222222	-2.41818181818	1.41509433962
1417	0.7085	0.810810810811	9.0125	-2.41818181818	-0.0150943396226
1418	0.709	-2.03513513514	-5.05694444444	-0.989090909091	1.41509433962
1419	0.7095	12.1945945946	-0.836111111111	-0.989090909091	4.27547169811
1420	0.71	-7.72702702703	4.79166666667	-0.989090909091	8.56603773585
1421	0.7105	0.810810810811	14.6402777778	0.44	-8.59622641509
1422	0.711	0.810810810811	24.4888888889	-8.13454545455	1.41509433962
1423	0.7115	0.810810810811	17.4541666667	3.29818181818	-1.44528301887
1424	0.712	3.65675675676	20.2680555556	4.72727272727	-2.87547169811
1425	0.7125	0.810810810811	-12.0916666667	1.86909090909	-1.44528301887
1426	0.713	15.0405405405	-7.87083333333	4.72727272727	-0.0150943396226
1427	0.7135	-9.15	-5.05694444444	3.29818181818	18.5773584906
1428	0.714	-4.88108108108	0.570833333333	3.29818181818	-4.30566037736
1429	0.7145	-2.03513513514	3.38472222222	-8.13454545455	-7.16603773585
1430	0.715	0.810810810811	9.0125	1.86909090909	-1.44528301887
1431	0.7155	-4.88108108108	9.0125	1.86909090909	-0.0150943396226
1432	0.716	-4.88108108108	-6.46388888889	3.29818181818	-1.44528301887
1433	0.7165	-0.612162162162	-0.836111111111	-0.989090909091	-0.0150943396226
1434	0.717	-7.72702702703	1.97777777778	4.72727272727	17.1471698113
1435	0.7175	-0.612162162162	3.38472222222	6.15636363636	5.70566037736
1436	0.718	-0.612162162162	3.38472222222	1.86909090909	17.1471698113
1437	0.7185	-2.03513513514	6.19861111111	-0.989090909091	-2.87547169811
1438	0.719	-4.88108108108	17.4541666667	-0.989090909091	-1.44528301887
1439	0.7195	-3.45810810811	17.4541666667	4.72727272727	-1.44528301887
1440	0.72	-11.9959459459	4.79166666667	3.29818181818	4.27547169811
1441	0.7205	-4.88108108108	-0.836111111111	1.86909090909	2.84528301887
1442	0.721	-0.612162162162	-2.24305555556	0.44	-12.8867924528
1443	0.7215	-2.03513513514	-3.65	-10.9927272727	-4.30566037736
1444	0.722	-4.88108108108	-0.836111111111	-6.70545454545	-2.87547169811
1445	0.7225	-6.30405405405	-6.46388888889	0.44	-2.87547169811
1446	0.723	-6.30405405405	-9.27777777778	-2.41818181818	-4.30566037736
1447	0.7235	-4.88108108108	-3.65	0.44	-1.44528301887
1448	0.724	2.23378378378	0.570833333333	-0.989090909091	-12.8867924528
1449	0.7245	-3.45810810811	0.570833333333	1.86909090909	-4.30566037736
1450	0.725	0.810810810811	-2.24305555556	9.01454545455	7.1358490566
1451	0.7255	3.65675675676	-2.24305555556	-8.13454545455	1.41509433962
1452	0.726	6.5027027027	-5.05694444444	-2.41818181818	4.27547169811
1453	0.7265	3.65675675676	7.60555555556	1.86909090909	2.84528301887
1454	0.727	-9.15	-5.05694444444	0.44	5.70566037736
1455	0.7275	13.6175675676	-3.65	0.44	2.84528301887
1456	0.728	-4.88108108108	-2.24305555556	-2.41818181818	12.8566037736
1457	0.7285	0.810810810811	-5.05694444444	-6.70545454545	-1.44528301887
1458	0.729	-4.88108108108	0.570833333333	-13.8509090909	7.1358490566
1459	0.7295	-3.45810810811	1.97777777778	-5.27636363636	4.27547169811
1460	0.73	-0.612162162162	0.570833333333	0.44	1.41509433962
1461	0.7305	3.65675675676	13.2333333333	0.44	-2.87547169811
1462	0.731	-3.45810810811	1.97777777778	3.29818181818	-1.44528301887
1463	0.7315	-0.612162162162	0.570833333333	4.72727272727	-11.4566037736
1464	0.732	-0.612162162162	1.97777777778	-3.84727272727	-0.0150943396226
1465	0.7325	-0.612162162162	1.97777777778	13.3018181818	-2.87547169811
1466	0.733	-2.03513513514	0.570833333333	4.72727272727	-1.44528301887
1467	0.7335	0.810810810811	18.8611111111	4.72727272727	-2.87547169811
1468	0.734	9.34864864865	3.38472222222	0.44	-0.0150943396226
1469	0.7345	3.65675675676	3.38472222222	-0.989090909091	-0.0150943396226
1470	0.735	15.0405405405	0.570833333333	4.72727272727	5.70566037736
1471	0.7355	10.7716216216	1.97777777778	0.44	14.2867924528
1472	0.736	2.23378378378	4.79166666667	19.0181818182	-4.30566037736
1473	0.7365	0.810810810811	0.570833333333	1.86909090909	-1.44528301887
1474	0.737	-0.612162162162	-3.65	1.86909090909	-1.44528301887
1475	0.7375	-0.612162162162	-7.87083333333	3.29818181818	-2.87547169811
1476	0.738	12.1945945946	-2.24305555556	4.72727272727	-1.44528301887
1477	0.7385	-10.572972973	-2.24305555556	3.29818181818	-0.0150943396226
1478	0.739	-6.30405405405	-6.46388888889	4.72727272727	-7.16603773585
1479	0.7395	-2.03513513514	-6.46388888889	4.72727272727	-5.7358490566
1480	0.74	3.65675675676	-3.65	17.5890909091	-7.16603773585
1481	0.7405	7.92567567568	-13.4986111111	1.86909090909	-2.87547169811
1482	0.741	2.23378378378	-6.46388888889	1.86909090909	-1.44528301887
1483	0.7415	-14.8418918919	-3.65	-0.989090909091	1.41509433962
1484	0.742	0.810810810811	-2.24305555556	3.29818181818	7.1358490566
1485	0.7425	2.23378378378	0.570833333333	0.44	18.5773584906
1486	0.743	0.810810810811	0.570833333333	17.5890909091	-0.0150943396226
1487	0.7435	-4.88108108108	-12.0916666667	1.86909090909	1.41509433962
1488	0.744	-9.15	-0.836111111111	-2.41818181818	1.41509433962
1489	0.7445	-7.72702702703	-3.65	-0.989090909091	2.84528301887
1490	0.745	-11.9959459459	-5.05694444444	1.86909090909	1.41509433962
1491	0.7455	-10.572972973	-6.46388888889	-0.989090909091	2.84528301887
1492	0.746	-7.72702702703	-0.836111111111	3.29818181818	14.2867924528
1493	0.7465	-9.15	1.97777777778	10.4436363636	-0.0150943396226
1494	0.747	-4.88108108108	-5.05694444444	0.44	1.41509433962
1495	0.7475	0.810810810811	16.0472222222	-0.989090909091	-0.0150943396226
1496	0.748	-9.15	6.19861111111	-0.989090909091	-1.44528301887
1497	0.7485	-0.612162162162	9.0125	-3.84727272727	-1.44528301887
1498	0.749	-2.03513513514	3.38472222222	-3.84727272727	-12.8867924528
1499	0.7495	-2.03513513514	0.570833333333	-13.8509090909	-8.59622641509
1500	0.75	-3.45810810811	-0.836111111111	-8.13454545455	-2.87547169811
1501	0.7505	-3.45810810811	10.4194444444	0.44	-2.87547169811
1502	0.751	-4.88108108108	-3.65	0.44	-1.44528301887
1503	0.7515	-4.88108108108	0.570833333333	3.29818181818	-1.44528301887
1504	0.752	-9.15	-0.836111111111	4.72727272727	15.7169811321
1505	0.7525	0.810810810811	-2.24305555556	6.15636363636	-15.7471698113
1506	0.753	0.810810810811	-2.24305555556	-6.70545454545	-1.44528301887
1507	0.7535	0.810810810811	0.570833333333	-5.27636363636	-5.7358490566
1508	0.754	-0.612162162162	13.2333333333	4.72727272727	-2.87547169811
1509	0.7545	-0.612162162162	6.19861111111	4.72727272727	-4.30566037736
1510	0.755	5.07972972973	0.570833333333	3.29818181818	-7.16603773585
1511	0.7555	-9.15	1.97777777778	1.86909090909	-5.7358490566
1512	0.756	-0.612162162162	0.570833333333	1.86909090909	-15.7471698113
1513	0.7565	-0.612162162162	-2.24305555556	-9.56363636364	-5.7358490566
1514	0.757	0.810810810811	4.79166666667	-2.41818181818	-5.7358490566
1515	0.7575	-3.45810810811	-5.05694444444	-3.84727272727	-2.87547169811
1516	0.758	-3.45810810811	1.97777777778	0.44	-1.44528301887
1517	0.7585	-16.2648648649	0.570833333333	-0.989090909091	-0.0150943396226
1518	0.759	-6.30405405405	-0.836111111111	1.86909090909	-1.44528301887
1519	0.7595	-6.30405405405	0.570833333333	0.44	-0.0150943396226
1520	0.76	-0.612162162162	0.570833333333	17.5890909091	-1.44528301887
1521	0.7605	0.810810810811	-2.24305555556	17.5890909091	-1.44528301887
1522	0.761	2.23378378378	-19.1263888889	0.44	-0.0150943396226
1523	0.7615	7.92567567568	-12.0916666667	0.44	1.41509433962
1524	0.762	-4.88108108108	-12.0916666667	-0.989090909091	1.41509433962
1525	0.7625	15.0405405405	-6.46388888889	0.44	-1.44528301887
1526	0.763	-0.612162162162	-5.05694444444	-0.989090909091	2.84528301887
1527	0.7635	-0.612162162162	-6.46388888889	4.72727272727	-2.87547169811
1528	0.764	0.810810810811	-12.0916666667	11.8727272727	-2.87547169811
1529	0.7645	0.810810810811	-12.0916666667	-0.989090909091	-1.44528301887
1530	0.765	-0.612162162162	-13.4986111111	1.86909090909	-0.0150943396226
1531	0.7655	-11.9959459459	-6.46388888889	-5.27636363636	-1.44528301887
1532	0.766	19.3094594595	0.570833333333	-3.84727272727	-2.87547169811
1533	0.7665	0.810810810811	1.97777777778	-10.9927272727	-7.16603773585
1534	0.767	-3.45810810811	-0.836111111111	-9.56363636364	-7.16603773585
1535	0.7675	-3.45810810811	-5.05694444444	-13.8509090909	-0.0150943396226
1536	0.768	-2.03513513514	4.79166666667	-5.27636363636	-2.87547169811
1537	0.7685	-6.30405405405	3.38472222222	-8.13454545455	-1.44528301887
1538	0.769	-11.9959459459	-17.7194444444	-3.84727272727	1.41509433962
1539	0.7695	-2.03513513514	-17.7194444444	-0.989090909091	-1.44528301887
1540	0.77	-0.612162162162	-12.0916666667	-0.989090909091	-1.44528301887
1541	0.7705	-2.03513513514	-5.05694444444	-0.989090909091	-11.4566037736
1542	0.771	0.810810810811	3.38472222222	-3.84727272727	-5.7358490566
1543	0.7715	0.810810810811	23.0819444444	3.29818181818	-5.7358490566
1544	0.772	-2.03513513514	4.79166666667	0.44	-4.30566037736
1545	0.7725	23.5783783784	13.2333333333	1.86909090909	-2.87547169811
1546	0.773	-6.30405405405	10.4194444444	4.72727272727	11.4264150943
1547	0.7735	0.810810810811	10.4194444444	14.7309090909	-1.44528301887
1548	0.774	0.810810810811	6.19861111111	-5.27636363636	-1.44528301887
1549	0.7745	-0.612162162162	9.0125	-0.989090909091	-1.44528301887
1550	0.775	-0.612162162162	6.19861111111	0.44	-4.30566037736
1551	0.7755	3.65675675676	4.79166666667	3.29818181818	-7.16603773585
1552	0.776	9.34864864865	7.60555555556	6.15636363636	-2.87547169811
1553	0.7765	0.810810810811	13.2333333333	4.72727272727	-14.3169811321
1554	0.777	-0.612162162162	7.60555555556	-2.41818181818	-1.44528301887
1555	0.7775	-3.45810810811	16.0472222222	13.3018181818	-4.30566037736
1556	0.778	-2.03513513514	23.0819444444	6.15636363636	-2.87547169811
1557	0.7785	-4.88108108108	25.8958333333	9.01454545455	-2.87547169811
1558	0.779	2.23378378378	10.4194444444	7.58545454545	-4.30566037736
1559	0.7795	-7.72702702703	3.38472222222	7.58545454545	14.2867924528
1560	0.78	-4.88108108108	-0.836111111111	6.15636363636	-8.59622641509
1561	0.7805	-2.03513513514	0.570833333333	-6.70545454545	1.41509433962
1562	0.781	-2.03513513514	3.38472222222	-3.84727272727	5.70566037736
1563	0.7815	0.810810810811	18.8611111111	3.29818181818	11.4264150943
1564	0.782	2.23378378378	-9.27777777778	0.44	7.1358490566
1565	0.7825	19.3094594595	3.38472222222	0.44	-4.30566037736
1566	0.783	0.810810810811	-0.836111111111	-0.989090909091	-7.16603773585
1567	0.7835	-0.612162162162	-2.24305555556	1.86909090909	12.8566037736
1568	0.784	-0.612162162162	-5.05694444444	16.16	-4.30566037736
1569	0.7845	-3.45810810811	-14.9055555556	-0.989090909091	-5.7358490566
1570	0.785	0.810810810811	-3.65	-2.41818181818	-2.87547169811
1571	0.7855	-16.2648648649	-5.05694444444	-2.41818181818	-1.44528301887
1572	0.786	-10.572972973	-0.836111111111	3.29818181818	14.2867924528
1573	0.7865	-2.03513513514	0.570833333333	0.44	-7.16603773585
1574	0.787	-2.03513513514	-0.836111111111	0.44	-0.0150943396226
1575	0.7875	-6.30405405405	-0.836111111111	11.8727272727	-1.44528301887
1576	0.788	-3.45810810811	-7.87083333333	-0.989090909091	1.41509433962
1577	0.7885	-6.30405405405	18.8611111111	-2.41818181818	1.41509433962
1578	0.789	-13.4189189189	3.38472222222	-0.989090909091	1.41509433962
1579	0.7895	-2.03513513514	7.60555555556	-0.989090909091	-2.87547169811
1580	0.79	9.34864864865	3.38472222222	-6.70545454545	-2.87547169811
1581	0.7905	5.07972972973	3.38472222222	1.86909090909	-2.87547169811
1582	0.791	5.07972972973	13.2333333333	1.86909090909	-2.87547169811
1583	0.7915	-0.612162162162	9.0125	-0.989090909091	-2.87547169811
1584	0.792	3.65675675676	-6.46388888889	-0.989090909091	-0.0150943396226
1585	0.7925	3.65675675676	-17.7194444444	-0.989090909091	2.84528301887
1586	0.793	-6.30405405405	-12.0916666667	0.44	-5.7358490566
1587	0.7935	-4.88108108108	-7.87083333333	-3.84727272727	-4.30566037736
1588	0.794	-2.03513513514	-7.87083333333	16.16	-4.30566037736
1589	0.7945	2.23378378378	-10.6847222222	3.29818181818	-2.87547169811
1590	0.795	0.810810810811	-10.6847222222	1.86909090909	-1.44528301887
1591	0.7955	-3.45810810811	-2.24305555556	-0.989090909091	-1.44528301887
1592	0.796	-6.30405405405	0.570833333333	0.44	4.27547169811
1593	0.7965	-3.45810810811	-2.24305555556	-0.989090909091	-4.30566037736
1594	0.797	-0.612162162162	-2.24305555556	-3.84727272727	7.1358490566
1595	0.7975	-0.612162162162	-2.24305555556	-8.13454545455	7.1358490566
1596	0.798	2.23378378378	-10.6847222222	1.86909090909	7.1358490566
1597	0.7985	0.810810810811	-9.27777777778	3.29818181818	5.70566037736
1598	0.799	23.5783783784	0.570833333333	3.29818181818	5.70566037736
1599	0.7995	-7.72702702703	0.570833333333	0.44	-7.16603773585
1600	0.8	0.810810810811	-2.24305555556	3.29818181818	-22.8981132075
1601	0.8005	-0.612162162162	-0.836111111111	17.5890909091	-21.4679245283
1602	0.801	-0.612162162162	-6.46388888889	14.7309090909	-15.7471698113
1603	0.8015	0.810810810811	14.6402777778	0.44	-5.7358490566
1604	0.802	-4.88108108108	-5.05694444444	0.44	5.70566037736
1605	0.8025	-4.88108108108	-6.46388888889	1.86909090909	-0.0150943396226
1606	0.803	-2.03513513514	-6.46388888889	3.29818181818	17.1471698113
1607	0.8035	2.23378378378	-2.24305555556	-2.41818181818	21.4377358491
1608	0.804	-3.45810810811	-0.836111111111	-0.989090909091	4.27547169811
1609	0.8045	-4.88108108108	3.38472222222	-8.13454545455	11.4264150943
1610	0.805	-7.72702702703	21.675	1.86909090909	11.4264150943
1611	0.8055	-7.72702702703	-9.27777777778	0.44	4.27547169811
1612	0.806	20.7324324324	-2.24305555556	-0.989090909091	-10.0264150943
1613	0.8065	0.810810810811	-2.24305555556	0.44	-1.44528301887
1614	0.807	3.65675675676	-2.24305555556	1.86909090909	-8.59622641509
1615	0.8075	3.65675675676	0.570833333333	-0.989090909091	-15.7471698113
1616	0.808	-3.45810810811	0.570833333333	-5.27636363636	-12.8867924528
1617	0.8085	-3.45810810811	3.38472222222	-0.989090909091	-7.16603773585
1618	0.809	-6.30405405405	1.97777777778	-0.989090909091	-2.87547169811
1619	0.8095	16.4635135135	-3.65	-0.989090909091	2.84528301887
1620	0.81	2.23378378378	-7.87083333333	4.72727272727	1.41509433962
1621	0.8105	2.23378378378	-12.0916666667	0.44	-1.44528301887
1622	0.811	-2.03513513514	-10.6847222222	-5.27636363636	2.84528301887
1623	0.8115	-2.03513513514	-3.65	-0.989090909091	4.27547169811
1624	0.812	-6.30405405405	-5.05694444444	-0.989090909091	4.27547169811
1625	0.8125	-11.9959459459	3.38472222222	1.86909090909	-0.0150943396226
1626	0.813	9.34864864865	-0.836111111111	3.29818181818	-1.44528301887
1627	0.8135	-0.612162162162	-2.24305555556	4.72727272727	-11.4566037736
1628	0.814	0.810810810811	-2.24305555556	-8.13454545455	-8.59622641509
1629	0.8145	-0.612162162162	0.570833333333	-3.84727272727	-0.0150943396226
1630	0.815	2.23378378378	9.0125	-2.41818181818	1.41509433962
1631	0.8155	-0.612162162162	4.79166666667	0.44	-0.0150943396226
1632	0.816	0.810810810811	0.570833333333	0.44	1.41509433962
1633	0.8165	17.8864864865	0.570833333333	1.86909090909	-0.0150943396226
1634	0.817	-3.45810810811	-3.65	-2.41818181818	-11.4566037736
1635	0.8175	0.810810810811	-9.27777777778	-8.13454545455	-1.44528301887
1636	0.818	-3.45810810811	-5.05694444444	3.29818181818	-1.44528301887
1637	0.8185	-3.45810810811	14.6402777778	-0.989090909091	-0.0150943396226
1638	0.819	-3.45810810811	7.60555555556	1.86909090909	-0.0150943396226
1639	0.8195	3.65675675676	1.97777777778	0.44	-1.44528301887
1640	0.82	-4.88108108108	-3.65	4.72727272727	-4.30566037736
1641	0.8205	0.810810810811	1.97777777778	1.86909090909	15.7169811321
1642	0.821	-2.03513513514	3.38472222222	17.5890909091	-1.44528301887
1643	0.8215	2.23378378378	6.19861111111	7.58545454545	-2.87547169811
1644	0.822	0.810810810811	16.0472222222	-0.989090909091	-1.44528301887
1645	0.8225	-0.612162162162	6.19861111111	1.86909090909	-2.87547169811
1646	0.823	-14.8418918919	3.38472222222	3.29818181818	-2.87547169811
1647	0.8235	-4.88108108108	-0.836111111111	1.86909090909	4.27547169811
1648	0.824	-2.03513513514	0.570833333333	0.44	15.7169811321
1649	0.8245	-0.612162162162	1.97777777778	3.29818181818	-7.16603773585
1650	0.825	0.810810810811	-7.87083333333	0.44	1.41509433962
1651	0.8255	0.810810810811	9.0125	-3.84727272727	-0.0150943396226
1652	0.826	0.810810810811	-2.24305555556	-0.989090909091	-0.0150943396226
1653	0.8265	2.23378378378	1.97777777778	-0.989090909091	2.84528301887
1654	0.827	-2.03513513514	-3.65	-0.989090909091	4.27547169811
1655	0.8275	-0.612162162162	-7.87083333333	-8.13454545455	-8.59622641509
1656	0.828	-0.612162162162	-9.27777777778	16.16	-4.30566037736
1657	0.8285	-2.03513513514	-7.87083333333	-2.41818181818	-7.16603773585
1658	0.829	-2.03513513514	7.60555555556	1.86909090909	-4.30566037736
1659	0.8295	0.810810810811	-7.87083333333	1.86909090909	-5.7358490566
1660	0.83	0.810810810811	0.570833333333	1.86909090909	-1.44528301887
1661	0.8305	-10.572972973	0.570833333333	4.72727272727	-1.44528301887
1662	0.831	0.810810810811	-0.836111111111	3.29818181818	-7.16603773585
1663	0.8315	-0.612162162162	-5.05694444444	-3.84727272727	-4.30566037736
1664	0.832	-4.88108108108	-0.836111111111	-8.13454545455	-7.16603773585
1665	0.8325	0.810810810811	-14.9055555556	0.44	-8.59622641509
1666	0.833	2.23378378378	-7.87083333333	3.29818181818	-2.87547169811
1667	0.8335	0.810810810811	-5.05694444444	-0.989090909091	5.70566037736
1668	0.834	17.8864864865	-2.24305555556	-0.989090909091	4.27547169811
1669	0.8345	-2.03513513514	-6.46388888889	-2.41818181818	-0.0150943396226
1670	0.835	0.810810810811	-5.05694444444	-10.9927272727	2.84528301887
1671	0.8355	0.810810810811	-7.87083333333	-8.13454545455	-5.7358490566
1672	0.836	-0.612162162162	-6.46388888889	-0.989090909091	-4.30566037736
1673	0.8365	0.810810810811	7.60555555556	-0.989090909091	-7.16603773585
1674	0.837	-10.572972973	-5.05694444444	0.44	-1.44528301887
1675	0.8375	-6.30405405405	-7.87083333333	0.44	-4.30566037736
1676	0.838	-3.45810810811	-5.05694444444	3.29818181818	2.84528301887
1677	0.8385	0.810810810811	-0.836111111111	4.72727272727	-10.0264150943
1678	0.839	-0.612162162162	0.570833333333	0.44	-5.7358490566
1679	0.8395	0.810810810811	6.19861111111	4.72727272727	-5.7358490566
1680	0.84	2.23378378378	-2.24305555556	4.72727272727	-7.16603773585
1681	0.8405	0.810810810811	3.38472222222	3.29818181818	-4.30566037736
1682	0.841	19.3094594595	0.570833333333	0.44	-4.30566037736
1683	0.8415	0.810810810811	3.38472222222	1.86909090909	1.41509433962
1684	0.842	0.810810810811	4.79166666667	4.72727272727	1.41509433962
1685	0.8425	3.65675675676	4.79166666667	-0.989090909091	1.41509433962
1686	0.843	0.810810810811	9.0125	-0.989090909091	1.41509433962
1687	0.8435	-2.03513513514	1.97777777778	-0.989090909091	7.1358490566
1688	0.844	-9.15	1.97777777778	1.86909090909	11.4264150943
1689	0.8445	-7.72702702703	-3.65	-0.989090909091	-0.0150943396226
1690	0.845	0.810810810811	-0.836111111111	-0.989090909091	7.1358490566
1691	0.8455	2.23378378378	0.570833333333	0.44	1.41509433962
1692	0.846	0.810810810811	-5.05694444444	0.44	1.41509433962
1693	0.8465	-2.03513513514	9.0125	0.44	1.41509433962
1694	0.847	-3.45810810811	-7.87083333333	6.15636363636	1.41509433962
1695	0.8475	12.1945945946	-3.65	1.86909090909	-1.44528301887
1696	0.848	-9.15	-0.836111111111	3.29818181818	-0.0150943396226
1697	0.8485	-0.612162162162	-0.836111111111	6.15636363636	1.41509433962
1698	0.849	-3.45810810811	-0.836111111111	0.44	1.41509433962
1699	0.8495	-0.612162162162	-10.6847222222	3.29818181818	-0.0150943396226
1700	0.85	-0.612162162162	20.2680555556	0.44	-0.0150943396226
1701	0.8505	-14.8418918919	-0.836111111111	0.44	-1.44528301887
1702	0.851	15.0405405405	-0.836111111111	0.44	-7.16603773585
1703	0.8515	-6.30405405405	-5.05694444444	-2.41818181818	12.8566037736
1704	0.852	-0.612162162162	-6.46388888889	-0.989090909091	-7.16603773585
1705	0.8525	-2.03513513514	-5.05694444444	-6.70545454545	5.70566037736
1706	0.853	0.810810810811	-0.836111111111	-8.13454545455	4.27547169811
1707	0.8535	-3.45810810811	0.570833333333	4.72727272727	-0.0150943396226
1708	0.854	-9.15	3.38472222222	0.44	1.41509433962
1709	0.8545	20.7324324324	-2.24305555556	1.86909090909	-11.4566037736
1710	0.855	0.810810810811	-3.65	-2.41818181818	-11.4566037736
1711	0.8555	3.65675675676	-6.46388888889	4.72727272727	-10.0264150943
1712	0.856	0.810810810811	-2.24305555556	-6.70545454545	-4.30566037736
1713	0.8565	0.810810810811	-3.65	-6.70545454545	-4.30566037736
1714	0.857	-0.612162162162	-12.0916666667	-0.989090909091	-4.30566037736
1715	0.8575	2.23378378378	-5.05694444444	-0.989090909091	-0.0150943396226
1716	0.858	-11.9959459459	-2.24305555556	-2.41818181818	2.84528301887
1717	0.8585	0.810810810811	0.570833333333	1.86909090909	8.56603773585
1718	0.859	-0.612162162162	4.79166666667	-0.989090909091	7.1358490566
1719	0.8595	-0.612162162162	-2.24305555556	-3.84727272727	-1.44528301887
1720	0.86	0.810810810811	4.79166666667	-3.84727272727	-1.44528301887
1721	0.8605	0.810810810811	-3.65	-3.84727272727	2.84528301887
1722	0.861	-7.72702702703	6.19861111111	-3.84727272727	1.41509433962
1723	0.8615	-6.30405405405	4.79166666667	0.44	5.70566037736
1724	0.862	0.810810810811	0.570833333333	4.72727272727	-7.16603773585
1725	0.8625	0.810810810811	-2.24305555556	-8.13454545455	1.41509433962
1726	0.863	-0.612162162162	3.38472222222	-5.27636363636	-0.0150943396226
1727	0.8635	0.810810810811	20.2680555556	1.86909090909	-1.44528301887
1728	0.864	3.65675675676	-12.0916666667	4.72727272727	-1.44528301887
1729	0.8645	19.3094594595	-2.24305555556	4.72727272727	-11.4566037736
1730	0.865	-0.612162162162	-0.836111111111	4.72727272727	1.41509433962
1731	0.8655	-3.45810810811	-2.24305555556	17.5890909091	-0.0150943396226
1732	0.866	0.810810810811	-2.24305555556	1.86909090909	-1.44528301887
1733	0.8665	-0.612162162162	-9.27777777778	1.86909090909	-1.44528301887
1734	0.867	0.810810810811	-0.836111111111	7.58545454545	-2.87547169811
1735	0.8675	0.810810810811	0.570833333333	4.72727272727	-2.87547169811
1736	0.868	-7.72702702703	0.570833333333	6.15636363636	14.2867924528
1737	0.8685	-0.612162162162	-3.65	9.01454545455	-7.16603773585
1738	0.869	-0.612162162162	-10.6847222222	3.29818181818	-5.7358490566
1739	0.8695	0.810810810811	-20.5333333333	3.29818181818	-2.87547169811
1740	0.87	0.810810810811	-7.87083333333	-2.41818181818	-5.7358490566
1741	0.8705	-2.03513513514	-13.4986111111	-0.989090909091	-2.87547169811
1742	0.871	-10.572972973	-12.0916666667	1.86909090909	-2.87547169811
1743	0.8715	-4.88108108108	-9.27777777778	0.44	-1.44528301887
1744	0.872	-0.612162162162	-5.05694444444	3.29818181818	-5.7358490566
1745	0.8725	0.810810810811	-2.24305555556	-5.27636363636	-5.7358490566
1746	0.873	2.23378378378	0.570833333333	-0.989090909091	-4.30566037736
1747	0.8735	0.810810810811	-10.6847222222	0.44	-4.30566037736
1748	0.874	3.65675675676	4.79166666667	0.44	-2.87547169811
1749	0.8745	19.3094594595	3.38472222222	4.72727272727	-2.87547169811
1750	0.875	-2.03513513514	1.97777777778	3.29818181818	-8.59622641509
1751	0.8755	-0.612162162162	3.38472222222	-0.989090909091	8.56603773585
1752	0.876	2.23378378378	4.79166666667	7.58545454545	-1.44528301887
1753	0.8765	-0.612162162162	0.570833333333	0.44	-0.0150943396226
1754	0.877	-3.45810810811	16.0472222222	0.44	-1.44528301887
1755	0.8775	-0.612162162162	-3.65	3.29818181818	-1.44528301887
1756	0.878	20.7324324324	-5.05694444444	1.86909090909	-2.87547169811
1757	0.8785	-0.612162162162	-3.65	1.86909090909	-12.8867924528
1758	0.879	-0.612162162162	-5.05694444444	-6.70545454545	-4.30566037736
1759	0.8795	-2.03513513514	6.19861111111	-0.989090909091	2.84528301887
1760	0.88	0.810810810811	-3.65	-2.41818181818	2.84528301887
1761	0.8805	-3.45810810811	10.4194444444	1.86909090909	-1.44528301887
1762	0.881	-2.03513513514	4.79166666667	1.86909090909	1.41509433962
1763	0.8815	9.34864864865	1.97777777778	3.29818181818	-4.30566037736
1764	0.882	2.23378378378	0.570833333333	1.86909090909	-0.0150943396226
1765	0.8825	0.810810810811	-2.24305555556	6.15636363636	-5.7358490566
1766	0.883	2.23378378378	-3.65	-0.989090909091	-5.7358490566
1767	0.8835	0.810810810811	0.570833333333	-2.41818181818	-4.30566037736
1768	0.884	0.810810810811	-5.05694444444	-0.989090909091	-2.87547169811
1769	0.8845	-2.03513513514	0.570833333333	-0.989090909091	-1.44528301887
1770	0.885	-10.572972973	6.19861111111	1.86909090909	15.7169811321
1771	0.8855	-3.45810810811	9.0125	3.29818181818	-4.30566037736
1772	0.886	-0.612162162162	7.60555555556	19.0181818182	-5.7358490566
1773	0.8865	-3.45810810811	1.97777777778	-6.70545454545	-10.0264150943
1774	0.887	-2.03513513514	3.38472222222	1.86909090909	-10.0264150943
1775	0.8875	-3.45810810811	-7.87083333333	1.86909090909	-8.59622641509
1776	0.888	-6.30405405405	-0.836111111111	0.44	-7.16603773585
1777	0.8885	-6.30405405405	0.570833333333	0.44	7.1358490566
1778	0.889	0.810810810811	3.38472222222	1.86909090909	12.8566037736
