	Time	Channel 1	Channel 2	Channel 3	Channel 4
0	0.0	-21.906557377	11511.3	-23.6527859238	11.3769230769
1	0.0005	-6.34426229508	11511.3	-15.2035190616	5.70769230769
2	0.001	12.0475409836	11511.3	-18.019941349	11.3769230769
3	0.0015	-2.1	11511.3	-20.8363636364	11.3769230769
4	0.002	-2.1	11511.3	-26.4692082111	12.7942307692
5	0.0025	-3.51475409836	11511.3	-18.019941349	7.125
6	0.003	-16.2475409836	11511.3	-18.019941349	8.54230769231
7	0.0035	-3.51475409836	11511.3	-25.0609970674	8.54230769231
8	0.004	-2.1	11511.3	-36.326686217	1.45576923077
9	0.0045	-12.0032786885	11511.3	-30.6938416422	5.70769230769
10	0.005	-14.8327868852	11511.3	-32.1020527859	4.29038461538
11	0.0055	-6.34426229508	11511.3	-46.1841642229	0.0384615384615
12	0.006	-6.34426229508	11511.3	-43.3677419355	-1.37884615385
13	0.0065	-6.34426229508	11511.3	-49.0005865103	8.54230769231
14	0.007	-2.1	11511.3	-43.3677419355	12.7942307692
15	0.0075	-2.1	11511.3	-40.5513196481	15.6288461538
16	0.008	-12.0032786885	11511.3	-40.5513196481	18.4634615385
17	0.0085	-13.4180327869	11511.3	-37.7348973607	17.0461538462
18	0.009	-2.1	11511.3	-37.7348973607	18.4634615385
19	0.0095	-3.51475409836	11511.3	-46.1841642229	18.4634615385
20	0.01	-2.1	11511.3	-47.5923753666	17.0461538462
21	0.0105	-3.51475409836	11511.3	-50.408797654	15.6288461538
22	0.011	16.2918032787	11511.3	-47.5923753666	14.2115384615
23	0.0115	-3.51475409836	11511.3	-43.3677419355	31.2192307692
24	0.012	-3.51475409836	11511.3	-44.7759530792	15.6288461538
25	0.0125	-0.685245901639	11511.3	-44.7759530792	14.2115384615
26	0.013	0.729508196721	11511.3	-36.326686217	14.2115384615
27	0.0135	-3.51475409836	11511.3	-41.9595307918	14.2115384615
28	0.014	-13.4180327869	11511.3	-37.7348973607	12.7942307692
29	0.0145	-4.92950819672	11511.3	-29.2856304985	8.54230769231
30	0.015	-3.51475409836	11511.3	-12.3870967742	12.7942307692
31	0.0155	-4.92950819672	11511.3	-23.6527859238	12.7942307692
32	0.016	-4.92950819672	11511.3	-16.6117302053	14.2115384615
33	0.0165	-19.0770491803	11511.3	-16.6117302053	11.3769230769
34	0.017	12.0475409836	11511.3	-16.6117302053	17.0461538462
35	0.0175	-2.1	11511.3	-27.8774193548	17.0461538462
36	0.018	-2.1	11511.3	-16.6117302053	18.4634615385
37	0.0185	-4.92950819672	11511.3	-12.3870967742	18.4634615385
38	0.019	-3.51475409836	11511.3	-16.6117302053	19.8807692308
39	0.0195	-19.0770491803	11511.3	-19.4281524927	22.7153846154
40	0.02	-12.0032786885	11511.3	-18.019941349	17.0461538462
41	0.0205	-6.34426229508	11511.3	-19.4281524927	0.0384615384615
42	0.021	-6.34426229508	11511.3	-27.8774193548	15.6288461538
43	0.0215	-4.92950819672	11511.3	-29.2856304985	18.4634615385
44	0.022	-10.5885245902	11511.3	-18.019941349	21.2980769231
45	0.0225	-14.8327868852	11511.3	-13.7953079179	21.2980769231
46	0.023	-10.5885245902	11511.3	-2.52961876833	19.8807692308
47	0.0235	-3.51475409836	11511.3	12.9607038123	26.9673076923
48	0.024	-0.685245901639	11511.3	35.4920821114	19.8807692308
49	0.0245	-0.685245901639	11511.3	38.3085043988	15.6288461538
50	0.025	-2.1	11511.3	36.9002932551	7.125
51	0.0255	-3.51475409836	11511.3	29.8592375367	8.54230769231
52	0.026	-7.75901639344	11511.3	17.1853372434	12.7942307692
53	0.0265	-3.51475409836	11511.3	4.51143695015	25.55
54	0.027	-3.51475409836	11511.3	20.0017595308	5.70769230769
55	0.0275	-4.92950819672	11511.3	-8.16246334311	5.70769230769
56	0.028	-4.92950819672	11511.3	-12.3870967742	2.87307692308
57	0.0285	-3.51475409836	11511.3	-18.019941349	2.87307692308
58	0.029	17.706557377	11511.3	-30.6938416422	-1.37884615385
59	0.0295	-2.1	11511.3	-49.0005865103	7.125
60	0.03	0.729508196721	11511.3	-46.1841642229	21.2980769231
61	0.0305	4.9737704918	11511.3	-39.1431085044	25.55
62	0.031	0.729508196721	11511.3	-27.8774193548	21.2980769231
63	0.0315	-10.5885245902	11511.3	-25.0609970674	19.8807692308
64	0.032	-12.0032786885	11511.3	-26.4692082111	26.9673076923
65	0.0325	2.14426229508	11511.3	-25.0609970674	5.70769230769
66	0.033	-0.685245901639	11511.3	-18.019941349	1.45576923077
67	0.0335	-3.51475409836	11511.3	-29.2856304985	1.45576923077
68	0.034	-4.92950819672	11511.3	-25.0609970674	0.0384615384615
69	0.0345	13.462295082	11511.3	-26.4692082111	4.29038461538
70	0.035	2.14426229508	11511.3	-25.0609970674	0.0384615384615
71	0.0355	9.21803278689	11511.3	-15.2035190616	-12.7173076923
72	0.036	7.80327868852	11511.3	-12.3870967742	-7.04807692308
73	0.0365	7.80327868852	11511.3	-13.7953079179	-7.04807692308
74	0.037	10.6327868852	11511.3	-8.16246334311	-5.63076923077
75	0.0375	0.729508196721	11511.3	-6.75425219941	4.29038461538
76	0.038	-7.75901639344	11511.3	-3.93782991202	26.9673076923
77	0.0385	-0.685245901639	11511.3	-10.9788856305	22.7153846154
78	0.039	-4.92950819672	11511.3	-23.6527859238	0.0384615384615
79	0.0395	-3.51475409836	11511.3	-33.5102639296	-1.37884615385
80	0.04	0.729508196721	11511.3	-34.9184750733	5.70769230769
81	0.0405	-3.51475409836	11511.3	-27.8774193548	5.70769230769
82	0.041	10.6327868852	11511.3	-12.3870967742	2.87307692308
83	0.0415	9.21803278689	11511.3	-6.75425219941	-7.04807692308
84	0.042	3.55901639344	11511.3	-10.9788856305	-4.21346153846
85	0.0425	9.21803278689	11511.3	-6.75425219941	1.45576923077
86	0.043	-0.685245901639	11511.3	-13.7953079179	2.87307692308
87	0.0435	-10.5885245902	11511.3	-12.3870967742	4.29038461538
88	0.044	-3.51475409836	11511.3	-6.75425219941	2.87307692308
89	0.0445	19.1213114754	11511.3	-18.019941349	17.0461538462
90	0.045	20.5360655738	11511.3	-27.8774193548	2.87307692308
91	0.0455	19.1213114754	11511.3	-68.715542522	2.87307692308
92	0.046	14.8770491803	11511.3	-70.1237536657	1.45576923077
93	0.0465	3.55901639344	11511.3	-60.2662756598	4.29038461538
94	0.047	-6.34426229508	11511.3	-47.5923753666	5.70769230769
95	0.0475	-10.5885245902	11511.3	-34.9184750733	7.125
96	0.048	-10.5885245902	11511.3	-34.9184750733	4.29038461538
97	0.0485	-4.92950819672	11511.3	-34.9184750733	-1.37884615385
98	0.049	4.9737704918	11511.3	-34.9184750733	-1.37884615385
99	0.0495	0.729508196721	11511.3	-34.9184750733	-2.79615384615
100	0.05	9.21803278689	11511.3	-34.9184750733	11.3769230769
101	0.0505	12.0475409836	11511.3	-27.8774193548	5.70769230769
102	0.051	13.462295082	11511.3	-33.5102639296	0.0384615384615
103	0.0515	10.6327868852	11511.3	-37.7348973607	-1.37884615385
104	0.052	9.21803278689	11511.3	-50.408797654	-1.37884615385
105	0.0525	23.3655737705	11511.3	-75.7565982405	-7.04807692308
106	0.053	3.55901639344	11511.3	-74.3483870968	-14.1346153846
107	0.0535	9.21803278689	11511.3	-58.8580645161	-14.1346153846
108	0.054	9.21803278689	11511.3	-34.9184750733	-2.79615384615
109	0.0545	9.21803278689	11511.3	-40.5513196481	1.45576923077
110	0.055	-0.685245901639	11511.3	-47.5923753666	0.0384615384615
111	0.0555	19.1213114754	11511.3	-46.1841642229	-4.21346153846
112	0.056	12.0475409836	11511.3	-49.0005865103	0.0384615384615
113	0.0565	13.462295082	11511.3	-58.8580645161	-8.46538461538
114	0.057	14.8770491803	11511.3	-46.1841642229	-7.04807692308
115	0.0575	10.6327868852	11511.3	-41.9595307918	-2.79615384615
116	0.058	10.6327868852	11511.3	-37.7348973607	-1.37884615385
117	0.0585	13.462295082	11511.3	-15.2035190616	4.29038461538
118	0.059	9.21803278689	11511.3	7.32785923754	4.29038461538
119	0.0595	13.462295082	11511.3	14.368914956	0.0384615384615
120	0.06	14.8770491803	11511.3	12.9607038123	1.45576923077
121	0.0605	14.8770491803	11511.3	27.0428152493	2.87307692308
122	0.061	14.8770491803	11511.3	36.9002932551	-4.21346153846
123	0.0615	17.706557377	11511.3	43.9413489736	-7.04807692308
124	0.062	12.0475409836	11511.3	48.1659824047	-8.46538461538
125	0.0625	13.462295082	11511.3	59.4316715543	-12.7173076923
126	0.063	16.2918032787	11511.3	58.0234604106	-2.79615384615
127	0.0635	16.2918032787	11511.3	39.7167155425	1.45576923077
128	0.064	17.706557377	11511.3	5.91964809384	1.45576923077
129	0.0645	17.706557377	11511.3	-12.3870967742	-1.37884615385
130	0.065	14.8770491803	11511.3	-29.2856304985	0.0384615384615
131	0.0655	13.462295082	11511.3	-22.2445747801	-1.37884615385
132	0.066	12.0475409836	11511.3	-43.3677419355	-4.21346153846
133	0.0665	13.462295082	11511.3	-41.9595307918	-4.21346153846
134	0.067	3.55901639344	11511.3	-39.1431085044	-2.79615384615
135	0.0675	27.6098360656	11511.3	-26.4692082111	-2.79615384615
136	0.068	13.462295082	11511.3	-6.75425219941	-8.46538461538
137	0.0685	13.462295082	11511.3	1.69501466276	-7.04807692308
138	0.069	14.8770491803	11511.3	-6.75425219941	-4.21346153846
139	0.0695	16.2918032787	11511.3	-6.75425219941	-4.21346153846
140	0.07	17.706557377	11511.3	-2.52961876833	-7.04807692308
141	0.0705	29.0245901639	11511.3	-6.75425219941	-7.04807692308
142	0.071	14.8770491803	11511.3	-15.2035190616	-7.04807692308
143	0.0715	12.0475409836	11511.3	-13.7953079179	-7.04807692308
144	0.072	14.8770491803	11511.3	-2.52961876833	-1.37884615385
145	0.0725	10.6327868852	11511.3	-5.34604105572	2.87307692308
146	0.073	-0.685245901639	11511.3	0.286803519062	7.125
147	0.0735	9.21803278689	11511.3	-1.12140762463	7.125
148	0.074	23.3655737705	11511.3	-1.12140762463	18.4634615385
149	0.0745	17.706557377	11511.3	12.9607038123	-2.79615384615
150	0.075	16.2918032787	11511.3	-6.75425219941	-2.79615384615
151	0.0755	19.1213114754	11511.3	-10.9788856305	-5.63076923077
152	0.076	36.0983606557	11511.3	-16.6117302053	-7.04807692308
153	0.0765	23.3655737705	11511.3	-18.019941349	-11.3
154	0.077	23.3655737705	11511.3	-20.8363636364	18.4634615385
155	0.0775	24.7803278689	11511.3	-26.4692082111	0.0384615384615
156	0.078	21.9508196721	11511.3	-23.6527859238	0.0384615384615
157	0.0785	16.2918032787	11511.3	-12.3870967742	-1.37884615385
158	0.079	37.5131147541	11511.3	-18.019941349	-5.63076923077
159	0.0795	9.21803278689	11511.3	-15.2035190616	-8.46538461538
160	0.08	-3.51475409836	11511.3	-18.019941349	-5.63076923077
161	0.0805	-7.75901639344	11511.3	-13.7953079179	-5.63076923077
162	0.081	-2.1	11511.3	-16.6117302053	-4.21346153846
163	0.0815	3.55901639344	11511.3	-12.3870967742	-4.21346153846
164	0.082	-0.685245901639	11511.3	-10.9788856305	-2.79615384615
165	0.0825	9.21803278689	11511.3	-19.4281524927	-2.79615384615
166	0.083	7.80327868852	11511.3	0.286803519062	-2.79615384615
167	0.0835	16.2918032787	11511.3	8.73607038123	-2.79615384615
168	0.084	20.5360655738	11511.3	-1.12140762463	-2.79615384615
169	0.0845	20.5360655738	11511.3	8.73607038123	-5.63076923077
170	0.085	29.0245901639	11511.3	15.7771260997	-5.63076923077
171	0.0855	12.0475409836	11511.3	3.10322580645	-14.1346153846
172	0.086	7.80327868852	11511.3	-6.75425219941	8.54230769231
173	0.0865	4.9737704918	11511.3	-9.5706744868	-4.21346153846
174	0.087	7.80327868852	11511.3	-18.019941349	-4.21346153846
175	0.0875	3.55901639344	11511.3	-19.4281524927	-7.04807692308
176	0.088	2.14426229508	11511.3	-12.3870967742	-16.9692307692
177	0.0885	14.8770491803	11511.3	-13.7953079179	-15.5519230769
178	0.089	16.2918032787	11511.3	-18.019941349	-7.04807692308
179	0.0895	14.8770491803	11511.3	-26.4692082111	-8.46538461538
180	0.09	16.2918032787	11511.3	-33.5102639296	-5.63076923077
181	0.0905	10.6327868852	11511.3	-29.2856304985	-7.04807692308
182	0.091	3.55901639344	11511.3	-26.4692082111	-5.63076923077
183	0.0915	16.2918032787	11511.3	-34.9184750733	-14.1346153846
184	0.092	14.8770491803	11511.3	-63.0826979472	-11.3
185	0.0925	14.8770491803	11511.3	-89.8387096774	-4.21346153846
186	0.093	14.8770491803	11511.3	-110.961876833	-7.04807692308
187	0.0935	12.0475409836	11511.3	-103.920821114	-7.04807692308
188	0.094	-7.75901639344	11511.3	-77.1648093842	-4.21346153846
189	0.0945	-6.34426229508	11511.3	-64.4909090909	11.3769230769
190	0.095	10.6327868852	11511.3	-56.0416422287	9.95961538462
191	0.0955	10.6327868852	11511.3	-43.3677419355	-7.04807692308
192	0.096	10.6327868852	11511.3	-41.9595307918	-4.21346153846
193	0.0965	7.80327868852	11511.3	-46.1841642229	-7.04807692308
194	0.097	26.1950819672	11511.3	-37.7348973607	-7.04807692308
195	0.0975	3.55901639344	11511.3	-39.1431085044	-9.88269230769
196	0.098	4.9737704918	11511.3	-46.1841642229	-4.21346153846
197	0.0985	4.9737704918	11511.3	-33.5102639296	-7.04807692308
198	0.099	2.14426229508	11511.3	-36.326686217	-7.04807692308
199	0.0995	3.55901639344	11511.3	-30.6938416422	-9.88269230769
200	0.1	9.21803278689	11511.3	-30.6938416422	-5.63076923077
201	0.1005	10.6327868852	11511.3	-36.326686217	-12.7173076923
202	0.101	9.21803278689	11511.3	-26.4692082111	-18.3865384615
203	0.1015	3.55901639344	11511.3	-22.2445747801	-8.46538461538
204	0.102	-0.685245901639	11511.3	-25.0609970674	-8.46538461538
205	0.1025	-6.34426229508	11511.3	-30.6938416422	-9.88269230769
206	0.103	9.21803278689	11511.3	-26.4692082111	-12.7173076923
207	0.1035	4.9737704918	11511.3	-22.2445747801	-14.1346153846
208	0.104	7.80327868852	11511.3	-29.2856304985	-8.46538461538
209	0.1045	4.9737704918	11511.3	-26.4692082111	-2.79615384615
210	0.105	7.80327868852	11511.3	-13.7953079179	-5.63076923077
211	0.1055	4.9737704918	11511.3	-12.3870967742	-5.63076923077
212	0.106	4.9737704918	11511.3	-9.5706744868	-1.37884615385
213	0.1065	7.80327868852	11511.3	-12.3870967742	-4.21346153846
214	0.107	9.21803278689	11511.3	-25.0609970674	-1.37884615385
215	0.1075	4.9737704918	11511.3	-37.7348973607	-1.37884615385
216	0.108	7.80327868852	11511.3	-32.1020527859	-4.21346153846
217	0.1085	4.9737704918	11511.3	-8.16246334311	-4.21346153846
218	0.109	7.80327868852	11511.3	1.69501466276	-7.04807692308
219	0.1095	-0.685245901639	11511.3	-6.75425219941	-8.46538461538
220	0.11	12.0475409836	11511.3	-13.7953079179	-18.3865384615
221	0.1105	12.0475409836	11511.3	-15.2035190616	-14.1346153846
222	0.111	12.0475409836	11511.3	-20.8363636364	-11.3
223	0.1115	14.8770491803	11511.3	-20.8363636364	-9.88269230769
224	0.112	26.1950819672	11511.3	-25.0609970674	-11.3
225	0.1125	10.6327868852	11511.3	-25.0609970674	-4.21346153846
226	0.113	12.0475409836	11511.3	-3.93782991202	-12.7173076923
227	0.1135	10.6327868852	11511.3	-32.1020527859	-14.1346153846
228	0.114	9.21803278689	11511.3	-46.1841642229	-18.3865384615
229	0.1145	10.6327868852	11511.3	-50.408797654	-11.3
230	0.115	31.8540983607	11511.3	-47.5923753666	-8.46538461538
231	0.1155	12.0475409836	11511.3	-36.326686217	-15.5519230769
232	0.116	13.462295082	11511.3	-40.5513196481	-8.46538461538
233	0.1165	10.6327868852	11511.3	-41.9595307918	-1.37884615385
234	0.117	12.0475409836	11511.3	-16.6117302053	-5.63076923077
235	0.1175	12.0475409836	11511.3	24.2263929619	-1.37884615385
236	0.118	2.14426229508	11511.3	24.2263929619	1.45576923077
237	0.1185	14.8770491803	11511.3	3.10322580645	14.2115384615
238	0.119	17.706557377	11511.3	11.5524926686	-7.04807692308
239	0.1195	19.1213114754	11511.3	-23.6527859238	-8.46538461538
240	0.12	19.1213114754	11511.3	-25.0609970674	-9.88269230769
241	0.1205	19.1213114754	11511.3	-16.6117302053	-12.7173076923
242	0.121	38.9278688525	11511.3	-10.9788856305	-35.3942307692
243	0.1215	26.1950819672	11511.3	-8.16246334311	-45.3153846154
244	0.122	26.1950819672	11511.3	-9.5706744868	-35.3942307692
245	0.1225	26.1950819672	11511.3	-12.3870967742	-2.79615384615
246	0.123	24.7803278689	11511.3	-12.3870967742	4.29038461538
247	0.1235	16.2918032787	11511.3	-18.019941349	2.87307692308
248	0.124	3.55901639344	11511.3	-18.019941349	-7.04807692308
249	0.1245	-30.3950819672	11511.3	1.69501466276	2.87307692308
250	0.125	-19.0770491803	11511.3	31.2674486804	-4.21346153846
251	0.1255	9.21803278689	11511.3	34.0838709677	-7.04807692308
252	0.126	26.1950819672	11511.3	12.9607038123	-9.88269230769
253	0.1265	27.6098360656	11511.3	-2.52961876833	-14.1346153846
254	0.127	34.6836065574	11511.3	-13.7953079179	-26.8903846154
255	0.1275	9.21803278689	11511.3	-19.4281524927	-29.725
256	0.128	9.21803278689	11511.3	-18.019941349	-21.2211538462
257	0.1285	7.80327868852	11511.3	-25.0609970674	-8.46538461538
258	0.129	13.462295082	11511.3	-18.019941349	-5.63076923077
259	0.1295	14.8770491803	11511.3	-19.4281524927	-5.63076923077
260	0.13	3.55901639344	11511.3	-18.019941349	-7.04807692308
261	0.1305	14.8770491803	11511.3	-18.019941349	-4.21346153846
262	0.131	9.21803278689	11511.3	-15.2035190616	-1.37884615385
263	0.1315	2.14426229508	11511.3	-23.6527859238	-7.04807692308
264	0.132	-4.92950819672	11511.3	-16.6117302053	-4.21346153846
265	0.1325	-10.5885245902	11511.3	-19.4281524927	-5.63076923077
266	0.133	-23.3213114754	11511.3	-15.2035190616	-8.46538461538
267	0.1335	4.9737704918	11511.3	-12.3870967742	-5.63076923077
268	0.134	19.1213114754	11511.3	-3.93782991202	-4.21346153846
269	0.1345	20.5360655738	11511.3	3.10322580645	-2.79615384615
270	0.135	16.2918032787	11511.3	-12.3870967742	-1.37884615385
271	0.1355	16.2918032787	11511.3	-15.2035190616	-4.21346153846
272	0.136	27.6098360656	11511.3	-15.2035190616	-5.63076923077
273	0.1365	13.462295082	11511.3	-18.019941349	-14.1346153846
274	0.137	13.462295082	11511.3	-27.8774193548	-4.21346153846
275	0.1375	12.0475409836	11511.3	-13.7953079179	-2.79615384615
276	0.138	12.0475409836	11511.3	-5.34604105572	-5.63076923077
277	0.1385	12.0475409836	11511.3	-10.9788856305	-12.7173076923
278	0.139	-0.685245901639	11511.3	-18.019941349	-7.04807692308
279	0.1395	13.462295082	11511.3	-23.6527859238	2.87307692308
280	0.14	10.6327868852	11511.3	-12.3870967742	-7.04807692308
281	0.1405	10.6327868852	11511.3	0.286803519062	-7.04807692308
282	0.141	16.2918032787	11511.3	7.32785923754	-5.63076923077
283	0.1415	17.706557377	11511.3	5.91964809384	-2.79615384615
284	0.142	23.3655737705	11511.3	-6.75425219941	-7.04807692308
285	0.1425	12.0475409836	11511.3	-15.2035190616	-15.5519230769
286	0.143	17.706557377	11511.3	-12.3870967742	-15.5519230769
287	0.1435	17.706557377	11511.3	-16.6117302053	-7.04807692308
288	0.144	17.706557377	11511.3	-18.019941349	-4.21346153846
289	0.1445	14.8770491803	11511.3	-15.2035190616	-2.79615384615
290	0.145	12.0475409836	11511.3	-16.6117302053	-1.37884615385
291	0.1455	0.729508196721	11511.3	-16.6117302053	-11.3
292	0.146	12.0475409836	11511.3	-39.1431085044	-12.7173076923
293	0.1465	9.21803278689	11511.3	-44.7759530792	-8.46538461538
294	0.147	3.55901639344	11511.3	-33.5102639296	-9.88269230769
295	0.1475	10.6327868852	11511.3	-25.0609970674	-1.37884615385
296	0.148	23.3655737705	11511.3	-18.019941349	0.0384615384615
297	0.1485	17.706557377	11511.3	-16.6117302053	-5.63076923077
298	0.149	10.6327868852	11511.3	-8.16246334311	-9.88269230769
299	0.1495	10.6327868852	11511.3	-10.9788856305	-2.79615384615
300	0.15	16.2918032787	11511.3	3.10322580645	-5.63076923077
301	0.1505	23.3655737705	11511.3	5.91964809384	-5.63076923077
302	0.151	29.0245901639	11511.3	12.9607038123	-5.63076923077
303	0.1515	4.9737704918	11511.3	8.73607038123	-4.21346153846
304	0.152	14.8770491803	11511.3	12.9607038123	-5.63076923077
305	0.1525	20.5360655738	11511.3	15.7771260997	-7.04807692308
306	0.153	20.5360655738	11511.3	5.91964809384	-5.63076923077
307	0.1535	23.3655737705	11511.3	4.51143695015	-4.21346153846
308	0.154	17.706557377	11511.3	1.69501466276	-2.79615384615
309	0.1545	4.9737704918	11511.3	-9.5706744868	8.54230769231
310	0.155	16.2918032787	11511.3	-19.4281524927	11.3769230769
311	0.1555	17.706557377	11511.3	-23.6527859238	-7.04807692308
312	0.156	20.5360655738	11511.3	-12.3870967742	-7.04807692308
313	0.1565	17.706557377	11511.3	-6.75425219941	-5.63076923077
314	0.157	13.462295082	11511.3	-2.52961876833	-5.63076923077
315	0.1575	30.4393442623	11511.3	0.286803519062	-8.46538461538
316	0.158	16.2918032787	11511.3	-13.7953079179	-8.46538461538
317	0.1585	14.8770491803	11511.3	-13.7953079179	-12.7173076923
318	0.159	12.0475409836	11511.3	-12.3870967742	-5.63076923077
319	0.1595	10.6327868852	11511.3	-15.2035190616	-4.21346153846
320	0.16	3.55901639344	11511.3	-15.2035190616	-7.04807692308
321	0.1605	27.6098360656	11511.3	-18.019941349	-12.7173076923
322	0.161	16.2918032787	11511.3	-18.019941349	-11.3
323	0.1615	16.2918032787	11511.3	-22.2445747801	-5.63076923077
324	0.162	14.8770491803	11511.3	4.51143695015	-2.79615384615
325	0.1625	16.2918032787	11511.3	-8.16246334311	-4.21346153846
326	0.163	26.1950819672	11511.3	-18.019941349	-2.79615384615
327	0.1635	38.9278688525	11511.3	-22.2445747801	-9.88269230769
328	0.164	23.3655737705	11511.3	-26.4692082111	8.54230769231
329	0.1645	20.5360655738	11511.3	-33.5102639296	11.3769230769
330	0.165	19.1213114754	11511.3	-37.7348973607	-1.37884615385
331	0.1655	16.2918032787	11511.3	-32.1020527859	-2.79615384615
332	0.166	21.9508196721	11511.3	-30.6938416422	-2.79615384615
333	0.1665	37.5131147541	11511.3	-32.1020527859	-5.63076923077
334	0.167	19.1213114754	11511.3	-33.5102639296	-4.21346153846
335	0.1675	20.5360655738	11511.3	-18.019941349	-8.46538461538
336	0.168	24.7803278689	11511.3	-29.2856304985	-4.21346153846
337	0.1685	21.9508196721	11511.3	-18.019941349	-2.79615384615
338	0.169	23.3655737705	11511.3	-12.3870967742	0.0384615384615
339	0.1695	23.3655737705	11511.3	-5.34604105572	-1.37884615385
340	0.17	17.706557377	11511.3	-2.52961876833	4.29038461538
341	0.1705	21.9508196721	11511.3	-6.75425219941	11.3769230769
342	0.171	23.3655737705	11511.3	-22.2445747801	-4.21346153846
343	0.1715	19.1213114754	11511.3	-16.6117302053	0.0384615384615
344	0.172	12.0475409836	11511.3	-29.2856304985	-2.79615384615
345	0.1725	4.9737704918	11511.3	-71.5319648094	-2.79615384615
346	0.173	21.9508196721	11511.3	-109.553665689	-5.63076923077
347	0.1735	14.8770491803	11511.3	-136.309677419	-9.88269230769
348	0.174	19.1213114754	11511.3	-147.575366569	-4.21346153846
349	0.1745	20.5360655738	11511.3	-116.594721408	-4.21346153846
350	0.175	20.5360655738	11511.3	-74.3483870968	-4.21346153846
351	0.1755	2.14426229508	11511.3	-29.2856304985	0.0384615384615
352	0.176	10.6327868852	11511.3	-12.3870967742	7.125
353	0.1765	14.8770491803	11511.3	-10.9788856305	-2.79615384615
354	0.177	16.2918032787	11511.3	-30.6938416422	-1.37884615385
355	0.1775	12.0475409836	11511.3	-27.8774193548	1.45576923077
356	0.178	14.8770491803	11511.3	-29.2856304985	0.0384615384615
357	0.1785	31.8540983607	11511.3	-44.7759530792	-8.46538461538
358	0.179	10.6327868852	11511.3	-53.2252199413	-9.88269230769
359	0.1795	16.2918032787	11511.3	-47.5923753666	1.45576923077
360	0.18	12.0475409836	11511.3	-36.326686217	1.45576923077
361	0.1805	14.8770491803	11511.3	-15.2035190616	0.0384615384615
362	0.181	16.2918032787	11511.3	18.5935483871	-1.37884615385
363	0.1815	0.729508196721	11511.3	24.2263929619	0.0384615384615
364	0.182	-3.51475409836	11511.3	20.0017595308	18.4634615385
365	0.1825	3.55901639344	11511.3	12.9607038123	15.6288461538
366	0.183	10.6327868852	11511.3	-1.12140762463	0.0384615384615
367	0.1835	13.462295082	11511.3	-13.7953079179	2.87307692308
368	0.184	13.462295082	11511.3	-10.9788856305	1.45576923077
369	0.1845	9.21803278689	11511.3	-6.75425219941	0.0384615384615
370	0.185	-0.685245901639	11511.3	-8.16246334311	5.70769230769
371	0.1855	10.6327868852	11511.3	-9.5706744868	19.8807692308
372	0.186	10.6327868852	11511.3	-6.75425219941	-7.04807692308
373	0.1865	7.80327868852	11511.3	-6.75425219941	-1.37884615385
374	0.187	10.6327868852	11511.3	-2.52961876833	0.0384615384615
375	0.1875	14.8770491803	11511.3	-2.52961876833	-2.79615384615
376	0.188	23.3655737705	11511.3	-6.75425219941	-14.1346153846
377	0.1885	9.21803278689	11511.3	-18.019941349	-1.37884615385
378	0.189	7.80327868852	11511.3	-5.34604105572	0.0384615384615
379	0.1895	0.729508196721	11511.3	-8.16246334311	-1.37884615385
380	0.19	-3.51475409836	11511.3	-5.34604105572	0.0384615384615
381	0.1905	-20.4918032787	11511.3	-3.93782991202	0.0384615384615
382	0.191	4.9737704918	11511.3	0.286803519062	-5.63076923077
383	0.1915	-14.8327868852	11511.3	1.69501466276	-4.21346153846
384	0.192	-12.0032786885	11511.3	20.0017595308	-5.63076923077
385	0.1925	-4.92950819672	11511.3	-1.12140762463	-5.63076923077
386	0.193	0.729508196721	11511.3	-3.93782991202	-5.63076923077
387	0.1935	2.14426229508	11511.3	-10.9788856305	-2.79615384615
388	0.194	9.21803278689	11511.3	-10.9788856305	0.0384615384615
389	0.1945	2.14426229508	11511.3	-10.9788856305	12.7942307692
390	0.195	6.38852459016	11511.3	-13.7953079179	0.0384615384615
391	0.1955	9.21803278689	11511.3	-10.9788856305	-1.37884615385
392	0.196	7.80327868852	11511.3	-1.12140762463	-4.21346153846
393	0.1965	0.729508196721	11511.3	-12.3870967742	-1.37884615385
394	0.197	-7.75901639344	11511.3	-25.0609970674	-1.37884615385
395	0.1975	4.9737704918	11511.3	-36.326686217	0.0384615384615
396	0.198	10.6327868852	11511.3	-46.1841642229	7.125
397	0.1985	10.6327868852	11511.3	-33.5102639296	-2.79615384615
398	0.199	7.80327868852	11511.3	-41.9595307918	-1.37884615385
399	0.1995	4.9737704918	11511.3	-47.5923753666	-4.21346153846
400	0.2	10.6327868852	11511.3	-46.1841642229	-2.79615384615
401	0.2005	10.6327868852	11511.3	-39.1431085044	-14.1346153846
402	0.201	13.462295082	11511.3	-33.5102639296	-2.79615384615
403	0.2015	12.0475409836	11511.3	-6.75425219941	-2.79615384615
404	0.202	12.0475409836	11511.3	11.5524926686	-2.79615384615
405	0.2025	13.462295082	11511.3	11.5524926686	-5.63076923077
406	0.203	-7.75901639344	11511.3	7.32785923754	0.0384615384615
407	0.2035	-7.75901639344	11511.3	-1.12140762463	15.6288461538
408	0.204	-0.685245901639	11511.3	-5.34604105572	8.54230769231
409	0.2045	2.14426229508	11511.3	-5.34604105572	1.45576923077
410	0.205	2.14426229508	11511.3	4.51143695015	-1.37884615385
411	0.2055	4.9737704918	11511.3	11.5524926686	-2.79615384615
412	0.206	-0.685245901639	11511.3	11.5524926686	-5.63076923077
413	0.2065	4.9737704918	11511.3	12.9607038123	-5.63076923077
414	0.207	7.80327868852	11511.3	4.51143695015	-4.21346153846
415	0.2075	4.9737704918	11511.3	4.51143695015	-2.79615384615
416	0.208	4.9737704918	11511.3	18.5935483871	-1.37884615385
417	0.2085	3.55901639344	11511.3	29.8592375367	-4.21346153846
418	0.209	-4.92950819672	11511.3	41.1249266862	-7.04807692308
419	0.2095	0.729508196721	11511.3	49.5741935484	-9.88269230769
420	0.21	3.55901639344	11511.3	62.2480938416	-12.7173076923
421	0.2105	9.21803278689	11511.3	49.5741935484	-24.0557692308
422	0.211	4.9737704918	11511.3	43.9413489736	-21.2211538462
423	0.2115	7.80327868852	11511.3	39.7167155425	-14.1346153846
424	0.212	16.2918032787	11511.3	25.6346041056	-2.79615384615
425	0.2125	3.55901639344	11511.3	3.10322580645	1.45576923077
426	0.213	2.14426229508	11511.3	-26.4692082111	0.0384615384615
427	0.2135	3.55901639344	11511.3	-39.1431085044	8.54230769231
428	0.214	9.21803278689	11511.3	-8.16246334311	4.29038461538
429	0.2145	10.6327868852	11511.3	32.675659824	4.29038461538
430	0.215	10.6327868852	11511.3	56.6152492669	-1.37884615385
431	0.2155	6.38852459016	11511.3	55.2070381232	21.2980769231
432	0.216	7.80327868852	11511.3	50.9824046921	17.0461538462
433	0.2165	4.9737704918	11511.3	46.757771261	4.29038461538
434	0.217	3.55901639344	11511.3	52.3906158358	-4.21346153846
435	0.2175	4.9737704918	11511.3	34.0838709677	-7.04807692308
436	0.218	0.729508196721	11511.3	7.32785923754	-7.04807692308
437	0.2185	26.1950819672	11511.3	-13.7953079179	-8.46538461538
438	0.219	10.6327868852	11511.3	-30.6938416422	15.6288461538
439	0.2195	9.21803278689	11511.3	-33.5102639296	4.29038461538
440	0.22	9.21803278689	11511.3	-20.8363636364	2.87307692308
441	0.2205	7.80327868852	11511.3	-19.4281524927	5.70769230769
442	0.221	-4.92950819672	11511.3	-12.3870967742	7.125
443	0.2215	-0.685245901639	11511.3	-1.12140762463	15.6288461538
444	0.222	0.729508196721	11511.3	5.91964809384	2.87307692308
445	0.2225	0.729508196721	11511.3	18.5935483871	-4.21346153846
446	0.223	2.14426229508	11511.3	29.8592375367	-5.63076923077
447	0.2235	7.80327868852	11511.3	43.9413489736	-11.3
448	0.224	3.55901639344	11511.3	42.5331378299	-9.88269230769
449	0.2245	-4.92950819672	11511.3	48.1659824047	-15.5519230769
450	0.225	2.14426229508	11511.3	55.2070381232	-9.88269230769
451	0.2255	7.80327868852	11511.3	46.757771261	-24.0557692308
452	0.226	7.80327868852	11511.3	12.9607038123	-1.37884615385
453	0.2265	7.80327868852	11511.3	-27.8774193548	4.29038461538
454	0.227	12.0475409836	11511.3	-50.408797654	2.87307692308
455	0.2275	14.8770491803	11511.3	-46.1841642229	7.125
456	0.228	12.0475409836	11511.3	-29.2856304985	-1.37884615385
457	0.2285	3.55901639344	11511.3	-1.12140762463	-5.63076923077
458	0.229	2.14426229508	11511.3	12.9607038123	1.45576923077
459	0.2295	3.55901639344	11511.3	20.0017595308	0.0384615384615
460	0.23	3.55901639344	11511.3	20.0017595308	0.0384615384615
461	0.2305	-7.75901639344	11511.3	31.2674486804	1.45576923077
462	0.231	0.729508196721	11511.3	46.757771261	1.45576923077
463	0.2315	3.55901639344	11511.3	53.7988269795	-4.21346153846
464	0.232	-3.51475409836	11511.3	31.2674486804	-8.46538461538
465	0.2325	-7.75901639344	11511.3	24.2263929619	-18.3865384615
466	0.233	-13.4180327869	11511.3	25.6346041056	-21.2211538462
467	0.2335	-16.2475409836	11511.3	14.368914956	-18.3865384615
468	0.234	-3.51475409836	11511.3	0.286803519062	-11.3
469	0.2345	13.462295082	11511.3	-8.16246334311	-2.79615384615
470	0.235	10.6327868852	11511.3	-18.019941349	-1.37884615385
471	0.2355	7.80327868852	11511.3	-26.4692082111	4.29038461538
472	0.236	4.9737704918	11511.3	-39.1431085044	2.87307692308
473	0.2365	4.9737704918	11511.3	-46.1841642229	-2.79615384615
474	0.237	-0.685245901639	11511.3	-36.326686217	-1.37884615385
475	0.2375	7.80327868852	11511.3	-3.93782991202	-8.46538461538
476	0.238	4.9737704918	11511.3	29.8592375367	-5.63076923077
477	0.2385	0.729508196721	11511.3	29.8592375367	-11.3
478	0.239	0.729508196721	11511.3	62.2480938416	-12.7173076923
479	0.2395	0.729508196721	11511.3	87.5958944282	-12.7173076923
480	0.24	-4.92950819672	11511.3	89.0041055718	-5.63076923077
481	0.2405	2.14426229508	11511.3	80.5548387097	-9.88269230769
482	0.241	2.14426229508	11511.3	67.8809384164	-4.21346153846
483	0.2415	-0.685245901639	11511.3	53.7988269795	-1.37884615385
484	0.242	2.14426229508	11511.3	46.757771261	1.45576923077
485	0.2425	3.55901639344	11511.3	43.9413489736	-2.79615384615
486	0.243	9.21803278689	11511.3	46.757771261	-1.37884615385
487	0.2435	-0.685245901639	11511.3	49.5741935484	-12.7173076923
488	0.244	-0.685245901639	11511.3	70.6973607038	-4.21346153846
489	0.2445	-0.685245901639	11511.3	70.6973607038	-2.79615384615
490	0.245	-0.685245901639	11511.3	53.7988269795	-5.63076923077
491	0.2455	3.55901639344	11511.3	52.3906158358	-5.63076923077
492	0.246	10.6327868852	11511.3	50.9824046921	-7.04807692308
493	0.2465	-4.92950819672	11511.3	46.757771261	12.7942307692
494	0.247	-2.1	11511.3	43.9413489736	0.0384615384615
495	0.2475	-2.1	11511.3	56.6152492669	-2.79615384615
496	0.248	-0.685245901639	11511.3	49.5741935484	-2.79615384615
497	0.2485	-2.1	11511.3	52.3906158358	-5.63076923077
498	0.249	-3.51475409836	11511.3	55.2070381232	-4.21346153846
499	0.2495	-0.685245901639	11511.3	53.7988269795	14.2115384615
500	0.25	2.14426229508	11511.3	48.1659824047	0.0384615384615
501	0.2505	0.729508196721	11511.3	39.7167155425	-1.37884615385
502	0.251	4.9737704918	11511.3	42.5331378299	-1.37884615385
503	0.2515	2.14426229508	11511.3	56.6152492669	-1.37884615385
504	0.252	-9.1737704918	11511.3	70.6973607038	-1.37884615385
505	0.2525	-0.685245901639	11511.3	76.3302052786	-11.3
506	0.253	3.55901639344	11511.3	60.8398826979	-15.5519230769
507	0.2535	4.9737704918	11511.3	36.9002932551	-11.3
508	0.254	3.55901639344	11511.3	29.8592375367	1.45576923077
509	0.2545	3.55901639344	11511.3	27.0428152493	4.29038461538
510	0.255	2.14426229508	11511.3	34.0838709677	7.125
511	0.2555	-4.92950819672	11511.3	42.5331378299	2.87307692308
512	0.256	-0.685245901639	11511.3	52.3906158358	1.45576923077
513	0.2565	0.729508196721	11511.3	60.8398826979	-9.88269230769
514	0.257	-2.1	11511.3	55.2070381232	-11.3
515	0.2575	-0.685245901639	11511.3	52.3906158358	-14.1346153846
516	0.258	-4.92950819672	11511.3	38.3085043988	-19.8038461538
517	0.2585	0.729508196721	11511.3	21.4099706745	-35.3942307692
518	0.259	3.55901639344	11511.3	3.10322580645	-33.9769230769
519	0.2595	3.55901639344	11511.3	7.32785923754	-32.5596153846
520	0.26	3.55901639344	11511.3	15.7771260997	-5.63076923077
521	0.2605	7.80327868852	11511.3	3.10322580645	12.7942307692
522	0.261	10.6327868852	11511.3	10.1442815249	17.0461538462
523	0.2615	17.706557377	11511.3	3.10322580645	7.125
524	0.262	-7.75901639344	11511.3	1.69501466276	11.3769230769
525	0.2625	-7.75901639344	11511.3	31.2674486804	15.6288461538
526	0.263	-10.5885245902	11511.3	62.2480938416	11.3769230769
527	0.2635	-7.75901639344	11511.3	69.2891495601	12.7942307692
528	0.264	-6.34426229508	11511.3	70.6973607038	5.70769230769
529	0.2645	12.0475409836	11511.3	55.2070381232	-4.21346153846
530	0.265	-0.685245901639	11511.3	39.7167155425	-5.63076923077
531	0.2655	-2.1	11511.3	20.0017595308	0.0384615384615
532	0.266	0.729508196721	11511.3	15.7771260997	-4.21346153846
533	0.2665	9.21803278689	11511.3	21.4099706745	-4.21346153846
534	0.267	3.55901639344	11511.3	25.6346041056	-9.88269230769
535	0.2675	-7.75901639344	11511.3	28.451026393	-21.2211538462
536	0.268	4.9737704918	11511.3	36.9002932551	-49.5673076923
537	0.2685	0.729508196721	11511.3	48.1659824047	-58.0711538462
538	0.269	2.14426229508	11511.3	55.2070381232	-26.8903846154
539	0.2695	-0.685245901639	11511.3	72.1055718475	-1.37884615385
540	0.27	0.729508196721	11511.3	72.1055718475	-1.37884615385
541	0.2705	0.729508196721	11511.3	70.6973607038	-5.63076923077
542	0.271	26.1950819672	11511.3	72.1055718475	2.87307692308
543	0.2715	3.55901639344	11511.3	60.8398826979	1.45576923077
544	0.272	-3.51475409836	11511.3	60.8398826979	-8.46538461538
545	0.2725	-3.51475409836	11511.3	63.6563049853	-8.46538461538
546	0.273	0.729508196721	11511.3	41.1249266862	-5.63076923077
547	0.2735	0.729508196721	11511.3	28.451026393	-2.79615384615
548	0.274	16.2918032787	11511.3	14.368914956	1.45576923077
549	0.2745	0.729508196721	11511.3	4.51143695015	0.0384615384615
550	0.275	-0.685245901639	11511.3	14.368914956	-12.7173076923
551	0.2755	-4.92950819672	11511.3	27.0428152493	-4.21346153846
552	0.276	-0.685245901639	11511.3	53.7988269795	-2.79615384615
553	0.2765	-3.51475409836	11511.3	58.0234604106	-2.79615384615
554	0.277	-14.8327868852	11511.3	50.9824046921	-2.79615384615
555	0.2775	-2.1	11511.3	42.5331378299	-11.3
556	0.278	-3.51475409836	11511.3	35.4920821114	0.0384615384615
557	0.2785	-3.51475409836	11511.3	34.0838709677	-5.63076923077
558	0.279	0.729508196721	11511.3	22.8181818182	-4.21346153846
559	0.2795	-3.51475409836	11511.3	1.69501466276	-4.21346153846
560	0.28	-4.92950819672	11511.3	-23.6527859238	-4.21346153846
561	0.2805	-4.92950819672	11511.3	-41.9595307918	-4.21346153846
562	0.281	0.729508196721	11511.3	-56.0416422287	-8.46538461538
563	0.2815	-0.685245901639	11511.3	-27.8774193548	-12.7173076923
564	0.282	-3.51475409836	11511.3	12.9607038123	-5.63076923077
565	0.2825	-3.51475409836	11511.3	43.9413489736	-9.88269230769
566	0.283	-6.34426229508	11511.3	63.6563049853	-11.3
567	0.2835	-7.75901639344	11511.3	66.4727272727	-7.04807692308
568	0.284	-2.1	11511.3	53.7988269795	-7.04807692308
569	0.2845	-0.685245901639	11511.3	49.5741935484	-11.3
570	0.285	-0.685245901639	11511.3	22.8181818182	-8.46538461538
571	0.2855	-3.51475409836	11511.3	11.5524926686	-9.88269230769
572	0.286	-7.75901639344	11511.3	3.10322580645	-2.79615384615
573	0.2865	-16.2475409836	11511.3	-3.93782991202	1.45576923077
574	0.287	-14.8327868852	11511.3	4.51143695015	-2.79615384615
575	0.2875	-14.8327868852	11511.3	38.3085043988	-7.04807692308
576	0.288	-6.34426229508	11511.3	55.2070381232	-7.04807692308
577	0.2885	0.729508196721	11511.3	66.4727272727	-4.21346153846
578	0.289	-0.685245901639	11511.3	67.8809384164	-2.79615384615
579	0.2895	-6.34426229508	11511.3	59.4316715543	-4.21346153846
580	0.29	-3.51475409836	11511.3	59.4316715543	4.29038461538
581	0.2905	-4.92950819672	11511.3	74.9219941349	-9.88269230769
582	0.291	-4.92950819672	11511.3	58.0234604106	-12.7173076923
583	0.2915	-3.51475409836	11511.3	58.0234604106	-7.04807692308
584	0.292	-4.92950819672	11511.3	45.3495601173	2.87307692308
585	0.2925	-12.0032786885	11511.3	39.7167155425	7.125
586	0.293	-12.0032786885	11511.3	38.3085043988	4.29038461538
587	0.2935	-4.92950819672	11511.3	52.3906158358	1.45576923077
588	0.294	-4.92950819672	11511.3	56.6152492669	-5.63076923077
589	0.2945	-7.75901639344	11511.3	69.2891495601	-5.63076923077
590	0.295	-10.5885245902	11511.3	65.064516129	-4.21346153846
591	0.2955	-20.4918032787	11511.3	49.5741935484	-7.04807692308
592	0.296	-7.75901639344	11511.3	43.9413489736	-9.88269230769
593	0.2965	-3.51475409836	11511.3	48.1659824047	-15.5519230769
594	0.297	-9.1737704918	11511.3	65.064516129	-18.3865384615
595	0.2975	-6.34426229508	11511.3	53.7988269795	-5.63076923077
596	0.298	-6.34426229508	11511.3	38.3085043988	-2.79615384615
597	0.2985	-4.92950819672	11511.3	36.9002932551	-4.21346153846
598	0.299	14.8770491803	11511.3	42.5331378299	0.0384615384615
599	0.2995	-6.34426229508	11511.3	42.5331378299	-2.79615384615
600	0.3	-3.51475409836	11511.3	52.3906158358	-4.21346153846
601	0.3005	-4.92950819672	11511.3	60.8398826979	-4.21346153846
602	0.301	-6.34426229508	11511.3	49.5741935484	-4.21346153846
603	0.3015	-13.4180327869	11511.3	42.5331378299	-4.21346153846
604	0.302	0.729508196721	11511.3	38.3085043988	-5.63076923077
605	0.3025	-6.34426229508	11511.3	36.9002932551	-11.3
606	0.303	-7.75901639344	11511.3	32.675659824	-4.21346153846
607	0.3035	-3.51475409836	11511.3	48.1659824047	-7.04807692308
608	0.304	-6.34426229508	11511.3	66.4727272727	-7.04807692308
609	0.3045	-13.4180327869	11511.3	66.4727272727	-8.46538461538
610	0.305	14.8770491803	11511.3	73.5137829912	-18.3865384615
611	0.3055	-3.51475409836	11511.3	86.1876832845	-12.7173076923
612	0.306	-6.34426229508	11511.3	90.4123167155	-12.7173076923
613	0.3065	-4.92950819672	11511.3	83.3712609971	-15.5519230769
614	0.307	-2.1	11511.3	67.8809384164	-12.7173076923
615	0.3075	-13.4180327869	11511.3	49.5741935484	-12.7173076923
616	0.308	-6.34426229508	11511.3	42.5331378299	-12.7173076923
617	0.3085	-6.34426229508	11511.3	38.3085043988	-11.3
618	0.309	-4.92950819672	11511.3	49.5741935484	-5.63076923077
619	0.3095	-3.51475409836	11511.3	62.2480938416	-4.21346153846
620	0.31	-3.51475409836	11511.3	60.8398826979	0.0384615384615
621	0.3105	-2.1	11511.3	62.2480938416	-5.63076923077
622	0.311	16.2918032787	11511.3	63.6563049853	-16.9692307692
623	0.3115	-2.1	11511.3	59.4316715543	-16.9692307692
624	0.312	-3.51475409836	11511.3	66.4727272727	-1.37884615385
625	0.3125	-3.51475409836	11511.3	52.3906158358	-1.37884615385
626	0.313	-2.1	11511.3	53.7988269795	0.0384615384615
627	0.3135	-4.92950819672	11511.3	53.7988269795	2.87307692308
628	0.314	3.55901639344	11511.3	53.7988269795	4.29038461538
629	0.3145	-6.34426229508	11511.3	46.757771261	-1.37884615385
630	0.315	-2.1	11511.3	36.9002932551	-11.3
631	0.3155	-4.92950819672	11511.3	39.7167155425	-4.21346153846
632	0.316	-4.92950819672	11511.3	36.9002932551	-5.63076923077
633	0.3165	-3.51475409836	11511.3	34.0838709677	-4.21346153846
634	0.317	14.8770491803	11511.3	32.675659824	-16.9692307692
635	0.3175	-7.75901639344	11511.3	34.0838709677	-7.04807692308
636	0.318	-2.1	11511.3	32.675659824	-8.46538461538
637	0.3185	-4.92950819672	11511.3	46.757771261	-24.0557692308
638	0.319	-4.92950819672	11511.3	38.3085043988	-12.7173076923
639	0.3195	-3.51475409836	11511.3	41.1249266862	-8.46538461538
640	0.32	-2.1	11511.3	43.9413489736	-12.7173076923
641	0.3205	-6.34426229508	11511.3	42.5331378299	-16.9692307692
642	0.321	-7.75901639344	11511.3	34.0838709677	-7.04807692308
643	0.3215	-7.75901639344	11511.3	49.5741935484	-9.88269230769
644	0.322	-6.34426229508	11511.3	45.3495601173	-7.04807692308
645	0.3225	-9.1737704918	11511.3	42.5331378299	-5.63076923077
646	0.323	-10.5885245902	11511.3	41.1249266862	-7.04807692308
647	0.3235	3.55901639344	11511.3	39.7167155425	-8.46538461538
648	0.324	-4.92950819672	11511.3	38.3085043988	8.54230769231
649	0.3245	-12.0032786885	11511.3	27.0428152493	-8.46538461538
650	0.325	-12.0032786885	11511.3	29.8592375367	-4.21346153846
651	0.3255	-12.0032786885	11511.3	34.0838709677	-5.63076923077
652	0.326	-21.906557377	11511.3	32.675659824	-2.79615384615
653	0.3265	-19.0770491803	11511.3	32.675659824	-12.7173076923
654	0.327	-10.5885245902	11511.3	18.5935483871	-5.63076923077
655	0.3275	-7.75901639344	11511.3	27.0428152493	-4.21346153846
656	0.328	-10.5885245902	11511.3	21.4099706745	-5.63076923077
657	0.3285	-4.92950819672	11511.3	18.5935483871	-4.21346153846
658	0.329	-17.662295082	11511.3	15.7771260997	-4.21346153846
659	0.3295	-3.51475409836	11511.3	17.1853372434	-4.21346153846
660	0.33	-10.5885245902	11511.3	21.4099706745	-7.04807692308
661	0.3305	-6.34426229508	11511.3	20.0017595308	-12.7173076923
662	0.331	-10.5885245902	11511.3	18.5935483871	-5.63076923077
663	0.3315	-7.75901639344	11511.3	18.5935483871	-5.63076923077
664	0.332	-19.0770491803	11511.3	11.5524926686	-5.63076923077
665	0.3325	9.21803278689	11511.3	7.32785923754	-16.9692307692
666	0.333	-12.0032786885	11511.3	15.7771260997	-1.37884615385
667	0.3335	-9.1737704918	11511.3	32.675659824	2.87307692308
668	0.334	-7.75901639344	11511.3	49.5741935484	-7.04807692308
669	0.3345	-9.1737704918	11511.3	46.757771261	-8.46538461538
670	0.335	-12.0032786885	11511.3	36.9002932551	-7.04807692308
671	0.3355	13.462295082	11511.3	31.2674486804	-8.46538461538
672	0.336	-6.34426229508	11511.3	24.2263929619	-16.9692307692
673	0.3365	-7.75901639344	11511.3	34.0838709677	-4.21346153846
674	0.337	-7.75901639344	11511.3	48.1659824047	-9.88269230769
675	0.3375	-7.75901639344	11511.3	53.7988269795	-11.3
676	0.338	-9.1737704918	11511.3	52.3906158358	-7.04807692308
677	0.3385	-2.1	11511.3	46.757771261	-7.04807692308
678	0.339	-7.75901639344	11511.3	41.1249266862	-11.3
679	0.3395	-12.0032786885	11511.3	36.9002932551	-16.9692307692
680	0.34	-13.4180327869	11511.3	24.2263929619	-8.46538461538
681	0.3405	-10.5885245902	11511.3	32.675659824	-8.46538461538
682	0.341	-13.4180327869	11511.3	28.451026393	-9.88269230769
683	0.3415	7.80327868852	11511.3	27.0428152493	-11.3
684	0.342	-14.8327868852	11511.3	29.8592375367	-5.63076923077
685	0.3425	-12.0032786885	11511.3	31.2674486804	1.45576923077
686	0.343	-13.4180327869	11511.3	22.8181818182	-7.04807692308
687	0.3435	-10.5885245902	11511.3	32.675659824	-5.63076923077
688	0.344	-12.0032786885	11511.3	35.4920821114	-4.21346153846
689	0.3445	-17.662295082	11511.3	34.0838709677	-2.79615384615
690	0.345	-19.0770491803	11511.3	32.675659824	-1.37884615385
691	0.3455	-9.1737704918	11511.3	45.3495601173	-2.79615384615
692	0.346	-9.1737704918	11511.3	43.9413489736	-4.21346153846
693	0.3465	-7.75901639344	11511.3	24.2263929619	-1.37884615385
694	0.347	-4.92950819672	11511.3	28.451026393	-7.04807692308
695	0.3475	2.14426229508	11511.3	20.0017595308	-12.7173076923
696	0.348	-13.4180327869	11511.3	7.32785923754	1.45576923077
697	0.3485	-4.92950819672	11511.3	1.69501466276	8.54230769231
698	0.349	-7.75901639344	11511.3	-6.75425219941	-4.21346153846
699	0.3495	-7.75901639344	11511.3	-6.75425219941	-5.63076923077
700	0.35	-7.75901639344	11511.3	5.91964809384	-7.04807692308
701	0.3505	-19.0770491803	11511.3	7.32785923754	-4.21346153846
702	0.351	-3.51475409836	11511.3	14.368914956	-5.63076923077
703	0.3515	-6.34426229508	11511.3	12.9607038123	-5.63076923077
704	0.352	-7.75901639344	11511.3	7.32785923754	-5.63076923077
705	0.3525	-7.75901639344	11511.3	14.368914956	-9.88269230769
706	0.353	-10.5885245902	11511.3	14.368914956	-11.3
707	0.3535	-17.662295082	11511.3	15.7771260997	-14.1346153846
708	0.354	-6.34426229508	11511.3	12.9607038123	-19.8038461538
709	0.3545	-12.0032786885	11511.3	12.9607038123	-21.2211538462
710	0.355	-9.1737704918	11511.3	-1.12140762463	-7.04807692308
711	0.3555	-12.0032786885	11511.3	0.286803519062	-2.79615384615
712	0.356	-10.5885245902	11511.3	-2.52961876833	1.45576923077
713	0.3565	-17.662295082	11511.3	-5.34604105572	4.29038461538
714	0.357	-4.92950819672	11511.3	-8.16246334311	0.0384615384615
715	0.3575	-7.75901639344	11511.3	-10.9788856305	-8.46538461538
716	0.358	7.80327868852	11511.3	-20.8363636364	1.45576923077
717	0.3585	-3.51475409836	11511.3	-15.2035190616	1.45576923077
718	0.359	-9.1737704918	11511.3	-13.7953079179	2.87307692308
719	0.3595	-9.1737704918	11511.3	-8.16246334311	5.70769230769
720	0.36	-19.0770491803	11511.3	-1.12140762463	4.29038461538
721	0.3605	-16.2475409836	11511.3	5.91964809384	1.45576923077
722	0.361	-13.4180327869	11511.3	8.73607038123	-4.21346153846
723	0.3615	-16.2475409836	11511.3	-1.12140762463	0.0384615384615
724	0.362	-13.4180327869	11511.3	1.69501466276	0.0384615384615
725	0.3625	-9.1737704918	11511.3	1.69501466276	-2.79615384615
726	0.363	-17.662295082	11511.3	3.10322580645	-2.79615384615
727	0.3635	-12.0032786885	11511.3	0.286803519062	-11.3
728	0.364	-13.4180327869	11511.3	-1.12140762463	-14.1346153846
729	0.3645	-3.51475409836	11511.3	-9.5706744868	-8.46538461538
730	0.365	-4.92950819672	11511.3	-8.16246334311	-7.04807692308
731	0.3655	-9.1737704918	11511.3	-8.16246334311	-7.04807692308
732	0.366	-21.906557377	11511.3	-3.93782991202	-1.37884615385
733	0.3665	-19.0770491803	11511.3	-5.34604105572	-1.37884615385
734	0.367	-10.5885245902	11511.3	14.368914956	-9.88269230769
735	0.3675	-9.1737704918	11511.3	12.9607038123	-8.46538461538
736	0.368	-10.5885245902	11511.3	3.10322580645	-5.63076923077
737	0.3685	-10.5885245902	11511.3	-3.93782991202	-4.21346153846
738	0.369	-14.8327868852	11511.3	-13.7953079179	-2.79615384615
739	0.3695	-21.906557377	11511.3	-22.2445747801	-1.37884615385
740	0.37	-10.5885245902	11511.3	-5.34604105572	-2.79615384615
741	0.3705	-14.8327868852	11511.3	-2.52961876833	-4.21346153846
742	0.371	-13.4180327869	11511.3	-19.4281524927	0.0384615384615
743	0.3715	-13.4180327869	11511.3	-22.2445747801	0.0384615384615
744	0.372	-2.1	11511.3	-29.2856304985	0.0384615384615
745	0.3725	-17.662295082	11511.3	-36.326686217	-2.79615384615
746	0.373	-16.2475409836	11511.3	-32.1020527859	-11.3
747	0.3735	-16.2475409836	11511.3	-25.0609970674	0.0384615384615
748	0.374	-14.8327868852	11511.3	-1.12140762463	-2.79615384615
749	0.3745	-16.2475409836	11511.3	15.7771260997	-4.21346153846
750	0.375	-24.7360655738	11511.3	12.9607038123	-1.37884615385
751	0.3755	-23.3213114754	11511.3	5.91964809384	0.0384615384615
752	0.376	-16.2475409836	11511.3	-5.34604105572	-7.04807692308
753	0.3765	-14.8327868852	11511.3	4.51143695015	-2.79615384615
754	0.377	-13.4180327869	11511.3	1.69501466276	-2.79615384615
755	0.3775	-12.0032786885	11511.3	-1.12140762463	-5.63076923077
756	0.378	7.80327868852	11511.3	-3.93782991202	-2.79615384615
757	0.3785	21.9508196721	11511.3	-1.12140762463	7.125
758	0.379	14.8770491803	11511.3	11.5524926686	14.2115384615
759	0.3795	-6.34426229508	11511.3	41.1249266862	-1.37884615385
760	0.38	-12.0032786885	11511.3	42.5331378299	-4.21346153846
761	0.3805	-13.4180327869	11511.3	49.5741935484	-1.37884615385
762	0.381	-14.8327868852	11511.3	53.7988269795	-2.79615384615
763	0.3815	-14.8327868852	11511.3	43.9413489736	-9.88269230769
764	0.382	-13.4180327869	11511.3	5.91964809384	-2.79615384615
765	0.3825	-14.8327868852	11511.3	-34.9184750733	-2.79615384615
766	0.383	-14.8327868852	11511.3	-43.3677419355	-4.21346153846
767	0.3835	2.14426229508	11511.3	-37.7348973607	-4.21346153846
768	0.384	-16.2475409836	11511.3	-22.2445747801	2.87307692308
769	0.3845	-7.75901639344	11511.3	-10.9788856305	7.125
770	0.385	-10.5885245902	11511.3	-1.12140762463	-5.63076923077
771	0.3855	-10.5885245902	11511.3	20.0017595308	-1.37884615385
772	0.386	-10.5885245902	11511.3	34.0838709677	-1.37884615385
773	0.3865	-14.8327868852	11511.3	41.1249266862	-1.37884615385
774	0.387	-21.906557377	11511.3	27.0428152493	-1.37884615385
775	0.3875	-12.0032786885	11511.3	7.32785923754	-1.37884615385
776	0.388	-10.5885245902	11511.3	-1.12140762463	-4.21346153846
777	0.3885	-7.75901639344	11511.3	-5.34604105572	-1.37884615385
778	0.389	-6.34426229508	11511.3	-8.16246334311	-1.37884615385
779	0.3895	-3.51475409836	11511.3	3.10322580645	0.0384615384615
780	0.39	-4.92950819672	11511.3	7.32785923754	0.0384615384615
781	0.3905	-6.34426229508	11511.3	7.32785923754	15.6288461538
782	0.391	2.14426229508	11511.3	-2.52961876833	0.0384615384615
783	0.3915	0.729508196721	11511.3	-18.019941349	-1.37884615385
784	0.392	2.14426229508	11511.3	-16.6117302053	-1.37884615385
785	0.3925	2.14426229508	11511.3	-18.019941349	0.0384615384615
786	0.393	-2.1	11511.3	-6.75425219941	0.0384615384615
787	0.3935	10.6327868852	11511.3	11.5524926686	-2.79615384615
788	0.394	16.2918032787	11511.3	18.5935483871	-1.37884615385
789	0.3945	20.5360655738	11511.3	1.69501466276	-1.37884615385
790	0.395	12.0475409836	11511.3	-6.75425219941	-1.37884615385
791	0.3955	4.9737704918	11511.3	-6.75425219941	0.0384615384615
792	0.396	-2.1	11511.3	5.91964809384	-1.37884615385
793	0.3965	13.462295082	11511.3	21.4099706745	-4.21346153846
794	0.397	13.462295082	11511.3	21.4099706745	-9.88269230769
795	0.3975	19.1213114754	11511.3	7.32785923754	-1.37884615385
796	0.398	24.7803278689	11511.3	5.91964809384	0.0384615384615
797	0.3985	26.1950819672	11511.3	15.7771260997	-2.79615384615
798	0.399	-4.92950819672	11511.3	15.7771260997	0.0384615384615
799	0.3995	-2.1	11511.3	15.7771260997	-2.79615384615
800	0.4	3.55901639344	11511.3	8.73607038123	-7.04807692308
801	0.4005	10.6327868852	11511.3	-2.52961876833	-1.37884615385
802	0.401	4.9737704918	11511.3	-9.5706744868	-1.37884615385
803	0.4015	3.55901639344	11511.3	-6.75425219941	0.0384615384615
804	0.402	-4.92950819672	11511.3	-6.75425219941	1.45576923077
805	0.4025	-4.92950819672	11511.3	-5.34604105572	-1.37884615385
806	0.403	2.14426229508	11511.3	-10.9788856305	-1.37884615385
807	0.4035	2.14426229508	11511.3	-10.9788856305	-2.79615384615
808	0.404	9.21803278689	11511.3	-5.34604105572	0.0384615384615
809	0.4045	10.6327868852	11511.3	4.51143695015	-2.79615384615
810	0.405	2.14426229508	11511.3	4.51143695015	0.0384615384615
811	0.4055	9.21803278689	11511.3	3.10322580645	0.0384615384615
812	0.406	38.9278688525	11511.3	18.5935483871	-2.79615384615
813	0.4065	21.9508196721	11511.3	11.5524926686	-1.37884615385
814	0.407	4.9737704918	11511.3	-6.75425219941	0.0384615384615
815	0.4075	4.9737704918	11511.3	-8.16246334311	0.0384615384615
816	0.408	-7.75901639344	11511.3	-12.3870967742	2.87307692308
817	0.4085	3.55901639344	11511.3	-12.3870967742	-5.63076923077
818	0.409	-0.685245901639	11511.3	-22.2445747801	-7.04807692308
819	0.4095	-2.1	11511.3	-25.0609970674	2.87307692308
820	0.41	2.14426229508	11511.3	-13.7953079179	0.0384615384615
821	0.4105	7.80327868852	11511.3	-8.16246334311	1.45576923077
822	0.411	14.8770491803	11511.3	-6.75425219941	-2.79615384615
823	0.4115	-7.75901639344	11511.3	0.286803519062	2.87307692308
824	0.412	-7.75901639344	11511.3	0.286803519062	19.8807692308
825	0.4125	-13.4180327869	11511.3	17.1853372434	1.45576923077
826	0.413	-13.4180327869	11511.3	-3.93782991202	1.45576923077
827	0.4135	-13.4180327869	11511.3	-6.75425219941	2.87307692308
828	0.414	-10.5885245902	11511.3	-10.9788856305	1.45576923077
829	0.4145	-26.1508196721	11511.3	-8.16246334311	4.29038461538
830	0.415	-19.0770491803	11511.3	-6.75425219941	15.6288461538
831	0.4155	-21.906557377	11511.3	-5.34604105572	0.0384615384615
832	0.416	-23.3213114754	11511.3	-22.2445747801	1.45576923077
833	0.4165	-28.9803278689	11511.3	-22.2445747801	1.45576923077
834	0.417	-21.906557377	11511.3	-19.4281524927	1.45576923077
835	0.4175	-30.3950819672	11511.3	-10.9788856305	1.45576923077
836	0.418	-17.662295082	11511.3	4.51143695015	19.8807692308
837	0.4185	-17.662295082	11511.3	22.8181818182	0.0384615384615
838	0.419	-10.5885245902	11511.3	1.69501466276	1.45576923077
839	0.4195	-3.51475409836	11511.3	-1.12140762463	1.45576923077
840	0.42	-7.75901639344	11511.3	-3.93782991202	2.87307692308
841	0.4205	-12.0032786885	11511.3	-12.3870967742	4.29038461538
842	0.421	-7.75901639344	11511.3	-15.2035190616	0.0384615384615
843	0.4215	-3.51475409836	11511.3	0.286803519062	1.45576923077
844	0.422	-4.92950819672	11511.3	-10.9788856305	-1.37884615385
845	0.4225	-3.51475409836	11511.3	-8.16246334311	-1.37884615385
846	0.423	-16.2475409836	11511.3	-19.4281524927	1.45576923077
847	0.4235	-7.75901639344	11511.3	-23.6527859238	-7.04807692308
848	0.424	-9.1737704918	11511.3	-18.019941349	-4.21346153846
849	0.4245	-7.75901639344	11511.3	-12.3870967742	2.87307692308
850	0.425	7.80327868852	11511.3	0.286803519062	-1.37884615385
851	0.4255	12.0475409836	11511.3	1.69501466276	-1.37884615385
852	0.426	4.9737704918	11511.3	3.10322580645	-2.79615384615
853	0.4265	-4.92950819672	11511.3	1.69501466276	18.4634615385
854	0.427	9.21803278689	11511.3	1.69501466276	19.8807692308
855	0.4275	12.0475409836	11511.3	17.1853372434	2.87307692308
856	0.428	13.462295082	11511.3	-2.52961876833	2.87307692308
857	0.4285	9.21803278689	11511.3	-2.52961876833	1.45576923077
858	0.429	20.5360655738	11511.3	-5.34604105572	4.29038461538
859	0.4295	29.0245901639	11511.3	-3.93782991202	-7.04807692308
860	0.43	14.8770491803	11511.3	-18.019941349	-2.79615384615
861	0.4305	14.8770491803	11511.3	-16.6117302053	5.70769230769
862	0.431	17.706557377	11511.3	-12.3870967742	4.29038461538
863	0.4315	19.1213114754	11511.3	-18.019941349	5.70769230769
864	0.432	29.0245901639	11511.3	-16.6117302053	7.125
865	0.4325	9.21803278689	11511.3	-15.2035190616	11.3769230769
866	0.433	13.462295082	11511.3	-10.9788856305	7.125
867	0.4335	12.0475409836	11511.3	-9.5706744868	1.45576923077
868	0.434	12.0475409836	11511.3	-9.5706744868	4.29038461538
869	0.4345	12.0475409836	11511.3	-5.34604105572	2.87307692308
870	0.435	7.80327868852	11511.3	1.69501466276	7.125
871	0.4355	26.1950819672	11511.3	12.9607038123	-4.21346153846
872	0.436	14.8770491803	11511.3	14.368914956	-2.79615384615
873	0.4365	13.462295082	11511.3	3.10322580645	7.125
874	0.437	9.21803278689	11511.3	12.9607038123	7.125
875	0.4375	10.6327868852	11511.3	12.9607038123	5.70769230769
876	0.438	23.3655737705	11511.3	7.32785923754	7.125
877	0.4385	21.9508196721	11511.3	-2.52961876833	4.29038461538
878	0.439	16.2918032787	11511.3	-18.019941349	0.0384615384615
879	0.4395	17.706557377	11511.3	-27.8774193548	4.29038461538
880	0.44	16.2918032787	11511.3	-18.019941349	7.125
881	0.4405	16.2918032787	11511.3	-12.3870967742	2.87307692308
882	0.441	14.8770491803	11511.3	-9.5706744868	4.29038461538
883	0.4415	3.55901639344	11511.3	-8.16246334311	4.29038461538
884	0.442	12.0475409836	11511.3	-8.16246334311	2.87307692308
885	0.4425	12.0475409836	11511.3	-8.16246334311	1.45576923077
886	0.443	9.21803278689	11511.3	-6.75425219941	4.29038461538
887	0.4435	4.9737704918	11511.3	3.10322580645	5.70769230769
888	0.444	3.55901639344	11511.3	1.69501466276	0.0384615384615
889	0.4445	-0.685245901639	11511.3	-1.12140762463	-1.37884615385
890	0.445	4.9737704918	11511.3	-6.75425219941	-5.63076923077
891	0.4455	9.21803278689	11511.3	-3.93782991202	0.0384615384615
892	0.446	12.0475409836	11511.3	-3.93782991202	1.45576923077
893	0.4465	14.8770491803	11511.3	-1.12140762463	1.45576923077
894	0.447	30.4393442623	11511.3	0.286803519062	0.0384615384615
895	0.4475	12.0475409836	11511.3	-1.12140762463	0.0384615384615
896	0.448	12.0475409836	11511.3	14.368914956	-7.04807692308
897	0.4485	10.6327868852	11511.3	12.9607038123	-1.37884615385
898	0.449	13.462295082	11511.3	5.91964809384	-4.21346153846
899	0.4495	10.6327868852	11511.3	11.5524926686	-1.37884615385
900	0.45	4.9737704918	11511.3	12.9607038123	-2.79615384615
901	0.4505	0.729508196721	11511.3	10.1442815249	17.0461538462
902	0.451	12.0475409836	11511.3	3.10322580645	-1.37884615385
903	0.4515	12.0475409836	11511.3	5.91964809384	-1.37884615385
904	0.452	10.6327868852	11511.3	8.73607038123	-4.21346153846
905	0.4525	2.14426229508	11511.3	8.73607038123	-2.79615384615
906	0.453	17.706557377	11511.3	8.73607038123	-4.21346153846
907	0.4535	10.6327868852	11511.3	3.10322580645	0.0384615384615
908	0.454	12.0475409836	11511.3	0.286803519062	0.0384615384615
909	0.4545	12.0475409836	11511.3	-1.12140762463	-7.04807692308
910	0.455	12.0475409836	11511.3	3.10322580645	-8.46538461538
911	0.4555	14.8770491803	11511.3	3.10322580645	-5.63076923077
912	0.456	26.1950819672	11511.3	4.51143695015	-16.9692307692
913	0.4565	16.2918032787	11511.3	3.10322580645	-19.8038461538
914	0.457	13.462295082	11511.3	18.5935483871	-8.46538461538
915	0.4575	14.8770491803	11511.3	15.7771260997	-9.88269230769
916	0.458	16.2918032787	11511.3	-3.93782991202	-11.3
917	0.4585	13.462295082	11511.3	-1.12140762463	-11.3
918	0.459	33.268852459	11511.3	-1.12140762463	-11.3
919	0.4595	14.8770491803	11511.3	-10.9788856305	-8.46538461538
920	0.46	17.706557377	11511.3	-12.3870967742	-9.88269230769
921	0.4605	16.2918032787	11511.3	-3.93782991202	-9.88269230769
922	0.461	17.706557377	11511.3	-3.93782991202	-12.7173076923
923	0.4615	9.21803278689	11511.3	-2.52961876833	-7.04807692308
924	0.462	12.0475409836	11511.3	-6.75425219941	-8.46538461538
925	0.4625	17.706557377	11511.3	-12.3870967742	-12.7173076923
926	0.463	20.5360655738	11511.3	-3.93782991202	-11.3
927	0.4635	17.706557377	11511.3	-3.93782991202	-9.88269230769
928	0.464	19.1213114754	11511.3	-3.93782991202	-11.3
929	0.4645	3.55901639344	11511.3	-3.93782991202	-11.3
930	0.465	13.462295082	11511.3	-12.3870967742	-12.7173076923
931	0.4655	17.706557377	11511.3	-8.16246334311	-21.2211538462
932	0.466	17.706557377	11511.3	-23.6527859238	-15.5519230769
933	0.4665	16.2918032787	11511.3	-19.4281524927	-16.9692307692
934	0.467	14.8770491803	11511.3	-23.6527859238	-15.5519230769
935	0.4675	30.4393442623	11511.3	-23.6527859238	-16.9692307692
936	0.468	14.8770491803	11511.3	-18.019941349	-12.7173076923
937	0.4685	21.9508196721	11511.3	0.286803519062	-18.3865384615
938	0.469	17.706557377	11511.3	-13.7953079179	-12.7173076923
939	0.4695	17.706557377	11511.3	-6.75425219941	-16.9692307692
940	0.47	19.1213114754	11511.3	4.51143695015	-15.5519230769
941	0.4705	21.9508196721	11511.3	5.91964809384	-18.3865384615
942	0.471	17.706557377	11511.3	11.5524926686	-7.04807692308
943	0.4715	17.706557377	11511.3	5.91964809384	-2.79615384615
944	0.472	17.706557377	11511.3	11.5524926686	-16.9692307692
945	0.4725	16.2918032787	11511.3	1.69501466276	-18.3865384615
946	0.473	16.2918032787	11511.3	-6.75425219941	-16.9692307692
947	0.4735	0.729508196721	11511.3	-12.3870967742	-14.1346153846
948	0.474	4.9737704918	11511.3	-13.7953079179	-15.5519230769
949	0.4745	16.2918032787	11511.3	0.286803519062	-22.6384615385
950	0.475	17.706557377	11511.3	-6.75425219941	-22.6384615385
951	0.4755	14.8770491803	11511.3	-23.6527859238	-21.2211538462
952	0.476	21.9508196721	11511.3	-25.0609970674	-22.6384615385
953	0.4765	31.8540983607	11511.3	-18.019941349	-21.2211538462
954	0.477	14.8770491803	11511.3	-12.3870967742	-16.9692307692
955	0.4775	17.706557377	11511.3	-8.16246334311	-19.8038461538
956	0.478	19.1213114754	11511.3	0.286803519062	-22.6384615385
957	0.4785	16.2918032787	11511.3	3.10322580645	-22.6384615385
958	0.479	7.80327868852	11511.3	0.286803519062	-19.8038461538
959	0.4795	16.2918032787	11511.3	-2.52961876833	-19.8038461538
960	0.48	19.1213114754	11511.3	0.286803519062	-25.4730769231
961	0.4805	19.1213114754	11511.3	20.0017595308	-25.4730769231
962	0.481	19.1213114754	11511.3	21.4099706745	-24.0557692308
963	0.4815	16.2918032787	11511.3	25.6346041056	-26.8903846154
964	0.482	3.55901639344	11511.3	14.368914956	-26.8903846154
965	0.4825	29.0245901639	11511.3	-2.52961876833	-28.3076923077
966	0.483	19.1213114754	11511.3	-12.3870967742	-25.4730769231
967	0.4835	16.2918032787	11511.3	1.69501466276	-29.725
968	0.484	21.9508196721	11511.3	4.51143695015	-28.3076923077
969	0.4845	23.3655737705	11511.3	3.10322580645	-25.4730769231
970	0.485	20.5360655738	11511.3	3.10322580645	-26.8903846154
971	0.4855	29.0245901639	11511.3	8.73607038123	-28.3076923077
972	0.486	17.706557377	11511.3	17.1853372434	-29.725
973	0.4865	16.2918032787	11511.3	15.7771260997	-28.3076923077
974	0.487	13.462295082	11511.3	12.9607038123	-26.8903846154
975	0.4875	13.462295082	11511.3	21.4099706745	-25.4730769231
976	0.488	-0.685245901639	11511.3	21.4099706745	-25.4730769231
977	0.4885	9.21803278689	11511.3	20.0017595308	-22.6384615385
978	0.489	13.462295082	11511.3	21.4099706745	-26.8903846154
979	0.4895	10.6327868852	11511.3	20.0017595308	-28.3076923077
980	0.49	14.8770491803	11511.3	20.0017595308	-24.0557692308
981	0.4905	14.8770491803	11511.3	27.0428152493	-25.4730769231
982	0.491	17.706557377	11511.3	29.8592375367	-25.4730769231
983	0.4915	4.9737704918	11511.3	28.451026393	-33.9769230769
984	0.492	12.0475409836	11511.3	35.4920821114	-28.3076923077
985	0.4925	13.462295082	11511.3	42.5331378299	-26.8903846154
986	0.493	14.8770491803	11511.3	25.6346041056	-24.0557692308
987	0.4935	14.8770491803	11511.3	4.51143695015	-22.6384615385
988	0.494	30.4393442623	11511.3	-15.2035190616	-26.8903846154
989	0.4945	12.0475409836	11511.3	-25.0609970674	-31.1423076923
990	0.495	12.0475409836	11511.3	-26.4692082111	-22.6384615385
991	0.4955	14.8770491803	11511.3	-25.0609970674	-25.4730769231
992	0.496	13.462295082	11511.3	-23.6527859238	-26.8903846154
993	0.4965	12.0475409836	11511.3	-22.2445747801	-25.4730769231
994	0.497	7.80327868852	11511.3	-34.9184750733	-22.6384615385
995	0.4975	2.14426229508	11511.3	-46.1841642229	-21.2211538462
996	0.498	10.6327868852	11511.3	-61.6744868035	-32.5596153846
997	0.4985	7.80327868852	11511.3	-70.1237536657	-24.0557692308
998	0.499	4.9737704918	11511.3	-51.8170087977	-24.0557692308
999	0.4995	7.80327868852	11511.3	-19.4281524927	-25.4730769231
1000	0.5	20.5360655738	11511.3	-1.12140762463	-25.4730769231
1001	0.5005	3.55901639344	11511.3	18.5935483871	-29.725
1002	0.501	-2.1	11511.3	31.2674486804	-24.0557692308
1003	0.5015	0.729508196721	11511.3	62.2480938416	-22.6384615385
1004	0.502	4.9737704918	11511.3	70.6973607038	-21.2211538462
1005	0.5025	4.9737704918	11511.3	62.2480938416	-21.2211538462
1006	0.503	2.14426229508	11511.3	46.757771261	-18.3865384615
1007	0.5035	3.55901639344	11511.3	32.675659824	-29.725
1008	0.504	3.55901639344	11511.3	20.0017595308	-21.2211538462
1009	0.5045	2.14426229508	11511.3	20.0017595308	-22.6384615385
1010	0.505	9.21803278689	11511.3	24.2263929619	-21.2211538462
1011	0.5055	0.729508196721	11511.3	11.5524926686	-18.3865384615
1012	0.506	-4.92950819672	11511.3	-3.93782991202	-16.9692307692
1013	0.5065	3.55901639344	11511.3	-13.7953079179	-15.5519230769
1014	0.507	3.55901639344	11511.3	-9.5706744868	-18.3865384615
1015	0.5075	4.9737704918	11511.3	1.69501466276	-18.3865384615
1016	0.508	3.55901639344	11511.3	25.6346041056	-18.3865384615
1017	0.5085	3.55901639344	11511.3	24.2263929619	-16.9692307692
1018	0.509	20.5360655738	11511.3	24.2263929619	-15.5519230769
1019	0.5095	-2.1	11511.3	22.8181818182	-12.7173076923
1020	0.51	7.80327868852	11511.3	42.5331378299	-16.9692307692
1021	0.5105	4.9737704918	11511.3	22.8181818182	-16.9692307692
1022	0.511	3.55901639344	11511.3	18.5935483871	-12.7173076923
1023	0.5115	2.14426229508	11511.3	5.91964809384	-9.88269230769
1024	0.512	2.14426229508	11511.3	-1.12140762463	-11.3
1025	0.5125	4.9737704918	11511.3	4.51143695015	-5.63076923077
1026	0.513	3.55901639344	11511.3	21.4099706745	-11.3
1027	0.5135	3.55901639344	11511.3	21.4099706745	-11.3
1028	0.514	4.9737704918	11511.3	21.4099706745	-8.46538461538
1029	0.5145	4.9737704918	11511.3	21.4099706745	-7.04807692308
1030	0.515	-3.51475409836	11511.3	25.6346041056	-8.46538461538
1031	0.5155	7.80327868852	11511.3	12.9607038123	-7.04807692308
1032	0.516	3.55901639344	11511.3	5.91964809384	-7.04807692308
1033	0.5165	7.80327868852	11511.3	8.73607038123	-4.21346153846
1034	0.517	10.6327868852	11511.3	1.69501466276	-7.04807692308
1035	0.5175	13.462295082	11511.3	-8.16246334311	-7.04807692308
1036	0.518	14.8770491803	11511.3	-1.12140762463	-8.46538461538
1037	0.5185	14.8770491803	11511.3	4.51143695015	-14.1346153846
1038	0.519	9.21803278689	11511.3	20.0017595308	-7.04807692308
1039	0.5195	10.6327868852	11511.3	29.8592375367	-8.46538461538
1040	0.52	10.6327868852	11511.3	17.1853372434	-7.04807692308
1041	0.5205	16.2918032787	11511.3	14.368914956	-7.04807692308
1042	0.521	29.0245901639	11511.3	1.69501466276	-14.1346153846
1043	0.5215	12.0475409836	11511.3	-3.93782991202	-1.37884615385
1044	0.522	13.462295082	11511.3	-10.9788856305	-12.7173076923
1045	0.5225	14.8770491803	11511.3	-3.93782991202	-4.21346153846
1046	0.523	13.462295082	11511.3	-8.16246334311	-7.04807692308
1047	0.5235	10.6327868852	11511.3	-9.5706744868	-9.88269230769
1048	0.524	24.7803278689	11511.3	-6.75425219941	-12.7173076923
1049	0.5245	10.6327868852	11511.3	-12.3870967742	-21.2211538462
1050	0.525	9.21803278689	11511.3	-37.7348973607	-11.3
1051	0.5255	10.6327868852	11511.3	-32.1020527859	-8.46538461538
1052	0.526	9.21803278689	11511.3	-34.9184750733	-7.04807692308
1053	0.5265	7.80327868852	11511.3	-63.0826979472	-5.63076923077
1054	0.527	23.3655737705	11511.3	-84.2058651026	-11.3
1055	0.5275	10.6327868852	11511.3	-70.1237536657	-8.46538461538
1056	0.528	10.6327868852	11511.3	-53.2252199413	4.29038461538
1057	0.5285	9.21803278689	11511.3	-39.1431085044	0.0384615384615
1058	0.529	20.5360655738	11511.3	-25.0609970674	0.0384615384615
1059	0.5295	17.706557377	11511.3	-5.34604105572	-4.21346153846
1060	0.53	3.55901639344	11511.3	41.1249266862	-2.79615384615
1061	0.5305	12.0475409836	11511.3	74.9219941349	-11.3
1062	0.531	10.6327868852	11511.3	79.146627566	-15.5519230769
1063	0.5315	10.6327868852	11511.3	58.0234604106	-8.46538461538
1064	0.532	9.21803278689	11511.3	49.5741935484	-5.63076923077
1065	0.5325	7.80327868852	11511.3	38.3085043988	-2.79615384615
1066	0.533	27.6098360656	11511.3	36.9002932551	-2.79615384615
1067	0.5335	4.9737704918	11511.3	42.5331378299	-8.46538461538
1068	0.534	9.21803278689	11511.3	36.9002932551	2.87307692308
1069	0.5345	9.21803278689	11511.3	39.7167155425	1.45576923077
1070	0.535	10.6327868852	11511.3	38.3085043988	-1.37884615385
1071	0.5355	-0.685245901639	11511.3	38.3085043988	-1.37884615385
1072	0.536	9.21803278689	11511.3	36.9002932551	1.45576923077
1073	0.5365	3.55901639344	11511.3	31.2674486804	1.45576923077
1074	0.537	7.80327868852	11511.3	38.3085043988	0.0384615384615
1075	0.5375	4.9737704918	11511.3	28.451026393	-1.37884615385
1076	0.538	4.9737704918	11511.3	15.7771260997	4.29038461538
1077	0.5385	4.9737704918	11511.3	11.5524926686	4.29038461538
1078	0.539	4.9737704918	11511.3	7.32785923754	4.29038461538
1079	0.5395	-2.1	11511.3	8.73607038123	2.87307692308
1080	0.54	4.9737704918	11511.3	12.9607038123	-5.63076923077
1081	0.5405	4.9737704918	11511.3	11.5524926686	1.45576923077
1082	0.541	6.38852459016	11511.3	10.1442815249	2.87307692308
1083	0.5415	9.21803278689	11511.3	7.32785923754	0.0384615384615
1084	0.542	26.1950819672	11511.3	4.51143695015	-1.37884615385
1085	0.5425	3.55901639344	11511.3	5.91964809384	-1.37884615385
1086	0.543	4.9737704918	11511.3	-3.93782991202	2.87307692308
1087	0.5435	4.9737704918	11511.3	3.10322580645	1.45576923077
1088	0.544	7.80327868852	11511.3	4.51143695015	2.87307692308
1089	0.5445	4.9737704918	11511.3	0.286803519062	5.70769230769
1090	0.545	4.9737704918	11511.3	0.286803519062	1.45576923077
1091	0.5455	9.21803278689	11511.3	-1.12140762463	-8.46538461538
1092	0.546	7.80327868852	11511.3	17.1853372434	4.29038461538
1093	0.5465	9.21803278689	11511.3	17.1853372434	4.29038461538
1094	0.547	9.21803278689	11511.3	1.69501466276	4.29038461538
1095	0.5475	7.80327868852	11511.3	1.69501466276	1.45576923077
1096	0.548	20.5360655738	11511.3	0.286803519062	-1.37884615385
1097	0.5485	12.0475409836	11511.3	0.286803519062	-8.46538461538
1098	0.549	12.0475409836	11511.3	-8.16246334311	1.45576923077
1099	0.5495	10.6327868852	11511.3	-6.75425219941	0.0384615384615
1100	0.55	9.21803278689	11511.3	4.51143695015	2.87307692308
1101	0.5505	9.21803278689	11511.3	3.10322580645	4.29038461538
1102	0.551	0.729508196721	11511.3	3.10322580645	4.29038461538
1103	0.5515	9.21803278689	11511.3	5.91964809384	24.1326923077
1104	0.552	9.21803278689	11511.3	15.7771260997	5.70769230769
1105	0.5525	7.80327868852	11511.3	20.0017595308	2.87307692308
1106	0.553	7.80327868852	11511.3	3.10322580645	1.45576923077
1107	0.5535	3.55901639344	11511.3	0.286803519062	2.87307692308
1108	0.554	20.5360655738	11511.3	-12.3870967742	2.87307692308
1109	0.5545	7.80327868852	11511.3	-29.2856304985	7.125
1110	0.555	9.21803278689	11511.3	-33.5102639296	1.45576923077
1111	0.5555	9.21803278689	11511.3	-25.0609970674	4.29038461538
1112	0.556	12.0475409836	11511.3	-37.7348973607	2.87307692308
1113	0.5565	-3.51475409836	11511.3	-43.3677419355	4.29038461538
1114	0.557	0.729508196721	11511.3	-43.3677419355	7.125
1115	0.5575	7.80327868852	11511.3	-39.1431085044	15.6288461538
1116	0.558	7.80327868852	11511.3	-26.4692082111	2.87307692308
1117	0.5585	4.9737704918	11511.3	-36.326686217	2.87307692308
1118	0.559	9.21803278689	11511.3	-34.9184750733	0.0384615384615
1119	0.5595	9.21803278689	11511.3	-29.2856304985	2.87307692308
1120	0.56	7.80327868852	11511.3	-23.6527859238	2.87307692308
1121	0.5605	7.80327868852	11511.3	-26.4692082111	12.7942307692
1122	0.561	9.21803278689	11511.3	-10.9788856305	4.29038461538
1123	0.5615	7.80327868852	11511.3	-1.12140762463	5.70769230769
1124	0.562	4.9737704918	11511.3	1.69501466276	1.45576923077
1125	0.5625	-0.685245901639	11511.3	7.32785923754	1.45576923077
1126	0.563	10.6327868852	11511.3	11.5524926686	4.29038461538
1127	0.5635	3.55901639344	11511.3	-5.34604105572	-1.37884615385
1128	0.564	4.9737704918	11511.3	-13.7953079179	0.0384615384615
1129	0.5645	4.9737704918	11511.3	-20.8363636364	2.87307692308
1130	0.565	9.21803278689	11511.3	-22.2445747801	4.29038461538
1131	0.5655	7.80327868852	11511.3	-16.6117302053	1.45576923077
1132	0.566	4.9737704918	11511.3	-10.9788856305	-8.46538461538
1133	0.5665	2.14426229508	11511.3	-16.6117302053	-1.37884615385
1134	0.567	-0.685245901639	11511.3	-12.3870967742	1.45576923077
1135	0.5675	2.14426229508	11511.3	-5.34604105572	-4.21346153846
1136	0.568	-2.1	11511.3	-3.93782991202	-2.79615384615
1137	0.5685	-10.5885245902	11511.3	-5.34604105572	-7.04807692308
1138	0.569	-2.1	11511.3	-2.52961876833	-5.63076923077
1139	0.5695	-2.1	11511.3	-1.12140762463	2.87307692308
1140	0.57	0.729508196721	11511.3	-9.5706744868	-5.63076923077
1141	0.5705	-2.1	11511.3	-6.75425219941	-5.63076923077
1142	0.571	-3.51475409836	11511.3	-12.3870967742	-4.21346153846
1143	0.5715	-17.662295082	11511.3	-15.2035190616	4.29038461538
1144	0.572	-16.2475409836	11511.3	-18.019941349	4.29038461538
1145	0.5725	-4.92950819672	11511.3	-9.5706744868	0.0384615384615
1146	0.573	-3.51475409836	11511.3	-33.5102639296	-2.79615384615
1147	0.5735	0.729508196721	11511.3	-40.5513196481	-2.79615384615
1148	0.574	-3.51475409836	11511.3	-41.9595307918	-5.63076923077
1149	0.5745	-7.75901639344	11511.3	-39.1431085044	-2.79615384615
1150	0.575	-0.685245901639	11511.3	-26.4692082111	-5.63076923077
1151	0.5755	0.729508196721	11511.3	-8.16246334311	-2.79615384615
1152	0.576	0.729508196721	11511.3	8.73607038123	-4.21346153846
1153	0.5765	-0.685245901639	11511.3	25.6346041056	-12.7173076923
1154	0.577	0.729508196721	11511.3	21.4099706745	-15.5519230769
1155	0.5775	-3.51475409836	11511.3	20.0017595308	-8.46538461538
1156	0.578	-4.92950819672	11511.3	8.73607038123	-7.04807692308
1157	0.5785	-4.92950819672	11511.3	17.1853372434	-8.46538461538
1158	0.579	-3.51475409836	11511.3	18.5935483871	-4.21346153846
1159	0.5795	-2.1	11511.3	12.9607038123	-2.79615384615
1160	0.58	-7.75901639344	11511.3	4.51143695015	-1.37884615385
1161	0.5805	10.6327868852	11511.3	-3.93782991202	-5.63076923077
1162	0.581	-0.685245901639	11511.3	-19.4281524927	-7.04807692308
1163	0.5815	0.729508196721	11511.3	-39.1431085044	-8.46538461538
1164	0.582	0.729508196721	11511.3	-43.3677419355	-8.46538461538
1165	0.5825	2.14426229508	11511.3	-37.7348973607	-7.04807692308
1166	0.583	3.55901639344	11511.3	-36.326686217	-8.46538461538
1167	0.5835	-4.92950819672	11511.3	-39.1431085044	-2.79615384615
1168	0.584	4.9737704918	11511.3	-46.1841642229	11.3769230769
1169	0.5845	2.14426229508	11511.3	-54.633431085	-1.37884615385
1170	0.585	3.55901639344	11511.3	-57.4498533724	-1.37884615385
1171	0.5855	-3.51475409836	11511.3	-60.2662756598	1.45576923077
1172	0.586	-12.0032786885	11511.3	-78.5730205279	-2.79615384615
1173	0.5865	-9.1737704918	11511.3	-108.145454545	1.45576923077
1174	0.587	-9.1737704918	11511.3	-120.819354839	0.0384615384615
1175	0.5875	-9.1737704918	11511.3	-102.512609971	-18.3865384615
1176	0.588	-10.5885245902	11511.3	-60.2662756598	-25.4730769231
1177	0.5885	-7.75901639344	11511.3	-25.0609970674	-21.2211538462
1178	0.589	-13.4180327869	11511.3	-12.3870967742	-8.46538461538
1179	0.5895	-7.75901639344	11511.3	-13.7953079179	-4.21346153846
1180	0.59	-2.1	11511.3	-9.5706744868	-15.5519230769
1181	0.5905	0.729508196721	11511.3	-16.6117302053	-25.4730769231
1182	0.591	-2.1	11511.3	-1.12140762463	-25.4730769231
1183	0.5915	2.14426229508	11511.3	20.0017595308	-28.3076923077
1184	0.592	14.8770491803	11511.3	39.7167155425	-36.8115384615
1185	0.5925	-2.1	11511.3	59.4316715543	-38.2288461538
1186	0.593	-3.51475409836	11511.3	53.7988269795	-19.8038461538
1187	0.5935	-2.1	11511.3	45.3495601173	-2.79615384615
1188	0.594	-4.92950819672	11511.3	29.8592375367	-2.79615384615
1189	0.5945	-0.685245901639	11511.3	14.368914956	-9.88269230769
1190	0.595	-10.5885245902	11511.3	-9.5706744868	-11.3
1191	0.5955	0.729508196721	11511.3	-16.6117302053	-11.3
1192	0.596	-2.1	11511.3	-8.16246334311	-15.5519230769
1193	0.5965	-2.1	11511.3	-10.9788856305	-12.7173076923
1194	0.597	-3.51475409836	11511.3	-2.52961876833	-11.3
1195	0.5975	-4.92950819672	11511.3	3.10322580645	-9.88269230769
1196	0.598	-9.1737704918	11511.3	4.51143695015	-9.88269230769
1197	0.5985	-12.0032786885	11511.3	4.51143695015	-4.21346153846
1198	0.599	-4.92950819672	11511.3	4.51143695015	-12.7173076923
1199	0.5995	-3.51475409836	11511.3	1.69501466276	-35.3942307692
1200	0.6	-3.51475409836	11511.3	0.286803519062	-31.1423076923
1201	0.6005	-3.51475409836	11511.3	1.69501466276	-29.725
1202	0.601	0.729508196721	11511.3	-2.52961876833	-32.5596153846
1203	0.6015	-3.51475409836	11511.3	-3.93782991202	-41.0634615385
1204	0.602	-0.685245901639	11511.3	-1.12140762463	-31.1423076923
1205	0.6025	-3.51475409836	11511.3	5.91964809384	-28.3076923077
1206	0.603	-4.92950819672	11511.3	-2.52961876833	-11.3
1207	0.6035	-3.51475409836	11511.3	-3.93782991202	-9.88269230769
1208	0.604	-3.51475409836	11511.3	-8.16246334311	-18.3865384615
1209	0.6045	17.706557377	11511.3	-8.16246334311	-26.8903846154
1210	0.605	-0.685245901639	11511.3	-19.4281524927	-26.8903846154
1211	0.6055	-0.685245901639	11511.3	-12.3870967742	-24.0557692308
1212	0.606	0.729508196721	11511.3	-6.75425219941	-25.4730769231
1213	0.6065	-2.1	11511.3	-22.2445747801	-25.4730769231
1214	0.607	17.706557377	11511.3	-40.5513196481	-26.8903846154
1215	0.6075	-10.5885245902	11511.3	-44.7759530792	-35.3942307692
1216	0.608	-3.51475409836	11511.3	-41.9595307918	-35.3942307692
1217	0.6085	-3.51475409836	11511.3	-26.4692082111	-28.3076923077
1218	0.609	-2.1	11511.3	-25.0609970674	-26.8903846154
1219	0.6095	-3.51475409836	11511.3	-22.2445747801	-31.1423076923
1220	0.61	-13.4180327869	11511.3	-20.8363636364	-38.2288461538
1221	0.6105	-7.75901639344	11511.3	-22.2445747801	-36.8115384615
1222	0.611	-3.51475409836	11511.3	-19.4281524927	-36.8115384615
1223	0.6115	-0.685245901639	11511.3	-27.8774193548	-31.1423076923
1224	0.612	-3.51475409836	11511.3	-27.8774193548	-31.1423076923
1225	0.6125	-3.51475409836	11511.3	-19.4281524927	-26.8903846154
1226	0.613	13.462295082	11511.3	-19.4281524927	-38.2288461538
1227	0.6135	-2.1	11511.3	-18.019941349	-36.8115384615
1228	0.614	-3.51475409836	11511.3	-30.6938416422	-36.8115384615
1229	0.6145	-2.1	11511.3	-22.2445747801	-33.9769230769
1230	0.615	-4.92950819672	11511.3	-12.3870967742	-33.9769230769
1231	0.6155	-10.5885245902	11511.3	-15.2035190616	-31.1423076923
1232	0.616	-20.4918032787	11511.3	-15.2035190616	-32.5596153846
1233	0.6165	-9.1737704918	11511.3	-13.7953079179	-35.3942307692
1234	0.617	-6.34426229508	11511.3	-8.16246334311	-32.5596153846
1235	0.6175	-6.34426229508	11511.3	-20.8363636364	-33.9769230769
1236	0.618	-4.92950819672	11511.3	-10.9788856305	-32.5596153846
1237	0.6185	-7.75901639344	11511.3	-5.34604105572	-29.725
1238	0.619	-12.0032786885	11511.3	-1.12140762463	-36.8115384615
1239	0.6195	-6.34426229508	11511.3	-5.34604105572	-41.0634615385
1240	0.62	-9.1737704918	11511.3	-5.34604105572	-39.6461538462
1241	0.6205	-6.34426229508	11511.3	-10.9788856305	-33.9769230769
1242	0.621	-6.34426229508	11511.3	1.69501466276	-29.725
1243	0.6215	-7.75901639344	11511.3	3.10322580645	-31.1423076923
1244	0.622	-13.4180327869	11511.3	7.32785923754	-31.1423076923
1245	0.6225	-7.75901639344	11511.3	11.5524926686	-39.6461538462
1246	0.623	-6.34426229508	11511.3	14.368914956	-36.8115384615
1247	0.6235	-10.5885245902	11511.3	8.73607038123	-41.0634615385
1248	0.624	-9.1737704918	11511.3	8.73607038123	-39.6461538462
1249	0.6245	-7.75901639344	11511.3	7.32785923754	-39.6461538462
1250	0.625	9.21803278689	11511.3	11.5524926686	-49.5673076923
1251	0.6255	-6.34426229508	11511.3	4.51143695015	-50.9846153846
1252	0.626	-7.75901639344	11511.3	21.4099706745	-45.3153846154
1253	0.6265	-9.1737704918	11511.3	21.4099706745	-39.6461538462
1254	0.627	-6.34426229508	11511.3	5.91964809384	-33.9769230769
1255	0.6275	-0.685245901639	11511.3	5.91964809384	-32.5596153846
1256	0.628	10.6327868852	11511.3	14.368914956	-35.3942307692
1257	0.6285	-9.1737704918	11511.3	20.0017595308	-35.3942307692
1258	0.629	-4.92950819672	11511.3	18.5935483871	-31.1423076923
1259	0.6295	-9.1737704918	11511.3	18.5935483871	-42.4807692308
1260	0.63	-7.75901639344	11511.3	18.5935483871	-45.3153846154
1261	0.6305	-4.92950819672	11511.3	17.1853372434	-46.7326923077
1262	0.631	-9.1737704918	11511.3	15.7771260997	-46.7326923077
1263	0.6315	-6.34426229508	11511.3	12.9607038123	-55.2365384615
1264	0.632	-4.92950819672	11511.3	3.10322580645	-49.5673076923
1265	0.6325	-7.75901639344	11511.3	1.69501466276	-53.8192307692
1266	0.633	-6.34426229508	11511.3	20.0017595308	-58.0711538462
1267	0.6335	-3.51475409836	11511.3	22.8181818182	-58.0711538462
1268	0.634	-19.0770491803	11511.3	25.6346041056	-58.0711538462
1269	0.6345	-12.0032786885	11511.3	21.4099706745	-41.0634615385
1270	0.635	-9.1737704918	11511.3	12.9607038123	-53.8192307692
1271	0.6355	-4.92950819672	11511.3	24.2263929619	-39.6461538462
1272	0.636	-3.51475409836	11511.3	28.451026393	-24.0557692308
1273	0.6365	-6.34426229508	11511.3	29.8592375367	-24.0557692308
1274	0.637	-4.92950819672	11511.3	28.451026393	-28.3076923077
1275	0.6375	-16.2475409836	11511.3	17.1853372434	-8.46538461538
1276	0.638	-7.75901639344	11511.3	4.51143695015	-12.7173076923
1277	0.6385	-10.5885245902	11511.3	-1.12140762463	-2.79615384615
1278	0.639	-7.75901639344	11511.3	-18.019941349	1.45576923077
1279	0.6395	-2.1	11511.3	-25.0609970674	5.70769230769
1280	0.64	-6.34426229508	11511.3	-25.0609970674	12.7942307692
1281	0.6405	-6.34426229508	11511.3	-27.8774193548	0.0384615384615
1282	0.641	-6.34426229508	11511.3	-22.2445747801	-1.37884615385
1283	0.6415	-4.92950819672	11511.3	-10.9788856305	1.45576923077
1284	0.642	-7.75901639344	11511.3	-1.12140762463	2.87307692308
1285	0.6425	-6.34426229508	11511.3	3.10322580645	4.29038461538
1286	0.643	0.729508196721	11511.3	3.10322580645	14.2115384615
1287	0.6435	-7.75901639344	11511.3	-5.34604105572	15.6288461538
1288	0.644	-6.34426229508	11511.3	3.10322580645	15.6288461538
1289	0.6445	-10.5885245902	11511.3	-2.52961876833	17.0461538462
1290	0.645	-7.75901639344	11511.3	-6.75425219941	18.4634615385
1291	0.6455	-12.0032786885	11511.3	-5.34604105572	14.2115384615
1292	0.646	10.6327868852	11511.3	-5.34604105572	-1.37884615385
1293	0.6465	-7.75901639344	11511.3	-5.34604105572	1.45576923077
1294	0.647	-9.1737704918	11511.3	-13.7953079179	14.2115384615
1295	0.6475	-7.75901639344	11511.3	-5.34604105572	17.0461538462
1296	0.648	-4.92950819672	11511.3	-8.16246334311	9.95961538462
1297	0.6485	-3.51475409836	11511.3	-9.5706744868	7.125
1298	0.649	-14.8327868852	11511.3	-9.5706744868	21.2980769231
1299	0.6495	-7.75901639344	11511.3	-8.16246334311	22.7153846154
1300	0.65	-4.92950819672	11511.3	-8.16246334311	11.3769230769
1301	0.6505	-7.75901639344	11511.3	-3.93782991202	5.70769230769
1302	0.651	-9.1737704918	11511.3	1.69501466276	7.125
1303	0.6515	-19.0770491803	11511.3	1.69501466276	8.54230769231
1304	0.652	-6.34426229508	11511.3	4.51143695015	4.29038461538
1305	0.6525	-4.92950819672	11511.3	5.91964809384	-1.37884615385
1306	0.653	-4.92950819672	11511.3	1.69501466276	7.125
1307	0.6535	-6.34426229508	11511.3	4.51143695015	5.70769230769
1308	0.654	-4.92950819672	11511.3	7.32785923754	7.125
1309	0.6545	-9.1737704918	11511.3	7.32785923754	4.29038461538
1310	0.655	-13.4180327869	11511.3	5.91964809384	4.29038461538
1311	0.6555	-0.685245901639	11511.3	5.91964809384	-7.04807692308
1312	0.656	-4.92950819672	11511.3	-5.34604105572	0.0384615384615
1313	0.6565	-4.92950819672	11511.3	-1.12140762463	4.29038461538
1314	0.657	-0.685245901639	11511.3	-2.52961876833	2.87307692308
1315	0.6575	-13.4180327869	11511.3	-3.93782991202	4.29038461538
1316	0.658	-14.8327868852	11511.3	-3.93782991202	25.55
1317	0.6585	-6.34426229508	11511.3	-8.16246334311	7.125
1318	0.659	-9.1737704918	11511.3	-9.5706744868	8.54230769231
1319	0.6595	-4.92950819672	11511.3	-1.12140762463	11.3769230769
1320	0.66	-4.92950819672	11511.3	-1.12140762463	12.7942307692
1321	0.6605	-6.34426229508	11511.3	-1.12140762463	15.6288461538
1322	0.661	-10.5885245902	11511.3	5.91964809384	31.2192307692
1323	0.6615	-2.1	11511.3	3.10322580645	29.8019230769
1324	0.662	-2.1	11511.3	-1.12140762463	14.2115384615
1325	0.6625	-3.51475409836	11511.3	-1.12140762463	12.7942307692
1326	0.663	-4.92950819672	11511.3	-2.52961876833	14.2115384615
1327	0.6635	-0.685245901639	11511.3	-5.34604105572	11.3769230769
1328	0.664	-6.34426229508	11511.3	-10.9788856305	4.29038461538
1329	0.6645	-7.75901639344	11511.3	-8.16246334311	5.70769230769
1330	0.665	-7.75901639344	11511.3	-2.52961876833	11.3769230769
1331	0.6655	-9.1737704918	11511.3	-6.75425219941	11.3769230769
1332	0.666	-20.4918032787	11511.3	-8.16246334311	12.7942307692
1333	0.6665	-13.4180327869	11511.3	-6.75425219941	28.3846153846
1334	0.667	-7.75901639344	11511.3	-6.75425219941	29.8019230769
1335	0.6675	-2.1	11511.3	-6.75425219941	15.6288461538
1336	0.668	-0.685245901639	11511.3	-8.16246334311	4.29038461538
1337	0.6685	9.21803278689	11511.3	-9.5706744868	1.45576923077
1338	0.669	12.0475409836	11511.3	-8.16246334311	-1.37884615385
1339	0.6695	23.3655737705	11511.3	-5.34604105572	-16.9692307692
1340	0.67	7.80327868852	11511.3	5.91964809384	-31.1423076923
1341	0.6705	3.55901639344	11511.3	-8.16246334311	-39.6461538462
1342	0.671	0.729508196721	11511.3	-8.16246334311	-26.8903846154
1343	0.6715	0.729508196721	11511.3	-6.75425219941	1.45576923077
1344	0.672	-4.92950819672	11511.3	-6.75425219941	17.0461538462
1345	0.6725	-4.92950819672	11511.3	-6.75425219941	12.7942307692
1346	0.673	-4.92950819672	11511.3	-5.34604105572	14.2115384615
1347	0.6735	2.14426229508	11511.3	-9.5706744868	7.125
1348	0.674	3.55901639344	11511.3	-3.93782991202	0.0384615384615
1349	0.6745	0.729508196721	11511.3	-3.93782991202	-7.04807692308
1350	0.675	-0.685245901639	11511.3	0.286803519062	-12.7173076923
1351	0.6755	-4.92950819672	11511.3	3.10322580645	0.0384615384615
1352	0.676	-6.34426229508	11511.3	12.9607038123	0.0384615384615
1353	0.6765	-7.75901639344	11511.3	5.91964809384	-12.7173076923
1354	0.677	-7.75901639344	11511.3	-5.34604105572	-26.8903846154
1355	0.6775	-12.0032786885	11511.3	-3.93782991202	-21.2211538462
1356	0.678	-4.92950819672	11511.3	-2.52961876833	-8.46538461538
1357	0.6785	-19.0770491803	11511.3	-5.34604105572	17.0461538462
1358	0.679	-12.0032786885	11511.3	-13.7953079179	15.6288461538
1359	0.6795	-7.75901639344	11511.3	-6.75425219941	1.45576923077
1360	0.68	-0.685245901639	11511.3	-2.52961876833	-8.46538461538
1361	0.6805	9.21803278689	11511.3	0.286803519062	-2.79615384615
1362	0.681	2.14426229508	11511.3	-5.34604105572	2.87307692308
1363	0.6815	9.21803278689	11511.3	-1.12140762463	2.87307692308
1364	0.682	3.55901639344	11511.3	12.9607038123	15.6288461538
1365	0.6825	3.55901639344	11511.3	12.9607038123	19.8807692308
1366	0.683	7.80327868852	11511.3	-5.34604105572	24.1326923077
1367	0.6835	9.21803278689	11511.3	-8.16246334311	18.4634615385
1368	0.684	23.3655737705	11511.3	-5.34604105572	17.0461538462
1369	0.6845	6.38852459016	11511.3	-16.6117302053	2.87307692308
1370	0.685	4.9737704918	11511.3	-10.9788856305	0.0384615384615
1371	0.6855	3.55901639344	11511.3	-12.3870967742	2.87307692308
1372	0.686	4.9737704918	11511.3	-8.16246334311	5.70769230769
1373	0.6865	-9.1737704918	11511.3	-10.9788856305	12.7942307692
1374	0.687	24.7803278689	11511.3	-12.3870967742	14.2115384615
1375	0.6875	3.55901639344	11511.3	-12.3870967742	-7.04807692308
1376	0.688	3.55901639344	11511.3	-19.4281524927	2.87307692308
1377	0.6885	3.55901639344	11511.3	-10.9788856305	11.3769230769
1378	0.689	7.80327868852	11511.3	-9.5706744868	11.3769230769
1379	0.6895	3.55901639344	11511.3	-6.75425219941	0.0384615384615
1380	0.69	17.706557377	11511.3	-12.3870967742	-11.3
1381	0.6905	9.21803278689	11511.3	-13.7953079179	-15.5519230769
1382	0.691	4.9737704918	11511.3	-2.52961876833	0.0384615384615
1383	0.6915	4.9737704918	11511.3	-6.75425219941	12.7942307692
1384	0.692	3.55901639344	11511.3	-5.34604105572	18.4634615385
1385	0.6925	0.729508196721	11511.3	-1.12140762463	24.1326923077
1386	0.693	14.8770491803	11511.3	1.69501466276	25.55
1387	0.6935	7.80327868852	11511.3	-2.52961876833	18.4634615385
1388	0.694	10.6327868852	11511.3	-3.93782991202	18.4634615385
1389	0.6945	10.6327868852	11511.3	-1.12140762463	19.8807692308
1390	0.695	10.6327868852	11511.3	-3.93782991202	15.6288461538
1391	0.6955	-6.34426229508	11511.3	-13.7953079179	19.8807692308
1392	0.696	-2.1	11511.3	-20.8363636364	19.8807692308
1393	0.6965	4.9737704918	11511.3	-34.9184750733	21.2980769231
1394	0.697	4.9737704918	11511.3	-32.1020527859	22.7153846154
1395	0.6975	0.729508196721	11511.3	-33.5102639296	21.2980769231
1396	0.698	-2.1	11511.3	-27.8774193548	19.8807692308
1397	0.6985	-10.5885245902	11511.3	-27.8774193548	17.0461538462
1398	0.699	-12.0032786885	11511.3	-27.8774193548	26.9673076923
1399	0.6995	-0.685245901639	11511.3	-33.5102639296	15.6288461538
1400	0.7	0.729508196721	11511.3	-23.6527859238	19.8807692308
1401	0.7005	2.14426229508	11511.3	-34.9184750733	15.6288461538
1402	0.701	3.55901639344	11511.3	-33.5102639296	11.3769230769
1403	0.7015	9.21803278689	11511.3	-27.8774193548	-7.04807692308
1404	0.702	7.80327868852	11511.3	-23.6527859238	-11.3
1405	0.7025	9.21803278689	11511.3	-25.0609970674	4.29038461538
1406	0.703	10.6327868852	11511.3	-16.6117302053	15.6288461538
1407	0.7035	12.0475409836	11511.3	-6.75425219941	14.2115384615
1408	0.704	14.8770491803	11511.3	-6.75425219941	11.3769230769
1409	0.7045	7.80327868852	11511.3	-6.75425219941	15.6288461538
1410	0.705	17.706557377	11511.3	-3.93782991202	-1.37884615385
1411	0.7055	16.2918032787	11511.3	18.5935483871	4.29038461538
1412	0.706	16.2918032787	11511.3	25.6346041056	7.125
1413	0.7065	20.5360655738	11511.3	12.9607038123	7.125
1414	0.707	21.9508196721	11511.3	10.1442815249	8.54230769231
1415	0.7075	33.268852459	11511.3	4.51143695015	8.54230769231
1416	0.708	16.2918032787	11511.3	-2.52961876833	18.4634615385
1417	0.7085	9.21803278689	11511.3	-3.93782991202	2.87307692308
1418	0.709	10.6327868852	11511.3	-6.75425219941	2.87307692308
1419	0.7095	10.6327868852	11511.3	-8.16246334311	7.125
1420	0.71	4.9737704918	11511.3	-10.9788856305	4.29038461538
1421	0.7105	16.2918032787	11511.3	-8.16246334311	8.54230769231
1422	0.711	10.6327868852	11511.3	-12.3870967742	8.54230769231
1423	0.7115	12.0475409836	11511.3	-8.16246334311	2.87307692308
1424	0.712	10.6327868852	11511.3	-8.16246334311	0.0384615384615
1425	0.7125	12.0475409836	11511.3	-10.9788856305	4.29038461538
1426	0.713	10.6327868852	11511.3	-12.3870967742	4.29038461538
1427	0.7135	0.729508196721	11511.3	-12.3870967742	7.125
1428	0.714	0.729508196721	11511.3	-6.75425219941	18.4634615385
1429	0.7145	0.729508196721	11511.3	-5.34604105572	21.2980769231
1430	0.715	-4.92950819672	11511.3	-1.12140762463	26.9673076923
1431	0.7155	-0.685245901639	11511.3	4.51143695015	22.7153846154
1432	0.716	-4.92950819672	11511.3	-2.52961876833	15.6288461538
1433	0.7165	-6.34426229508	11511.3	-1.12140762463	-8.46538461538
1434	0.717	-4.92950819672	11511.3	5.91964809384	-8.46538461538
1435	0.7175	0.729508196721	11511.3	5.91964809384	2.87307692308
1436	0.718	14.8770491803	11511.3	17.1853372434	5.70769230769
1437	0.7185	14.8770491803	11511.3	11.5524926686	4.29038461538
1438	0.719	9.21803278689	11511.3	-1.12140762463	12.7942307692
1439	0.7195	14.8770491803	11511.3	-6.75425219941	12.7942307692
1440	0.72	12.0475409836	11511.3	-9.5706744868	-2.79615384615
1441	0.7205	10.6327868852	11511.3	-30.6938416422	1.45576923077
1442	0.721	12.0475409836	11511.3	-40.5513196481	-2.79615384615
1443	0.7215	7.80327868852	11511.3	-37.7348973607	0.0384615384615
1444	0.722	19.1213114754	11511.3	-25.0609970674	-4.21346153846
1445	0.7225	7.80327868852	11511.3	-18.019941349	-1.37884615385
1446	0.723	13.462295082	11511.3	-23.6527859238	-1.37884615385
1447	0.7235	16.2918032787	11511.3	-25.0609970674	2.87307692308
1448	0.724	16.2918032787	11511.3	-10.9788856305	4.29038461538
1449	0.7245	10.6327868852	11511.3	1.69501466276	12.7942307692
1450	0.725	3.55901639344	11511.3	4.51143695015	14.2115384615
1451	0.7255	0.729508196721	11511.3	3.10322580645	11.3769230769
1452	0.726	-10.5885245902	11511.3	8.73607038123	1.45576923077
1453	0.7265	-20.4918032787	11511.3	-2.52961876833	1.45576923077
1454	0.727	-26.1508196721	11511.3	-2.52961876833	8.54230769231
1455	0.7275	-28.9803278689	11511.3	-9.5706744868	12.7942307692
1456	0.728	-12.0032786885	11511.3	-8.16246334311	11.3769230769
1457	0.7285	-23.3213114754	11511.3	-10.9788856305	8.54230769231
1458	0.729	-16.2475409836	11511.3	-13.7953079179	12.7942307692
1459	0.7295	-9.1737704918	11511.3	-12.3870967742	8.54230769231
1460	0.73	-0.685245901639	11511.3	-12.3870967742	4.29038461538
1461	0.7305	2.14426229508	11511.3	-12.3870967742	-1.37884615385
1462	0.731	3.55901639344	11511.3	-10.9788856305	5.70769230769
1463	0.7315	10.6327868852	11511.3	-16.6117302053	-5.63076923077
1464	0.732	2.14426229508	11511.3	-3.93782991202	-2.79615384615
1465	0.7325	2.14426229508	11511.3	-10.9788856305	-2.79615384615
1466	0.733	7.80327868852	11511.3	-9.5706744868	-5.63076923077
1467	0.7335	-0.685245901639	11511.3	-6.75425219941	-4.21346153846
1468	0.734	9.21803278689	11511.3	-8.16246334311	-2.79615384615
1469	0.7345	4.9737704918	11511.3	-13.7953079179	-9.88269230769
1470	0.735	4.9737704918	11511.3	-16.6117302053	-7.04807692308
1471	0.7355	3.55901639344	11511.3	-8.16246334311	0.0384615384615
1472	0.736	-4.92950819672	11511.3	-12.3870967742	-5.63076923077
1473	0.7365	-14.8327868852	11511.3	-12.3870967742	-11.3
1474	0.737	0.729508196721	11511.3	-13.7953079179	-11.3
1475	0.7375	9.21803278689	11511.3	-12.3870967742	1.45576923077
1476	0.738	12.0475409836	11511.3	-6.75425219941	4.29038461538
1477	0.7385	-2.1	11511.3	-15.2035190616	4.29038461538
1478	0.739	-16.2475409836	11511.3	-13.7953079179	7.125
1479	0.7395	-27.5655737705	11511.3	-16.6117302053	12.7942307692
1480	0.74	-16.2475409836	11511.3	-16.6117302053	-1.37884615385
1481	0.7405	-31.8098360656	11511.3	-18.019941349	28.3846153846
1482	0.741	-43.1278688525	11511.3	-23.6527859238	17.0461538462
1483	0.7415	-54.4459016393	11511.3	-16.6117302053	14.2115384615
1484	0.742	-50.2016393443	11511.3	-18.019941349	11.3769230769
1485	0.7425	-41.7131147541	11511.3	-19.4281524927	15.6288461538
1486	0.743	-26.1508196721	11511.3	-15.2035190616	8.54230769231
1487	0.7435	-12.0032786885	11511.3	-15.2035190616	17.0461538462
1488	0.744	-4.92950819672	11511.3	-18.019941349	7.125
1489	0.7445	-10.5885245902	11511.3	-15.2035190616	7.125
1490	0.745	-9.1737704918	11511.3	-8.16246334311	4.29038461538
1491	0.7455	-10.5885245902	11511.3	-8.16246334311	15.6288461538
1492	0.746	-19.0770491803	11511.3	-5.34604105572	18.4634615385
1493	0.7465	-17.662295082	11511.3	-12.3870967742	11.3769230769
1494	0.747	-24.7360655738	11511.3	-2.52961876833	12.7942307692
1495	0.7475	-28.9803278689	11511.3	-6.75425219941	19.8807692308
1496	0.748	-28.9803278689	11511.3	-8.16246334311	11.3769230769
1497	0.7485	-27.5655737705	11511.3	-9.5706744868	-1.37884615385
1498	0.749	-31.8098360656	11511.3	-10.9788856305	-5.63076923077
1499	0.7495	-24.7360655738	11511.3	-12.3870967742	4.29038461538
1500	0.75	-20.4918032787	11511.3	-8.16246334311	18.4634615385
1501	0.7505	-16.2475409836	11511.3	-22.2445747801	21.2980769231
1502	0.751	-17.662295082	11511.3	-25.0609970674	18.4634615385
1503	0.7515	-30.3950819672	11511.3	-27.8774193548	15.6288461538
1504	0.752	-0.685245901639	11511.3	-32.1020527859	12.7942307692
1505	0.7525	-20.4918032787	11511.3	-33.5102639296	4.29038461538
1506	0.753	-20.4918032787	11511.3	-46.1841642229	14.2115384615
1507	0.7535	-28.9803278689	11511.3	-49.0005865103	12.7942307692
1508	0.754	-33.2245901639	11511.3	-34.9184750733	19.8807692308
1509	0.7545	-44.5426229508	11511.3	-23.6527859238	17.0461538462
1510	0.755	-19.0770491803	11511.3	-15.2035190616	17.0461538462
1511	0.7555	-21.906557377	11511.3	-12.3870967742	18.4634615385
1512	0.756	-19.0770491803	11511.3	-1.12140762463	19.8807692308
1513	0.7565	-14.8327868852	11511.3	-15.2035190616	17.0461538462
1514	0.757	-12.0032786885	11511.3	-23.6527859238	14.2115384615
1515	0.7575	-14.8327868852	11511.3	-27.8774193548	15.6288461538
1516	0.758	-2.1	11511.3	-30.6938416422	18.4634615385
1517	0.7585	-20.4918032787	11511.3	-34.9184750733	19.8807692308
1518	0.759	-21.906557377	11511.3	-36.326686217	21.2980769231
1519	0.7595	-27.5655737705	11511.3	-26.4692082111	21.2980769231
1520	0.76	-24.7360655738	11511.3	-22.2445747801	15.6288461538
1521	0.7605	-21.906557377	11511.3	-18.019941349	15.6288461538
1522	0.761	-30.3950819672	11511.3	-8.16246334311	17.0461538462
1523	0.7615	-28.9803278689	11511.3	-6.75425219941	4.29038461538
1524	0.762	-27.5655737705	11511.3	11.5524926686	-2.79615384615
1525	0.7625	-23.3213114754	11511.3	5.91964809384	-4.21346153846
1526	0.763	-23.3213114754	11511.3	5.91964809384	-1.37884615385
1527	0.7635	-23.3213114754	11511.3	0.286803519062	8.54230769231
1528	0.764	-17.662295082	11511.3	-2.52961876833	5.70769230769
1529	0.7645	-34.6393442623	11511.3	-2.52961876833	4.29038461538
1530	0.765	-34.6393442623	11511.3	-16.6117302053	18.4634615385
1531	0.7655	-23.3213114754	11511.3	-8.16246334311	15.6288461538
1532	0.766	-12.0032786885	11511.3	-9.5706744868	17.0461538462
1533	0.7665	-14.8327868852	11511.3	-10.9788856305	21.2980769231
1534	0.767	-14.8327868852	11511.3	-8.16246334311	31.2192307692
1535	0.7675	-12.0032786885	11511.3	-10.9788856305	15.6288461538
1536	0.768	-16.2475409836	11511.3	3.10322580645	19.8807692308
1537	0.7685	-23.3213114754	11511.3	-6.75425219941	15.6288461538
1538	0.769	-30.3950819672	11511.3	-6.75425219941	19.8807692308
1539	0.7695	-38.8836065574	11511.3	-3.93782991202	15.6288461538
1540	0.77	-33.2245901639	11511.3	-5.34604105572	17.0461538462
1541	0.7705	-41.7131147541	11511.3	5.91964809384	11.3769230769
1542	0.771	-34.6393442623	11511.3	8.73607038123	14.2115384615
1543	0.7715	-31.8098360656	11511.3	-1.12140762463	14.2115384615
1544	0.772	-23.3213114754	11511.3	4.51143695015	14.2115384615
1545	0.7725	-7.75901639344	11511.3	4.51143695015	15.6288461538
1546	0.773	-34.6393442623	11511.3	3.10322580645	22.7153846154
1547	0.7735	-21.906557377	11511.3	14.368914956	7.125
1548	0.774	-19.0770491803	11511.3	-1.12140762463	12.7942307692
1549	0.7745	-27.5655737705	11511.3	4.51143695015	11.3769230769
1550	0.775	-36.0540983607	11511.3	8.73607038123	12.7942307692
1551	0.7755	-44.5426229508	11511.3	21.4099706745	14.2115384615
1552	0.776	-28.9803278689	11511.3	25.6346041056	22.7153846154
1553	0.7765	-26.1508196721	11511.3	29.8592375367	12.7942307692
1554	0.777	-21.906557377	11511.3	43.9413489736	-4.21346153846
1555	0.7775	-21.906557377	11511.3	25.6346041056	-1.37884615385
1556	0.778	-21.906557377	11511.3	22.8181818182	-7.04807692308
1557	0.7785	-14.8327868852	11511.3	27.0428152493	-5.63076923077
1558	0.779	-43.1278688525	11511.3	32.675659824	-9.88269230769
1559	0.7795	-28.9803278689	11511.3	34.0838709677	-15.5519230769
1560	0.78	-16.2475409836	11511.3	32.675659824	-11.3
1561	0.7805	-7.75901639344	11511.3	18.5935483871	2.87307692308
1562	0.781	-2.1	11511.3	14.368914956	8.54230769231
1563	0.7815	-6.34426229508	11511.3	4.51143695015	12.7942307692
1564	0.782	0.729508196721	11511.3	-5.34604105572	5.70769230769
1565	0.7825	-3.51475409836	11511.3	-16.6117302053	-5.63076923077
1566	0.783	-6.34426229508	11511.3	-20.8363636364	-4.21346153846
1567	0.7835	-7.75901639344	11511.3	-40.5513196481	-12.7173076923
1568	0.784	-6.34426229508	11511.3	-44.7759530792	-26.8903846154
1569	0.7845	-7.75901639344	11511.3	-30.6938416422	-31.1423076923
1570	0.785	10.6327868852	11511.3	-3.93782991202	-15.5519230769
1571	0.7855	-13.4180327869	11511.3	-8.16246334311	0.0384615384615
1572	0.786	-17.662295082	11511.3	-18.019941349	8.54230769231
1573	0.7865	-20.4918032787	11511.3	-32.1020527859	5.70769230769
1574	0.787	-21.906557377	11511.3	-47.5923753666	0.0384615384615
1575	0.7875	-21.906557377	11511.3	-56.0416422287	-12.7173076923
1576	0.788	-3.51475409836	11511.3	-56.0416422287	-14.1346153846
1577	0.7885	-7.75901639344	11511.3	-56.0416422287	-8.46538461538
1578	0.789	-2.1	11511.3	-43.3677419355	4.29038461538
1579	0.7895	2.14426229508	11511.3	-54.633431085	2.87307692308
1580	0.79	0.729508196721	11511.3	-51.8170087977	2.87307692308
1581	0.7905	-0.685245901639	11511.3	-43.3677419355	-1.37884615385
1582	0.791	-7.75901639344	11511.3	-34.9184750733	0.0384615384615
1583	0.7915	2.14426229508	11511.3	-29.2856304985	-11.3
1584	0.792	6.38852459016	11511.3	-20.8363636364	-11.3
1585	0.7925	7.80327868852	11511.3	-8.16246334311	1.45576923077
1586	0.793	3.55901639344	11511.3	4.51143695015	1.45576923077
1587	0.7935	0.729508196721	11511.3	4.51143695015	5.70769230769
1588	0.794	0.729508196721	11511.3	11.5524926686	5.70769230769
1589	0.7945	2.14426229508	11511.3	24.2263929619	19.8807692308
1590	0.795	12.0475409836	11511.3	36.9002932551	8.54230769231
1591	0.7955	14.8770491803	11511.3	38.3085043988	7.125
1592	0.796	19.1213114754	11511.3	22.8181818182	11.3769230769
1593	0.7965	16.2918032787	11511.3	18.5935483871	8.54230769231
1594	0.797	20.5360655738	11511.3	18.5935483871	15.6288461538
1595	0.7975	13.462295082	11511.3	24.2263929619	9.95961538462
1596	0.798	7.80327868852	11511.3	36.9002932551	15.6288461538
1597	0.7985	0.729508196721	11511.3	27.0428152493	17.0461538462
1598	0.799	-6.34426229508	11511.3	29.8592375367	19.8807692308
1599	0.7995	-9.1737704918	11511.3	27.0428152493	21.2980769231
1600	0.8	-6.34426229508	11511.3	27.0428152493	21.2980769231
1601	0.8005	-4.92950819672	11511.3	27.0428152493	29.8019230769
1602	0.801	-6.34426229508	11511.3	41.1249266862	21.2980769231
1603	0.8015	-12.0032786885	11511.3	39.7167155425	22.7153846154
1604	0.802	-10.5885245902	11511.3	42.5331378299	22.7153846154
1605	0.8025	0.729508196721	11511.3	43.9413489736	22.7153846154
1606	0.803	14.8770491803	11511.3	46.757771261	14.2115384615
1607	0.8035	3.55901639344	11511.3	48.1659824047	0.0384615384615
1608	0.804	-2.1	11511.3	56.6152492669	7.125
1609	0.8045	-2.1	11511.3	56.6152492669	5.70769230769
1610	0.805	-2.1	11511.3	53.7988269795	9.95961538462
1611	0.8055	-9.1737704918	11511.3	53.7988269795	0.0384615384615
1612	0.806	13.462295082	11511.3	53.7988269795	-1.37884615385
1613	0.8065	14.8770491803	11511.3	48.1659824047	4.29038461538
1614	0.807	16.2918032787	11511.3	50.9824046921	18.4634615385
1615	0.8075	14.8770491803	11511.3	45.3495601173	21.2980769231
1616	0.808	12.0475409836	11511.3	48.1659824047	21.2980769231
1617	0.8085	3.55901639344	11511.3	50.9824046921	17.0461538462
1618	0.809	-4.92950819672	11511.3	49.5741935484	15.6288461538
1619	0.8095	0.729508196721	11511.3	45.3495601173	15.6288461538
1620	0.81	-4.92950819672	11511.3	27.0428152493	21.2980769231
1621	0.8105	-13.4180327869	11511.3	35.4920821114	26.9673076923
1622	0.811	-17.662295082	11511.3	35.4920821114	26.9673076923
1623	0.8115	-21.906557377	11511.3	36.9002932551	24.1326923077
1624	0.812	-30.3950819672	11511.3	34.0838709677	35.4711538462
1625	0.8125	-23.3213114754	11511.3	31.2674486804	25.55
1626	0.813	-16.2475409836	11511.3	25.6346041056	25.55
1627	0.8135	-12.0032786885	11511.3	24.2263929619	24.1326923077
1628	0.814	-6.34426229508	11511.3	15.7771260997	7.125
1629	0.8145	-16.2475409836	11511.3	-1.12140762463	7.125
1630	0.815	-33.2245901639	11511.3	-12.3870967742	26.9673076923
1631	0.8155	-23.3213114754	11511.3	-2.52961876833	35.4711538462
1632	0.816	-21.906557377	11511.3	15.7771260997	43.975
1633	0.8165	-19.0770491803	11511.3	22.8181818182	41.1403846154
1634	0.817	-4.92950819672	11511.3	25.6346041056	34.0538461538
1635	0.8175	2.14426229508	11511.3	15.7771260997	31.2192307692
1636	0.818	-4.92950819672	11511.3	14.368914956	35.4711538462
1637	0.8185	14.8770491803	11511.3	25.6346041056	28.3846153846
1638	0.819	16.2918032787	11511.3	31.2674486804	32.6365384615
1639	0.8195	14.8770491803	11511.3	29.8592375367	36.8884615385
1640	0.82	19.1213114754	11511.3	31.2674486804	36.8884615385
1641	0.8205	14.8770491803	11511.3	20.0017595308	32.6365384615
1642	0.821	-0.685245901639	11511.3	12.9607038123	32.6365384615
1643	0.8215	0.729508196721	11511.3	15.7771260997	36.8884615385
1644	0.822	-4.92950819672	11511.3	27.0428152493	31.2192307692
1645	0.8225	-16.2475409836	11511.3	18.5935483871	26.9673076923
1646	0.823	-26.1508196721	11511.3	25.6346041056	26.9673076923
1647	0.8235	-27.5655737705	11511.3	22.8181818182	25.55
1648	0.824	-27.5655737705	11511.3	22.8181818182	21.2980769231
1649	0.8245	-54.4459016393	11511.3	24.2263929619	19.8807692308
1650	0.825	-62.9344262295	11511.3	27.0428152493	29.8019230769
1651	0.8255	-50.2016393443	11511.3	41.1249266862	19.8807692308
1652	0.826	-20.4918032787	11511.3	25.6346041056	18.4634615385
1653	0.8265	-0.685245901639	11511.3	25.6346041056	18.4634615385
1654	0.827	-19.0770491803	11511.3	27.0428152493	11.3769230769
1655	0.8275	-30.3950819672	11511.3	31.2674486804	12.7942307692
1656	0.828	-30.3950819672	11511.3	29.8592375367	0.0384615384615
1657	0.8285	-40.2983606557	11511.3	22.8181818182	11.3769230769
1658	0.829	-58.6901639344	11511.3	22.8181818182	11.3769230769
1659	0.8295	-72.837704918	11511.3	36.9002932551	11.3769230769
1660	0.83	-70.0081967213	11511.3	38.3085043988	14.2115384615
1661	0.8305	-44.5426229508	11511.3	38.3085043988	26.9673076923
1662	0.831	-24.7360655738	11511.3	31.2674486804	7.125
1663	0.8315	-27.5655737705	11511.3	38.3085043988	2.87307692308
1664	0.832	-24.7360655738	11511.3	39.7167155425	-1.37884615385
1665	0.8325	-23.3213114754	11511.3	35.4920821114	4.29038461538
1666	0.833	-27.5655737705	11511.3	32.675659824	7.125
1667	0.8335	-17.662295082	11511.3	29.8592375367	4.29038461538
1668	0.834	-28.9803278689	11511.3	20.0017595308	7.125
1669	0.8345	-26.1508196721	11511.3	31.2674486804	5.70769230769
1670	0.835	-26.1508196721	11511.3	31.2674486804	2.87307692308
1671	0.8355	-27.5655737705	11511.3	21.4099706745	5.70769230769
1672	0.836	-36.0540983607	11511.3	21.4099706745	4.29038461538
1673	0.8365	-23.3213114754	11511.3	15.7771260997	14.2115384615
1674	0.837	-19.0770491803	11511.3	11.5524926686	0.0384615384615
1675	0.8375	-19.0770491803	11511.3	7.32785923754	-1.37884615385
1676	0.838	-23.3213114754	11511.3	-1.12140762463	-7.04807692308
1677	0.8385	-20.4918032787	11511.3	-2.52961876833	-7.04807692308
1678	0.839	-17.662295082	11511.3	-6.75425219941	1.45576923077
1679	0.8395	-12.0032786885	11511.3	-8.16246334311	8.54230769231
1680	0.84	-9.1737704918	11511.3	-13.7953079179	-9.88269230769
1681	0.8405	-4.92950819672	11511.3	-6.75425219941	-28.3076923077
1682	0.841	-2.1	11511.3	-2.52961876833	-19.8038461538
1683	0.8415	-0.685245901639	11511.3	0.286803519062	-9.88269230769
1684	0.842	-0.685245901639	11511.3	-1.12140762463	-2.79615384615
1685	0.8425	10.6327868852	11511.3	3.10322580645	-18.3865384615
1686	0.843	-10.5885245902	11511.3	0.286803519062	-33.9769230769
1687	0.8435	-9.1737704918	11511.3	-1.12140762463	-22.6384615385
1688	0.844	-4.92950819672	11511.3	3.10322580645	-15.5519230769
1689	0.8445	-6.34426229508	11511.3	11.5524926686	-7.04807692308
1690	0.845	0.729508196721	11511.3	17.1853372434	1.45576923077
1691	0.8455	-12.0032786885	11511.3	17.1853372434	0.0384615384615
1692	0.846	-10.5885245902	11511.3	15.7771260997	-7.04807692308
1693	0.8465	-2.1	11511.3	29.8592375367	-11.3
1694	0.847	2.14426229508	11511.3	15.7771260997	-8.46538461538
1695	0.8475	4.9737704918	11511.3	17.1853372434	-12.7173076923
1696	0.848	-2.1	11511.3	17.1853372434	-19.8038461538
1697	0.8485	7.80327868852	11511.3	21.4099706745	-35.3942307692
1698	0.849	-10.5885245902	11511.3	24.2263929619	-18.3865384615
1699	0.8495	-2.1	11511.3	25.6346041056	-7.04807692308
1700	0.85	2.14426229508	11511.3	18.5935483871	-11.3
1701	0.8505	7.80327868852	11511.3	27.0428152493	-15.5519230769
1702	0.851	7.80327868852	11511.3	29.8592375367	-12.7173076923
1703	0.8515	14.8770491803	11511.3	32.675659824	-14.1346153846
1704	0.852	19.1213114754	11511.3	34.0838709677	-28.3076923077
1705	0.8525	27.6098360656	11511.3	49.5741935484	-29.725
1706	0.853	33.268852459	11511.3	41.1249266862	-16.9692307692
1707	0.8535	38.9278688525	11511.3	45.3495601173	-9.88269230769
1708	0.854	29.0245901639	11511.3	48.1659824047	-11.3
1709	0.8545	23.3655737705	11511.3	48.1659824047	-8.46538461538
1710	0.855	-12.0032786885	11511.3	52.3906158358	-11.3
1711	0.8555	-10.5885245902	11511.3	49.5741935484	-1.37884615385
1712	0.856	-10.5885245902	11511.3	65.064516129	-12.7173076923
1713	0.8565	-23.3213114754	11511.3	49.5741935484	-7.04807692308
1714	0.857	-41.7131147541	11511.3	49.5741935484	-4.21346153846
1715	0.8575	-50.2016393443	11511.3	50.9824046921	-5.63076923077
1716	0.858	-20.4918032787	11511.3	52.3906158358	-12.7173076923
1717	0.8585	12.0475409836	11511.3	49.5741935484	-14.1346153846
1718	0.859	17.706557377	11511.3	49.5741935484	-1.37884615385
1719	0.8595	12.0475409836	11511.3	55.2070381232	-1.37884615385
1720	0.86	4.9737704918	11511.3	46.757771261	-2.79615384615
1721	0.8605	13.462295082	11511.3	39.7167155425	-9.88269230769
1722	0.861	-4.92950819672	11511.3	39.7167155425	-12.7173076923
1723	0.8615	9.21803278689	11511.3	46.757771261	-12.7173076923
1724	0.862	12.0475409836	11511.3	36.9002932551	-8.46538461538
1725	0.8625	19.1213114754	11511.3	29.8592375367	-1.37884615385
1726	0.863	21.9508196721	11511.3	24.2263929619	5.70769230769
1727	0.8635	23.3655737705	11511.3	21.4099706745	4.29038461538
1728	0.864	10.6327868852	11511.3	22.8181818182	4.29038461538
1729	0.8645	4.9737704918	11511.3	21.4099706745	-1.37884615385
1730	0.865	4.9737704918	11511.3	11.5524926686	2.87307692308
1731	0.8655	0.729508196721	11511.3	11.5524926686	2.87307692308
1732	0.866	3.55901639344	11511.3	3.10322580645	7.125
1733	0.8665	0.729508196721	11511.3	-1.12140762463	22.7153846154
1734	0.867	4.9737704918	11511.3	-5.34604105572	21.2980769231
1735	0.8675	-3.51475409836	11511.3	3.10322580645	2.87307692308
1736	0.868	-3.51475409836	11511.3	-8.16246334311	0.0384615384615
1737	0.8685	-3.51475409836	11511.3	-22.2445747801	4.29038461538
1738	0.869	2.14426229508	11511.3	-6.75425219941	7.125
1739	0.8695	24.7803278689	11511.3	24.2263929619	-4.21346153846
1740	0.87	13.462295082	11511.3	41.1249266862	21.2980769231
1741	0.8705	13.462295082	11511.3	41.1249266862	11.3769230769
1742	0.871	12.0475409836	11511.3	35.4920821114	8.54230769231
1743	0.8715	13.462295082	11511.3	14.368914956	5.70769230769
1744	0.872	0.729508196721	11511.3	0.286803519062	1.45576923077
1745	0.8725	-3.51475409836	11511.3	-9.5706744868	-1.37884615385
1746	0.873	3.55901639344	11511.3	-3.93782991202	-11.3
1747	0.8735	4.9737704918	11511.3	-3.93782991202	-5.63076923077
1748	0.874	7.80327868852	11511.3	-8.16246334311	-8.46538461538
1749	0.8745	3.55901639344	11511.3	-12.3870967742	-8.46538461538
1750	0.875	3.55901639344	11511.3	-3.93782991202	-5.63076923077
1751	0.8755	-0.685245901639	11511.3	17.1853372434	2.87307692308
1752	0.876	13.462295082	11511.3	22.8181818182	-2.79615384615
1753	0.8765	20.5360655738	11511.3	28.451026393	-5.63076923077
1754	0.877	23.3655737705	11511.3	31.2674486804	-7.04807692308
1755	0.8775	26.1950819672	11511.3	17.1853372434	-5.63076923077
1756	0.878	23.3655737705	11511.3	17.1853372434	-8.46538461538
1757	0.8785	38.9278688525	11511.3	24.2263929619	-18.3865384615
1758	0.879	21.9508196721	11511.3	36.9002932551	-14.1346153846
1759	0.8795	24.7803278689	11511.3	59.4316715543	-9.88269230769
1760	0.88	27.6098360656	11511.3	48.1659824047	-8.46538461538
1761	0.8805	26.1950819672	11511.3	-6.75425219941	-9.88269230769
1762	0.881	40.3426229508	11511.3	-22.2445747801	-7.04807692308
1763	0.8815	31.8540983607	11511.3	-3.93782991202	-12.7173076923
1764	0.882	27.6098360656	11511.3	0.286803519062	-18.3865384615
1765	0.8825	29.0245901639	11511.3	-8.16246334311	-22.6384615385
1766	0.883	30.4393442623	11511.3	-15.2035190616	-14.1346153846
1767	0.8835	37.5131147541	11511.3	-22.2445747801	-18.3865384615
1768	0.884	41.7573770492	11511.3	-26.4692082111	-15.5519230769
1769	0.8845	62.9786885246	11511.3	-26.4692082111	-16.9692307692
1770	0.885	44.5868852459	11511.3	-20.8363636364	0.0384615384615
1771	0.8855	41.7573770492	11511.3	-16.6117302053	-14.1346153846
1772	0.886	37.5131147541	11511.3	-3.93782991202	-12.7173076923
1773	0.8865	29.0245901639	11511.3	-5.34604105572	-9.88269230769
1774	0.887	3.55901639344	11511.3	0.286803519062	-9.88269230769
1775	0.8875	2.14426229508	11511.3	5.91964809384	-12.7173076923
1776	0.888	-21.906557377	11511.3	3.10322580645	-18.3865384615
1777	0.8885	-26.1508196721	11511.3	0.286803519062	-11.3
1778	0.889	-12.0032786885	11511.3	17.1853372434	-12.7173076923
1779	0.8895	2.14426229508	11511.3	20.0017595308	-11.3
1780	0.89	19.1213114754	11511.3	11.5524926686	-9.88269230769
1781	0.8905	21.9508196721	11511.3	15.7771260997	-11.3
1782	0.891	27.6098360656	11511.3	17.1853372434	-18.3865384615
1783	0.8915	30.4393442623	11511.3	4.51143695015	-4.21346153846
1784	0.892	36.0983606557	11511.3	14.368914956	-8.46538461538
1785	0.8925	38.9278688525	11511.3	7.32785923754	-2.79615384615
1786	0.893	44.5868852459	11511.3	8.73607038123	-1.37884615385
1787	0.8935	48.831147541	11511.3	12.9607038123	-5.63076923077
1788	0.894	31.8540983607	11511.3	7.32785923754	-11.3
1789	0.8945	21.9508196721	11511.3	3.10322580645	-1.37884615385
1790	0.895	14.8770491803	11511.3	-6.75425219941	1.45576923077
1791	0.8955	10.6327868852	11511.3	-5.34604105572	4.29038461538
1792	0.896	-10.5885245902	11511.3	-12.3870967742	4.29038461538
1793	0.8965	17.706557377	11511.3	-15.2035190616	2.87307692308
1794	0.897	3.55901639344	11511.3	-33.5102639296	2.87307692308
1795	0.8975	9.21803278689	11511.3	-32.1020527859	4.29038461538
1796	0.898	10.6327868852	11511.3	-29.2856304985	0.0384615384615
1797	0.8985	12.0475409836	11511.3	-33.5102639296	0.0384615384615
1798	0.899	7.80327868852	11511.3	-32.1020527859	4.29038461538
1799	0.8995	13.462295082	11511.3	-27.8774193548	19.8807692308
1800	0.9	24.7803278689	11511.3	-27.8774193548	17.0461538462
1801	0.9005	29.0245901639	11511.3	-27.8774193548	1.45576923077
1802	0.901	27.6098360656	11511.3	-25.0609970674	5.70769230769
1803	0.9015	26.1950819672	11511.3	-23.6527859238	7.125
1804	0.902	27.6098360656	11511.3	-18.019941349	8.54230769231
1805	0.9025	26.1950819672	11511.3	-13.7953079179	24.1326923077
1806	0.903	29.0245901639	11511.3	-13.7953079179	25.55
1807	0.9035	31.8540983607	11511.3	3.10322580645	2.87307692308
1808	0.904	43.1721311475	11511.3	-13.7953079179	7.125
1809	0.9045	31.8540983607	11511.3	-12.3870967742	8.54230769231
1810	0.905	23.3655737705	11511.3	-15.2035190616	8.54230769231
1811	0.9055	40.3426229508	11511.3	-15.2035190616	8.54230769231
1812	0.906	34.6836065574	11511.3	-12.3870967742	8.54230769231
1813	0.9065	31.8540983607	11511.3	-22.2445747801	8.54230769231
1814	0.907	26.1950819672	11511.3	-19.4281524927	8.54230769231
1815	0.9075	17.706557377	11511.3	-18.019941349	8.54230769231
1816	0.908	-6.34426229508	11511.3	-18.019941349	8.54230769231
1817	0.9085	-14.8327868852	11511.3	-16.6117302053	19.8807692308
1818	0.909	-20.4918032787	11511.3	-18.019941349	5.70769230769
1819	0.9095	-28.9803278689	11511.3	-18.019941349	8.54230769231
1820	0.91	-40.2983606557	11511.3	-13.7953079179	7.125
1821	0.9105	-64.3491803279	11511.3	-16.6117302053	9.95961538462
1822	0.911	-85.5704918033	11511.3	-15.2035190616	7.125
1823	0.9115	-75.6672131148	11511.3	-12.3870967742	4.29038461538
1824	0.912	-88.4	11511.3	-9.5706744868	1.45576923077
1825	0.9125	-75.6672131148	11511.3	-13.7953079179	9.95961538462
1826	0.913	-62.9344262295	11511.3	-3.93782991202	7.125
1827	0.9135	-43.1278688525	11511.3	-9.5706744868	5.70769230769
1828	0.914	-21.906557377	11511.3	-22.2445747801	1.45576923077
1829	0.9145	-19.0770491803	11511.3	-30.6938416422	4.29038461538
1830	0.915	-4.92950819672	11511.3	-43.3677419355	0.0384615384615
1831	0.9155	-4.92950819672	11511.3	-50.408797654	-2.79615384615
1832	0.916	-14.8327868852	11511.3	-49.0005865103	-8.46538461538
1833	0.9165	-21.906557377	11511.3	-44.7759530792	-4.21346153846
1834	0.917	-4.92950819672	11511.3	-49.0005865103	-4.21346153846
1835	0.9175	-17.662295082	11511.3	-49.0005865103	4.29038461538
1836	0.918	-21.906557377	11511.3	-40.5513196481	-1.37884615385
1837	0.9185	-33.2245901639	11511.3	-41.9595307918	-1.37884615385
1838	0.919	-33.2245901639	11511.3	-53.2252199413	-5.63076923077
1839	0.9195	-34.6393442623	11511.3	-58.8580645161	-5.63076923077
1840	0.92	-13.4180327869	11511.3	-56.0416422287	-5.63076923077
1841	0.9205	-27.5655737705	11511.3	-53.2252199413	-9.88269230769
1842	0.921	-24.7360655738	11511.3	-47.5923753666	-2.79615384615
1843	0.9215	-16.2475409836	11511.3	-41.9595307918	-4.21346153846
1844	0.922	-12.0032786885	11511.3	-53.2252199413	-4.21346153846
1845	0.9225	-24.7360655738	11511.3	-50.408797654	-2.79615384615
1846	0.923	-19.0770491803	11511.3	-44.7759530792	12.7942307692
1847	0.9235	-10.5885245902	11511.3	-43.3677419355	-5.63076923077
1848	0.924	-3.51475409836	11511.3	-39.1431085044	-4.21346153846
1849	0.9245	-0.685245901639	11511.3	-23.6527859238	-5.63076923077
1850	0.925	-4.92950819672	11511.3	-19.4281524927	-8.46538461538
1851	0.9255	-13.4180327869	11511.3	-23.6527859238	-8.46538461538
1852	0.926	-21.906557377	11511.3	-30.6938416422	-5.63076923077
1853	0.9265	-16.2475409836	11511.3	-26.4692082111	2.87307692308
1854	0.927	-31.8098360656	11511.3	-19.4281524927	-8.46538461538
1855	0.9275	-43.1278688525	11511.3	-8.16246334311	-12.7173076923
1856	0.928	-38.8836065574	11511.3	-1.12140762463	-11.3
1857	0.9285	-21.906557377	11511.3	14.368914956	-19.8038461538
1858	0.929	-12.0032786885	11511.3	20.0017595308	-16.9692307692
1859	0.9295	-3.51475409836	11511.3	18.5935483871	-14.1346153846
1860	0.93	-7.75901639344	11511.3	1.69501466276	-12.7173076923
1861	0.9305	-10.5885245902	11511.3	5.91964809384	-14.1346153846
1862	0.931	-10.5885245902	11511.3	4.51143695015	-12.7173076923
1863	0.9315	-6.34426229508	11511.3	18.5935483871	-8.46538461538
1864	0.932	-16.2475409836	11511.3	28.451026393	-7.04807692308
1865	0.9325	-7.75901639344	11511.3	27.0428152493	-11.3
1866	0.933	-4.92950819672	11511.3	5.91964809384	-16.9692307692
1867	0.9335	-2.1	11511.3	-3.93782991202	-18.3865384615
1868	0.934	7.80327868852	11511.3	-6.75425219941	-14.1346153846
1869	0.9345	19.1213114754	11511.3	-8.16246334311	-19.8038461538
1870	0.935	-6.34426229508	11511.3	-9.5706744868	-12.7173076923
1871	0.9355	-17.662295082	11511.3	-15.2035190616	-15.5519230769
1872	0.936	-36.0540983607	11511.3	-9.5706744868	-18.3865384615
1873	0.9365	-38.8836065574	11511.3	-9.5706744868	-21.2211538462
1874	0.937	-28.9803278689	11511.3	-12.3870967742	-22.6384615385
1875	0.9375	-24.7360655738	11511.3	-8.16246334311	-21.2211538462
1876	0.938	-17.662295082	11511.3	3.10322580645	-21.2211538462
1877	0.9385	-13.4180327869	11511.3	4.51143695015	-18.3865384615
1878	0.939	-13.4180327869	11511.3	-6.75425219941	-8.46538461538
1879	0.9395	-10.5885245902	11511.3	-6.75425219941	4.29038461538
1880	0.94	-10.5885245902	11511.3	-25.0609970674	8.54230769231
1881	0.9405	-21.906557377	11511.3	-25.0609970674	5.70769230769
1882	0.941	-26.1508196721	11511.3	-10.9788856305	7.125
1883	0.9415	-33.2245901639	11511.3	-3.93782991202	-4.21346153846
1884	0.942	-37.468852459	11511.3	-18.019941349	-7.04807692308
1885	0.9425	-34.6393442623	11511.3	-26.4692082111	-5.63076923077
1886	0.943	-27.5655737705	11511.3	-36.326686217	-11.3
1887	0.9435	-27.5655737705	11511.3	-39.1431085044	-15.5519230769
1888	0.944	-3.51475409836	11511.3	-33.5102639296	-12.7173076923
1889	0.9445	10.6327868852	11511.3	-30.6938416422	-24.0557692308
1890	0.945	0.729508196721	11511.3	-33.5102639296	-18.3865384615
1891	0.9455	-19.0770491803	11511.3	-32.1020527859	-32.5596153846
1892	0.946	-33.2245901639	11511.3	-27.8774193548	-35.3942307692
1893	0.9465	-34.6393442623	11511.3	-27.8774193548	-35.3942307692
1894	0.947	-28.9803278689	11511.3	-27.8774193548	-31.1423076923
1895	0.9475	-30.3950819672	11511.3	-22.2445747801	-22.6384615385
1896	0.948	-37.468852459	11511.3	-29.2856304985	-24.0557692308
1897	0.9485	-37.468852459	11511.3	-29.2856304985	-43.8980769231
1898	0.949	-45.9573770492	11511.3	-32.1020527859	-53.8192307692
1899	0.9495	-38.8836065574	11511.3	-29.2856304985	-31.1423076923
1900	0.95	-30.3950819672	11511.3	-25.0609970674	-8.46538461538
1901	0.9505	-20.4918032787	11511.3	-29.2856304985	8.54230769231
1902	0.951	17.706557377	11511.3	-22.2445747801	4.29038461538
1903	0.9515	7.80327868852	11511.3	-18.019941349	0.0384615384615
1904	0.952	-53.031147541	11511.3	-8.16246334311	-14.1346153846
1905	0.9525	-67.1786885246	11511.3	-8.16246334311	-7.04807692308
1906	0.953	-60.1049180328	11511.3	-12.3870967742	2.87307692308
1907	0.9535	-62.9344262295	11511.3	4.51143695015	1.45576923077
1908	0.954	-60.1049180328	11511.3	-15.2035190616	4.29038461538
1909	0.9545	-53.031147541	11511.3	-20.8363636364	1.45576923077
1910	0.955	-54.4459016393	11511.3	-29.2856304985	-1.37884615385
1911	0.9555	-55.8606557377	11511.3	-30.6938416422	1.45576923077
1912	0.956	-57.2754098361	11511.3	-26.4692082111	4.29038461538
1913	0.9565	-57.2754098361	11511.3	-20.8363636364	-11.3
1914	0.957	-53.031147541	11511.3	-32.1020527859	-1.37884615385
1915	0.9575	-51.6163934426	11511.3	-29.2856304985	4.29038461538
1916	0.958	-51.6163934426	11511.3	-26.4692082111	7.125
1917	0.9585	-36.0540983607	11511.3	-26.4692082111	1.45576923077
1918	0.959	-58.6901639344	11511.3	-29.2856304985	25.55
1919	0.9595	-60.1049180328	11511.3	-19.4281524927	7.125
1920	0.96	-57.2754098361	11511.3	-39.1431085044	8.54230769231
1921	0.9605	-55.8606557377	11511.3	-37.7348973607	11.3769230769
1922	0.961	-44.5426229508	11511.3	-33.5102639296	8.54230769231
1923	0.9615	-31.8098360656	11511.3	-34.9184750733	-1.37884615385
1924	0.962	-54.4459016393	11511.3	-34.9184750733	7.125
1925	0.9625	-58.6901639344	11511.3	-44.7759530792	12.7942307692
1926	0.963	-57.2754098361	11511.3	-44.7759530792	4.29038461538
1927	0.9635	-58.6901639344	11511.3	-37.7348973607	-1.37884615385
1928	0.964	-64.3491803279	11511.3	-43.3677419355	2.87307692308
1929	0.9645	-67.1786885246	11511.3	-47.5923753666	7.125
1930	0.965	-62.9344262295	11511.3	-33.5102639296	7.125
1931	0.9655	-55.8606557377	11511.3	-20.8363636364	12.7942307692
1932	0.966	-43.1278688525	11511.3	-27.8774193548	12.7942307692
1933	0.9665	-38.8836065574	11511.3	-29.2856304985	11.3769230769
1934	0.967	-43.1278688525	11511.3	-23.6527859238	8.54230769231
1935	0.9675	-40.2983606557	11511.3	-26.4692082111	7.125
1936	0.968	-37.468852459	11511.3	-27.8774193548	15.6288461538
1937	0.9685	-40.2983606557	11511.3	-36.326686217	12.7942307692
1938	0.969	-41.7131147541	11511.3	-30.6938416422	18.4634615385
1939	0.9695	-37.468852459	11511.3	-36.326686217	18.4634615385
1940	0.97	-36.0540983607	11511.3	-39.1431085044	18.4634615385
1941	0.9705	-34.6393442623	11511.3	-37.7348973607	29.8019230769
1942	0.971	-23.3213114754	11511.3	-27.8774193548	29.8019230769
1943	0.9715	-24.7360655738	11511.3	-23.6527859238	17.0461538462
1944	0.972	-30.3950819672	11511.3	-26.4692082111	18.4634615385
1945	0.9725	-31.8098360656	11511.3	-29.2856304985	18.4634615385
1946	0.973	-28.9803278689	11511.3	-27.8774193548	17.0461538462
1947	0.9735	-4.92950819672	11511.3	-23.6527859238	7.125
1948	0.974	-21.906557377	11511.3	-23.6527859238	15.6288461538
