	Time	Channel 1	Channel 2	Channel 3	Channel 4
0	0.0	2.09341317365	0.471428571429	4.81454545455	-7.40888888889
1	0.0005	20.4568862275	4.75714285714	0.527272727273	-7.40888888889
2	0.001	-3.55688622754	20.4714285714	-2.33090909091	-4.53777777778
3	0.0015	16.2191616766	-2.38571428571	-0.901818181818	-13.1511111111
4	0.002	19.0443113772	3.32857142857	1.95636363636	-3.10222222222
5	0.0025	13.394011976	1.9	-9.47636363636	-4.53777777778
6	0.003	0.680838323353	1.9	-3.76	-7.40888888889
7	0.0035	13.394011976	-0.957142857143	0.527272727273	-5.97333333333
8	0.004	2.09341317365	-0.957142857143	1.95636363636	-18.8933333333
9	0.0045	7.74371257485	17.6142857143	3.38545454545	-7.40888888889
10	0.005	6.33113772455	0.471428571429	1.95636363636	-8.84444444444
11	0.0055	10.5688622754	1.9	-12.3345454545	-10.28
12	0.006	9.15628742515	0.471428571429	-2.33090909091	-5.97333333333
13	0.0065	2.09341317365	-3.81428571429	-5.18909090909	-8.84444444444
14	0.007	-3.55688622754	1.9	1.95636363636	-4.53777777778
15	0.0075	14.8065868263	0.471428571429	0.527272727273	9.81777777778
16	0.008	-4.96946107784	0.471428571429	-0.901818181818	15.56
17	0.0085	13.394011976	0.471428571429	-0.901818181818	25.6088888889
18	0.009	20.4568862275	-0.957142857143	11.96	2.64
19	0.0095	17.6317365269	3.32857142857	-2.33090909091	-5.97333333333
20	0.01	4.91856287425	3.32857142857	-3.76	-13.1511111111
21	0.0105	14.8065868263	0.471428571429	-0.901818181818	-10.28
22	0.011	-14.8574850299	0.471428571429	-3.76	-8.84444444444
23	0.0115	-12.0323353293	-2.38571428571	-2.33090909091	-14.5866666667
24	0.012	-14.8574850299	3.32857142857	-0.901818181818	-8.84444444444
25	0.0125	-16.2700598802	-13.8142857143	0.527272727273	-7.40888888889
26	0.013	-16.2700598802	-10.9571428571	0.527272727273	-8.84444444444
27	0.0135	-3.55688622754	0.471428571429	3.38545454545	-8.84444444444
28	0.014	-12.0323353293	-0.957142857143	1.95636363636	-20.3288888889
29	0.0145	3.50598802395	-0.957142857143	-8.04727272727	-13.1511111111
30	0.015	10.5688622754	0.471428571429	4.81454545455	-13.1511111111
31	0.0155	10.5688622754	-3.81428571429	3.38545454545	-1.66666666667
32	0.016	-0.731736526946	0.471428571429	4.81454545455	19.8666666667
33	0.0165	2.09341317365	0.471428571429	4.81454545455	21.3022222222
34	0.017	3.50598802395	1.9	0.527272727273	1.20444444444
35	0.0175	3.50598802395	0.471428571429	-3.76	-0.231111111111
36	0.018	3.50598802395	1.9	3.38545454545	-4.53777777778
37	0.0185	0.680838323353	-3.81428571429	3.38545454545	-10.28
38	0.019	-10.619760479	-2.38571428571	6.24363636364	-11.7155555556
39	0.0195	9.15628742515	-0.957142857143	7.67272727273	-10.28
40	0.02	-6.38203592814	-3.81428571429	4.81454545455	15.56
41	0.0205	-7.79461077844	-2.38571428571	14.8181818182	5.51111111111
42	0.021	-4.96946107784	1.9	3.38545454545	11.2533333333
43	0.0215	-3.55688622754	-2.38571428571	-0.901818181818	4.07555555556
44	0.022	-7.79461077844	0.471428571429	0.527272727273	2.64
45	0.0225	0.680838323353	1.9	0.527272727273	-1.66666666667
46	0.023	10.5688622754	1.9	9.10181818182	-1.66666666667
47	0.0235	7.74371257485	0.471428571429	11.96	-3.10222222222
48	0.024	6.33113772455	1.9	0.527272727273	-3.10222222222
49	0.0245	7.74371257485	-5.24285714286	-0.901818181818	-4.53777777778
50	0.025	16.2191616766	4.75714285714	-0.901818181818	-7.40888888889
51	0.0255	3.50598802395	3.32857142857	-2.33090909091	-8.84444444444
52	0.026	3.50598802395	3.32857142857	-12.3345454545	-7.40888888889
53	0.0265	-6.38203592814	-0.957142857143	-9.47636363636	-8.84444444444
54	0.027	-9.20718562874	16.1857142857	-0.901818181818	-4.53777777778
55	0.0275	-10.619760479	0.471428571429	-0.901818181818	-4.53777777778
56	0.028	0.680838323353	-2.38571428571	-2.33090909091	-7.40888888889
57	0.0285	-6.38203592814	-5.24285714286	0.527272727273	-1.66666666667
58	0.029	2.09341317365	-2.38571428571	16.2472727273	-4.53777777778
59	0.0295	11.9814371257	-5.24285714286	9.10181818182	-4.53777777778
60	0.03	14.8065868263	-0.957142857143	-0.901818181818	-4.53777777778
61	0.0305	-4.96946107784	-0.957142857143	-0.901818181818	-4.53777777778
62	0.031	24.6946107784	-0.957142857143	-0.901818181818	-7.40888888889
63	0.0315	3.50598802395	0.471428571429	-10.9054545455	-4.53777777778
64	0.032	7.74371257485	0.471428571429	-5.18909090909	-3.10222222222
65	0.0325	2.09341317365	-6.67142857143	-5.18909090909	-0.231111111111
66	0.033	7.74371257485	10.4714285714	-3.76	2.64
67	0.0335	2.09341317365	7.61428571429	-3.76	8.38222222222
68	0.034	21.8694610778	17.6142857143	-6.61818181818	19.8666666667
69	0.0345	35.9952095808	4.75714285714	1.95636363636	15.56
70	0.035	33.1700598802	-2.38571428571	0.527272727273	-13.1511111111
71	0.0355	24.6946107784	-5.24285714286	-0.901818181818	-4.53777777778
72	0.036	20.4568862275	-12.3857142857	0.527272727273	2.64
73	0.0365	4.91856287425	-9.52857142857	1.95636363636	-1.66666666667
74	0.037	19.0443113772	-2.38571428571	-0.901818181818	-8.84444444444
75	0.0375	23.2820359281	1.9	-5.18909090909	-3.10222222222
76	0.038	23.2820359281	13.3285714286	-2.33090909091	-1.66666666667
77	0.0385	16.2191616766	16.1857142857	-3.76	-3.10222222222
78	0.039	9.15628742515	1.9	4.81454545455	-4.53777777778
79	0.0395	7.74371257485	-6.67142857143	9.10181818182	-8.84444444444
80	0.04	-6.38203592814	-2.38571428571	11.96	4.07555555556
81	0.0405	-2.14431137725	1.9	17.6763636364	-3.10222222222
82	0.041	4.91856287425	-0.957142857143	4.81454545455	-0.231111111111
83	0.0415	14.8065868263	-15.2428571429	6.24363636364	-1.66666666667
84	0.042	21.8694610778	-0.957142857143	6.24363636364	-1.66666666667
85	0.0425	27.519760479	1.9	3.38545454545	-1.66666666667
86	0.043	-14.8574850299	-0.957142857143	4.81454545455	-0.231111111111
87	0.0435	-20.5077844311	-2.38571428571	21.9636363636	-5.97333333333
88	0.044	-24.745508982	-2.38571428571	3.38545454545	-4.53777777778
89	0.0445	-23.3329341317	0.471428571429	4.81454545455	-3.10222222222
90	0.045	-21.9203592814	-10.9571428571	1.95636363636	-3.10222222222
91	0.0455	-12.0323353293	1.9	1.95636363636	-1.66666666667
92	0.046	-10.619760479	0.471428571429	1.95636363636	-8.84444444444
93	0.0465	-2.14431137725	6.18571428571	6.24363636364	-3.10222222222
94	0.047	-2.14431137725	10.4714285714	9.10181818182	-3.10222222222
95	0.0475	-0.731736526946	10.4714285714	-0.901818181818	-4.53777777778
96	0.048	2.09341317365	1.9	1.95636363636	-3.10222222222
97	0.0485	9.15628742515	-2.38571428571	0.527272727273	-4.53777777778
98	0.049	-9.20718562874	-0.957142857143	-0.901818181818	-10.28
99	0.0495	0.680838323353	-2.38571428571	-5.18909090909	-1.66666666667
100	0.05	16.2191616766	1.9	1.95636363636	-1.66666666667
101	0.0505	26.1071856287	17.6142857143	-0.901818181818	-3.10222222222
102	0.051	16.2191616766	-2.38571428571	0.527272727273	-0.231111111111
103	0.0515	-4.96946107784	-0.957142857143	4.81454545455	2.64
104	0.052	3.50598802395	-2.38571428571	4.81454545455	14.1244444444
105	0.0525	0.680838323353	-3.81428571429	0.527272727273	-7.40888888889
106	0.053	-0.731736526946	-6.67142857143	-3.76	-1.66666666667
107	0.0535	-4.96946107784	-2.38571428571	3.38545454545	-3.10222222222
108	0.054	-6.38203592814	-3.81428571429	1.95636363636	-3.10222222222
109	0.0545	9.15628742515	0.471428571429	0.527272727273	-4.53777777778
110	0.055	-4.96946107784	3.32857142857	-8.04727272727	-3.10222222222
111	0.0555	-0.731736526946	6.18571428571	13.3890909091	-0.231111111111
112	0.056	-0.731736526946	0.471428571429	9.10181818182	-3.10222222222
113	0.0565	-7.79461077844	-5.24285714286	-0.901818181818	-0.231111111111
114	0.057	-17.6826347305	-2.38571428571	-0.901818181818	-3.10222222222
115	0.0575	-16.2700598802	-2.38571428571	-0.901818181818	-5.97333333333
116	0.058	-3.55688622754	-3.81428571429	-2.33090909091	-4.53777777778
117	0.0585	-0.731736526946	3.32857142857	-3.76	-0.231111111111
118	0.059	-2.14431137725	16.1857142857	-0.901818181818	-3.10222222222
119	0.0595	-4.96946107784	1.9	0.527272727273	-3.10222222222
120	0.06	-16.2700598802	6.18571428571	-0.901818181818	-5.97333333333
121	0.0605	-12.0323353293	9.04285714286	1.95636363636	6.94666666667
122	0.061	-4.96946107784	10.4714285714	0.527272727273	-16.0222222222
123	0.0615	-0.731736526946	0.471428571429	-10.9054545455	-8.84444444444
124	0.062	3.50598802395	-5.24285714286	-8.04727272727	-7.40888888889
125	0.0625	9.15628742515	-2.38571428571	0.527272727273	-5.97333333333
126	0.063	16.2191616766	-0.957142857143	4.81454545455	-16.0222222222
127	0.0635	9.15628742515	-0.957142857143	6.24363636364	-5.97333333333
128	0.064	17.6317365269	-2.38571428571	-6.61818181818	-5.97333333333
129	0.0645	28.9323353293	-0.957142857143	4.81454545455	-5.97333333333
130	0.065	27.519760479	13.3285714286	3.38545454545	-5.97333333333
131	0.0655	20.4568862275	-6.67142857143	3.38545454545	-3.10222222222
132	0.066	24.6946107784	-6.67142857143	3.38545454545	-1.66666666667
133	0.0665	21.8694610778	-5.24285714286	-5.18909090909	-3.10222222222
134	0.067	23.2820359281	3.32857142857	20.5345454545	-1.66666666667
135	0.0675	21.8694610778	6.18571428571	19.1054545455	-5.97333333333
136	0.068	26.1071856287	6.18571428571	0.527272727273	-0.231111111111
137	0.0685	28.9323353293	13.3285714286	0.527272727273	2.64
138	0.069	43.0580838323	10.4714285714	1.95636363636	-1.66666666667
139	0.0695	21.8694610778	1.9	-0.901818181818	-4.53777777778
140	0.07	13.394011976	0.471428571429	0.527272727273	4.07555555556
141	0.0705	-7.79461077844	-3.81428571429	0.527272727273	-5.97333333333
142	0.071	-16.2700598802	6.18571428571	3.38545454545	-3.10222222222
143	0.0715	-21.9203592814	9.04285714286	0.527272727273	-3.10222222222
144	0.072	-31.8083832335	-0.957142857143	-0.901818181818	-1.66666666667
145	0.0725	-21.9203592814	-10.9571428571	1.95636363636	-10.28
146	0.073	-23.3329341317	-10.9571428571	-3.76	-10.28
147	0.0735	-17.6826347305	-5.24285714286	-6.61818181818	-4.53777777778
148	0.074	-9.20718562874	-5.24285714286	0.527272727273	-3.10222222222
149	0.0745	-0.731736526946	-3.81428571429	-0.901818181818	-7.40888888889
150	0.075	21.8694610778	0.471428571429	0.527272727273	-5.97333333333
151	0.0755	0.680838323353	3.32857142857	3.38545454545	-8.84444444444
152	0.076	-2.14431137725	0.471428571429	1.95636363636	-16.0222222222
153	0.0765	-6.38203592814	6.18571428571	1.95636363636	-11.7155555556
154	0.077	-2.14431137725	-3.81428571429	-0.901818181818	-8.84444444444
155	0.0775	10.5688622754	0.471428571429	-0.901818181818	-8.84444444444
156	0.078	24.6946107784	-0.957142857143	0.527272727273	-17.4577777778
157	0.0785	2.09341317365	-2.38571428571	-6.61818181818	-7.40888888889
158	0.079	-0.731736526946	-2.38571428571	-5.18909090909	-5.97333333333
159	0.0795	-0.731736526946	-6.67142857143	1.95636363636	-4.53777777778
160	0.08	0.680838323353	0.471428571429	1.95636363636	-3.10222222222
161	0.0805	-7.79461077844	0.471428571429	0.527272727273	-1.66666666667
162	0.081	-4.96946107784	1.9	1.95636363636	-3.10222222222
163	0.0815	-0.731736526946	0.471428571429	-8.04727272727	1.20444444444
164	0.082	-2.14431137725	0.471428571429	-5.18909090909	1.20444444444
165	0.0825	-3.55688622754	3.32857142857	-6.61818181818	-3.10222222222
166	0.083	-3.55688622754	20.4714285714	-0.901818181818	-0.231111111111
167	0.0835	-2.14431137725	7.61428571429	1.95636363636	6.94666666667
168	0.084	-7.79461077844	6.18571428571	0.527272727273	15.56
169	0.0845	-2.14431137725	9.04285714286	-0.901818181818	35.6577777778
170	0.085	-0.731736526946	16.1857142857	17.6763636364	4.07555555556
171	0.0855	0.680838323353	4.75714285714	-0.901818181818	-4.53777777778
172	0.086	0.680838323353	0.471428571429	-0.901818181818	-8.84444444444
173	0.0865	-7.79461077844	-0.957142857143	0.527272727273	-7.40888888889
174	0.087	0.680838323353	-2.38571428571	4.81454545455	-14.5866666667
175	0.0875	7.74371257485	-10.9571428571	4.81454545455	-17.4577777778
176	0.088	0.680838323353	-6.67142857143	-10.9054545455	-4.53777777778
177	0.0885	0.680838323353	-2.38571428571	-0.901818181818	-1.66666666667
178	0.089	2.09341317365	3.32857142857	-0.901818181818	-3.10222222222
179	0.0895	21.8694610778	0.471428571429	-0.901818181818	-3.10222222222
180	0.09	-6.38203592814	-0.957142857143	3.38545454545	11.2533333333
181	0.0905	2.09341317365	-2.38571428571	0.527272727273	-17.4577777778
182	0.091	2.09341317365	-0.957142857143	-8.04727272727	-10.28
183	0.0915	10.5688622754	-0.957142857143	-8.04727272727	-11.7155555556
184	0.092	14.8065868263	-6.67142857143	1.95636363636	-13.1511111111
185	0.0925	2.09341317365	1.9	0.527272727273	-14.5866666667
186	0.093	3.50598802395	1.9	3.38545454545	-14.5866666667
187	0.0935	0.680838323353	0.471428571429	0.527272727273	-14.5866666667
188	0.094	3.50598802395	1.9	-5.18909090909	-8.84444444444
189	0.0945	9.15628742515	14.7571428571	-3.76	-1.66666666667
190	0.095	3.50598802395	9.04285714286	0.527272727273	4.07555555556
191	0.0955	9.15628742515	4.75714285714	-0.901818181818	5.51111111111
192	0.096	34.5826347305	0.471428571429	-2.33090909091	-4.53777777778
193	0.0965	51.5335329341	-0.957142857143	-2.33090909091	21.3022222222
194	0.097	55.771257485	-2.38571428571	9.10181818182	8.38222222222
195	0.0975	44.4706586826	3.32857142857	-0.901818181818	4.07555555556
196	0.098	17.6317365269	-2.38571428571	-0.901818181818	-4.53777777778
197	0.0985	-6.38203592814	0.471428571429	-0.901818181818	-4.53777777778
198	0.099	-2.14431137725	3.32857142857	4.81454545455	-8.84444444444
199	0.0995	-10.619760479	1.9	21.9636363636	-3.10222222222
200	0.1	-17.6826347305	-0.957142857143	-6.61818181818	-0.231111111111
201	0.1005	-21.9203592814	4.75714285714	-6.61818181818	-3.10222222222
202	0.101	-24.745508982	-6.67142857143	3.38545454545	-5.97333333333
203	0.1015	-31.8083832335	-5.24285714286	3.38545454545	-8.84444444444
204	0.102	-30.3958083832	1.9	6.24363636364	-11.7155555556
205	0.1025	-31.8083832335	1.9	6.24363636364	-3.10222222222
206	0.103	-27.5706586826	0.471428571429	-0.901818181818	-8.84444444444
207	0.1035	-16.2700598802	6.18571428571	3.38545454545	-7.40888888889
208	0.104	2.09341317365	1.9	4.81454545455	-5.97333333333
209	0.1045	4.91856287425	1.9	4.81454545455	-5.97333333333
210	0.105	16.2191616766	1.9	0.527272727273	-8.84444444444
211	0.1055	9.15628742515	0.471428571429	-0.901818181818	-1.66666666667
212	0.106	-0.731736526946	1.9	0.527272727273	-4.53777777778
213	0.1065	-3.55688622754	6.18571428571	0.527272727273	-4.53777777778
214	0.107	-9.20718562874	3.32857142857	1.95636363636	-3.10222222222
215	0.1075	-26.1580838323	3.32857142857	0.527272727273	8.38222222222
216	0.108	-24.745508982	3.32857142857	0.527272727273	29.9155555556
217	0.1085	-17.6826347305	0.471428571429	11.96	15.56
218	0.109	-21.9203592814	1.9	14.8181818182	8.38222222222
219	0.1095	-14.8574850299	10.4714285714	1.95636363636	2.64
220	0.11	-0.731736526946	0.471428571429	0.527272727273	-3.10222222222
221	0.1105	30.3449101796	4.75714285714	1.95636363636	-7.40888888889
222	0.111	14.8065868263	-2.38571428571	-0.901818181818	6.94666666667
223	0.1115	3.50598802395	-6.67142857143	-0.901818181818	-7.40888888889
224	0.112	-3.55688622754	-12.3857142857	-0.901818181818	-4.53777777778
225	0.1125	-6.38203592814	9.04285714286	-0.901818181818	-3.10222222222
226	0.113	-9.20718562874	0.471428571429	-0.901818181818	-4.53777777778
227	0.1135	11.9814371257	4.75714285714	-0.901818181818	-8.84444444444
228	0.114	-7.79461077844	6.18571428571	-0.901818181818	-17.4577777778
229	0.1145	-10.619760479	4.75714285714	-3.76	-5.97333333333
230	0.115	-14.8574850299	-2.38571428571	-0.901818181818	-3.10222222222
231	0.1155	-13.4449101796	3.32857142857	-2.33090909091	-4.53777777778
232	0.116	-7.79461077844	-5.24285714286	-5.18909090909	-5.97333333333
233	0.1165	19.0443113772	0.471428571429	-5.18909090909	-7.40888888889
234	0.117	11.9814371257	-0.957142857143	-2.33090909091	-14.5866666667
235	0.1175	4.91856287425	-0.957142857143	-12.3345454545	-3.10222222222
236	0.118	-3.55688622754	-2.38571428571	-0.901818181818	-4.53777777778
237	0.1185	-4.96946107784	-0.957142857143	0.527272727273	-4.53777777778
238	0.119	-2.14431137725	-3.81428571429	1.95636363636	-1.66666666667
239	0.1195	-12.0323353293	1.9	0.527272727273	-3.10222222222
240	0.12	-0.731736526946	-0.957142857143	3.38545454545	-16.0222222222
241	0.1205	2.09341317365	4.75714285714	1.95636363636	6.94666666667
242	0.121	0.680838323353	3.32857142857	17.6763636364	-10.28
243	0.1215	2.09341317365	4.75714285714	0.527272727273	-13.1511111111
244	0.122	3.50598802395	13.3285714286	-0.901818181818	-7.40888888889
245	0.1225	17.6317365269	1.9	-0.901818181818	-3.10222222222
246	0.123	3.50598802395	0.471428571429	3.38545454545	12.6888888889
247	0.1235	7.74371257485	0.471428571429	4.81454545455	-13.1511111111
248	0.124	4.91856287425	1.9	-5.18909090909	-1.66666666667
249	0.1245	7.74371257485	-6.67142857143	-0.901818181818	-1.66666666667
250	0.125	11.9814371257	0.471428571429	4.81454545455	-5.97333333333
251	0.1255	0.680838323353	4.75714285714	4.81454545455	-3.10222222222
252	0.126	26.1071856287	4.75714285714	4.81454545455	-16.0222222222
253	0.1265	23.2820359281	1.9	1.95636363636	-13.1511111111
254	0.127	17.6317365269	0.471428571429	7.67272727273	-7.40888888889
255	0.1275	2.09341317365	0.471428571429	1.95636363636	-4.53777777778
256	0.128	-7.79461077844	-8.1	1.95636363636	-3.10222222222
257	0.1285	-16.2700598802	-2.38571428571	3.38545454545	-13.1511111111
258	0.129	-2.14431137725	4.75714285714	6.24363636364	-14.5866666667
259	0.1295	3.50598802395	3.32857142857	-9.47636363636	-16.0222222222
260	0.13	0.680838323353	-8.1	-5.18909090909	-11.7155555556
261	0.1305	-2.14431137725	-10.9571428571	4.81454545455	-4.53777777778
262	0.131	-12.0323353293	-15.2428571429	1.95636363636	-4.53777777778
263	0.1315	-9.20718562874	0.471428571429	1.95636363636	-4.53777777778
264	0.132	-12.0323353293	13.3285714286	-8.04727272727	-10.28
265	0.1325	-9.20718562874	20.4714285714	0.527272727273	-4.53777777778
266	0.133	-4.96946107784	17.6142857143	6.24363636364	-0.231111111111
267	0.1335	-4.96946107784	17.6142857143	1.95636363636	11.2533333333
268	0.134	-4.96946107784	6.18571428571	1.95636363636	18.4311111111
269	0.1345	10.5688622754	-0.957142857143	4.81454545455	18.4311111111
270	0.135	-0.731736526946	-5.24285714286	3.38545454545	12.6888888889
271	0.1355	-2.14431137725	-9.52857142857	14.8181818182	-3.10222222222
272	0.136	-0.731736526946	-6.67142857143	19.1054545455	-8.84444444444
273	0.1365	-0.731736526946	-2.38571428571	1.95636363636	-7.40888888889
274	0.137	2.09341317365	0.471428571429	3.38545454545	-8.84444444444
275	0.1375	-4.96946107784	-6.67142857143	0.527272727273	-8.84444444444
276	0.138	-9.20718562874	-6.67142857143	4.81454545455	-8.84444444444
277	0.1385	-0.731736526946	1.9	0.527272727273	-16.0222222222
278	0.139	-4.96946107784	6.18571428571	-2.33090909091	-10.28
279	0.1395	-4.96946107784	6.18571428571	-2.33090909091	-8.84444444444
280	0.14	-0.731736526946	6.18571428571	0.527272727273	-8.84444444444
281	0.1405	-16.2700598802	7.61428571429	0.527272727273	-5.97333333333
282	0.141	-9.20718562874	4.75714285714	0.527272727273	-20.3288888889
283	0.1415	-3.55688622754	-0.957142857143	-12.3345454545	-4.53777777778
284	0.142	3.50598802395	-2.38571428571	-8.04727272727	-0.231111111111
285	0.1425	9.15628742515	-5.24285714286	-6.61818181818	6.94666666667
286	0.143	11.9814371257	0.471428571429	-0.901818181818	9.81777777778
287	0.1435	-2.14431137725	16.1857142857	0.527272727273	12.6888888889
288	0.144	14.8065868263	6.18571428571	7.67272727273	6.94666666667
289	0.1445	16.2191616766	-2.38571428571	4.81454545455	12.6888888889
290	0.145	17.6317365269	-10.9571428571	-6.61818181818	6.94666666667
291	0.1455	17.6317365269	-8.1	3.38545454545	-3.10222222222
292	0.146	9.15628742515	-2.38571428571	3.38545454545	-10.28
293	0.1465	26.1071856287	0.471428571429	3.38545454545	-13.1511111111
294	0.147	4.91856287425	-0.957142857143	0.527272727273	-13.1511111111
295	0.1475	2.09341317365	-3.81428571429	0.527272727273	-0.231111111111
296	0.148	-0.731736526946	-5.24285714286	17.6763636364	-7.40888888889
297	0.1485	3.50598802395	-19.5285714286	3.38545454545	-5.97333333333
298	0.149	7.74371257485	-10.9571428571	1.95636363636	-4.53777777778
299	0.1495	-12.0323353293	-12.3857142857	-0.901818181818	-4.53777777778
300	0.15	-10.619760479	3.32857142857	0.527272727273	-4.53777777778
301	0.1505	-2.14431137725	20.4714285714	-3.76	-11.7155555556
302	0.151	-10.619760479	20.4714285714	-2.33090909091	-5.97333333333
303	0.1515	-12.0323353293	20.4714285714	-0.901818181818	-4.53777777778
304	0.152	-12.0323353293	-12.3857142857	3.38545454545	-5.97333333333
305	0.1525	9.15628742515	-5.24285714286	3.38545454545	-3.10222222222
306	0.153	-16.2700598802	-0.957142857143	0.527272727273	-4.53777777778
307	0.1535	-4.96946107784	0.471428571429	-3.76	-11.7155555556
308	0.154	-2.14431137725	-2.38571428571	-3.76	-3.10222222222
309	0.1545	2.09341317365	-10.9571428571	-6.61818181818	-3.10222222222
310	0.155	13.394011976	-3.81428571429	-0.901818181818	-4.53777777778
311	0.1555	23.2820359281	0.471428571429	-2.33090909091	-14.5866666667
312	0.156	7.74371257485	0.471428571429	3.38545454545	-7.40888888889
313	0.1565	9.15628742515	9.04285714286	14.8181818182	-4.53777777778
314	0.157	10.5688622754	24.7571428571	-9.47636363636	-3.10222222222
315	0.1575	10.5688622754	40.4714285714	-5.18909090909	1.20444444444
316	0.158	-3.55688622754	13.3285714286	-3.76	11.2533333333
317	0.1585	-13.4449101796	-6.67142857143	-3.76	18.4311111111
318	0.159	-13.4449101796	-5.24285714286	-3.76	11.2533333333
319	0.1595	-0.731736526946	-3.81428571429	14.8181818182	-3.10222222222
320	0.16	2.09341317365	-0.957142857143	-2.33090909091	-7.40888888889
321	0.1605	3.50598802395	0.471428571429	-0.901818181818	-8.84444444444
322	0.161	-2.14431137725	-8.1	-2.33090909091	-13.1511111111
323	0.1615	3.50598802395	-12.3857142857	0.527272727273	-11.7155555556
324	0.162	-10.619760479	-12.3857142857	3.38545454545	-7.40888888889
325	0.1625	-0.731736526946	-8.1	1.95636363636	2.64
326	0.163	-3.55688622754	0.471428571429	11.96	-5.97333333333
327	0.1635	-9.20718562874	26.1857142857	7.67272727273	-7.40888888889
328	0.164	-12.0323353293	17.6142857143	9.10181818182	-10.28
329	0.1645	9.15628742515	-0.957142857143	7.67272727273	-24.6355555556
330	0.165	-4.96946107784	-6.67142857143	9.10181818182	-5.97333333333
331	0.1655	0.680838323353	-0.957142857143	16.2472727273	5.51111111111
332	0.166	-2.14431137725	3.32857142857	7.67272727273	-7.40888888889
333	0.1665	4.91856287425	3.32857142857	6.24363636364	-7.40888888889
334	0.167	11.9814371257	10.4714285714	3.38545454545	-4.53777777778
335	0.1675	31.7574850299	-2.38571428571	3.38545454545	-5.97333333333
336	0.168	16.2191616766	-3.81428571429	0.527272727273	-3.10222222222
337	0.1685	10.5688622754	-5.24285714286	-0.901818181818	24.1733333333
338	0.169	-0.731736526946	-0.957142857143	11.96	6.94666666667
339	0.1695	-7.79461077844	0.471428571429	-0.901818181818	12.6888888889
340	0.17	4.91856287425	1.9	-0.901818181818	11.2533333333
341	0.1705	10.5688622754	13.3285714286	0.527272727273	-5.97333333333
342	0.171	11.9814371257	0.471428571429	4.81454545455	-10.28
343	0.1715	-2.14431137725	-6.67142857143	17.6763636364	-1.66666666667
344	0.172	-12.0323353293	-8.1	0.527272727273	-4.53777777778
345	0.1725	-9.20718562874	-2.38571428571	0.527272727273	-3.10222222222
346	0.173	-9.20718562874	4.75714285714	-0.901818181818	-4.53777777778
347	0.1735	0.680838323353	3.32857142857	0.527272727273	-4.53777777778
348	0.174	-7.79461077844	1.9	0.527272727273	-14.5866666667
349	0.1745	-3.55688622754	0.471428571429	-9.47636363636	-4.53777777778
350	0.175	-0.731736526946	9.04285714286	0.527272727273	-5.97333333333
351	0.1755	0.680838323353	1.9	0.527272727273	-4.53777777778
352	0.176	4.91856287425	14.7571428571	0.527272727273	-7.40888888889
353	0.1765	-4.96946107784	9.04285714286	-0.901818181818	-5.97333333333
354	0.177	9.15628742515	3.32857142857	-3.76	-17.4577777778
355	0.1775	11.9814371257	1.9	-0.901818181818	-21.7644444444
356	0.178	16.2191616766	0.471428571429	-2.33090909091	-14.5866666667
357	0.1785	17.6317365269	-9.52857142857	-2.33090909091	-16.0222222222
358	0.179	24.6946107784	-3.81428571429	0.527272727273	-14.5866666667
359	0.1795	41.645508982	-8.1	3.38545454545	-13.1511111111
360	0.18	28.9323353293	-5.24285714286	-0.901818181818	-14.5866666667
361	0.1805	30.3449101796	1.9	-8.04727272727	-8.84444444444
362	0.181	33.1700598802	6.18571428571	-8.04727272727	-7.40888888889
363	0.1815	33.1700598802	21.9	-3.76	-3.10222222222
364	0.182	27.519760479	-9.52857142857	-3.76	-5.97333333333
365	0.1825	37.4077844311	0.471428571429	0.527272727273	-4.53777777778
366	0.183	13.394011976	0.471428571429	0.527272727273	-0.231111111111
367	0.1835	10.5688622754	-0.957142857143	-0.901818181818	24.1733333333
368	0.184	0.680838323353	-3.81428571429	3.38545454545	2.64
369	0.1845	-4.96946107784	4.75714285714	4.81454545455	1.20444444444
370	0.185	-14.8574850299	-0.957142857143	-0.901818181818	2.64
371	0.1855	-19.0952095808	0.471428571429	4.81454545455	-0.231111111111
372	0.186	-3.55688622754	0.471428571429	4.81454545455	2.64
373	0.1865	0.680838323353	1.9	-6.61818181818	6.94666666667
374	0.187	4.91856287425	6.18571428571	-9.47636363636	11.2533333333
375	0.1875	0.680838323353	16.1857142857	0.527272727273	5.51111111111
376	0.188	-4.96946107784	0.471428571429	-0.901818181818	-1.66666666667
377	0.1885	-16.2700598802	0.471428571429	0.527272727273	-4.53777777778
378	0.189	-23.3329341317	1.9	3.38545454545	-11.7155555556
379	0.1895	-20.5077844311	4.75714285714	0.527272727273	-17.4577777778
380	0.19	-20.5077844311	0.471428571429	-5.18909090909	-7.40888888889
381	0.1905	-21.9203592814	-2.38571428571	0.527272727273	-5.97333333333
382	0.191	-26.1580838323	-5.24285714286	0.527272727273	-4.53777777778
383	0.1915	-31.8083832335	0.471428571429	0.527272727273	-1.66666666667
384	0.192	-24.745508982	0.471428571429	-0.901818181818	-3.10222222222
385	0.1925	-12.0323353293	1.9	3.38545454545	-11.7155555556
386	0.193	-4.96946107784	-3.81428571429	-8.04727272727	-3.10222222222
387	0.1935	0.680838323353	-6.67142857143	-10.9054545455	-3.10222222222
388	0.194	10.5688622754	14.7571428571	0.527272727273	-4.53777777778
389	0.1945	4.91856287425	4.75714285714	0.527272727273	-5.97333333333
390	0.195	20.4568862275	3.32857142857	-0.901818181818	-8.84444444444
391	0.1955	0.680838323353	0.471428571429	-2.33090909091	-14.5866666667
392	0.196	-4.96946107784	-0.957142857143	-0.901818181818	6.94666666667
393	0.1965	-4.96946107784	-3.81428571429	0.527272727273	-5.97333333333
394	0.197	-3.55688622754	6.18571428571	1.95636363636	-4.53777777778
395	0.1975	-6.38203592814	1.9	0.527272727273	-5.97333333333
396	0.198	-7.79461077844	7.61428571429	1.95636363636	-5.97333333333
397	0.1985	-6.38203592814	6.18571428571	-2.33090909091	-7.40888888889
398	0.199	-3.55688622754	1.9	0.527272727273	6.94666666667
399	0.1995	-7.79461077844	0.471428571429	3.38545454545	-3.10222222222
400	0.2	-9.20718562874	-12.3857142857	6.24363636364	-1.66666666667
401	0.2005	0.680838323353	-10.9571428571	7.67272727273	-3.10222222222
402	0.201	-3.55688622754	-9.52857142857	1.95636363636	-1.66666666667
403	0.2015	-0.731736526946	-3.81428571429	1.95636363636	-5.97333333333
404	0.202	4.91856287425	3.32857142857	-0.901818181818	-11.7155555556
405	0.2025	0.680838323353	10.4714285714	-5.18909090909	-3.10222222222
406	0.203	-3.55688622754	4.75714285714	-9.47636363636	-1.66666666667
407	0.2035	-3.55688622754	6.18571428571	-6.61818181818	-0.231111111111
408	0.204	9.15628742515	1.9	-3.76	1.20444444444
409	0.2045	-14.8574850299	-2.38571428571	-0.901818181818	14.1244444444
410	0.205	-6.38203592814	-2.38571428571	3.38545454545	14.1244444444
411	0.2055	-4.96946107784	0.471428571429	7.67272727273	-11.7155555556
412	0.206	-4.96946107784	0.471428571429	-6.61818181818	-5.97333333333
413	0.2065	-10.619760479	14.7571428571	1.95636363636	-8.84444444444
414	0.207	-12.0323353293	16.1857142857	3.38545454545	-8.84444444444
415	0.2075	-13.4449101796	-0.957142857143	1.95636363636	-7.40888888889
416	0.208	3.50598802395	-0.957142857143	3.38545454545	-5.97333333333
417	0.2085	7.74371257485	-0.957142857143	-0.901818181818	-7.40888888889
418	0.209	3.50598802395	-2.38571428571	0.527272727273	-5.97333333333
419	0.2095	2.09341317365	-5.24285714286	3.38545454545	-7.40888888889
420	0.21	3.50598802395	-2.38571428571	1.95636363636	-8.84444444444
421	0.2105	21.8694610778	0.471428571429	1.95636363636	-5.97333333333
422	0.211	3.50598802395	-0.957142857143	3.38545454545	-18.8933333333
423	0.2115	9.15628742515	-3.81428571429	-6.61818181818	-14.5866666667
424	0.212	7.74371257485	3.32857142857	-2.33090909091	-10.28
425	0.2125	7.74371257485	17.6142857143	1.95636363636	-11.7155555556
426	0.213	9.15628742515	4.75714285714	4.81454545455	-10.28
427	0.2135	10.5688622754	3.32857142857	3.38545454545	-4.53777777778
428	0.214	7.74371257485	0.471428571429	3.38545454545	-11.7155555556
429	0.2145	4.91856287425	0.471428571429	-8.04727272727	-1.66666666667
430	0.215	9.15628742515	1.9	-3.76	-0.231111111111
431	0.2155	19.0443113772	19.0428571429	1.95636363636	-3.10222222222
432	0.216	28.9323353293	-5.24285714286	1.95636363636	-1.66666666667
433	0.2165	41.645508982	-2.38571428571	-0.901818181818	-1.66666666667
434	0.217	11.9814371257	-0.957142857143	-0.901818181818	14.1244444444
435	0.2175	11.9814371257	-0.957142857143	-2.33090909091	6.94666666667
436	0.218	11.9814371257	1.9	-2.33090909091	2.64
437	0.2185	11.9814371257	-8.1	0.527272727273	-13.1511111111
438	0.219	13.394011976	-10.9571428571	-0.901818181818	-16.0222222222
439	0.2195	23.2820359281	-2.38571428571	1.95636363636	-10.28
440	0.22	-9.20718562874	-0.957142857143	1.95636363636	12.6888888889
441	0.2205	-0.731736526946	-0.957142857143	1.95636363636	-8.84444444444
442	0.221	3.50598802395	0.471428571429	0.527272727273	-18.8933333333
443	0.2215	11.9814371257	-3.81428571429	0.527272727273	-11.7155555556
444	0.222	7.74371257485	6.18571428571	0.527272727273	-13.1511111111
445	0.2225	-2.14431137725	3.32857142857	0.527272727273	-8.84444444444
446	0.223	-10.619760479	0.471428571429	1.95636363636	21.3022222222
447	0.2235	4.91856287425	0.471428571429	0.527272727273	29.9155555556
448	0.224	26.1071856287	0.471428571429	14.8181818182	19.8666666667
449	0.2245	30.3449101796	3.32857142857	11.96	21.3022222222
450	0.225	21.8694610778	9.04285714286	1.95636363636	8.38222222222
451	0.2255	6.33113772455	0.471428571429	3.38545454545	-4.53777777778
452	0.226	-16.2700598802	3.32857142857	-0.901818181818	-1.66666666667
453	0.2265	-16.2700598802	4.75714285714	3.38545454545	11.2533333333
454	0.227	-20.5077844311	4.75714285714	13.3890909091	-5.97333333333
455	0.2275	-14.8574850299	1.9	-0.901818181818	-5.97333333333
456	0.228	-4.96946107784	-2.38571428571	-0.901818181818	-8.84444444444
457	0.2285	14.8065868263	-5.24285714286	0.527272727273	-5.97333333333
458	0.229	10.5688622754	-5.24285714286	-0.901818181818	-1.66666666667
459	0.2295	16.2191616766	-5.24285714286	0.527272727273	11.2533333333
460	0.23	14.8065868263	-0.957142857143	13.3890909091	-7.40888888889
461	0.2305	13.394011976	-15.2428571429	-6.61818181818	-7.40888888889
462	0.231	9.15628742515	-5.24285714286	-2.33090909091	-7.40888888889
463	0.2315	4.91856287425	13.3285714286	-2.33090909091	-4.53777777778
464	0.232	-9.20718562874	16.1857142857	-2.33090909091	-8.84444444444
465	0.2325	-3.55688622754	6.18571428571	-2.33090909091	-13.1511111111
466	0.233	-6.38203592814	-2.38571428571	-2.33090909091	14.1244444444
467	0.2335	-12.0323353293	-5.24285714286	14.8181818182	-7.40888888889
468	0.234	-14.8574850299	-6.67142857143	0.527272727273	-4.53777777778
469	0.2345	-12.0323353293	-2.38571428571	4.81454545455	-8.84444444444
470	0.235	-4.96946107784	-6.67142857143	4.81454545455	-7.40888888889
471	0.2355	-14.8574850299	0.471428571429	7.67272727273	-0.231111111111
472	0.236	-13.4449101796	0.471428571429	11.96	-1.66666666667
473	0.2365	-9.20718562874	0.471428571429	21.9636363636	-3.10222222222
474	0.237	-6.38203592814	-5.24285714286	4.81454545455	-3.10222222222
475	0.2375	-13.4449101796	1.9	3.38545454545	-3.10222222222
476	0.238	2.09341317365	1.9	6.24363636364	-7.40888888889
477	0.2385	-3.55688622754	-0.957142857143	-8.04727272727	-7.40888888889
478	0.239	-3.55688622754	-2.38571428571	-8.04727272727	-8.84444444444
479	0.2395	-3.55688622754	0.471428571429	1.95636363636	-8.84444444444
480	0.24	-4.96946107784	-12.3857142857	3.38545454545	-8.84444444444
481	0.2405	-7.79461077844	1.9	0.527272727273	-10.28
482	0.241	7.74371257485	3.32857142857	0.527272727273	-8.84444444444
483	0.2415	-12.0323353293	3.32857142857	-0.901818181818	-8.84444444444
484	0.242	-3.55688622754	-2.38571428571	6.24363636364	-4.53777777778
485	0.2425	-3.55688622754	1.9	-2.33090909091	-4.53777777778
486	0.243	-2.14431137725	14.7571428571	-2.33090909091	-5.97333333333
487	0.2435	-2.14431137725	4.75714285714	-0.901818181818	-1.66666666667
488	0.244	-6.38203592814	-2.38571428571	0.527272727273	8.38222222222
489	0.2445	-4.96946107784	6.18571428571	-3.76	6.94666666667
490	0.245	-4.96946107784	6.18571428571	-9.47636363636	14.1244444444
491	0.2455	-6.38203592814	-0.957142857143	-9.47636363636	4.07555555556
492	0.246	-7.79461077844	6.18571428571	-0.901818181818	-3.10222222222
493	0.2465	-7.79461077844	-5.24285714286	0.527272727273	-4.53777777778
494	0.247	-2.14431137725	-3.81428571429	1.95636363636	-11.7155555556
495	0.2475	-9.20718562874	-0.957142857143	-5.18909090909	-10.28
496	0.248	-6.38203592814	3.32857142857	1.95636363636	-10.28
497	0.2485	-4.96946107784	10.4714285714	1.95636363636	-7.40888888889
498	0.249	-4.96946107784	20.4714285714	1.95636363636	-5.97333333333
499	0.2495	-14.8574850299	1.9	1.95636363636	-8.84444444444
500	0.25	13.394011976	-3.81428571429	4.81454545455	-5.97333333333
501	0.2505	-0.731736526946	-5.24285714286	3.38545454545	-7.40888888889
502	0.251	2.09341317365	0.471428571429	17.6763636364	-3.10222222222
503	0.2515	-0.731736526946	4.75714285714	1.95636363636	-3.10222222222
504	0.252	-0.731736526946	-5.24285714286	3.38545454545	-5.97333333333
505	0.2525	4.91856287425	0.471428571429	3.38545454545	-4.53777777778
506	0.253	21.8694610778	-0.957142857143	0.527272727273	-5.97333333333
507	0.2535	7.74371257485	0.471428571429	3.38545454545	-5.97333333333
508	0.254	9.15628742515	13.3285714286	13.3890909091	-5.97333333333
509	0.2545	3.50598802395	13.3285714286	-0.901818181818	-4.53777777778
510	0.255	7.74371257485	13.3285714286	-0.901818181818	-4.53777777778
511	0.2555	-4.96946107784	-0.957142857143	0.527272727273	-1.66666666667
512	0.256	-0.731736526946	-3.81428571429	-0.901818181818	-3.10222222222
513	0.2565	4.91856287425	0.471428571429	-5.18909090909	-14.5866666667
514	0.257	4.91856287425	1.9	-10.9054545455	-5.97333333333
515	0.2575	3.50598802395	-0.957142857143	-12.3345454545	-5.97333333333
516	0.258	3.50598802395	16.1857142857	-5.18909090909	-7.40888888889
517	0.2585	0.680838323353	-9.52857142857	-0.901818181818	-8.84444444444
518	0.259	14.8065868263	3.32857142857	0.527272727273	-10.28
519	0.2595	2.09341317365	3.32857142857	0.527272727273	-11.7155555556
520	0.26	7.74371257485	1.9	-3.76	-13.1511111111
521	0.2605	0.680838323353	4.75714285714	-2.33090909091	-11.7155555556
522	0.261	3.50598802395	0.471428571429	-0.901818181818	-10.28
523	0.2615	6.33113772455	9.04285714286	-0.901818181818	-13.1511111111
524	0.262	13.394011976	14.7571428571	0.527272727273	-11.7155555556
525	0.2625	0.680838323353	9.04285714286	3.38545454545	-7.40888888889
526	0.263	4.91856287425	4.75714285714	-6.61818181818	18.4311111111
527	0.2635	4.91856287425	3.32857142857	3.38545454545	24.1733333333
528	0.264	9.15628742515	-10.9571428571	0.527272727273	12.6888888889
529	0.2645	3.50598802395	-13.8142857143	0.527272727273	-1.66666666667
530	0.265	14.8065868263	-10.9571428571	3.38545454545	-10.28
531	0.2655	-0.731736526946	-3.81428571429	0.527272727273	-8.84444444444
532	0.266	-0.731736526946	-3.81428571429	4.81454545455	5.51111111111
533	0.2665	2.09341317365	-10.9571428571	3.38545454545	1.20444444444
534	0.267	4.91856287425	-0.957142857143	3.38545454545	4.07555555556
535	0.2675	10.5688622754	6.18571428571	1.95636363636	-0.231111111111
536	0.268	3.50598802395	17.6142857143	4.81454545455	8.38222222222
537	0.2685	3.50598802395	17.6142857143	9.10181818182	-5.97333333333
538	0.269	-0.731736526946	6.18571428571	4.81454545455	-8.84444444444
539	0.2695	-0.731736526946	-3.81428571429	0.527272727273	-3.10222222222
540	0.27	-4.96946107784	-5.24285714286	-0.901818181818	-1.66666666667
541	0.2705	-2.14431137725	6.18571428571	3.38545454545	-3.10222222222
542	0.271	17.6317365269	3.32857142857	-0.901818181818	-10.28
543	0.2715	10.5688622754	-0.957142857143	1.95636363636	-8.84444444444
544	0.272	19.0443113772	-0.957142857143	-2.33090909091	6.94666666667
545	0.2725	17.6317365269	-6.67142857143	-0.901818181818	-4.53777777778
546	0.273	4.91856287425	3.32857142857	0.527272727273	-4.53777777778
547	0.2735	-6.38203592814	-5.24285714286	-2.33090909091	-3.10222222222
548	0.274	2.09341317365	-6.67142857143	-2.33090909091	-13.1511111111
549	0.2745	-23.3329341317	-6.67142857143	-6.61818181818	-3.10222222222
550	0.275	-24.745508982	0.471428571429	-8.04727272727	-4.53777777778
551	0.2755	-24.745508982	3.32857142857	-6.61818181818	-7.40888888889
552	0.276	-21.9203592814	21.9	0.527272727273	-3.10222222222
553	0.2765	-14.8574850299	0.471428571429	0.527272727273	-1.66666666667
554	0.277	3.50598802395	10.4714285714	0.527272727273	-8.84444444444
555	0.2775	2.09341317365	-0.957142857143	1.95636363636	-7.40888888889
556	0.278	10.5688622754	-0.957142857143	11.96	-1.66666666667
557	0.2785	19.0443113772	-0.957142857143	6.24363636364	-0.231111111111
558	0.279	17.6317365269	-3.81428571429	4.81454545455	-3.10222222222
559	0.2795	3.50598802395	-0.957142857143	1.95636363636	-3.10222222222
560	0.28	0.680838323353	-2.38571428571	3.38545454545	8.38222222222
561	0.2805	3.50598802395	-2.38571428571	1.95636363636	-8.84444444444
562	0.281	0.680838323353	-0.957142857143	0.527272727273	-7.40888888889
563	0.2815	-4.96946107784	0.471428571429	0.527272727273	-3.10222222222
564	0.282	-4.96946107784	6.18571428571	0.527272727273	-4.53777777778
565	0.2825	0.680838323353	4.75714285714	-2.33090909091	-1.66666666667
566	0.283	-0.731736526946	7.61428571429	-2.33090909091	16.9955555556
567	0.2835	0.680838323353	4.75714285714	-2.33090909091	14.1244444444
568	0.284	17.6317365269	0.471428571429	20.5345454545	-4.53777777778
569	0.2845	27.519760479	-9.52857142857	4.81454545455	-8.84444444444
570	0.285	28.9323353293	-10.9571428571	4.81454545455	-10.28
571	0.2855	14.8065868263	0.471428571429	1.95636363636	-3.10222222222
572	0.286	21.8694610778	3.32857142857	3.38545454545	-1.66666666667
573	0.2865	11.9814371257	3.32857142857	1.95636363636	8.38222222222
574	0.287	9.15628742515	3.32857142857	6.24363636364	-1.66666666667
575	0.2875	10.5688622754	9.04285714286	1.95636363636	1.20444444444
576	0.288	13.394011976	3.32857142857	0.527272727273	-3.10222222222
577	0.2885	10.5688622754	3.32857142857	3.38545454545	-5.97333333333
578	0.289	19.0443113772	6.18571428571	-0.901818181818	-14.5866666667
579	0.2895	14.8065868263	9.04285714286	-10.9054545455	-7.40888888889
580	0.29	7.74371257485	16.1857142857	-9.47636363636	-7.40888888889
581	0.2905	2.09341317365	10.4714285714	0.527272727273	-4.53777777778
582	0.291	-2.14431137725	-2.38571428571	0.527272727273	-5.97333333333
583	0.2915	-3.55688622754	-6.67142857143	1.95636363636	-7.40888888889
584	0.292	11.9814371257	-8.1	0.527272727273	-4.53777777778
585	0.2925	7.74371257485	-10.9571428571	6.24363636364	-4.53777777778
586	0.293	4.91856287425	-15.2428571429	11.96	-4.53777777778
587	0.2935	-0.731736526946	-29.5285714286	-3.76	-4.53777777778
588	0.294	-4.96946107784	-19.5285714286	-3.76	-3.10222222222
589	0.2945	-3.55688622754	-2.38571428571	-0.901818181818	-5.97333333333
590	0.295	-6.38203592814	3.32857142857	0.527272727273	4.07555555556
591	0.2955	10.5688622754	9.04285714286	1.95636363636	-13.1511111111
592	0.296	10.5688622754	17.6142857143	-0.901818181818	-3.10222222222
593	0.2965	4.91856287425	6.18571428571	-0.901818181818	8.38222222222
594	0.297	10.5688622754	-3.81428571429	-2.33090909091	14.1244444444
595	0.2975	7.74371257485	6.18571428571	-0.901818181818	14.1244444444
596	0.298	-3.55688622754	4.75714285714	0.527272727273	21.3022222222
597	0.2985	-0.731736526946	-2.38571428571	-0.901818181818	12.6888888889
598	0.299	2.09341317365	-2.38571428571	13.3890909091	-10.28
599	0.2995	-3.55688622754	-2.38571428571	11.96	-11.7155555556
600	0.3	-12.0323353293	4.75714285714	-2.33090909091	-11.7155555556
601	0.3005	-17.6826347305	10.4714285714	1.95636363636	-10.28
602	0.301	-12.0323353293	10.4714285714	0.527272727273	-5.97333333333
603	0.3015	-9.20718562874	6.18571428571	9.10181818182	1.20444444444
604	0.302	-4.96946107784	0.471428571429	20.5345454545	-7.40888888889
605	0.3025	-0.731736526946	-9.52857142857	3.38545454545	-5.97333333333
606	0.303	0.680838323353	23.3285714286	3.38545454545	-7.40888888889
607	0.3035	-3.55688622754	21.9	3.38545454545	-7.40888888889
608	0.304	-10.619760479	-0.957142857143	0.527272727273	-7.40888888889
609	0.3045	2.09341317365	-2.38571428571	4.81454545455	-18.8933333333
610	0.305	7.74371257485	0.471428571429	-8.04727272727	-20.3288888889
611	0.3055	3.50598802395	1.9	-8.04727272727	-13.1511111111
612	0.306	0.680838323353	16.1857142857	-0.901818181818	-13.1511111111
613	0.3065	-4.96946107784	-3.81428571429	-0.901818181818	-10.28
614	0.307	13.394011976	3.32857142857	-0.901818181818	-18.8933333333
615	0.3075	-7.79461077844	-0.957142857143	-5.18909090909	-8.84444444444
616	0.308	-4.96946107784	3.32857142857	-8.04727272727	12.6888888889
617	0.3085	-2.14431137725	-0.957142857143	11.96	-0.231111111111
618	0.309	2.09341317365	-10.9571428571	-2.33090909091	2.64
619	0.3095	3.50598802395	16.1857142857	-2.33090909091	8.38222222222
620	0.31	-13.4449101796	-0.957142857143	-2.33090909091	18.4311111111
621	0.3105	21.8694610778	-0.957142857143	-0.901818181818	18.4311111111
622	0.311	9.15628742515	0.471428571429	-0.901818181818	31.3511111111
623	0.3115	19.0443113772	0.471428571429	9.10181818182	-0.231111111111
624	0.312	23.2820359281	4.75714285714	4.81454545455	-11.7155555556
625	0.3125	14.8065868263	0.471428571429	-2.33090909091	-8.84444444444
626	0.313	7.74371257485	1.9	0.527272727273	-0.231111111111
627	0.3135	4.91856287425	3.32857142857	-0.901818181818	-0.231111111111
628	0.314	-10.619760479	0.471428571429	-9.47636363636	-3.10222222222
629	0.3145	-4.96946107784	1.9	20.5345454545	-7.40888888889
630	0.315	11.9814371257	-2.38571428571	21.9636363636	-10.28
631	0.3155	28.9323353293	17.6142857143	7.67272727273	-8.84444444444
632	0.316	26.1071856287	0.471428571429	6.24363636364	-4.53777777778
633	0.3165	27.519760479	0.471428571429	9.10181818182	-5.97333333333
634	0.317	10.5688622754	3.32857142857	14.8181818182	-8.84444444444
635	0.3175	2.09341317365	0.471428571429	16.2472727273	-8.84444444444
636	0.318	-3.55688622754	-12.3857142857	9.10181818182	-5.97333333333
637	0.3185	-6.38203592814	20.4714285714	3.38545454545	-4.53777777778
638	0.319	-13.4449101796	0.471428571429	1.95636363636	-3.10222222222
639	0.3195	-24.745508982	4.75714285714	1.95636363636	-0.231111111111
640	0.32	-19.0952095808	1.9	0.527272727273	-1.66666666667
641	0.3205	-12.0323353293	0.471428571429	-0.901818181818	-0.231111111111
642	0.321	4.91856287425	6.18571428571	-6.61818181818	-3.10222222222
643	0.3215	14.8065868263	21.9	-0.901818181818	-4.53777777778
644	0.322	28.9323353293	-8.1	0.527272727273	-1.66666666667
645	0.3225	48.7083832335	-0.957142857143	-2.33090909091	-3.10222222222
646	0.323	38.8203592814	-0.957142857143	-0.901818181818	-4.53777777778
647	0.3235	37.4077844311	-2.38571428571	0.527272727273	-4.53777777778
648	0.324	31.7574850299	3.32857142857	-6.61818181818	-3.10222222222
649	0.3245	21.8694610778	19.0428571429	0.527272727273	-3.10222222222
650	0.325	13.394011976	-10.9571428571	-0.901818181818	-1.66666666667
651	0.3255	21.8694610778	0.471428571429	0.527272727273	-4.53777777778
652	0.326	-4.96946107784	1.9	1.95636363636	-4.53777777778
653	0.3265	-12.0323353293	-0.957142857143	-0.901818181818	-1.66666666667
654	0.327	-16.2700598802	6.18571428571	-3.76	-3.10222222222
655	0.3275	-19.0952095808	19.0428571429	-0.901818181818	-4.53777777778
656	0.328	-26.1580838323	10.4714285714	-2.33090909091	-5.97333333333
657	0.3285	-4.96946107784	19.0428571429	-0.901818181818	-1.66666666667
658	0.329	-16.2700598802	6.18571428571	-0.901818181818	-0.231111111111
659	0.3295	-17.6826347305	-2.38571428571	9.10181818182	-3.10222222222
660	0.33	-17.6826347305	-13.8142857143	-0.901818181818	-4.53777777778
661	0.3305	-17.6826347305	19.0428571429	-0.901818181818	-3.10222222222
662	0.331	-20.5077844311	1.9	-0.901818181818	-3.10222222222
663	0.3315	-27.5706586826	0.471428571429	3.38545454545	-0.231111111111
664	0.332	-10.619760479	0.471428571429	1.95636363636	-13.1511111111
665	0.3325	-0.731736526946	0.471428571429	-2.33090909091	-11.7155555556
666	0.333	9.15628742515	0.471428571429	-2.33090909091	-5.97333333333
667	0.3335	13.394011976	-5.24285714286	3.38545454545	-1.66666666667
668	0.334	13.394011976	-8.1	0.527272727273	-0.231111111111
669	0.3345	-3.55688622754	-0.957142857143	0.527272727273	9.81777777778
670	0.335	0.680838323353	4.75714285714	-8.04727272727	-0.231111111111
671	0.3355	-0.731736526946	6.18571428571	-2.33090909091	1.20444444444
672	0.336	-0.731736526946	6.18571428571	4.81454545455	-1.66666666667
673	0.3365	-3.55688622754	-6.67142857143	1.95636363636	-3.10222222222
674	0.337	-7.79461077844	1.9	0.527272727273	-4.53777777778
675	0.3375	3.50598802395	-2.38571428571	1.95636363636	2.64
676	0.338	3.50598802395	-6.67142857143	1.95636363636	4.07555555556
677	0.3385	2.09341317365	-5.24285714286	-0.901818181818	-1.66666666667
678	0.339	2.09341317365	-0.957142857143	1.95636363636	-3.10222222222
679	0.3395	2.09341317365	-5.24285714286	1.95636363636	-1.66666666667
680	0.34	-0.731736526946	6.18571428571	-0.901818181818	-1.66666666667
681	0.3405	-14.8574850299	13.3285714286	0.527272727273	-5.97333333333
682	0.341	-6.38203592814	7.61428571429	0.527272727273	-7.40888888889
683	0.3415	-4.96946107784	-0.957142857143	-2.33090909091	-5.97333333333
684	0.342	-0.731736526946	-2.38571428571	-0.901818181818	-7.40888888889
685	0.3425	2.09341317365	-8.1	1.95636363636	-4.53777777778
686	0.343	-6.38203592814	-2.38571428571	-2.33090909091	-3.10222222222
687	0.3435	-6.38203592814	0.471428571429	1.95636363636	-0.231111111111
688	0.344	14.8065868263	0.471428571429	1.95636363636	-11.7155555556
689	0.3445	14.8065868263	6.18571428571	-2.33090909091	-3.10222222222
690	0.345	16.2191616766	-6.67142857143	-3.76	-4.53777777778
691	0.3455	10.5688622754	-6.67142857143	0.527272727273	-4.53777777778
692	0.346	19.0443113772	-5.24285714286	1.95636363636	-1.66666666667
693	0.3465	-9.20718562874	-2.38571428571	0.527272727273	6.94666666667
694	0.347	-6.38203592814	-0.957142857143	3.38545454545	6.94666666667
695	0.3475	0.680838323353	0.471428571429	4.81454545455	-7.40888888889
696	0.348	14.8065868263	0.471428571429	-5.18909090909	-1.66666666667
697	0.3485	23.2820359281	3.32857142857	3.38545454545	-3.10222222222
698	0.349	10.5688622754	-2.38571428571	4.81454545455	-0.231111111111
699	0.3495	10.5688622754	-3.81428571429	4.81454545455	25.6088888889
700	0.35	20.4568862275	0.471428571429	4.81454545455	32.7866666667
701	0.3505	21.8694610778	1.9	7.67272727273	-0.231111111111
702	0.351	20.4568862275	-10.9571428571	3.38545454545	-1.66666666667
703	0.3515	21.8694610778	13.3285714286	0.527272727273	-7.40888888889
704	0.352	16.2191616766	-2.38571428571	0.527272727273	-5.97333333333
705	0.3525	4.91856287425	-2.38571428571	4.81454545455	-14.5866666667
706	0.353	7.74371257485	-3.81428571429	3.38545454545	-13.1511111111
707	0.3535	-4.96946107784	3.32857142857	-0.901818181818	-10.28
708	0.354	-10.619760479	6.18571428571	-0.901818181818	-4.53777777778
709	0.3545	-9.20718562874	3.32857142857	0.527272727273	-5.97333333333
710	0.355	-4.96946107784	-10.9571428571	-0.901818181818	-4.53777777778
711	0.3555	2.09341317365	-3.81428571429	0.527272727273	-7.40888888889
712	0.356	-6.38203592814	-2.38571428571	1.95636363636	-11.7155555556
713	0.3565	-3.55688622754	-0.957142857143	0.527272727273	-7.40888888889
714	0.357	3.50598802395	-2.38571428571	4.81454545455	-0.231111111111
715	0.3575	4.91856287425	0.471428571429	0.527272727273	4.07555555556
716	0.358	14.8065868263	3.32857142857	-0.901818181818	2.64
717	0.3585	3.50598802395	4.75714285714	-0.901818181818	2.64
718	0.359	21.8694610778	6.18571428571	4.81454545455	-3.10222222222
719	0.3595	21.8694610778	4.75714285714	0.527272727273	-13.1511111111
720	0.36	7.74371257485	0.471428571429	-6.61818181818	-8.84444444444
721	0.3605	-4.96946107784	6.18571428571	-9.47636363636	-8.84444444444
722	0.361	-13.4449101796	4.75714285714	0.527272727273	-1.66666666667
723	0.3615	-14.8574850299	-0.957142857143	0.527272727273	6.94666666667
724	0.362	4.91856287425	-2.38571428571	1.95636363636	14.1244444444
725	0.3625	2.09341317365	0.471428571429	6.24363636364	15.56
726	0.363	3.50598802395	9.04285714286	-2.33090909091	11.2533333333
727	0.3635	9.15628742515	14.7571428571	4.81454545455	-1.66666666667
728	0.364	2.09341317365	-0.957142857143	3.38545454545	-8.84444444444
729	0.3645	-12.0323353293	-5.24285714286	3.38545454545	-7.40888888889
730	0.365	-2.14431137725	-3.81428571429	3.38545454545	-18.8933333333
731	0.3655	-7.79461077844	4.75714285714	14.8181818182	-8.84444444444
732	0.366	-12.0323353293	6.18571428571	-8.04727272727	-7.40888888889
733	0.3665	-19.0952095808	-5.24285714286	-2.33090909091	-10.28
734	0.367	-24.745508982	-3.81428571429	1.95636363636	-11.7155555556
735	0.3675	-10.619760479	-2.38571428571	1.95636363636	-7.40888888889
736	0.368	-16.2700598802	1.9	3.38545454545	-3.10222222222
737	0.3685	-2.14431137725	9.04285714286	16.2472727273	-5.97333333333
738	0.369	10.5688622754	0.471428571429	-0.901818181818	-5.97333333333
739	0.3695	10.5688622754	0.471428571429	3.38545454545	4.07555555556
740	0.37	-6.38203592814	-6.67142857143	1.95636363636	14.1244444444
741	0.3705	-3.55688622754	-10.9571428571	0.527272727273	18.4311111111
742	0.371	4.91856287425	-6.67142857143	-0.901818181818	6.94666666667
743	0.3715	3.50598802395	0.471428571429	7.67272727273	2.64
744	0.372	3.50598802395	-8.1	-2.33090909091	1.20444444444
745	0.3725	6.33113772455	23.3285714286	0.527272727273	-3.10222222222
746	0.373	-2.14431137725	6.18571428571	-0.901818181818	-0.231111111111
747	0.3735	-16.2700598802	16.1857142857	-2.33090909091	-3.10222222222
748	0.374	-4.96946107784	13.3285714286	-0.901818181818	-4.53777777778
749	0.3745	-4.96946107784	9.04285714286	9.10181818182	-3.10222222222
750	0.375	-3.55688622754	-5.24285714286	-2.33090909091	-4.53777777778
751	0.3755	-0.731736526946	-6.67142857143	-0.901818181818	-3.10222222222
752	0.376	-4.96946107784	-8.1	1.95636363636	-4.53777777778
753	0.3765	-0.731736526946	0.471428571429	0.527272727273	-0.231111111111
754	0.377	-4.96946107784	0.471428571429	4.81454545455	-7.40888888889
755	0.3775	-6.38203592814	-3.81428571429	7.67272727273	-10.28
756	0.378	-3.55688622754	-15.2428571429	4.81454545455	-8.84444444444
757	0.3785	4.91856287425	16.1857142857	3.38545454545	-11.7155555556
758	0.379	13.394011976	3.32857142857	3.38545454545	-10.28
759	0.3795	10.5688622754	4.75714285714	7.67272727273	-23.2
760	0.38	9.15628742515	1.9	3.38545454545	-21.7644444444
761	0.3805	0.680838323353	-3.81428571429	4.81454545455	8.38222222222
762	0.381	-3.55688622754	-2.38571428571	7.67272727273	-8.84444444444
763	0.3815	-0.731736526946	-0.957142857143	6.24363636364	-5.97333333333
764	0.382	0.680838323353	-2.38571428571	6.24363636364	-5.97333333333
765	0.3825	3.50598802395	-0.957142857143	6.24363636364	1.20444444444
766	0.383	0.680838323353	3.32857142857	7.67272727273	4.07555555556
767	0.3835	2.09341317365	-2.38571428571	-6.61818181818	24.1733333333
768	0.384	0.680838323353	-3.81428571429	0.527272727273	21.3022222222
769	0.3845	-2.14431137725	21.9	-2.33090909091	8.38222222222
770	0.385	-2.14431137725	14.7571428571	-3.76	2.64
771	0.3855	-16.2700598802	9.04285714286	-5.18909090909	2.64
772	0.386	-23.3329341317	6.18571428571	0.527272727273	-3.10222222222
773	0.3865	-16.2700598802	6.18571428571	16.2472727273	-7.40888888889
774	0.387	-19.0952095808	0.471428571429	0.527272727273	-5.97333333333
775	0.3875	-17.6826347305	-3.81428571429	-0.901818181818	-5.97333333333
776	0.388	-19.0952095808	-6.67142857143	4.81454545455	-4.53777777778
777	0.3885	-4.96946107784	-0.957142857143	6.24363636364	-8.84444444444
778	0.389	2.09341317365	1.9	4.81454545455	-5.97333333333
779	0.3895	7.74371257485	1.9	17.6763636364	-0.231111111111
780	0.39	2.09341317365	-2.38571428571	-5.18909090909	-0.231111111111
781	0.3905	3.50598802395	9.04285714286	-0.901818181818	-3.10222222222
782	0.391	2.09341317365	7.61428571429	3.38545454545	-1.66666666667
783	0.3915	2.09341317365	-0.957142857143	1.95636363636	-1.66666666667
784	0.392	-0.731736526946	0.471428571429	-0.901818181818	-3.10222222222
785	0.3925	-0.731736526946	7.61428571429	10.5309090909	-8.84444444444
786	0.393	0.680838323353	10.4714285714	11.96	-5.97333333333
787	0.3935	2.09341317365	26.1857142857	0.527272727273	-5.97333333333
788	0.394	-0.731736526946	3.32857142857	0.527272727273	-5.97333333333
789	0.3945	19.0443113772	0.471428571429	0.527272727273	-3.10222222222
790	0.395	0.680838323353	-0.957142857143	-0.901818181818	-7.40888888889
791	0.3955	0.680838323353	0.471428571429	1.95636363636	-1.66666666667
792	0.396	-4.96946107784	-2.38571428571	-0.901818181818	-3.10222222222
793	0.3965	0.680838323353	-16.6714285714	-3.76	-4.53777777778
794	0.397	2.09341317365	-9.52857142857	-0.901818181818	-7.40888888889
795	0.3975	16.2191616766	-6.67142857143	0.527272727273	-7.40888888889
796	0.398	-0.731736526946	1.9	-0.901818181818	1.20444444444
797	0.3985	-2.14431137725	6.18571428571	21.9636363636	-3.10222222222
798	0.399	-2.14431137725	-0.957142857143	17.6763636364	-1.66666666667
799	0.3995	-0.731736526946	-6.67142857143	-0.901818181818	-1.66666666667
800	0.4	-0.731736526946	-6.67142857143	1.95636363636	-1.66666666667
801	0.4005	10.5688622754	1.9	3.38545454545	-3.10222222222
802	0.401	-3.55688622754	3.32857142857	0.527272727273	-13.1511111111
803	0.4015	-2.14431137725	0.471428571429	9.10181818182	-8.84444444444
804	0.402	-0.731736526946	4.75714285714	0.527272727273	-7.40888888889
805	0.4025	0.680838323353	20.4714285714	0.527272727273	-4.53777777778
806	0.403	-10.619760479	1.9	-0.901818181818	-5.97333333333
807	0.4035	20.4568862275	-0.957142857143	-0.901818181818	-5.97333333333
808	0.404	-0.731736526946	0.471428571429	-2.33090909091	-3.10222222222
809	0.4045	2.09341317365	0.471428571429	-8.04727272727	-7.40888888889
810	0.405	3.50598802395	-2.38571428571	-0.901818181818	-4.53777777778
811	0.4055	4.91856287425	-5.24285714286	-3.76	-4.53777777778
812	0.406	-3.55688622754	-0.957142857143	-5.18909090909	-3.10222222222
813	0.4065	24.6946107784	1.9	-2.33090909091	-7.40888888889
814	0.407	-0.731736526946	1.9	-8.04727272727	-4.53777777778
815	0.4075	-4.96946107784	3.32857142857	-9.47636363636	-1.66666666667
816	0.408	-3.55688622754	-0.957142857143	-2.33090909091	-0.231111111111
817	0.4085	2.09341317365	3.32857142857	-0.901818181818	4.07555555556
818	0.409	-4.96946107784	7.61428571429	-3.76	5.51111111111
819	0.4095	6.33113772455	7.61428571429	0.527272727273	14.1244444444
820	0.41	3.50598802395	0.471428571429	0.527272727273	16.9955555556
821	0.4105	4.91856287425	-5.24285714286	-0.901818181818	-10.28
822	0.411	10.5688622754	-8.1	-2.33090909091	-7.40888888889
823	0.4115	11.9814371257	-3.81428571429	3.38545454545	-5.97333333333
824	0.412	-7.79461077844	-8.1	7.67272727273	-4.53777777778
825	0.4125	-10.619760479	-3.81428571429	9.10181818182	-0.231111111111
826	0.413	-7.79461077844	-2.38571428571	13.3890909091	-16.0222222222
827	0.4135	-4.96946107784	-0.957142857143	-0.901818181818	-7.40888888889
828	0.414	2.09341317365	0.471428571429	1.95636363636	-8.84444444444
829	0.4145	4.91856287425	0.471428571429	6.24363636364	-7.40888888889
830	0.415	4.91856287425	-5.24285714286	7.67272727273	-13.1511111111
831	0.4155	0.680838323353	-0.957142857143	4.81454545455	-3.10222222222
832	0.416	9.15628742515	-2.38571428571	4.81454545455	-1.66666666667
833	0.4165	10.5688622754	-2.38571428571	1.95636363636	-7.40888888889
834	0.417	9.15628742515	0.471428571429	4.81454545455	-7.40888888889
835	0.4175	11.9814371257	1.9	6.24363636364	-7.40888888889
836	0.418	27.519760479	4.75714285714	4.81454545455	-1.66666666667
837	0.4185	-2.14431137725	-0.957142857143	3.38545454545	5.51111111111
838	0.419	0.680838323353	-2.38571428571	-2.33090909091	18.4311111111
839	0.4195	-4.96946107784	-3.81428571429	-3.76	6.94666666667
840	0.42	-7.79461077844	-12.3857142857	-2.33090909091	5.51111111111
841	0.4205	-3.55688622754	-12.3857142857	-0.901818181818	-1.66666666667
842	0.421	26.1071856287	-3.81428571429	-0.901818181818	-5.97333333333
843	0.4215	11.9814371257	-3.81428571429	0.527272727273	-1.66666666667
844	0.422	17.6317365269	0.471428571429	-5.18909090909	5.51111111111
845	0.4225	17.6317365269	6.18571428571	3.38545454545	-5.97333333333
846	0.423	11.9814371257	21.9	0.527272727273	-4.53777777778
847	0.4235	7.74371257485	-6.67142857143	-2.33090909091	-4.53777777778
848	0.424	26.1071856287	3.32857142857	-2.33090909091	-3.10222222222
849	0.4245	-7.79461077844	1.9	0.527272727273	-3.10222222222
850	0.425	-0.731736526946	13.3285714286	-3.76	-11.7155555556
851	0.4255	7.74371257485	13.3285714286	-3.76	-7.40888888889
852	0.426	4.91856287425	0.471428571429	-0.901818181818	-7.40888888889
853	0.4265	2.09341317365	-12.3857142857	-0.901818181818	-3.10222222222
854	0.427	-0.731736526946	-6.67142857143	-2.33090909091	-5.97333333333
855	0.4275	27.519760479	0.471428571429	0.527272727273	-14.5866666667
856	0.428	28.9323353293	4.75714285714	-9.47636363636	-14.5866666667
857	0.4285	26.1071856287	1.9	-5.18909090909	-7.40888888889
858	0.429	17.6317365269	4.75714285714	0.527272727273	-5.97333333333
859	0.4295	7.74371257485	-5.24285714286	-0.901818181818	-8.84444444444
860	0.43	-12.0323353293	-2.38571428571	-2.33090909091	-3.10222222222
861	0.4305	-6.38203592814	1.9	0.527272727273	6.94666666667
862	0.431	-4.96946107784	0.471428571429	1.95636363636	2.64
863	0.4315	-9.20718562874	0.471428571429	-9.47636363636	6.94666666667
864	0.432	-13.4449101796	6.18571428571	1.95636363636	-4.53777777778
865	0.4325	-17.6826347305	4.75714285714	0.527272727273	-10.28
866	0.433	-21.9203592814	4.75714285714	1.95636363636	-10.28
867	0.4335	-21.9203592814	1.9	1.95636363636	-8.84444444444
868	0.434	-17.6826347305	-0.957142857143	4.81454545455	-3.10222222222
869	0.4345	-6.38203592814	-6.67142857143	-0.901818181818	-8.84444444444
870	0.435	4.91856287425	9.04285714286	4.81454545455	-4.53777777778
871	0.4355	11.9814371257	16.1857142857	6.24363636364	-4.53777777778
872	0.436	-2.14431137725	0.471428571429	3.38545454545	-1.66666666667
873	0.4365	3.50598802395	3.32857142857	4.81454545455	-13.1511111111
874	0.437	2.09341317365	1.9	19.1054545455	-5.97333333333
875	0.4375	6.33113772455	0.471428571429	1.95636363636	-4.53777777778
876	0.438	7.74371257485	-5.24285714286	1.95636363636	-8.84444444444
877	0.4385	10.5688622754	0.471428571429	-0.901818181818	-4.53777777778
878	0.439	26.1071856287	4.75714285714	-0.901818181818	-5.97333333333
879	0.4395	-0.731736526946	-0.957142857143	-2.33090909091	5.51111111111
880	0.44	7.74371257485	-2.38571428571	-2.33090909091	-0.231111111111
881	0.4405	4.91856287425	0.471428571429	11.96	5.51111111111
882	0.441	10.5688622754	-5.24285714286	1.95636363636	5.51111111111
883	0.4415	4.91856287425	-18.1	-0.901818181818	-0.231111111111
884	0.442	-3.55688622754	-13.8142857143	3.38545454545	-0.231111111111
885	0.4425	-7.79461077844	-0.957142857143	3.38545454545	2.64
886	0.443	-12.0323353293	9.04285714286	-8.04727272727	-0.231111111111
887	0.4435	-14.8574850299	17.6142857143	-6.61818181818	-3.10222222222
888	0.444	-12.0323353293	23.3285714286	-0.901818181818	-1.66666666667
889	0.4445	-3.55688622754	-8.1	0.527272727273	-3.10222222222
890	0.445	11.9814371257	-5.24285714286	0.527272727273	-1.66666666667
891	0.4455	3.50598802395	-8.1	-2.33090909091	14.1244444444
892	0.446	-0.731736526946	-8.1	-2.33090909091	11.2533333333
893	0.4465	0.680838323353	0.471428571429	19.1054545455	-5.97333333333
894	0.447	4.91856287425	-5.24285714286	-2.33090909091	-3.10222222222
895	0.4475	7.74371257485	-2.38571428571	-0.901818181818	-0.231111111111
896	0.448	13.394011976	-2.38571428571	-0.901818181818	-1.66666666667
897	0.4485	24.6946107784	-6.67142857143	-0.901818181818	-13.1511111111
898	0.449	4.91856287425	-2.38571428571	-9.47636363636	-13.1511111111
899	0.4495	9.15628742515	1.9	-12.3345454545	-5.97333333333
900	0.45	10.5688622754	7.61428571429	-0.901818181818	-5.97333333333
901	0.4505	9.15628742515	16.1857142857	-0.901818181818	-8.84444444444
902	0.451	11.9814371257	6.18571428571	1.95636363636	-7.40888888889
903	0.4515	21.8694610778	-0.957142857143	3.38545454545	-3.10222222222
904	0.452	10.5688622754	-3.81428571429	9.10181818182	-1.66666666667
905	0.4525	10.5688622754	-0.957142857143	-2.33090909091	1.20444444444
906	0.453	4.91856287425	-10.9571428571	6.24363636364	1.20444444444
907	0.4535	-7.79461077844	-5.24285714286	7.67272727273	-4.53777777778
908	0.454	0.680838323353	1.9	6.24363636364	-10.28
909	0.4545	-9.20718562874	0.471428571429	7.67272727273	-4.53777777778
910	0.455	7.74371257485	1.9	13.3890909091	15.56
911	0.4555	24.6946107784	1.9	9.10181818182	2.64
912	0.456	31.7574850299	-5.24285714286	6.24363636364	4.07555555556
913	0.4565	28.9323353293	-5.24285714286	7.67272727273	4.07555555556
914	0.457	28.9323353293	4.75714285714	4.81454545455	-4.53777777778
915	0.4575	2.09341317365	0.471428571429	6.24363636364	-0.231111111111
916	0.458	2.09341317365	-10.9571428571	7.67272727273	-4.53777777778
917	0.4585	3.50598802395	-8.1	1.95636363636	-7.40888888889
918	0.459	13.394011976	-12.3857142857	3.38545454545	-4.53777777778
919	0.4595	24.6946107784	1.9	0.527272727273	-4.53777777778
920	0.46	27.519760479	0.471428571429	1.95636363636	-14.5866666667
921	0.4605	4.91856287425	-2.38571428571	-0.901818181818	-4.53777777778
922	0.461	0.680838323353	-8.1	-9.47636363636	-4.53777777778
923	0.4615	-0.731736526946	-5.24285714286	-10.9054545455	-4.53777777778
924	0.462	4.91856287425	10.4714285714	-5.18909090909	-1.66666666667
925	0.4625	9.15628742515	10.4714285714	-2.33090909091	2.64
926	0.463	2.09341317365	1.9	-0.901818181818	2.64
927	0.4635	16.2191616766	0.471428571429	-0.901818181818	1.20444444444
928	0.464	21.8694610778	-2.38571428571	-12.3345454545	-3.10222222222
929	0.4645	31.7574850299	1.9	-2.33090909091	-11.7155555556
930	0.465	40.2329341317	19.0428571429	-2.33090909091	-8.84444444444
931	0.4655	43.0580838323	-8.1	-0.901818181818	-8.84444444444
932	0.466	38.8203592814	-8.1	-0.901818181818	-4.53777777778
933	0.4665	28.9323353293	-0.957142857143	0.527272727273	-13.1511111111
934	0.467	19.0443113772	1.9	0.527272727273	4.07555555556
935	0.4675	14.8065868263	0.471428571429	3.38545454545	-3.10222222222
936	0.468	14.8065868263	9.04285714286	-2.33090909091	-5.97333333333
937	0.4685	4.91856287425	16.1857142857	-3.76	-11.7155555556
938	0.469	-14.8574850299	10.4714285714	-3.76	-11.7155555556
939	0.4695	-6.38203592814	-2.38571428571	-2.33090909091	-20.3288888889
940	0.47	-12.0323353293	-5.24285714286	-10.9054545455	-20.3288888889
941	0.4705	-17.6826347305	-2.38571428571	-10.9054545455	-7.40888888889
942	0.471	-20.5077844311	10.4714285714	-2.33090909091	-7.40888888889
943	0.4715	-20.5077844311	-6.67142857143	-0.901818181818	-1.66666666667
944	0.472	-17.6826347305	-0.957142857143	-3.76	-5.97333333333
945	0.4725	-4.96946107784	0.471428571429	4.81454545455	-8.84444444444
946	0.473	-4.96946107784	-0.957142857143	19.1054545455	-5.97333333333
947	0.4735	-4.96946107784	-0.957142857143	-3.76	-5.97333333333
948	0.474	-3.55688622754	1.9	-5.18909090909	-5.97333333333
949	0.4745	-4.96946107784	-5.24285714286	3.38545454545	-3.10222222222
950	0.475	-9.20718562874	1.9	4.81454545455	-4.53777777778
951	0.4755	-14.8574850299	4.75714285714	0.527272727273	1.20444444444
952	0.476	-23.3329341317	6.18571428571	3.38545454545	2.64
953	0.4765	-20.5077844311	-0.957142857143	3.38545454545	14.1244444444
954	0.477	-9.20718562874	4.75714285714	4.81454545455	25.6088888889
955	0.4775	2.09341317365	-2.38571428571	4.81454545455	18.4311111111
956	0.478	2.09341317365	0.471428571429	1.95636363636	12.6888888889
957	0.4785	2.09341317365	-2.38571428571	-0.901818181818	4.07555555556
958	0.479	7.74371257485	-2.38571428571	-6.61818181818	-10.28
959	0.4795	4.91856287425	0.471428571429	-3.76	-20.3288888889
960	0.48	6.33113772455	13.3285714286	1.95636363636	-14.5866666667
961	0.4805	9.15628742515	-9.52857142857	0.527272727273	2.64
962	0.481	11.9814371257	-10.9571428571	0.527272727273	11.2533333333
963	0.4815	19.0443113772	-2.38571428571	0.527272727273	1.20444444444
964	0.482	-10.619760479	0.471428571429	-12.3345454545	-7.40888888889
965	0.4825	-17.6826347305	-2.38571428571	-8.04727272727	-16.0222222222
966	0.483	-21.9203592814	-0.957142857143	3.38545454545	-13.1511111111
967	0.4835	-21.9203592814	-10.9571428571	-0.901818181818	-7.40888888889
968	0.484	-20.5077844311	-10.9571428571	-2.33090909091	4.07555555556
969	0.4845	7.74371257485	-5.24285714286	-2.33090909091	16.9955555556
970	0.485	11.9814371257	-3.81428571429	-0.901818181818	6.94666666667
971	0.4855	4.91856287425	-0.957142857143	-2.33090909091	-1.66666666667
972	0.486	-2.14431137725	-6.67142857143	-2.33090909091	-1.66666666667
973	0.4865	-4.96946107784	17.6142857143	-2.33090909091	-3.10222222222
974	0.487	0.680838323353	21.9	-0.901818181818	-1.66666666667
975	0.4875	26.1071856287	-2.38571428571	3.38545454545	-0.231111111111
976	0.488	14.8065868263	-16.6714285714	-6.61818181818	-1.66666666667
977	0.4885	9.15628742515	-6.67142857143	-5.18909090909	-8.84444444444
978	0.489	2.09341317365	19.0428571429	0.527272727273	-4.53777777778
979	0.4895	4.91856287425	0.471428571429	3.38545454545	-3.10222222222
980	0.49	16.2191616766	16.1857142857	4.81454545455	-1.66666666667
981	0.4905	2.09341317365	10.4714285714	6.24363636364	-1.66666666667
982	0.491	2.09341317365	3.32857142857	1.95636363636	5.51111111111
983	0.4915	-9.20718562874	-0.957142857143	-2.33090909091	-7.40888888889
984	0.492	-16.2700598802	-16.6714285714	4.81454545455	-4.53777777778
985	0.4925	-19.0952095808	-9.52857142857	6.24363636364	-3.10222222222
986	0.493	-4.96946107784	1.9	4.81454545455	-0.231111111111
987	0.4935	-28.9832335329	4.75714285714	4.81454545455	-0.231111111111
988	0.494	-14.8574850299	6.18571428571	3.38545454545	8.38222222222
989	0.4945	-4.96946107784	6.18571428571	3.38545454545	-7.40888888889
990	0.495	2.09341317365	20.4714285714	-0.901818181818	-7.40888888889
991	0.4955	6.33113772455	0.471428571429	0.527272727273	-10.28
992	0.496	17.6317365269	0.471428571429	3.38545454545	-8.84444444444
993	0.4965	2.09341317365	-2.38571428571	0.527272727273	-8.84444444444
994	0.497	10.5688622754	-0.957142857143	-0.901818181818	-0.231111111111
995	0.4975	9.15628742515	0.471428571429	-3.76	-16.0222222222
996	0.498	0.680838323353	-12.3857142857	0.527272727273	-10.28
997	0.4985	-2.14431137725	-9.52857142857	0.527272727273	-10.28
998	0.499	-20.5077844311	-2.38571428571	0.527272727273	-8.84444444444
999	0.4995	-16.2700598802	-0.957142857143	-0.901818181818	-8.84444444444
1000	0.5	-0.731736526946	-3.81428571429	-0.901818181818	-16.0222222222
1001	0.5005	11.9814371257	-2.38571428571	-3.76	-17.4577777778
1002	0.501	14.8065868263	1.9	0.527272727273	-8.84444444444
1003	0.5015	11.9814371257	-2.38571428571	3.38545454545	4.07555555556
1004	0.502	-4.96946107784	6.18571428571	-2.33090909091	9.81777777778
1005	0.5025	9.15628742515	6.18571428571	-3.76	-0.231111111111
1006	0.503	13.394011976	0.471428571429	-12.3345454545	5.51111111111
1007	0.5035	17.6317365269	0.471428571429	-9.47636363636	21.3022222222
1008	0.504	17.6317365269	6.18571428571	3.38545454545	28.48
1009	0.5045	24.6946107784	-5.24285714286	0.527272727273	27.0444444444
1010	0.505	33.1700598802	-2.38571428571	1.95636363636	4.07555555556
1011	0.5055	23.2820359281	0.471428571429	-2.33090909091	-8.84444444444
1012	0.506	23.2820359281	4.75714285714	-2.33090909091	8.38222222222
1013	0.5065	21.8694610778	4.75714285714	-0.901818181818	-8.84444444444
1014	0.507	20.4568862275	-5.24285714286	-2.33090909091	-7.40888888889
1015	0.5075	11.9814371257	-0.957142857143	0.527272727273	-10.28
1016	0.508	2.09341317365	1.9	0.527272727273	-7.40888888889
1017	0.5085	-4.96946107784	-3.81428571429	1.95636363636	-17.4577777778
1018	0.509	-4.96946107784	-6.67142857143	-8.04727272727	-11.7155555556
1019	0.5095	-10.619760479	1.9	1.95636363636	-7.40888888889
1020	0.51	-16.2700598802	0.471428571429	1.95636363636	-7.40888888889
1021	0.5105	-27.5706586826	-5.24285714286	0.527272727273	-8.84444444444
1022	0.511	-31.8083832335	-2.38571428571	1.95636363636	-13.1511111111
1023	0.5115	-13.4449101796	1.9	0.527272727273	-14.5866666667
1024	0.512	-6.38203592814	0.471428571429	7.67272727273	-10.28
1025	0.5125	-6.38203592814	-3.81428571429	-0.901818181818	-8.84444444444
1026	0.513	-12.0323353293	-5.24285714286	1.95636363636	-10.28
1027	0.5135	-7.79461077844	-3.81428571429	1.95636363636	-8.84444444444
1028	0.514	7.74371257485	-0.957142857143	0.527272727273	-7.40888888889
1029	0.5145	-10.619760479	1.9	1.95636363636	-1.66666666667
1030	0.515	-7.79461077844	1.9	4.81454545455	-4.53777777778
1031	0.5155	-9.20718562874	10.4714285714	17.6763636364	-5.97333333333
1032	0.516	-3.55688622754	10.4714285714	0.527272727273	-3.10222222222
1033	0.5165	-3.55688622754	1.9	-0.901818181818	-1.66666666667
1034	0.517	9.15628742515	-3.81428571429	0.527272727273	-4.53777777778
1035	0.5175	-0.731736526946	0.471428571429	3.38545454545	-8.84444444444
1036	0.518	-3.55688622754	13.3285714286	-2.33090909091	-3.10222222222
1037	0.5185	-2.14431137725	23.3285714286	-2.33090909091	-3.10222222222
1038	0.519	-0.731736526946	29.0428571429	0.527272727273	-4.53777777778
1039	0.5195	-3.55688622754	-8.1	0.527272727273	-1.66666666667
1040	0.52	2.09341317365	-8.1	0.527272727273	-1.66666666667
1041	0.5205	-2.14431137725	-10.9571428571	-0.901818181818	-11.7155555556
1042	0.521	0.680838323353	-5.24285714286	-9.47636363636	-1.66666666667
1043	0.5215	3.50598802395	0.471428571429	1.95636363636	-4.53777777778
1044	0.522	3.50598802395	-2.38571428571	3.38545454545	-10.28
1045	0.5225	-4.96946107784	-0.957142857143	3.38545454545	-5.97333333333
1046	0.523	-0.731736526946	0.471428571429	1.95636363636	-8.84444444444
1047	0.5235	-0.731736526946	0.471428571429	-0.901818181818	-13.1511111111
1048	0.524	-0.731736526946	0.471428571429	-10.9054545455	-1.66666666667
1049	0.5245	-0.731736526946	-0.957142857143	-2.33090909091	-3.10222222222
1050	0.525	-3.55688622754	16.1857142857	-0.901818181818	-5.97333333333
1051	0.5255	-2.14431137725	3.32857142857	-0.901818181818	-5.97333333333
1052	0.526	-7.79461077844	1.9	-0.901818181818	-11.7155555556
1053	0.5265	-3.55688622754	1.9	-0.901818181818	-11.7155555556
1054	0.527	-6.38203592814	1.9	-2.33090909091	-13.1511111111
1055	0.5275	-7.79461077844	-0.957142857143	-2.33090909091	-5.97333333333
1056	0.528	-3.55688622754	0.471428571429	-2.33090909091	-4.53777777778
1057	0.5285	7.74371257485	-6.67142857143	0.527272727273	-4.53777777778
1058	0.529	4.91856287425	0.471428571429	-0.901818181818	-3.10222222222
1059	0.5295	-0.731736526946	-0.957142857143	-2.33090909091	-1.66666666667
1060	0.53	2.09341317365	0.471428571429	-8.04727272727	-3.10222222222
1061	0.5305	0.680838323353	3.32857142857	-0.901818181818	-3.10222222222
1062	0.531	9.15628742515	20.4714285714	-0.901818181818	-5.97333333333
1063	0.5315	0.680838323353	0.471428571429	0.527272727273	-4.53777777778
1064	0.532	-9.20718562874	1.9	0.527272727273	-7.40888888889
1065	0.5325	-3.55688622754	0.471428571429	0.527272727273	-1.66666666667
1066	0.533	9.15628742515	-2.38571428571	17.6763636364	-1.66666666667
1067	0.5335	3.50598802395	0.471428571429	1.95636363636	-0.231111111111
1068	0.534	3.50598802395	-9.52857142857	-0.901818181818	-1.66666666667
1069	0.5345	2.09341317365	21.9	-3.76	-0.231111111111
1070	0.535	-12.0323353293	0.471428571429	-2.33090909091	-3.10222222222
1071	0.5355	-14.8574850299	-2.38571428571	-0.901818181818	-1.66666666667
1072	0.536	-9.20718562874	-2.38571428571	3.38545454545	-13.1511111111
1073	0.5365	-2.14431137725	-5.24285714286	-6.61818181818	-4.53777777778
1074	0.537	10.5688622754	-8.1	1.95636363636	-5.97333333333
1075	0.5375	11.9814371257	-5.24285714286	0.527272727273	-3.10222222222
1076	0.538	-2.14431137725	0.471428571429	3.38545454545	-3.10222222222
1077	0.5385	-0.731736526946	3.32857142857	3.38545454545	-1.66666666667
1078	0.539	-7.79461077844	3.32857142857	13.3890909091	-1.66666666667
1079	0.5395	-9.20718562874	3.32857142857	-0.901818181818	-1.66666666667
1080	0.54	2.09341317365	-5.24285714286	1.95636363636	-4.53777777778
1081	0.5405	10.5688622754	20.4714285714	1.95636363636	-10.28
1082	0.541	-2.14431137725	0.471428571429	0.527272727273	-8.84444444444
1083	0.5415	2.09341317365	-2.38571428571	-0.901818181818	-7.40888888889
1084	0.542	11.9814371257	1.9	0.527272727273	-13.1511111111
1085	0.5425	11.9814371257	3.32857142857	4.81454545455	-1.66666666667
1086	0.543	10.5688622754	13.3285714286	4.81454545455	-1.66666666667
1087	0.5435	7.74371257485	-5.24285714286	6.24363636364	-4.53777777778
1088	0.544	28.9323353293	-0.957142857143	6.24363636364	-0.231111111111
1089	0.5445	-2.14431137725	0.471428571429	7.67272727273	8.38222222222
1090	0.545	4.91856287425	0.471428571429	-0.901818181818	-4.53777777778
1091	0.5455	-3.55688622754	3.32857142857	-3.76	-5.97333333333
1092	0.546	-7.79461077844	-13.8142857143	0.527272727273	-1.66666666667
1093	0.5465	-4.96946107784	-8.1	1.95636363636	-4.53777777778
1094	0.547	-14.8574850299	1.9	0.527272727273	-1.66666666667
1095	0.5475	-7.79461077844	1.9	3.38545454545	8.38222222222
1096	0.548	2.09341317365	1.9	-6.61818181818	-1.66666666667
1097	0.5485	0.680838323353	0.471428571429	-8.04727272727	-5.97333333333
1098	0.549	3.50598802395	-13.8142857143	-2.33090909091	-4.53777777778
1099	0.5495	7.74371257485	-10.9571428571	1.95636363636	-4.53777777778
1100	0.55	-0.731736526946	0.471428571429	0.527272727273	-1.66666666667
1101	0.5505	-0.731736526946	0.471428571429	0.527272727273	-4.53777777778
1102	0.551	10.5688622754	1.9	-10.9054545455	-7.40888888889
1103	0.5515	9.15628742515	0.471428571429	-2.33090909091	-4.53777777778
1104	0.552	7.74371257485	19.0428571429	0.527272727273	-1.66666666667
1105	0.5525	9.15628742515	-8.1	-0.901818181818	-3.10222222222
1106	0.553	17.6317365269	0.471428571429	-2.33090909091	-4.53777777778
1107	0.5535	10.5688622754	0.471428571429	-0.901818181818	-13.1511111111
1108	0.554	14.8065868263	1.9	-8.04727272727	-3.10222222222
1109	0.5545	13.394011976	-0.957142857143	0.527272727273	-0.231111111111
1110	0.555	9.15628742515	6.18571428571	1.95636363636	-0.231111111111
1111	0.5555	3.50598802395	-0.957142857143	0.527272727273	-3.10222222222
1112	0.556	-9.20718562874	3.32857142857	1.95636363636	18.4311111111
1113	0.5565	-0.731736526946	-0.957142857143	4.81454545455	-11.7155555556
1114	0.557	-4.96946107784	-3.81428571429	-8.04727272727	-13.1511111111
1115	0.5575	-2.14431137725	-2.38571428571	0.527272727273	-4.53777777778
1116	0.558	-4.96946107784	-8.1	1.95636363636	-3.10222222222
1117	0.5585	-7.79461077844	-5.24285714286	0.527272727273	-4.53777777778
1118	0.559	-6.38203592814	-8.1	1.95636363636	-0.231111111111
1119	0.5595	-6.38203592814	-6.67142857143	1.95636363636	-1.66666666667
1120	0.56	-6.38203592814	-0.957142857143	6.24363636364	2.64
1121	0.5605	-4.96946107784	1.9	4.81454545455	-3.10222222222
1122	0.561	-3.55688622754	37.6142857143	1.95636363636	-4.53777777778
1123	0.5615	-4.96946107784	20.4714285714	0.527272727273	-5.97333333333
1124	0.562	16.2191616766	1.9	3.38545454545	-11.7155555556
1125	0.5625	-0.731736526946	-5.24285714286	-0.901818181818	-20.3288888889
1126	0.563	-3.55688622754	-6.67142857143	-3.76	-8.84444444444
1127	0.5635	-4.96946107784	-8.1	0.527272727273	-10.28
1128	0.564	2.09341317365	1.9	0.527272727273	-8.84444444444
1129	0.5645	7.74371257485	-5.24285714286	-0.901818181818	-3.10222222222
1130	0.565	-9.20718562874	-0.957142857143	0.527272727273	6.94666666667
1131	0.5655	-0.731736526946	-3.81428571429	0.527272727273	1.20444444444
1132	0.566	-6.38203592814	-0.957142857143	-9.47636363636	4.07555555556
1133	0.5665	-10.619760479	3.32857142857	-12.3345454545	4.07555555556
1134	0.567	-13.4449101796	-5.24285714286	-0.901818181818	-1.66666666667
1135	0.5675	-4.96946107784	-3.81428571429	0.527272727273	-4.53777777778
1136	0.568	17.6317365269	4.75714285714	-2.33090909091	-5.97333333333
1137	0.5685	7.74371257485	-0.957142857143	-0.901818181818	8.38222222222
1138	0.569	14.8065868263	0.471428571429	-5.18909090909	4.07555555556
1139	0.5695	9.15628742515	1.9	-0.901818181818	-1.66666666667
1140	0.57	-0.731736526946	16.1857142857	0.527272727273	-1.66666666667
1141	0.5705	-6.38203592814	-8.1	0.527272727273	-0.231111111111
1142	0.571	13.394011976	-2.38571428571	3.38545454545	2.64
1143	0.5715	-13.4449101796	-5.24285714286	4.81454545455	4.07555555556
1144	0.572	-0.731736526946	-10.9571428571	1.95636363636	-10.28
1145	0.5725	0.680838323353	-6.67142857143	-2.33090909091	-0.231111111111
1146	0.573	2.09341317365	-0.957142857143	-2.33090909091	6.94666666667
1147	0.5735	10.5688622754	-0.957142857143	6.24363636364	6.94666666667
1148	0.574	0.680838323353	-5.24285714286	3.38545454545	1.20444444444
1149	0.5745	2.09341317365	-2.38571428571	9.10181818182	12.6888888889
1150	0.575	9.15628742515	-2.38571428571	24.8218181818	-5.97333333333
1151	0.5755	4.91856287425	0.471428571429	7.67272727273	-5.97333333333
1152	0.576	0.680838323353	3.32857142857	3.38545454545	-5.97333333333
1153	0.5765	0.680838323353	-0.957142857143	1.95636363636	-8.84444444444
1154	0.577	19.0443113772	-8.1	0.527272727273	-17.4577777778
1155	0.5775	0.680838323353	4.75714285714	-2.33090909091	-3.10222222222
1156	0.578	-0.731736526946	16.1857142857	3.38545454545	-7.40888888889
1157	0.5785	-6.38203592814	13.3285714286	17.6763636364	-14.5866666667
1158	0.579	-16.2700598802	0.471428571429	3.38545454545	-8.84444444444
1159	0.5795	-14.8574850299	7.61428571429	0.527272727273	-3.10222222222
1160	0.58	-4.96946107784	-6.67142857143	-0.901818181818	4.07555555556
1161	0.5805	-10.619760479	-2.38571428571	-0.901818181818	18.4311111111
1162	0.581	-4.96946107784	-2.38571428571	3.38545454545	4.07555555556
1163	0.5815	0.680838323353	-0.957142857143	-8.04727272727	6.94666666667
1164	0.582	-4.96946107784	19.0428571429	-0.901818181818	-1.66666666667
1165	0.5825	-4.96946107784	0.471428571429	-2.33090909091	-4.53777777778
1166	0.583	2.09341317365	0.471428571429	-2.33090909091	-13.1511111111
1167	0.5835	-0.731736526946	0.471428571429	-2.33090909091	-10.28
1168	0.584	7.74371257485	-2.38571428571	-5.18909090909	-3.10222222222
1169	0.5845	7.74371257485	-3.81428571429	-0.901818181818	-1.66666666667
1170	0.585	7.74371257485	17.6142857143	0.527272727273	-1.66666666667
1171	0.5855	2.09341317365	13.3285714286	-0.901818181818	-0.231111111111
1172	0.586	-6.38203592814	14.7571428571	0.527272727273	1.20444444444
1173	0.5865	4.91856287425	1.9	-0.901818181818	14.1244444444
1174	0.587	4.91856287425	-9.52857142857	1.95636363636	-8.84444444444
1175	0.5875	-0.731736526946	-12.3857142857	-0.901818181818	-1.66666666667
1176	0.588	2.09341317365	0.471428571429	4.81454545455	-1.66666666667
1177	0.5885	-0.731736526946	4.75714285714	4.81454545455	-5.97333333333
1178	0.589	0.680838323353	6.18571428571	4.81454545455	-7.40888888889
1179	0.5895	0.680838323353	4.75714285714	-0.901818181818	-13.1511111111
1180	0.59	-0.731736526946	3.32857142857	4.81454545455	-7.40888888889
1181	0.5905	0.680838323353	1.9	3.38545454545	-7.40888888889
1182	0.591	0.680838323353	-15.2428571429	6.24363636364	-4.53777777778
1183	0.5915	7.74371257485	-2.38571428571	6.24363636364	-7.40888888889
1184	0.592	17.6317365269	1.9	4.81454545455	-3.10222222222
1185	0.5925	-7.79461077844	1.9	3.38545454545	-7.40888888889
1186	0.593	-7.79461077844	0.471428571429	13.3890909091	-5.97333333333
1187	0.5935	-7.79461077844	3.32857142857	3.38545454545	-4.53777777778
1188	0.594	-7.79461077844	13.3285714286	-2.33090909091	-1.66666666667
1189	0.5945	-16.2700598802	4.75714285714	-0.901818181818	-1.66666666667
1190	0.595	14.8065868263	-0.957142857143	-0.901818181818	1.20444444444
1191	0.5955	0.680838323353	-6.67142857143	-0.901818181818	5.51111111111
1192	0.596	16.2191616766	-9.52857142857	16.2472727273	-7.40888888889
1193	0.5965	24.6946107784	-9.52857142857	14.8181818182	-13.1511111111
1194	0.597	28.9323353293	-5.24285714286	-0.901818181818	-4.53777777778
1195	0.5975	23.2820359281	-0.957142857143	-0.901818181818	4.07555555556
1196	0.598	35.9952095808	-9.52857142857	-5.18909090909	11.2533333333
1197	0.5985	24.6946107784	-6.67142857143	-10.9054545455	14.1244444444
1198	0.599	24.6946107784	9.04285714286	-12.3345454545	8.38222222222
1199	0.5995	21.8694610778	23.3285714286	-2.33090909091	-0.231111111111
1200	0.6	19.0443113772	4.75714285714	0.527272727273	-4.53777777778
1201	0.6005	17.6317365269	3.32857142857	-0.901818181818	-10.28
1202	0.601	21.8694610778	-0.957142857143	0.527272727273	-10.28
1203	0.6015	4.91856287425	0.471428571429	3.38545454545	-10.28
1204	0.602	-4.96946107784	3.32857142857	1.95636363636	1.20444444444
1205	0.6025	-10.619760479	3.32857142857	0.527272727273	-4.53777777778
1206	0.603	-16.2700598802	16.1857142857	3.38545454545	-5.97333333333
1207	0.6035	-9.20718562874	-5.24285714286	0.527272727273	-3.10222222222
1208	0.604	21.8694610778	-3.81428571429	0.527272727273	-8.84444444444
1209	0.6045	20.4568862275	-2.38571428571	-0.901818181818	8.38222222222
1210	0.605	26.1071856287	0.471428571429	19.1054545455	-7.40888888889
1211	0.6055	23.2820359281	13.3285714286	17.6763636364	-5.97333333333
1212	0.606	16.2191616766	7.61428571429	6.24363636364	-5.97333333333
1213	0.6065	19.0443113772	23.3285714286	7.67272727273	-7.40888888889
1214	0.607	19.0443113772	14.7571428571	4.81454545455	-4.53777777778
1215	0.6075	10.5688622754	1.9	9.10181818182	-5.97333333333
1216	0.608	3.50598802395	0.471428571429	17.6763636364	-4.53777777778
1217	0.6085	-4.96946107784	-10.9571428571	19.1054545455	2.64
1218	0.609	-9.20718562874	-22.3857142857	6.24363636364	6.94666666667
1219	0.6095	-4.96946107784	-18.1	3.38545454545	2.64
1220	0.61	-23.3329341317	-10.9571428571	0.527272727273	-1.66666666667
1221	0.6105	-24.745508982	-9.52857142857	1.95636363636	-13.1511111111
1222	0.611	-16.2700598802	0.471428571429	-9.47636363636	-8.84444444444
1223	0.6115	-13.4449101796	6.18571428571	-9.47636363636	-7.40888888889
1224	0.612	-3.55688622754	9.04285714286	-0.901818181818	-8.84444444444
1225	0.6125	10.5688622754	34.7571428571	-0.901818181818	-13.1511111111
1226	0.613	10.5688622754	27.6142857143	-0.901818181818	-4.53777777778
1227	0.6135	26.1071856287	9.04285714286	-0.901818181818	16.9955555556
1228	0.614	19.0443113772	1.9	13.3890909091	14.1244444444
1229	0.6145	11.9814371257	0.471428571429	-5.18909090909	11.2533333333
1230	0.615	7.74371257485	0.471428571429	-8.04727272727	18.4311111111
1231	0.6155	2.09341317365	-6.67142857143	-2.33090909091	21.3022222222
1232	0.616	-10.619760479	-8.1	-2.33090909091	16.9955555556
1233	0.6165	-9.20718562874	-8.1	-2.33090909091	-0.231111111111
1234	0.617	-0.731736526946	-3.81428571429	-2.33090909091	-4.53777777778
1235	0.6175	-4.96946107784	0.471428571429	-2.33090909091	-5.97333333333
1236	0.618	-10.619760479	0.471428571429	-5.18909090909	-7.40888888889
1237	0.6185	-9.20718562874	1.9	1.95636363636	-4.53777777778
1238	0.619	-3.55688622754	3.32857142857	4.81454545455	-13.1511111111
1239	0.6195	-14.8574850299	1.9	0.527272727273	-1.66666666667
1240	0.62	-7.79461077844	1.9	4.81454545455	8.38222222222
1241	0.6205	-4.96946107784	-2.38571428571	-0.901818181818	-1.66666666667
1242	0.621	-0.731736526946	-0.957142857143	-0.901818181818	-1.66666666667
1243	0.6215	0.680838323353	-8.1	1.95636363636	-4.53777777778
1244	0.622	2.09341317365	0.471428571429	0.527272727273	-4.53777777778
1245	0.6225	-12.0323353293	0.471428571429	0.527272727273	12.6888888889
1246	0.623	-10.619760479	0.471428571429	0.527272727273	-5.97333333333
1247	0.6235	-17.6826347305	1.9	14.8181818182	-4.53777777778
1248	0.624	-21.9203592814	-2.38571428571	16.2472727273	-7.40888888889
1249	0.6245	-21.9203592814	-8.1	-0.901818181818	-7.40888888889
1250	0.625	-21.9203592814	-0.957142857143	1.95636363636	-4.53777777778
1251	0.6255	-3.55688622754	-3.81428571429	4.81454545455	-8.84444444444
1252	0.626	-2.14431137725	-2.38571428571	4.81454545455	-10.28
1253	0.6265	7.74371257485	0.471428571429	-3.76	-8.84444444444
1254	0.627	2.09341317365	0.471428571429	9.10181818182	-8.84444444444
1255	0.6275	-3.55688622754	-5.24285714286	-0.901818181818	-7.40888888889
1256	0.628	-4.96946107784	0.471428571429	-0.901818181818	-10.28
1257	0.6285	27.519760479	4.75714285714	-0.901818181818	-7.40888888889
1258	0.629	21.8694610778	1.9	-12.3345454545	-14.5866666667
1259	0.6295	11.9814371257	0.471428571429	-10.9054545455	-10.28
1260	0.63	6.33113772455	3.32857142857	-5.18909090909	-8.84444444444
1261	0.6305	-2.14431137725	-13.8142857143	-6.61818181818	-4.53777777778
1262	0.631	-6.38203592814	3.32857142857	-3.76	-8.84444444444
1263	0.6315	7.74371257485	-0.957142857143	-2.33090909091	-5.97333333333
1264	0.632	-10.619760479	1.9	-3.76	6.94666666667
1265	0.6325	-3.55688622754	0.471428571429	0.527272727273	4.07555555556
1266	0.633	-4.96946107784	-2.38571428571	-9.47636363636	8.38222222222
1267	0.6335	-3.55688622754	-0.957142857143	1.95636363636	-0.231111111111
1268	0.634	-3.55688622754	4.75714285714	1.95636363636	-7.40888888889
1269	0.6345	13.394011976	7.61428571429	3.38545454545	-8.84444444444
1270	0.635	9.15628742515	6.18571428571	3.38545454545	16.9955555556
1271	0.6355	17.6317365269	1.9	16.2472727273	24.1733333333
1272	0.636	10.5688622754	-5.24285714286	17.6763636364	22.7377777778
1273	0.6365	-0.731736526946	-10.9571428571	4.81454545455	8.38222222222
1274	0.637	-4.96946107784	19.0428571429	3.38545454545	-1.66666666667
1275	0.6375	0.680838323353	0.471428571429	4.81454545455	-5.97333333333
1276	0.638	4.91856287425	-0.957142857143	3.38545454545	-1.66666666667
1277	0.6385	4.91856287425	0.471428571429	3.38545454545	5.51111111111
1278	0.639	-2.14431137725	4.75714285714	4.81454545455	-3.10222222222
1279	0.6395	-9.20718562874	14.7571428571	4.81454545455	-7.40888888889
1280	0.64	-10.619760479	-5.24285714286	6.24363636364	-5.97333333333
1281	0.6405	9.15628742515	0.471428571429	4.81454545455	-16.0222222222
1282	0.641	-0.731736526946	0.471428571429	1.95636363636	-1.66666666667
1283	0.6415	4.91856287425	0.471428571429	4.81454545455	12.6888888889
1284	0.642	7.74371257485	3.32857142857	17.6763636364	-8.84444444444
1285	0.6425	2.09341317365	1.9	-0.901818181818	-3.10222222222
1286	0.643	-4.96946107784	0.471428571429	1.95636363636	-3.10222222222
1287	0.6435	-4.96946107784	0.471428571429	-0.901818181818	-3.10222222222
1288	0.644	-4.96946107784	-0.957142857143	1.95636363636	-3.10222222222
1289	0.6445	-3.55688622754	0.471428571429	-12.3345454545	-4.53777777778
1290	0.645	-6.38203592814	1.9	-9.47636363636	1.20444444444
1291	0.6455	-2.14431137725	-0.957142857143	1.95636363636	-1.66666666667
1292	0.646	-0.731736526946	-5.24285714286	1.95636363636	-1.66666666667
1293	0.6465	-9.20718562874	-3.81428571429	0.527272727273	-1.66666666667
1294	0.647	-3.55688622754	-3.81428571429	1.95636363636	5.51111111111
1295	0.6475	-3.55688622754	1.9	7.67272727273	-4.53777777778
1296	0.648	-4.96946107784	-2.38571428571	-3.76	-1.66666666667
1297	0.6485	4.91856287425	17.6142857143	4.81454545455	-3.10222222222
1298	0.649	10.5688622754	14.7571428571	4.81454545455	-4.53777777778
1299	0.6495	20.4568862275	-0.957142857143	1.95636363636	-1.66666666667
1300	0.65	11.9814371257	-2.38571428571	3.38545454545	-1.66666666667
1301	0.6505	16.2191616766	-0.957142857143	7.67272727273	-4.53777777778
1302	0.651	16.2191616766	-3.81428571429	-2.33090909091	-0.231111111111
1303	0.6515	19.0443113772	14.7571428571	4.81454545455	-0.231111111111
1304	0.652	20.4568862275	7.61428571429	1.95636363636	-0.231111111111
1305	0.6525	31.7574850299	1.9	0.527272727273	-10.28
1306	0.653	16.2191616766	9.04285714286	0.527272727273	2.64
1307	0.6535	14.8065868263	10.4714285714	-0.901818181818	-3.10222222222
1308	0.654	9.15628742515	7.61428571429	1.95636363636	-0.231111111111
1309	0.6545	7.74371257485	-5.24285714286	-0.901818181818	-4.53777777778
1310	0.655	9.15628742515	-8.1	-0.901818181818	-3.10222222222
1311	0.6555	13.394011976	-5.24285714286	0.527272727273	-5.97333333333
1312	0.656	-10.619760479	0.471428571429	0.527272727273	14.1244444444
1313	0.6565	-12.0323353293	6.18571428571	11.96	-0.231111111111
1314	0.657	-12.0323353293	10.4714285714	-0.901818181818	-0.231111111111
1315	0.6575	-6.38203592814	24.7571428571	0.527272727273	1.20444444444
1316	0.658	-19.0952095808	3.32857142857	0.527272727273	-1.66666666667
1317	0.6585	17.6317365269	-3.81428571429	1.95636363636	-0.231111111111
1318	0.659	2.09341317365	-3.81428571429	-3.76	-5.97333333333
1319	0.6595	3.50598802395	1.9	-0.901818181818	-1.66666666667
1320	0.66	3.50598802395	-9.52857142857	-3.76	-1.66666666667
1321	0.6605	7.74371257485	7.61428571429	-0.901818181818	-1.66666666667
1322	0.661	-4.96946107784	-5.24285714286	-2.33090909091	-1.66666666667
1323	0.6615	-3.55688622754	-0.957142857143	0.527272727273	14.1244444444
1324	0.662	0.680838323353	1.9	3.38545454545	-8.84444444444
1325	0.6625	3.50598802395	-0.957142857143	-2.33090909091	-4.53777777778
1326	0.663	0.680838323353	-10.9571428571	1.95636363636	-1.66666666667
1327	0.6635	3.50598802395	-10.9571428571	0.527272727273	-3.10222222222
1328	0.664	-0.731736526946	4.75714285714	4.81454545455	-1.66666666667
1329	0.6645	-7.79461077844	1.9	0.527272727273	11.2533333333
1330	0.665	-12.0323353293	0.471428571429	-6.61818181818	-3.10222222222
1331	0.6655	-7.79461077844	1.9	-9.47636363636	-0.231111111111
1332	0.666	3.50598802395	17.6142857143	-0.901818181818	-0.231111111111
1333	0.6665	4.91856287425	-6.67142857143	0.527272727273	-1.66666666667
1334	0.667	24.6946107784	1.9	3.38545454545	-3.10222222222
1335	0.6675	16.2191616766	3.32857142857	3.38545454545	-7.40888888889
1336	0.668	17.6317365269	4.75714285714	9.10181818182	-0.231111111111
1337	0.6685	19.0443113772	0.471428571429	14.8181818182	1.20444444444
1338	0.669	23.2820359281	-8.1	1.95636363636	1.20444444444
1339	0.6695	24.6946107784	0.471428571429	4.81454545455	1.20444444444
1340	0.67	3.50598802395	4.75714285714	4.81454545455	2.64
1341	0.6705	-4.96946107784	1.9	4.81454545455	14.1244444444
1342	0.671	-4.96946107784	7.61428571429	14.8181818182	-0.231111111111
1343	0.6715	-10.619760479	13.3285714286	3.38545454545	-4.53777777778
1344	0.672	-12.0323353293	16.1857142857	3.38545454545	-4.53777777778
1345	0.6725	-16.2700598802	-0.957142857143	4.81454545455	-3.10222222222
1346	0.673	-20.5077844311	-5.24285714286	3.38545454545	-13.1511111111
1347	0.6735	-13.4449101796	-5.24285714286	4.81454545455	-8.84444444444
1348	0.674	-7.79461077844	-2.38571428571	-2.33090909091	-11.7155555556
1349	0.6745	-3.55688622754	-0.957142857143	-3.76	-4.53777777778
1350	0.675	2.09341317365	-0.957142857143	-0.901818181818	-1.66666666667
1351	0.6755	0.680838323353	-0.957142857143	-0.901818181818	-4.53777777778
1352	0.676	-7.79461077844	-2.38571428571	0.527272727273	11.2533333333
1353	0.6765	-3.55688622754	1.9	0.527272727273	-16.0222222222
1354	0.677	2.09341317365	-2.38571428571	-3.76	-11.7155555556
1355	0.6775	11.9814371257	-15.2428571429	0.527272727273	-4.53777777778
1356	0.678	19.0443113772	-19.5285714286	-0.901818181818	-1.66666666667
1357	0.6785	21.8694610778	1.9	-0.901818181818	-1.66666666667
1358	0.679	33.1700598802	16.1857142857	-0.901818181818	1.20444444444
1359	0.6795	14.8065868263	10.4714285714	-0.901818181818	-5.97333333333
1360	0.68	10.5688622754	16.1857142857	7.67272727273	-1.66666666667
1361	0.6805	4.91856287425	-0.957142857143	-0.901818181818	-1.66666666667
1362	0.681	-2.14431137725	-10.9571428571	-0.901818181818	-7.40888888889
1363	0.6815	-3.55688622754	-6.67142857143	-3.76	-5.97333333333
1364	0.682	3.50598802395	-5.24285714286	-0.901818181818	-11.7155555556
1365	0.6825	-17.6826347305	-2.38571428571	3.38545454545	-3.10222222222
1366	0.683	-24.745508982	-0.957142857143	-0.901818181818	-0.231111111111
1367	0.6835	-19.0952095808	-12.3857142857	0.527272727273	-0.231111111111
1368	0.684	-2.14431137725	17.6142857143	-0.901818181818	-0.231111111111
1369	0.6845	-7.79461077844	7.61428571429	0.527272727273	-0.231111111111
1370	0.685	21.8694610778	9.04285714286	-0.901818181818	-1.66666666667
1371	0.6855	-0.731736526946	4.75714285714	-3.76	-1.66666666667
1372	0.686	-4.96946107784	-0.957142857143	-5.18909090909	-3.10222222222
1373	0.6865	-6.38203592814	-5.24285714286	-3.76	-4.53777777778
1374	0.687	-0.731736526946	-3.81428571429	0.527272727273	-7.40888888889
1375	0.6875	16.2191616766	-0.957142857143	1.95636363636	-1.66666666667
1376	0.688	-7.79461077844	0.471428571429	3.38545454545	-1.66666666667
1377	0.6885	-3.55688622754	3.32857142857	6.24363636364	-16.0222222222
1378	0.689	2.09341317365	1.9	-6.61818181818	-4.53777777778
1379	0.6895	-2.14431137725	0.471428571429	-2.33090909091	-4.53777777778
1380	0.69	-4.96946107784	14.7571428571	1.95636363636	-5.97333333333
1381	0.6905	-9.20718562874	-5.24285714286	1.95636363636	-5.97333333333
1382	0.691	7.74371257485	-2.38571428571	3.38545454545	-8.84444444444
1383	0.6915	-3.55688622754	1.9	1.95636363636	-10.28
1384	0.692	-2.14431137725	0.471428571429	1.95636363636	1.20444444444
1385	0.6925	2.09341317365	-5.24285714286	-0.901818181818	-8.84444444444
1386	0.693	7.74371257485	6.18571428571	1.95636363636	-8.84444444444
1387	0.6935	-10.619760479	-2.38571428571	0.527272727273	-8.84444444444
1388	0.694	19.0443113772	1.9	0.527272727273	-13.1511111111
1389	0.6945	-0.731736526946	0.471428571429	0.527272727273	-10.28
1390	0.695	-4.96946107784	1.9	-2.33090909091	-11.7155555556
1391	0.6955	-3.55688622754	1.9	-3.76	2.64
1392	0.696	0.680838323353	-2.38571428571	-0.901818181818	19.8666666667
1393	0.6965	13.394011976	1.9	0.527272727273	29.9155555556
1394	0.697	19.0443113772	6.18571428571	-2.33090909091	21.3022222222
1395	0.6975	-16.2700598802	4.75714285714	-2.33090909091	29.9155555556
1396	0.698	-20.5077844311	-2.38571428571	13.3890909091	-1.66666666667
1397	0.6985	-9.20718562874	-2.38571428571	0.527272727273	-7.40888888889
1398	0.699	13.394011976	-9.52857142857	1.95636363636	-8.84444444444
1399	0.6995	11.9814371257	-5.24285714286	0.527272727273	-10.28
1400	0.7	37.4077844311	-0.957142857143	1.95636363636	-5.97333333333
1401	0.7005	23.2820359281	9.04285714286	-8.04727272727	-5.97333333333
1402	0.701	24.6946107784	7.61428571429	-10.9054545455	-8.84444444444
1403	0.7015	26.1071856287	0.471428571429	3.38545454545	-5.97333333333
1404	0.702	27.519760479	-22.3857142857	1.95636363636	-7.40888888889
1405	0.7025	24.6946107784	-5.24285714286	4.81454545455	-1.66666666667
1406	0.703	34.5826347305	1.9	3.38545454545	1.20444444444
1407	0.7035	11.9814371257	4.75714285714	1.95636363636	-7.40888888889
1408	0.704	2.09341317365	14.7571428571	-3.76	-4.53777777778
1409	0.7045	-2.14431137725	3.32857142857	-2.33090909091	2.64
1410	0.705	-4.96946107784	6.18571428571	-0.901818181818	4.07555555556
1411	0.7055	-6.38203592814	9.04285714286	1.95636363636	-1.66666666667
1412	0.706	9.15628742515	0.471428571429	0.527272727273	-7.40888888889
1413	0.7065	-4.96946107784	-5.24285714286	-0.901818181818	15.56
1414	0.707	-3.55688622754	-9.52857142857	9.10181818182	-4.53777777778
1415	0.7075	-0.731736526946	-8.1	0.527272727273	-4.53777777778
1416	0.708	-0.731736526946	9.04285714286	-0.901818181818	-4.53777777778
1417	0.7085	-7.79461077844	1.9	1.95636363636	-4.53777777778
1418	0.709	17.6317365269	9.04285714286	-0.901818181818	-7.40888888889
1419	0.7095	4.91856287425	4.75714285714	-8.04727272727	-7.40888888889
1420	0.71	10.5688622754	0.471428571429	-9.47636363636	-4.53777777778
1421	0.7105	11.9814371257	-0.957142857143	0.527272727273	-4.53777777778
1422	0.711	14.8065868263	4.75714285714	4.81454545455	-8.84444444444
1423	0.7115	16.2191616766	-10.9571428571	0.527272727273	-4.53777777778
1424	0.712	4.91856287425	-0.957142857143	-0.901818181818	5.51111111111
1425	0.7125	7.74371257485	6.18571428571	1.95636363636	-18.8933333333
1426	0.713	3.50598802395	6.18571428571	-6.61818181818	-8.84444444444
1427	0.7135	7.74371257485	0.471428571429	-6.61818181818	-8.84444444444
1428	0.714	13.394011976	6.18571428571	1.95636363636	-7.40888888889
1429	0.7145	23.2820359281	-3.81428571429	0.527272727273	-3.10222222222
1430	0.715	0.680838323353	-3.81428571429	0.527272727273	-0.231111111111
1431	0.7155	-2.14431137725	0.471428571429	-0.901818181818	-1.66666666667
1432	0.716	-7.79461077844	0.471428571429	-2.33090909091	1.20444444444
1433	0.7165	-12.0323353293	-9.52857142857	-0.901818181818	6.94666666667
1434	0.717	-9.20718562874	-3.81428571429	-0.901818181818	2.64
1435	0.7175	-9.20718562874	4.75714285714	0.527272727273	2.64
1436	0.718	-16.2700598802	0.471428571429	-0.901818181818	1.20444444444
1437	0.7185	-7.79461077844	-6.67142857143	3.38545454545	5.51111111111
1438	0.719	-4.96946107784	-8.1	16.2472727273	-1.66666666667
1439	0.7195	-6.38203592814	-8.1	-0.901818181818	-3.10222222222
1440	0.72	-0.731736526946	36.1857142857	0.527272727273	-5.97333333333
1441	0.7205	3.50598802395	23.3285714286	-0.901818181818	-1.66666666667
1442	0.721	-0.731736526946	9.04285714286	1.95636363636	4.07555555556
1443	0.7215	-0.731736526946	0.471428571429	4.81454545455	15.56
1444	0.722	0.680838323353	-3.81428571429	21.9636363636	-0.231111111111
1445	0.7225	2.09341317365	-16.6714285714	1.95636363636	-3.10222222222
1446	0.723	3.50598802395	14.7571428571	-0.901818181818	-4.53777777778
1447	0.7235	4.91856287425	0.471428571429	0.527272727273	-13.1511111111
1448	0.724	2.09341317365	-0.957142857143	0.527272727273	-8.84444444444
1449	0.7245	6.33113772455	-2.38571428571	-0.901818181818	12.6888888889
1450	0.725	10.5688622754	3.32857142857	17.6763636364	-5.97333333333
1451	0.7255	9.15628742515	0.471428571429	0.527272727273	-4.53777777778
1452	0.726	10.5688622754	7.61428571429	-0.901818181818	-7.40888888889
1453	0.7265	26.1071856287	0.471428571429	-2.33090909091	-16.0222222222
1454	0.727	7.74371257485	1.9	-5.18909090909	-13.1511111111
1455	0.7275	11.9814371257	0.471428571429	-0.901818181818	6.94666666667
1456	0.728	9.15628742515	0.471428571429	6.24363636364	-7.40888888889
1457	0.7285	2.09341317365	6.18571428571	0.527272727273	-7.40888888889
1458	0.729	-2.14431137725	-10.9571428571	-0.901818181818	-8.84444444444
1459	0.7295	27.519760479	-6.67142857143	1.95636363636	-5.97333333333
1460	0.73	10.5688622754	-5.24285714286	1.95636363636	-3.10222222222
1461	0.7305	23.2820359281	-3.81428571429	4.81454545455	-13.1511111111
1462	0.731	24.6946107784	1.9	-0.901818181818	-3.10222222222
1463	0.7315	19.0443113772	-5.24285714286	3.38545454545	-3.10222222222
1464	0.732	19.0443113772	3.32857142857	1.95636363636	-7.40888888889
1465	0.7325	4.91856287425	1.9	0.527272727273	-7.40888888889
1466	0.733	17.6317365269	4.75714285714	1.95636363636	-16.0222222222
1467	0.7335	10.5688622754	-0.957142857143	7.67272727273	-8.84444444444
1468	0.734	20.4568862275	-3.81428571429	16.2472727273	-10.28
1469	0.7345	31.7574850299	17.6142857143	-0.901818181818	-11.7155555556
1470	0.735	23.2820359281	16.1857142857	-5.18909090909	-11.7155555556
1471	0.7355	10.5688622754	3.32857142857	-3.76	-11.7155555556
1472	0.736	-10.619760479	0.471428571429	-8.04727272727	-18.8933333333
1473	0.7365	-16.2700598802	0.471428571429	-2.33090909091	-13.1511111111
1474	0.737	-14.8574850299	-0.957142857143	-8.04727272727	-7.40888888889
1475	0.7375	-7.79461077844	-12.3857142857	-3.76	-4.53777777778
1476	0.738	2.09341317365	4.75714285714	0.527272727273	-3.10222222222
1477	0.7385	23.2820359281	6.18571428571	3.38545454545	-0.231111111111
1478	0.739	2.09341317365	4.75714285714	6.24363636364	-1.66666666667
1479	0.7395	-4.96946107784	1.9	-3.76	11.2533333333
1480	0.74	-12.0323353293	9.04285714286	6.24363636364	19.8666666667
1481	0.7405	-13.4449101796	21.9	7.67272727273	21.3022222222
1482	0.741	-9.20718562874	0.471428571429	9.10181818182	12.6888888889
1483	0.7415	-9.20718562874	-3.81428571429	6.24363636364	8.38222222222
1484	0.742	-10.619760479	-3.81428571429	11.96	6.94666666667
1485	0.7425	-7.79461077844	0.471428571429	13.3890909091	-10.28
1486	0.743	-9.20718562874	-9.52857142857	6.24363636364	-13.1511111111
1487	0.7435	-9.20718562874	23.3285714286	4.81454545455	-13.1511111111
1488	0.744	-20.5077844311	9.04285714286	6.24363636364	-4.53777777778
1489	0.7445	-12.0323353293	-0.957142857143	4.81454545455	18.4311111111
1490	0.745	-0.731736526946	-12.3857142857	3.38545454545	-0.231111111111
1491	0.7455	0.680838323353	-5.24285714286	4.81454545455	-1.66666666667
1492	0.746	0.680838323353	-3.81428571429	-0.901818181818	-1.66666666667
1493	0.7465	10.5688622754	-5.24285714286	-3.76	-7.40888888889
1494	0.747	16.2191616766	6.18571428571	-2.33090909091	-10.28
1495	0.7475	0.680838323353	6.18571428571	-3.76	-10.28
1496	0.748	4.91856287425	1.9	-0.901818181818	4.07555555556
1497	0.7485	-2.14431137725	0.471428571429	-0.901818181818	-10.28
1498	0.749	-3.55688622754	-2.38571428571	0.527272727273	-8.84444444444
1499	0.7495	-4.96946107784	-8.1	-2.33090909091	-8.84444444444
1500	0.75	-7.79461077844	6.18571428571	-0.901818181818	-4.53777777778
1501	0.7505	-4.96946107784	4.75714285714	-2.33090909091	5.51111111111
1502	0.751	-0.731736526946	6.18571428571	-8.04727272727	-1.66666666667
1503	0.7515	-2.14431137725	1.9	-10.9054545455	-4.53777777778
1504	0.752	-4.96946107784	-3.81428571429	-2.33090909091	-5.97333333333
1505	0.7525	-12.0323353293	-13.8142857143	-0.901818181818	-7.40888888889
1506	0.753	-13.4449101796	-5.24285714286	0.527272727273	-8.84444444444
1507	0.7535	3.50598802395	4.75714285714	3.38545454545	-7.40888888889
1508	0.754	-0.731736526946	3.32857142857	4.81454545455	14.1244444444
1509	0.7545	14.8065868263	3.32857142857	16.2472727273	5.51111111111
1510	0.755	16.2191616766	0.471428571429	9.10181818182	5.51111111111
1511	0.7555	11.9814371257	-6.67142857143	4.81454545455	2.64
1512	0.756	19.0443113772	-3.81428571429	3.38545454545	-1.66666666667
1513	0.7565	4.91856287425	-5.24285714286	0.527272727273	6.94666666667
1514	0.757	16.2191616766	-0.957142857143	3.38545454545	14.1244444444
1515	0.7575	16.2191616766	-0.957142857143	19.1054545455	14.1244444444
1516	0.758	13.394011976	0.471428571429	14.8181818182	-1.66666666667
1517	0.7585	10.5688622754	-5.24285714286	0.527272727273	-10.28
1518	0.759	2.09341317365	0.471428571429	-0.901818181818	-14.5866666667
1519	0.7595	4.91856287425	-0.957142857143	-0.901818181818	-23.2
1520	0.76	-3.55688622754	0.471428571429	-12.3345454545	-11.7155555556
1521	0.7605	7.74371257485	7.61428571429	-2.33090909091	-5.97333333333
1522	0.761	13.394011976	21.9	0.527272727273	-5.97333333333
1523	0.7615	14.8065868263	-6.67142857143	1.95636363636	-1.66666666667
1524	0.762	19.0443113772	-0.957142857143	3.38545454545	8.38222222222
1525	0.7625	10.5688622754	-2.38571428571	0.527272727273	15.56
1526	0.763	4.91856287425	-5.24285714286	3.38545454545	14.1244444444
1527	0.7635	3.50598802395	-5.24285714286	7.67272727273	-3.10222222222
1528	0.764	4.91856287425	-6.67142857143	0.527272727273	-1.66666666667
1529	0.7645	14.8065868263	-2.38571428571	-2.33090909091	-3.10222222222
1530	0.765	26.1071856287	-0.957142857143	-0.901818181818	-4.53777777778
1531	0.7655	35.9952095808	0.471428571429	3.38545454545	-16.0222222222
1532	0.766	7.74371257485	0.471428571429	4.81454545455	-1.66666666667
1533	0.7665	0.680838323353	6.18571428571	19.1054545455	-4.53777777778
1534	0.767	-4.96946107784	-0.957142857143	21.9636363636	-4.53777777778
1535	0.7675	-0.731736526946	16.1857142857	3.38545454545	-4.53777777778
1536	0.768	-2.14431137725	4.75714285714	0.527272727273	-5.97333333333
1537	0.7685	-3.55688622754	6.18571428571	-0.901818181818	-14.5866666667
1538	0.769	-12.0323353293	4.75714285714	0.527272727273	-3.10222222222
1539	0.7695	-3.55688622754	7.61428571429	4.81454545455	-3.10222222222
1540	0.77	-3.55688622754	1.9	-6.61818181818	-1.66666666667
1541	0.7705	3.50598802395	4.75714285714	4.81454545455	-1.66666666667
1542	0.771	3.50598802395	0.471428571429	3.38545454545	-3.10222222222
1543	0.7715	-4.96946107784	-5.24285714286	1.95636363636	-4.53777777778
1544	0.772	-6.38203592814	-2.38571428571	3.38545454545	-1.66666666667
1545	0.7725	4.91856287425	1.9	14.8181818182	-3.10222222222
1546	0.773	3.50598802395	6.18571428571	-0.901818181818	-7.40888888889
1547	0.7735	0.680838323353	0.471428571429	1.95636363636	-7.40888888889
1548	0.774	-2.14431137725	-3.81428571429	-0.901818181818	-5.97333333333
1549	0.7745	0.680838323353	-2.38571428571	0.527272727273	-3.10222222222
1550	0.775	-2.14431137725	-2.38571428571	-3.76	12.6888888889
1551	0.7755	0.680838323353	-3.81428571429	-3.76	-1.66666666667
1552	0.776	4.91856287425	0.471428571429	-3.76	-4.53777777778
1553	0.7765	3.50598802395	-0.957142857143	0.527272727273	-4.53777777778
1554	0.777	10.5688622754	6.18571428571	3.38545454545	-11.7155555556
1555	0.7775	19.0443113772	10.4714285714	0.527272727273	-13.1511111111
1556	0.778	0.680838323353	4.75714285714	-0.901818181818	-1.66666666667
1557	0.7785	4.91856287425	-2.38571428571	-12.3345454545	-10.28
1558	0.779	3.50598802395	3.32857142857	-2.33090909091	-4.53777777778
1559	0.7795	2.09341317365	-8.1	-0.901818181818	-4.53777777778
1560	0.78	0.680838323353	-6.67142857143	-2.33090909091	-1.66666666667
1561	0.7805	9.15628742515	0.471428571429	0.527272727273	-5.97333333333
1562	0.781	0.680838323353	1.9	-0.901818181818	-10.28
1563	0.7815	2.09341317365	1.9	-12.3345454545	1.20444444444
1564	0.782	-0.731736526946	-2.38571428571	-10.9054545455	-0.231111111111
1565	0.7825	0.680838323353	3.32857142857	-10.9054545455	-0.231111111111
1566	0.783	-4.96946107784	0.471428571429	-3.76	-1.66666666667
1567	0.7835	-9.20718562874	-0.957142857143	0.527272727273	-3.10222222222
1568	0.784	-12.0323353293	0.471428571429	-0.901818181818	-1.66666666667
1569	0.7845	-13.4449101796	-0.957142857143	3.38545454545	-1.66666666667
1570	0.785	-17.6826347305	-5.24285714286	-8.04727272727	-1.66666666667
1571	0.7855	-13.4449101796	1.9	1.95636363636	-3.10222222222
1572	0.786	-7.79461077844	1.9	3.38545454545	-1.66666666667
1573	0.7865	2.09341317365	1.9	3.38545454545	-3.10222222222
1574	0.787	-3.55688622754	6.18571428571	6.24363636364	6.94666666667
1575	0.7875	-6.38203592814	4.75714285714	14.8181818182	-0.231111111111
1576	0.788	-7.79461077844	3.32857142857	3.38545454545	-1.66666666667
1577	0.7885	-0.731736526946	-6.67142857143	1.95636363636	-0.231111111111
1578	0.789	17.6317365269	0.471428571429	0.527272727273	-1.66666666667
1579	0.7895	31.7574850299	0.471428571429	1.95636363636	-1.66666666667
1580	0.79	28.9323353293	0.471428571429	0.527272727273	-4.53777777778
1581	0.7905	28.9323353293	1.9	-8.04727272727	-7.40888888889
1582	0.791	23.2820359281	4.75714285714	-2.33090909091	-3.10222222222
1583	0.7915	23.2820359281	19.0428571429	3.38545454545	-5.97333333333
1584	0.792	27.519760479	-8.1	1.95636363636	-3.10222222222
1585	0.7925	40.2329341317	0.471428571429	3.38545454545	-5.97333333333
1586	0.793	21.8694610778	0.471428571429	4.81454545455	-13.1511111111
1587	0.7935	19.0443113772	0.471428571429	0.527272727273	-5.97333333333
1588	0.794	14.8065868263	-9.52857142857	-0.901818181818	-7.40888888889
1589	0.7945	13.394011976	10.4714285714	1.95636363636	-8.84444444444
1590	0.795	-2.14431137725	6.18571428571	0.527272727273	-7.40888888889
1591	0.7955	-24.745508982	-5.24285714286	3.38545454545	16.9955555556
1592	0.796	-23.3329341317	1.9	1.95636363636	18.4311111111
1593	0.7965	-21.9203592814	7.61428571429	19.1054545455	-3.10222222222
1594	0.797	-27.5706586826	4.75714285714	4.81454545455	-4.53777777778
1595	0.7975	-30.3958083832	-2.38571428571	4.81454545455	-8.84444444444
1596	0.798	-38.871257485	4.75714285714	1.95636363636	-13.1511111111
1597	0.7985	-33.2209580838	10.4714285714	3.38545454545	-10.28
1598	0.799	-12.0323353293	10.4714285714	-2.33090909091	-14.5866666667
1599	0.7995	7.74371257485	6.18571428571	-9.47636363636	-3.10222222222
1600	0.8	16.2191616766	4.75714285714	-0.901818181818	-4.53777777778
1601	0.8005	11.9814371257	17.6142857143	-0.901818181818	-5.97333333333
1602	0.801	-0.731736526946	-0.957142857143	-2.33090909091	-7.40888888889
1603	0.8015	0.680838323353	-6.67142857143	0.527272727273	-3.10222222222
1604	0.802	-2.14431137725	-6.67142857143	0.527272727273	4.07555555556
1605	0.8025	-0.731736526946	-10.9571428571	3.38545454545	-13.1511111111
1606	0.803	3.50598802395	-20.9571428571	1.95636363636	-3.10222222222
1607	0.8035	4.91856287425	-15.2428571429	0.527272727273	-1.66666666667
1608	0.804	-4.96946107784	6.18571428571	1.95636363636	-1.66666666667
1609	0.8045	0.680838323353	19.0428571429	-0.901818181818	-8.84444444444
1610	0.805	2.09341317365	4.75714285714	-2.33090909091	14.1244444444
1611	0.8055	0.680838323353	-0.957142857143	17.6763636364	-1.66666666667
1612	0.806	0.680838323353	-2.38571428571	0.527272727273	-1.66666666667
1613	0.8065	-2.14431137725	-8.1	0.527272727273	-0.231111111111
1614	0.807	-7.79461077844	-2.38571428571	0.527272727273	6.94666666667
1615	0.8075	-7.79461077844	0.471428571429	3.38545454545	14.1244444444
1616	0.808	-6.38203592814	0.471428571429	-12.3345454545	15.56
1617	0.8085	-12.0323353293	6.18571428571	-12.3345454545	14.1244444444
1618	0.809	-17.6826347305	20.4714285714	0.527272727273	-0.231111111111
1619	0.8095	-21.9203592814	-10.9571428571	0.527272727273	-10.28
1620	0.81	-14.8574850299	-3.81428571429	1.95636363636	-10.28
1621	0.8105	-4.96946107784	1.9	1.95636363636	4.07555555556
1622	0.811	2.09341317365	6.18571428571	0.527272727273	2.64
1623	0.8115	13.394011976	6.18571428571	7.67272727273	-5.97333333333
1624	0.812	11.9814371257	4.75714285714	0.527272727273	-8.84444444444
1625	0.8125	11.9814371257	-0.957142857143	0.527272727273	-7.40888888889
1626	0.813	-2.14431137725	0.471428571429	0.527272727273	-7.40888888889
1627	0.8135	10.5688622754	4.75714285714	-0.901818181818	-1.66666666667
1628	0.814	3.50598802395	6.18571428571	0.527272727273	11.2533333333
1629	0.8145	-0.731736526946	3.32857142857	14.8181818182	-3.10222222222
1630	0.815	-2.14431137725	1.9	-3.76	-5.97333333333
1631	0.8155	-0.731736526946	9.04285714286	0.527272727273	-3.10222222222
1632	0.816	10.5688622754	1.9	-2.33090909091	-7.40888888889
1633	0.8165	-2.14431137725	-2.38571428571	1.95636363636	-8.84444444444
1634	0.817	4.91856287425	3.32857142857	-9.47636363636	-14.5866666667
1635	0.8175	13.394011976	14.7571428571	0.527272727273	-5.97333333333
1636	0.818	17.6317365269	-13.8142857143	-0.901818181818	-1.66666666667
1637	0.8185	19.0443113772	-19.5285714286	1.95636363636	-1.66666666667
1638	0.819	31.7574850299	-6.67142857143	3.38545454545	-0.231111111111
1639	0.8195	-2.14431137725	9.04285714286	4.81454545455	12.6888888889
1640	0.82	3.50598802395	3.32857142857	-0.901818181818	-4.53777777778
1641	0.8205	13.394011976	-2.38571428571	-2.33090909091	-4.53777777778
1642	0.821	20.4568862275	0.471428571429	3.38545454545	-7.40888888889
1643	0.8215	21.8694610778	-2.38571428571	4.81454545455	-5.97333333333
1644	0.822	23.2820359281	-0.957142857143	4.81454545455	-5.97333333333
1645	0.8225	-3.55688622754	-0.957142857143	-0.901818181818	-1.66666666667
1646	0.823	-4.96946107784	1.9	17.6763636364	-13.1511111111
1647	0.8235	-0.731736526946	4.75714285714	0.527272727273	-18.8933333333
1648	0.824	3.50598802395	16.1857142857	1.95636363636	-10.28
1649	0.8245	2.09341317365	-2.38571428571	1.95636363636	4.07555555556
1650	0.825	-9.20718562874	-6.67142857143	-0.901818181818	16.9955555556
1651	0.8255	-0.731736526946	-3.81428571429	0.527272727273	2.64
1652	0.826	-3.55688622754	1.9	19.1054545455	-0.231111111111
1653	0.8265	-2.14431137725	-3.81428571429	-8.04727272727	-0.231111111111
1654	0.827	-4.96946107784	1.9	-6.61818181818	-5.97333333333
1655	0.8275	-16.2700598802	-6.67142857143	0.527272727273	-4.53777777778
1656	0.828	-38.871257485	1.9	-2.33090909091	-0.231111111111
1657	0.8285	-34.6335329341	0.471428571429	1.95636363636	-1.66666666667
1658	0.829	-23.3329341317	-5.24285714286	4.81454545455	8.38222222222
1659	0.8295	-12.0323353293	-6.67142857143	-2.33090909091	1.20444444444
1660	0.83	-4.96946107784	-10.9571428571	-3.76	2.64
1661	0.8305	-9.20718562874	0.471428571429	-0.901818181818	-0.231111111111
1662	0.831	-14.8574850299	11.9	-0.901818181818	-4.53777777778
1663	0.8315	-23.3329341317	10.4714285714	3.38545454545	4.07555555556
1664	0.832	-12.0323353293	6.18571428571	0.527272727273	-8.84444444444
1665	0.8325	-2.14431137725	4.75714285714	-5.18909090909	-8.84444444444
1666	0.833	9.15628742515	-10.9571428571	0.527272727273	-5.97333333333
1667	0.8335	19.0443113772	-12.3857142857	-0.901818181818	1.20444444444
1668	0.834	31.7574850299	-6.67142857143	0.527272727273	8.38222222222
1669	0.8345	-0.731736526946	3.32857142857	0.527272727273	22.7377777778
1670	0.835	2.09341317365	7.61428571429	4.81454545455	22.7377777778
1671	0.8355	3.50598802395	1.9	3.38545454545	-0.231111111111
1672	0.836	0.680838323353	-0.957142857143	6.24363636364	-3.10222222222
1673	0.8365	3.50598802395	-5.24285714286	1.95636363636	-1.66666666667
1674	0.837	0.680838323353	0.471428571429	4.81454545455	-3.10222222222
1675	0.8375	-4.96946107784	6.18571428571	4.81454545455	-4.53777777778
1676	0.838	2.09341317365	16.1857142857	1.95636363636	2.64
1677	0.8385	3.50598802395	14.7571428571	1.95636363636	1.20444444444
1678	0.839	3.50598802395	-12.3857142857	0.527272727273	-1.66666666667
1679	0.8395	4.91856287425	-9.52857142857	3.38545454545	-1.66666666667
1680	0.84	2.09341317365	3.32857142857	4.81454545455	-3.10222222222
1681	0.8405	3.50598802395	-0.957142857143	3.38545454545	-4.53777777778
1682	0.841	0.680838323353	-5.24285714286	4.81454545455	-4.53777777778
1683	0.8415	3.50598802395	-6.67142857143	-8.04727272727	-1.66666666667
1684	0.842	3.50598802395	0.471428571429	-8.04727272727	-1.66666666667
1685	0.8425	-0.731736526946	-5.24285714286	-0.901818181818	-3.10222222222
1686	0.843	-14.8574850299	-2.38571428571	0.527272727273	-3.10222222222
1687	0.8435	-16.2700598802	-2.38571428571	0.527272727273	-8.84444444444
1688	0.844	-7.79461077844	-2.38571428571	-0.901818181818	-3.10222222222
1689	0.8445	-7.79461077844	-0.957142857143	9.10181818182	-3.10222222222
1690	0.845	-6.38203592814	-10.9571428571	-0.901818181818	-0.231111111111
1691	0.8455	-4.96946107784	24.7571428571	-0.901818181818	-3.10222222222
1692	0.846	-4.96946107784	6.18571428571	0.527272727273	-1.66666666667
1693	0.8465	-2.14431137725	6.18571428571	-0.901818181818	-3.10222222222
1694	0.847	9.15628742515	0.471428571429	1.95636363636	-1.66666666667
1695	0.8475	4.91856287425	0.471428571429	1.95636363636	-4.53777777778
1696	0.848	4.91856287425	7.61428571429	-5.18909090909	-4.53777777778
1697	0.8485	17.6317365269	10.4714285714	0.527272727273	-8.84444444444
1698	0.849	35.9952095808	7.61428571429	-0.901818181818	-11.7155555556
1699	0.8495	24.6946107784	0.471428571429	0.527272727273	-8.84444444444
1700	0.85	16.2191616766	1.9	19.1054545455	-8.84444444444
1701	0.8505	2.09341317365	-0.957142857143	1.95636363636	-5.97333333333
1702	0.851	3.50598802395	-9.52857142857	-0.901818181818	-4.53777777778
1703	0.8515	10.5688622754	-12.3857142857	-2.33090909091	-1.66666666667
1704	0.852	13.394011976	-3.81428571429	-3.76	-10.28
1705	0.8525	0.680838323353	-0.957142857143	1.95636363636	-4.53777777778
1706	0.853	4.91856287425	0.471428571429	17.6763636364	-5.97333333333
1707	0.8535	10.5688622754	-2.38571428571	-8.04727272727	-4.53777777778
1708	0.854	9.15628742515	16.1857142857	1.95636363636	-8.84444444444
1709	0.8545	0.680838323353	3.32857142857	0.527272727273	-7.40888888889
1710	0.855	10.5688622754	-0.957142857143	-0.901818181818	-7.40888888889
1711	0.8555	-3.55688622754	0.471428571429	1.95636363636	-7.40888888889
1712	0.856	3.50598802395	-2.38571428571	3.38545454545	-13.1511111111
1713	0.8565	10.5688622754	-5.24285714286	-0.901818181818	-8.84444444444
1714	0.857	11.9814371257	4.75714285714	1.95636363636	-10.28
1715	0.8575	11.9814371257	4.75714285714	0.527272727273	-11.7155555556
1716	0.858	24.6946107784	-3.81428571429	3.38545454545	-14.5866666667
1717	0.8585	0.680838323353	-8.1	-2.33090909091	-0.231111111111
1718	0.859	-0.731736526946	-6.67142857143	-3.76	24.1733333333
1719	0.8595	-4.96946107784	-6.67142857143	4.81454545455	19.8666666667
1720	0.86	-2.14431137725	10.4714285714	3.38545454545	4.07555555556
1721	0.8605	-2.14431137725	1.9	0.527272727273	-4.53777777778
1722	0.861	-6.38203592814	1.9	0.527272727273	-4.53777777778
1723	0.8615	0.680838323353	0.471428571429	-3.76	1.20444444444
1724	0.862	3.50598802395	1.9	13.3890909091	-7.40888888889
1725	0.8625	9.15628742515	3.32857142857	-2.33090909091	-3.10222222222
1726	0.863	13.394011976	-6.67142857143	-0.901818181818	-4.53777777778
1727	0.8635	11.9814371257	10.4714285714	-2.33090909091	-7.40888888889
1728	0.864	24.6946107784	16.1857142857	-3.76	-3.10222222222
1729	0.8645	13.394011976	9.04285714286	-2.33090909091	-7.40888888889
1730	0.865	7.74371257485	0.471428571429	-0.901818181818	4.07555555556
1731	0.8655	4.91856287425	-15.2428571429	-3.76	-7.40888888889
1732	0.866	0.680838323353	-6.67142857143	-2.33090909091	-5.97333333333
1733	0.8665	-3.55688622754	-8.1	1.95636363636	-5.97333333333
1734	0.867	-14.8574850299	-5.24285714286	1.95636363636	8.38222222222
1735	0.8675	-12.0323353293	1.9	6.24363636364	6.94666666667
1736	0.868	-13.4449101796	-0.957142857143	7.67272727273	-8.84444444444
1737	0.8685	-9.20718562874	1.9	-2.33090909091	-4.53777777778
1738	0.869	-6.38203592814	6.18571428571	7.67272727273	-4.53777777778
1739	0.8695	-6.38203592814	1.9	3.38545454545	-4.53777777778
1740	0.87	-10.619760479	1.9	6.24363636364	-4.53777777778
1741	0.8705	-0.731736526946	0.471428571429	4.81454545455	-10.28
1742	0.871	0.680838323353	0.471428571429	3.38545454545	6.94666666667
1743	0.8715	0.680838323353	4.75714285714	4.81454545455	-1.66666666667
1744	0.872	-3.55688622754	14.7571428571	1.95636363636	-0.231111111111
1745	0.8725	-3.55688622754	7.61428571429	3.38545454545	-1.66666666667
1746	0.873	-10.619760479	4.75714285714	1.95636363636	-0.231111111111
1747	0.8735	9.15628742515	3.32857142857	-0.901818181818	-10.28
1748	0.874	2.09341317365	0.471428571429	-8.04727272727	-10.28
1749	0.8745	0.680838323353	0.471428571429	-3.76	-3.10222222222
1750	0.875	-3.55688622754	16.1857142857	0.527272727273	-1.66666666667
1751	0.8755	-4.96946107784	-8.1	-0.901818181818	2.64
1752	0.876	16.2191616766	0.471428571429	1.95636363636	-5.97333333333
1753	0.8765	-10.619760479	1.9	1.95636363636	-4.53777777778
1754	0.877	0.680838323353	1.9	9.10181818182	-7.40888888889
1755	0.8775	0.680838323353	4.75714285714	9.10181818182	-3.10222222222
1756	0.878	-2.14431137725	7.61428571429	-0.901818181818	-4.53777777778
1757	0.8785	-12.0323353293	0.471428571429	-0.901818181818	-5.97333333333
1758	0.879	14.8065868263	-6.67142857143	-0.901818181818	-7.40888888889
1759	0.8795	2.09341317365	-9.52857142857	-3.76	-18.8933333333
1760	0.88	3.50598802395	-2.38571428571	-2.33090909091	6.94666666667
1761	0.8805	-0.731736526946	7.61428571429	0.527272727273	-11.7155555556
1762	0.881	-2.14431137725	-0.957142857143	0.527272727273	-10.28
1763	0.8815	-2.14431137725	-5.24285714286	-3.76	-8.84444444444
1764	0.882	2.09341317365	3.32857142857	-6.61818181818	-8.84444444444
1765	0.8825	-2.14431137725	3.32857142857	-0.901818181818	-11.7155555556
1766	0.883	-0.731736526946	1.9	-0.901818181818	-10.28
1767	0.8835	-7.79461077844	-9.52857142857	-0.901818181818	-8.84444444444
1768	0.884	-6.38203592814	20.4714285714	-3.76	-8.84444444444
1769	0.8845	0.680838323353	20.4714285714	-3.76	-10.28
1770	0.885	0.680838323353	-0.957142857143	-2.33090909091	-1.66666666667
1771	0.8855	17.6317365269	0.471428571429	-6.61818181818	-3.10222222222
1772	0.886	14.8065868263	0.471428571429	6.24363636364	6.94666666667
1773	0.8865	10.5688622754	-5.24285714286	-8.04727272727	-0.231111111111
1774	0.887	3.50598802395	6.18571428571	-3.76	-8.84444444444
1775	0.8875	-4.96946107784	-2.38571428571	-2.33090909091	-5.97333333333
1776	0.888	-16.2700598802	1.9	-2.33090909091	-8.84444444444
1777	0.8885	-21.9203592814	-0.957142857143	-0.901818181818	-14.5866666667
1778	0.889	-12.0323353293	4.75714285714	1.95636363636	-13.1511111111
1779	0.8895	-0.731736526946	0.471428571429	-0.901818181818	-18.8933333333
1780	0.89	19.0443113772	-18.1	1.95636363636	-17.4577777778
1781	0.8905	26.1071856287	1.9	4.81454545455	-11.7155555556
1782	0.891	41.645508982	6.18571428571	4.81454545455	-5.97333333333
1783	0.8915	16.2191616766	4.75714285714	11.96	-5.97333333333
1784	0.892	37.4077844311	6.18571428571	23.3927272727	-8.84444444444
