	Time	Channel 1	Channel 2	Channel 3	Channel 4
0	0.0	19.2518367347	-4.98620689655	2.68315789474	-1.58275862069
1	0.0005	17.8424489796	-3.53448275862	6.93684210526	2.7724137931
2	0.001	24.8893877551	9.53103448276	-7.24210526316	-4.48620689655
3	0.0015	33.3457142857	-4.98620689655	4.10105263158	-0.131034482759
4	0.002	17.8424489796	-4.98620689655	-7.24210526316	1.32068965517
5	0.0025	29.1175510204	-3.53448275862	-4.40631578947	-0.131034482759
6	0.003	31.9363265306	-2.08275862069	4.10105263158	-0.131034482759
7	0.0035	33.3457142857	8.07931034483	5.51894736842	-1.58275862069
8	0.004	33.3457142857	-3.53448275862	-5.82421052632	1.32068965517
9	0.0045	33.3457142857	10.9827586207	-0.152631578947	1.32068965517
10	0.005	29.1175510204	-3.53448275862	-5.82421052632	-0.131034482759
11	0.0055	31.9363265306	-3.53448275862	-8.66	1.32068965517
12	0.006	20.6612244898	-2.08275862069	-8.66	-0.131034482759
13	0.0065	30.5269387755	-6.43793103448	-8.66	-4.48620689655
14	0.007	31.9363265306	-6.43793103448	2.68315789474	-0.131034482759
15	0.0075	27.7081632653	-3.53448275862	-5.82421052632	-0.131034482759
16	0.008	23.48	2.2724137931	2.68315789474	-0.131034482759
17	0.0085	17.8424489796	-0.631034482759	-0.152631578947	-1.58275862069
18	0.009	16.4330612245	-2.08275862069	-1.57052631579	-0.131034482759
19	0.0095	22.0706122449	0.820689655172	-1.57052631579	-1.58275862069
20	0.01	19.2518367347	-0.631034482759	-8.66	-4.48620689655
21	0.0105	19.2518367347	0.820689655172	8.35473684211	-0.131034482759
22	0.011	17.8424489796	-2.08275862069	-2.98842105263	1.32068965517
23	0.0115	19.2518367347	-12.2448275862	-0.152631578947	1.32068965517
24	0.012	19.2518367347	18.2413793103	-2.98842105263	-0.131034482759
25	0.0125	17.8424489796	16.7896551724	-1.57052631579	-0.131034482759
26	0.013	40.3926530612	-3.53448275862	1.26526315789	-11.7448275862
27	0.0135	22.0706122449	-4.98620689655	1.26526315789	17.2896551724
28	0.014	19.2518367347	-6.43793103448	5.51894736842	15.8379310345
29	0.0145	23.48	-6.43793103448	-2.98842105263	-1.58275862069
30	0.015	23.48	-15.1482758621	1.26526315789	-0.131034482759
31	0.0155	27.7081632653	-9.34137931034	-2.98842105263	-0.131034482759
32	0.016	23.48	-7.88965517241	-4.40631578947	2.7724137931
33	0.0165	3.74857142857	-3.53448275862	-4.40631578947	1.32068965517
34	0.017	17.8424489796	-4.98620689655	-2.98842105263	-5.93793103448
35	0.0175	19.2518367347	-6.43793103448	-5.82421052632	1.32068965517
36	0.018	19.2518367347	-4.98620689655	6.93684210526	-0.131034482759
37	0.0185	20.6612244898	-2.08275862069	-4.40631578947	-0.131034482759
38	0.019	20.6612244898	-3.53448275862	1.26526315789	1.32068965517
39	0.0195	26.2987755102	-3.53448275862	-0.152631578947	2.7724137931
40	0.02	46.0302040816	-6.43793103448	-0.152631578947	1.32068965517
41	0.0205	24.8893877551	-4.98620689655	4.10105263158	15.8379310345
42	0.021	33.3457142857	-6.43793103448	8.35473684211	1.32068965517
43	0.0215	34.7551020408	-3.53448275862	-5.82421052632	2.7724137931
44	0.022	31.9363265306	-18.0517241379	-8.66	4.22413793103
45	0.0225	34.7551020408	-9.34137931034	-11.4957894737	1.32068965517
46	0.023	33.3457142857	-2.08275862069	-11.4957894737	1.32068965517
47	0.0235	22.0706122449	-3.53448275862	-5.82421052632	-0.131034482759
48	0.024	27.7081632653	-2.08275862069	-4.40631578947	2.7724137931
49	0.0245	22.0706122449	0.820689655172	12.6084210526	-0.131034482759
50	0.025	17.8424489796	-2.08275862069	-2.98842105263	-0.131034482759
51	0.0255	17.8424489796	0.820689655172	19.6978947368	-0.131034482759
52	0.026	19.2518367347	-6.43793103448	1.26526315789	1.32068965517
53	0.0265	10.7955102041	-0.631034482759	-0.152631578947	1.32068965517
54	0.027	23.48	0.820689655172	2.68315789474	-7.38965517241
55	0.0275	15.0236734694	2.2724137931	-0.152631578947	15.8379310345
56	0.028	12.2048979592	0.820689655172	2.68315789474	-7.38965517241
57	0.0285	16.4330612245	2.2724137931	-0.152631578947	-0.131034482759
58	0.029	17.8424489796	-13.6965517241	-0.152631578947	-0.131034482759
59	0.0295	17.8424489796	-12.2448275862	-4.40631578947	-0.131034482759
60	0.03	17.8424489796	-3.53448275862	-2.98842105263	-1.58275862069
61	0.0305	13.6142857143	-3.53448275862	-1.57052631579	-0.131034482759
62	0.031	20.6612244898	-2.08275862069	-0.152631578947	-1.58275862069
63	0.0315	23.48	-3.53448275862	11.1905263158	-0.131034482759
64	0.032	20.6612244898	-6.43793103448	-11.4957894737	-3.03448275862
65	0.0325	20.6612244898	-0.631034482759	-1.57052631579	-1.58275862069
66	0.033	17.8424489796	0.820689655172	1.26526315789	-0.131034482759
67	0.0335	22.0706122449	0.820689655172	4.10105263158	-0.131034482759
68	0.034	24.8893877551	-0.631034482759	2.68315789474	-0.131034482759
69	0.0345	20.6612244898	-0.631034482759	4.10105263158	-0.131034482759
70	0.035	23.48	-0.631034482759	-15.7494736842	-0.131034482759
71	0.0355	24.8893877551	-0.631034482759	11.1905263158	-0.131034482759
72	0.036	29.1175510204	-3.53448275862	-11.4957894737	-0.131034482759
73	0.0365	31.9363265306	-0.631034482759	-4.40631578947	-0.131034482759
74	0.037	34.7551020408	-0.631034482759	-0.152631578947	1.32068965517
75	0.0375	43.2114285714	0.820689655172	-2.98842105263	-0.131034482759
76	0.038	34.7551020408	0.820689655172	-4.40631578947	-0.131034482759
77	0.0385	36.1644897959	2.2724137931	-2.98842105263	-0.131034482759
78	0.039	34.7551020408	-2.08275862069	-15.7494736842	1.32068965517
79	0.0395	33.3457142857	0.820689655172	-15.7494736842	-0.131034482759
80	0.04	31.9363265306	-0.631034482759	-10.0778947368	1.32068965517
81	0.0405	19.2518367347	0.820689655172	-2.98842105263	-1.58275862069
82	0.041	44.6208163265	-0.631034482759	6.93684210526	-1.58275862069
83	0.0415	12.2048979592	-0.631034482759	8.35473684211	-0.131034482759
84	0.042	19.2518367347	0.820689655172	21.1157894737	-0.131034482759
85	0.0425	17.8424489796	-0.631034482759	-0.152631578947	2.7724137931
86	0.043	17.8424489796	-9.34137931034	-0.152631578947	-0.131034482759
87	0.0435	16.4330612245	-3.53448275862	-1.57052631579	-0.131034482759
88	0.044	3.74857142857	0.820689655172	-1.57052631579	1.32068965517
89	0.0445	9.38612244898	-3.53448275862	4.10105263158	-10.2931034483
90	0.045	17.8424489796	-0.631034482759	2.68315789474	-10.2931034483
91	0.0455	16.4330612245	0.820689655172	4.10105263158	-0.131034482759
92	0.046	19.2518367347	-3.53448275862	2.68315789474	-0.131034482759
93	0.0465	22.0706122449	-2.08275862069	-7.24210526316	-1.58275862069
94	0.047	22.0706122449	-18.0517241379	-14.3315789474	-0.131034482759
95	0.0475	9.38612244898	-6.43793103448	-18.5852631579	1.32068965517
96	0.048	15.0236734694	-0.631034482759	-18.5852631579	-10.2931034483
97	0.0485	26.2987755102	-0.631034482759	-15.7494736842	-4.48620689655
98	0.049	29.1175510204	-2.08275862069	6.93684210526	1.32068965517
99	0.0495	23.48	-0.631034482759	4.10105263158	1.32068965517
100	0.05	20.6612244898	10.9827586207	12.6084210526	1.32068965517
101	0.0505	23.48	-15.1482758621	5.51894736842	-0.131034482759
102	0.051	10.7955102041	-0.631034482759	2.68315789474	4.22413793103
103	0.0515	13.6142857143	-3.53448275862	5.51894736842	-8.84137931034
104	0.052	26.2987755102	-4.98620689655	4.10105263158	-8.84137931034
105	0.0525	27.7081632653	-6.43793103448	1.26526315789	-0.131034482759
106	0.053	31.9363265306	-2.08275862069	12.6084210526	-0.131034482759
107	0.0535	34.7551020408	0.820689655172	-7.24210526316	-0.131034482759
108	0.054	30.5269387755	-4.98620689655	-11.4957894737	-1.58275862069
109	0.0545	40.3926530612	-3.53448275862	-11.4957894737	-3.03448275862
110	0.055	24.8893877551	-4.98620689655	-7.24210526316	-1.58275862069
111	0.0555	29.1175510204	-3.53448275862	-7.24210526316	-3.03448275862
112	0.056	30.5269387755	-2.08275862069	-8.66	-0.131034482759
113	0.0565	29.1175510204	2.2724137931	-12.9136842105	-0.131034482759
114	0.057	29.1175510204	19.6931034483	-11.4957894737	-0.131034482759
115	0.0575	26.2987755102	-9.34137931034	-7.24210526316	1.32068965517
116	0.058	19.2518367347	3.72413793103	-1.57052631579	-0.131034482759
117	0.0585	12.2048979592	0.820689655172	1.26526315789	-5.93793103448
118	0.059	17.8424489796	0.820689655172	-0.152631578947	15.8379310345
119	0.0595	15.0236734694	0.820689655172	21.1157894737	-0.131034482759
120	0.06	15.0236734694	2.2724137931	-8.66	-8.84137931034
121	0.0605	13.6142857143	13.8862068966	1.26526315789	-0.131034482759
122	0.061	13.6142857143	-3.53448275862	4.10105263158	1.32068965517
123	0.0615	9.38612244898	2.2724137931	4.10105263158	2.7724137931
124	0.062	12.2048979592	-2.08275862069	1.26526315789	-1.58275862069
125	0.0625	16.4330612245	-2.08275862069	4.10105263158	-0.131034482759
126	0.063	17.8424489796	-2.08275862069	-2.98842105263	-0.131034482759
127	0.0635	17.8424489796	0.820689655172	-1.57052631579	-0.131034482759
128	0.064	17.8424489796	5.17586206897	-2.98842105263	-0.131034482759
129	0.0645	19.2518367347	-9.34137931034	-5.82421052632	-0.131034482759
130	0.065	12.2048979592	0.820689655172	-4.40631578947	2.7724137931
131	0.0655	19.2518367347	-0.631034482759	-4.40631578947	-8.84137931034
132	0.066	17.8424489796	3.72413793103	-7.24210526316	-1.58275862069
133	0.0665	17.8424489796	-0.631034482759	15.4442105263	-0.131034482759
134	0.067	16.4330612245	0.820689655172	5.51894736842	1.32068965517
135	0.0675	16.4330612245	-6.43793103448	-1.57052631579	-0.131034482759
136	0.068	23.48	-0.631034482759	-1.57052631579	-0.131034482759
137	0.0685	12.2048979592	0.820689655172	-1.57052631579	2.7724137931
138	0.069	19.2518367347	2.2724137931	-0.152631578947	-10.2931034483
139	0.0695	26.2987755102	0.820689655172	-4.40631578947	15.8379310345
140	0.07	27.7081632653	-2.08275862069	1.26526315789	-4.48620689655
141	0.0705	33.3457142857	-3.53448275862	-5.82421052632	-0.131034482759
142	0.071	36.1644897959	-0.631034482759	12.6084210526	-1.58275862069
143	0.0715	34.7551020408	-7.88965517241	14.0263157895	1.32068965517
144	0.072	23.48	-2.08275862069	4.10105263158	1.32068965517
145	0.0725	29.1175510204	-0.631034482759	-2.98842105263	-10.2931034483
146	0.073	30.5269387755	-0.631034482759	-14.3315789474	15.8379310345
147	0.0735	31.9363265306	2.2724137931	-0.152631578947	-1.58275862069
148	0.074	30.5269387755	2.2724137931	-18.5852631579	-0.131034482759
149	0.0745	24.8893877551	3.72413793103	-4.40631578947	1.32068965517
150	0.075	22.0706122449	6.6275862069	-0.152631578947	-0.131034482759
151	0.0755	23.48	5.17586206897	5.51894736842	1.32068965517
152	0.076	16.4330612245	6.6275862069	6.93684210526	7.1275862069
153	0.0765	17.8424489796	5.17586206897	8.35473684211	-7.38965517241
154	0.077	16.4330612245	3.72413793103	-10.0778947368	4.22413793103
155	0.0775	15.0236734694	5.17586206897	-5.82421052632	-0.131034482759
156	0.078	15.0236734694	-2.08275862069	2.68315789474	1.32068965517
157	0.0785	15.0236734694	-4.98620689655	2.68315789474	-0.131034482759
158	0.079	10.7955102041	-2.08275862069	-0.152631578947	-0.131034482759
159	0.0795	33.3457142857	-6.43793103448	-2.98842105263	-10.2931034483
160	0.08	16.4330612245	0.820689655172	-0.152631578947	17.2896551724
161	0.0805	16.4330612245	-0.631034482759	11.1905263158	-0.131034482759
162	0.081	19.2518367347	0.820689655172	-2.98842105263	-1.58275862069
163	0.0815	20.6612244898	-15.1482758621	-5.82421052632	1.32068965517
164	0.082	26.2987755102	-10.7931034483	-14.3315789474	-0.131034482759
165	0.0825	23.48	5.17586206897	-20.0031578947	-0.131034482759
166	0.083	19.2518367347	2.2724137931	-18.5852631579	12.9344827586
167	0.0835	17.8424489796	-0.631034482759	-5.82421052632	-0.131034482759
168	0.084	23.48	0.820689655172	21.1157894737	-0.131034482759
169	0.0845	19.2518367347	0.820689655172	4.10105263158	-0.131034482759
170	0.085	23.48	-4.98620689655	15.4442105263	-0.131034482759
171	0.0855	29.1175510204	0.820689655172	8.35473684211	2.7724137931
172	0.086	13.6142857143	0.820689655172	6.93684210526	4.22413793103
173	0.0865	20.6612244898	2.2724137931	4.10105263158	-1.58275862069
174	0.087	30.5269387755	0.820689655172	1.26526315789	1.32068965517
175	0.0875	34.7551020408	-3.53448275862	-12.9136842105	-1.58275862069
176	0.088	30.5269387755	2.2724137931	14.0263157895	-1.58275862069
177	0.0885	27.7081632653	-0.631034482759	-7.24210526316	-1.58275862069
178	0.089	30.5269387755	-2.08275862069	2.68315789474	-1.58275862069
179	0.0895	47.4395918367	-2.08275862069	4.10105263158	2.7724137931
180	0.09	19.2518367347	2.2724137931	5.51894736842	-4.48620689655
181	0.0905	27.7081632653	-0.631034482759	8.35473684211	1.32068965517
182	0.091	22.0706122449	-0.631034482759	5.51894736842	-1.58275862069
183	0.0915	20.6612244898	3.72413793103	6.93684210526	-0.131034482759
184	0.092	17.8424489796	13.8862068966	1.26526315789	-1.58275862069
185	0.0925	7.97673469388	2.2724137931	-4.40631578947	-1.58275862069
186	0.093	37.573877551	0.820689655172	-2.98842105263	-11.7448275862
187	0.0935	20.6612244898	0.820689655172	-7.24210526316	15.8379310345
188	0.094	17.8424489796	2.2724137931	-8.66	7.1275862069
189	0.0945	20.6612244898	5.17586206897	-1.57052631579	1.32068965517
190	0.095	19.2518367347	-9.34137931034	-1.57052631579	2.7724137931
191	0.0955	19.2518367347	-6.43793103448	-0.152631578947	2.7724137931
192	0.096	22.0706122449	3.72413793103	-1.57052631579	1.32068965517
193	0.0965	16.4330612245	-6.43793103448	-2.98842105263	4.22413793103
194	0.097	23.48	-3.53448275862	-0.152631578947	-10.2931034483
195	0.0975	23.48	-0.631034482759	-8.66	-8.84137931034
196	0.098	22.0706122449	0.820689655172	-14.3315789474	-1.58275862069
197	0.0985	24.8893877551	0.820689655172	-4.40631578947	1.32068965517
198	0.099	19.2518367347	-4.98620689655	-0.152631578947	-0.131034482759
199	0.0995	3.74857142857	-0.631034482759	-1.57052631579	1.32068965517
200	0.1	40.3926530612	-3.53448275862	-1.57052631579	-8.84137931034
201	0.1005	19.2518367347	0.820689655172	8.35473684211	-0.131034482759
202	0.101	22.0706122449	0.820689655172	6.93684210526	-3.03448275862
203	0.1015	22.0706122449	-6.43793103448	11.1905263158	-1.58275862069
204	0.102	26.2987755102	16.7896551724	5.51894736842	1.32068965517
205	0.1025	23.48	0.820689655172	2.68315789474	1.32068965517
206	0.103	17.8424489796	5.17586206897	1.26526315789	-3.03448275862
207	0.1035	43.2114285714	5.17586206897	-0.152631578947	-5.93793103448
208	0.104	34.7551020408	-0.631034482759	1.26526315789	8.57931034483
209	0.1045	36.1644897959	-3.53448275862	2.68315789474	-0.131034482759
210	0.105	33.3457142857	-0.631034482759	1.26526315789	-0.131034482759
211	0.1055	33.3457142857	16.7896551724	-0.152631578947	1.32068965517
212	0.106	31.9363265306	-9.34137931034	-5.82421052632	2.7724137931
213	0.1065	36.1644897959	2.2724137931	-5.82421052632	1.32068965517
214	0.107	23.48	2.2724137931	-7.24210526316	1.32068965517
215	0.1075	26.2987755102	3.72413793103	-2.98842105263	1.32068965517
216	0.108	20.6612244898	5.17586206897	2.68315789474	1.32068965517
217	0.1085	19.2518367347	8.07931034483	6.93684210526	-0.131034482759
218	0.109	17.8424489796	22.5965517241	4.10105263158	1.32068965517
219	0.1095	16.4330612245	-4.98620689655	6.93684210526	-0.131034482759
220	0.11	23.48	2.2724137931	4.10105263158	1.32068965517
221	0.1105	16.4330612245	-0.631034482759	1.26526315789	12.9344827586
222	0.111	15.0236734694	0.820689655172	-1.57052631579	-0.131034482759
223	0.1115	17.8424489796	2.2724137931	5.51894736842	-0.131034482759
224	0.112	16.4330612245	2.2724137931	-4.40631578947	-0.131034482759
225	0.1125	17.8424489796	-9.34137931034	-1.57052631579	4.22413793103
226	0.113	20.6612244898	-4.98620689655	-0.152631578947	-0.131034482759
227	0.1135	2.33918367347	-0.631034482759	1.26526315789	2.7724137931
228	0.114	5.15795918367	-3.53448275862	2.68315789474	-10.2931034483
229	0.1145	17.8424489796	-3.53448275862	1.26526315789	-10.2931034483
230	0.115	19.2518367347	-4.98620689655	16.8621052632	1.32068965517
231	0.1155	17.8424489796	-0.631034482759	-0.152631578947	-0.131034482759
232	0.116	16.4330612245	-4.98620689655	2.68315789474	-0.131034482759
233	0.1165	16.4330612245	8.07931034483	1.26526315789	-0.131034482759
234	0.117	15.0236734694	2.2724137931	1.26526315789	1.32068965517
235	0.1175	16.4330612245	0.820689655172	6.93684210526	1.32068965517
236	0.118	15.0236734694	0.820689655172	5.51894736842	-0.131034482759
237	0.1185	16.4330612245	3.72413793103	-8.66	2.7724137931
238	0.119	17.8424489796	2.2724137931	-10.0778947368	2.7724137931
239	0.1195	24.8893877551	2.2724137931	-1.57052631579	1.32068965517
240	0.12	20.6612244898	-3.53448275862	-4.40631578947	1.32068965517
241	0.1205	13.6142857143	-0.631034482759	-4.40631578947	-0.131034482759
242	0.121	41.8020408163	-2.08275862069	1.26526315789	-0.131034482759
243	0.1215	26.2987755102	-2.08275862069	5.51894736842	15.8379310345
244	0.122	24.8893877551	-0.631034482759	11.1905263158	-1.58275862069
245	0.1225	23.48	0.820689655172	-1.57052631579	-0.131034482759
246	0.123	24.8893877551	-12.2448275862	-4.40631578947	-1.58275862069
247	0.1235	27.7081632653	-9.34137931034	-8.66	1.32068965517
248	0.124	10.7955102041	-2.08275862069	-4.40631578947	1.32068965517
249	0.1245	7.97673469388	0.820689655172	-1.57052631579	-1.58275862069
250	0.125	12.2048979592	-0.631034482759	-0.152631578947	-3.03448275862
251	0.1255	5.15795918367	-0.631034482759	16.8621052632	-0.131034482759
252	0.126	7.97673469388	5.17586206897	-2.98842105263	-0.131034482759
253	0.1265	5.15795918367	18.2413793103	4.10105263158	1.32068965517
254	0.127	3.74857142857	-4.98620689655	1.26526315789	-0.131034482759
255	0.1275	-1.88897959184	2.2724137931	-2.98842105263	-0.131034482759
256	0.128	3.74857142857	-0.631034482759	-0.152631578947	-3.03448275862
257	0.1285	2.33918367347	0.820689655172	-7.24210526316	-1.58275862069
258	0.129	7.97673469388	-2.08275862069	19.6978947368	-1.58275862069
259	0.1295	5.15795918367	-0.631034482759	-2.98842105263	1.32068965517
260	0.13	7.97673469388	-10.7931034483	-4.40631578947	-0.131034482759
261	0.1305	3.74857142857	10.9827586207	-8.66	1.32068965517
262	0.131	10.7955102041	-3.53448275862	-11.4957894737	1.32068965517
263	0.1315	12.2048979592	-4.98620689655	-10.0778947368	2.7724137931
264	0.132	10.7955102041	-2.08275862069	-14.3315789474	1.32068965517
265	0.1325	7.97673469388	-0.631034482759	-8.66	1.32068965517
266	0.133	3.74857142857	3.72413793103	4.10105263158	-0.131034482759
267	0.1335	3.74857142857	-10.7931034483	2.68315789474	2.7724137931
268	0.134	7.97673469388	-9.34137931034	4.10105263158	-0.131034482759
269	0.1345	17.8424489796	-2.08275862069	2.68315789474	-1.58275862069
270	0.135	-0.479591836735	-2.08275862069	2.68315789474	-1.58275862069
271	0.1355	12.2048979592	-4.98620689655	4.10105263158	-3.03448275862
272	0.136	13.6142857143	-0.631034482759	6.93684210526	-0.131034482759
273	0.1365	17.8424489796	3.72413793103	1.26526315789	-1.58275862069
274	0.137	19.2518367347	18.2413793103	-0.152631578947	-0.131034482759
275	0.1375	22.0706122449	-10.7931034483	-0.152631578947	-0.131034482759
276	0.138	24.8893877551	-0.631034482759	-1.57052631579	-8.84137931034
277	0.1385	16.4330612245	-2.08275862069	-5.82421052632	-11.7448275862
278	0.139	16.4330612245	-4.98620689655	-8.66	17.2896551724
279	0.1395	19.2518367347	-0.631034482759	14.0263157895	-0.131034482759
280	0.14	17.8424489796	0.820689655172	-1.57052631579	-1.58275862069
281	0.1405	16.4330612245	5.17586206897	-1.57052631579	1.32068965517
282	0.141	16.4330612245	-0.631034482759	-1.57052631579	2.7724137931
283	0.1415	-7.52653061224	-2.08275862069	1.26526315789	1.32068965517
284	0.142	3.74857142857	-0.631034482759	1.26526315789	-8.84137931034
285	0.1425	2.33918367347	2.2724137931	-5.82421052632	-0.131034482759
286	0.143	5.15795918367	0.820689655172	6.93684210526	-0.131034482759
287	0.1435	2.33918367347	3.72413793103	-0.152631578947	1.32068965517
288	0.144	0.929795918367	0.820689655172	1.26526315789	2.7724137931
289	0.1445	-10.3453061224	0.820689655172	4.10105263158	-1.58275862069
290	0.145	19.2518367347	0.820689655172	4.10105263158	-0.131034482759
291	0.1455	3.74857142857	0.820689655172	4.10105263158	2.7724137931
292	0.146	9.38612244898	-2.08275862069	-10.0778947368	1.32068965517
293	0.1465	10.7955102041	-2.08275862069	-7.24210526316	-0.131034482759
294	0.147	5.15795918367	18.2413793103	-1.57052631579	2.7724137931
295	0.1475	3.74857142857	-9.34137931034	-1.57052631579	-0.131034482759
296	0.148	7.97673469388	-3.53448275862	1.26526315789	-1.58275862069
297	0.1485	20.6612244898	-4.98620689655	-0.152631578947	1.32068965517
298	0.149	0.929795918367	-3.53448275862	5.51894736842	-0.131034482759
299	0.1495	0.929795918367	-0.631034482759	5.51894736842	-3.03448275862
300	0.15	0.929795918367	-0.631034482759	-4.40631578947	1.32068965517
301	0.1505	3.74857142857	-12.2448275862	2.68315789474	-0.131034482759
302	0.151	3.74857142857	3.72413793103	4.10105263158	-1.58275862069
303	0.1515	-1.88897959184	0.820689655172	1.26526315789	-1.58275862069
304	0.152	29.1175510204	-3.53448275862	-0.152631578947	-7.38965517241
305	0.1525	16.4330612245	-4.98620689655	-0.152631578947	12.9344827586
306	0.153	16.4330612245	-4.98620689655	-7.24210526316	1.32068965517
307	0.1535	20.6612244898	-2.08275862069	-7.24210526316	1.32068965517
308	0.154	23.48	15.3379310345	-8.66	-0.131034482759
309	0.1545	20.6612244898	-13.6965517241	-5.82421052632	-0.131034482759
310	0.155	24.8893877551	-0.631034482759	2.68315789474	-0.131034482759
311	0.1555	37.573877551	-2.08275862069	11.1905263158	-0.131034482759
312	0.156	10.7955102041	-4.98620689655	12.6084210526	15.8379310345
313	0.1565	19.2518367347	-6.43793103448	8.35473684211	-8.84137931034
314	0.157	22.0706122449	-0.631034482759	-4.40631578947	-0.131034482759
315	0.1575	17.8424489796	-4.98620689655	-0.152631578947	-0.131034482759
316	0.158	12.2048979592	2.2724137931	-1.57052631579	-0.131034482759
317	0.1585	0.929795918367	2.2724137931	-5.82421052632	-0.131034482759
318	0.159	5.15795918367	3.72413793103	-4.40631578947	-7.38965517241
319	0.1595	-1.88897959184	-0.631034482759	1.26526315789	1.32068965517
320	0.16	2.33918367347	-0.631034482759	-7.24210526316	-3.03448275862
321	0.1605	2.33918367347	-0.631034482759	19.6978947368	-3.03448275862
322	0.161	2.33918367347	-2.08275862069	-1.57052631579	-0.131034482759
323	0.1615	2.33918367347	3.72413793103	11.1905263158	1.32068965517
324	0.162	9.38612244898	0.820689655172	11.1905263158	-0.131034482759
325	0.1625	29.1175510204	-0.631034482759	8.35473684211	4.22413793103
326	0.163	0.929795918367	-2.08275862069	8.35473684211	18.7413793103
327	0.1635	12.2048979592	-3.53448275862	1.26526315789	-8.84137931034
328	0.164	16.4330612245	-4.98620689655	-7.24210526316	-8.84137931034
329	0.1645	15.0236734694	-6.43793103448	-5.82421052632	-1.58275862069
330	0.165	12.2048979592	-6.43793103448	-2.98842105263	-3.03448275862
331	0.1655	16.4330612245	-10.7931034483	-1.57052631579	1.32068965517
332	0.166	19.2518367347	-4.98620689655	5.51894736842	-1.58275862069
333	0.1665	17.8424489796	-2.08275862069	11.1905263158	-0.131034482759
334	0.167	12.2048979592	-4.98620689655	4.10105263158	1.32068965517
335	0.1675	13.6142857143	-3.53448275862	8.35473684211	1.32068965517
336	0.168	16.4330612245	-0.631034482759	-4.40631578947	-0.131034482759
337	0.1685	19.2518367347	-13.6965517241	-1.57052631579	-0.131034482759
338	0.169	24.8893877551	-6.43793103448	-0.152631578947	-0.131034482759
339	0.1695	10.7955102041	-2.08275862069	-0.152631578947	1.32068965517
340	0.17	46.0302040816	-3.53448275862	-0.152631578947	-0.131034482759
341	0.1705	27.7081632653	-4.98620689655	1.26526315789	-0.131034482759
342	0.171	29.1175510204	-2.08275862069	5.51894736842	-7.38965517241
343	0.1715	29.1175510204	-9.34137931034	-2.98842105263	-1.58275862069
344	0.172	30.5269387755	-7.88965517241	2.68315789474	-0.131034482759
345	0.1725	30.5269387755	6.6275862069	2.68315789474	1.32068965517
346	0.173	22.0706122449	-10.7931034483	4.10105263158	-0.131034482759
347	0.1735	37.573877551	-2.08275862069	6.93684210526	-1.58275862069
348	0.174	23.48	0.820689655172	14.0263157895	4.22413793103
349	0.1745	17.8424489796	-0.631034482759	6.93684210526	-11.7448275862
350	0.175	15.0236734694	0.820689655172	4.10105263158	-0.131034482759
351	0.1755	12.2048979592	-7.88965517241	2.68315789474	1.32068965517
352	0.176	9.38612244898	-4.98620689655	-1.57052631579	-0.131034482759
353	0.1765	-3.29836734694	-0.631034482759	-4.40631578947	-0.131034482759
354	0.177	23.48	-2.08275862069	-1.57052631579	-5.93793103448
355	0.1775	7.97673469388	-0.631034482759	-5.82421052632	11.4827586207
356	0.178	5.15795918367	-2.08275862069	14.0263157895	-3.03448275862
357	0.1785	7.97673469388	-3.53448275862	-7.24210526316	-1.58275862069
358	0.179	9.38612244898	-2.08275862069	1.26526315789	-0.131034482759
359	0.1795	15.0236734694	-12.2448275862	-0.152631578947	-1.58275862069
360	0.18	7.97673469388	-6.43793103448	-2.98842105263	1.32068965517
361	0.1805	10.7955102041	-3.53448275862	-0.152631578947	-10.2931034483
362	0.181	15.0236734694	-2.08275862069	-2.98842105263	-11.7448275862
363	0.1815	15.0236734694	-2.08275862069	8.35473684211	-0.131034482759
364	0.182	16.4330612245	-4.98620689655	-4.40631578947	-0.131034482759
365	0.1825	15.0236734694	-0.631034482759	-0.152631578947	1.32068965517
366	0.183	13.6142857143	-9.34137931034	1.26526315789	1.32068965517
367	0.1835	17.8424489796	-3.53448275862	1.26526315789	-3.03448275862
368	0.184	5.15795918367	-0.631034482759	11.1905263158	2.7724137931
369	0.1845	20.6612244898	-0.631034482759	12.6084210526	-1.58275862069
370	0.185	22.0706122449	-2.08275862069	18.28	-0.131034482759
371	0.1855	26.2987755102	-3.53448275862	5.51894736842	1.32068965517
372	0.186	26.2987755102	-0.631034482759	5.51894736842	2.7724137931
373	0.1865	29.1175510204	-2.08275862069	4.10105263158	-0.131034482759
374	0.187	37.573877551	-2.08275862069	2.68315789474	-0.131034482759
375	0.1875	30.5269387755	0.820689655172	1.26526315789	2.7724137931
376	0.188	38.9832653061	-2.08275862069	1.26526315789	-10.2931034483
377	0.1885	36.1644897959	-3.53448275862	-10.0778947368	1.32068965517
378	0.189	34.7551020408	-0.631034482759	-4.40631578947	-3.03448275862
379	0.1895	36.1644897959	10.9827586207	4.10105263158	-0.131034482759
380	0.19	37.573877551	-10.7931034483	5.51894736842	-0.131034482759
381	0.1905	30.5269387755	-3.53448275862	2.68315789474	-0.131034482759
382	0.191	30.5269387755	0.820689655172	2.68315789474	-7.38965517241
383	0.1915	20.6612244898	-0.631034482759	8.35473684211	-0.131034482759
384	0.192	17.8424489796	2.2724137931	1.26526315789	-10.2931034483
385	0.1925	15.0236734694	2.2724137931	2.68315789474	-0.131034482759
386	0.193	15.0236734694	-9.34137931034	1.26526315789	1.32068965517
387	0.1935	13.6142857143	-6.43793103448	4.10105263158	2.7724137931
388	0.194	3.74857142857	2.2724137931	4.10105263158	2.7724137931
389	0.1945	23.48	0.820689655172	4.10105263158	-0.131034482759
390	0.195	12.2048979592	-0.631034482759	6.93684210526	14.3862068966
391	0.1955	10.7955102041	-2.08275862069	4.10105263158	-5.93793103448
392	0.196	12.2048979592	-2.08275862069	-7.24210526316	-1.58275862069
393	0.1965	12.2048979592	-6.43793103448	5.51894736842	2.7724137931
394	0.197	15.0236734694	-12.2448275862	2.68315789474	-0.131034482759
395	0.1975	2.33918367347	-0.631034482759	6.93684210526	-1.58275862069
396	0.198	29.1175510204	-4.98620689655	6.93684210526	-10.2931034483
397	0.1985	16.4330612245	-4.98620689655	5.51894736842	14.3862068966
398	0.199	16.4330612245	-6.43793103448	12.6084210526	-5.93793103448
399	0.1995	15.0236734694	-4.98620689655	5.51894736842	1.32068965517
400	0.2	15.0236734694	-4.98620689655	14.0263157895	1.32068965517
401	0.2005	16.4330612245	2.2724137931	6.93684210526	2.7724137931
402	0.201	7.97673469388	-2.08275862069	5.51894736842	4.22413793103
403	0.2015	13.6142857143	-3.53448275862	2.68315789474	-10.2931034483
404	0.202	20.6612244898	-2.08275862069	-1.57052631579	-7.38965517241
405	0.2025	23.48	-4.98620689655	-2.98842105263	-1.58275862069
406	0.203	26.2987755102	-4.98620689655	-1.57052631579	-0.131034482759
407	0.2035	24.8893877551	0.820689655172	-4.40631578947	-0.131034482759
408	0.204	31.9363265306	-16.6	-2.98842105263	-0.131034482759
409	0.2045	30.5269387755	-4.98620689655	4.10105263158	-0.131034482759
410	0.205	23.48	-4.98620689655	14.0263157895	1.32068965517
411	0.2055	27.7081632653	-3.53448275862	18.28	-3.03448275862
412	0.206	27.7081632653	-0.631034482759	29.6231578947	-0.131034482759
413	0.2065	29.1175510204	-2.08275862069	4.10105263158	-1.58275862069
414	0.207	27.7081632653	0.820689655172	6.93684210526	1.32068965517
415	0.2075	24.8893877551	-6.43793103448	6.93684210526	-0.131034482759
416	0.208	24.8893877551	2.2724137931	5.51894736842	-7.38965517241
417	0.2085	15.0236734694	-0.631034482759	1.26526315789	12.9344827586
418	0.209	12.2048979592	-0.631034482759	5.51894736842	17.2896551724
419	0.2095	12.2048979592	-0.631034482759	21.1157894737	-0.131034482759
420	0.21	5.15795918367	-2.08275862069	-1.57052631579	-0.131034482759
421	0.2105	5.15795918367	0.820689655172	6.93684210526	2.7724137931
422	0.211	3.74857142857	-4.98620689655	8.35473684211	-0.131034482759
423	0.2115	-8.93591836735	2.2724137931	12.6084210526	5.67586206897
424	0.212	-4.70775510204	-0.631034482759	14.0263157895	-13.1965517241
425	0.2125	5.15795918367	-2.08275862069	-7.24210526316	2.7724137931
426	0.213	7.97673469388	-2.08275862069	18.28	-1.58275862069
427	0.2135	9.38612244898	-2.08275862069	14.0263157895	-0.131034482759
428	0.214	6.56734693878	-7.88965517241	1.26526315789	-0.131034482759
429	0.2145	15.0236734694	-3.53448275862	4.10105263158	-3.03448275862
430	0.215	24.8893877551	-3.53448275862	4.10105263158	-0.131034482759
431	0.2155	6.56734693878	-3.53448275862	1.26526315789	-0.131034482759
432	0.216	5.15795918367	-2.08275862069	-2.98842105263	-0.131034482759
433	0.2165	5.15795918367	5.17586206897	21.1157894737	2.7724137931
434	0.217	5.15795918367	-0.631034482759	-4.40631578947	-1.58275862069
435	0.2175	7.97673469388	-7.88965517241	-1.57052631579	-1.58275862069
436	0.218	-6.11714285714	-2.08275862069	-1.57052631579	-0.131034482759
437	0.2185	2.33918367347	-0.631034482759	4.10105263158	-4.48620689655
438	0.219	16.4330612245	0.820689655172	11.1905263158	-4.48620689655
439	0.2195	19.2518367347	-2.08275862069	25.3694736842	-1.58275862069
440	0.22	22.0706122449	-2.08275862069	4.10105263158	1.32068965517
441	0.2205	26.2987755102	0.820689655172	6.93684210526	-0.131034482759
442	0.221	30.5269387755	-10.7931034483	4.10105263158	1.32068965517
443	0.2215	26.2987755102	-3.53448275862	2.68315789474	-5.93793103448
444	0.222	22.0706122449	-2.08275862069	2.68315789474	5.67586206897
445	0.2225	26.2987755102	-4.98620689655	11.1905263158	12.9344827586
446	0.223	26.2987755102	-4.98620689655	8.35473684211	-3.03448275862
447	0.2235	24.8893877551	-0.631034482759	4.10105263158	-1.58275862069
448	0.224	22.0706122449	16.7896551724	14.0263157895	1.32068965517
449	0.2245	13.6142857143	-6.43793103448	15.4442105263	-0.131034482759
450	0.225	5.15795918367	0.820689655172	12.6084210526	2.7724137931
451	0.2255	2.33918367347	0.820689655172	4.10105263158	-8.84137931034
452	0.226	12.2048979592	2.2724137931	-4.40631578947	-4.48620689655
453	0.2265	10.7955102041	2.2724137931	-12.9136842105	4.22413793103
454	0.227	10.7955102041	2.2724137931	-8.66	-0.131034482759
455	0.2275	3.74857142857	-9.34137931034	-0.152631578947	-0.131034482759
456	0.228	0.929795918367	2.2724137931	4.10105263158	2.7724137931
457	0.2285	12.2048979592	-0.631034482759	6.93684210526	-0.131034482759
458	0.229	9.38612244898	-0.631034482759	6.93684210526	2.7724137931
459	0.2295	15.0236734694	-2.08275862069	-1.57052631579	-8.84137931034
460	0.23	13.6142857143	-0.631034482759	1.26526315789	-1.58275862069
461	0.2305	13.6142857143	-3.53448275862	12.6084210526	-0.131034482759
462	0.231	17.8424489796	15.3379310345	5.51894736842	-0.131034482759
463	0.2315	15.0236734694	-12.2448275862	-1.57052631579	-0.131034482759
464	0.232	22.0706122449	-2.08275862069	-5.82421052632	-0.131034482759
465	0.2325	16.4330612245	-2.08275862069	1.26526315789	-8.84137931034
466	0.233	15.0236734694	-2.08275862069	-2.98842105263	-0.131034482759
467	0.2335	13.6142857143	0.820689655172	4.10105263158	-0.131034482759
468	0.234	12.2048979592	-12.2448275862	6.93684210526	2.7724137931
469	0.2345	17.8424489796	22.5965517241	1.26526315789	-0.131034482759
470	0.235	16.4330612245	0.820689655172	-8.66	-0.131034482759
471	0.2355	23.48	0.820689655172	-5.82421052632	2.7724137931
472	0.236	26.2987755102	0.820689655172	-2.98842105263	-11.7448275862
473	0.2365	30.5269387755	-2.08275862069	-1.57052631579	1.32068965517
474	0.237	30.5269387755	-3.53448275862	5.51894736842	1.32068965517
475	0.2375	36.1644897959	3.72413793103	5.51894736842	-0.131034482759
476	0.238	34.7551020408	-7.88965517241	6.93684210526	-0.131034482759
477	0.2385	24.8893877551	-3.53448275862	4.10105263158	-1.58275862069
478	0.239	33.3457142857	-0.631034482759	-2.98842105263	17.2896551724
479	0.2395	31.9363265306	-0.631034482759	-1.57052631579	14.3862068966
480	0.24	30.5269387755	0.820689655172	1.26526315789	-0.131034482759
481	0.2405	31.9363265306	0.820689655172	-7.24210526316	-0.131034482759
482	0.241	29.1175510204	-10.7931034483	-1.57052631579	1.32068965517
483	0.2415	23.48	0.820689655172	-1.57052631579	1.32068965517
484	0.242	12.2048979592	0.820689655172	-0.152631578947	-0.131034482759
485	0.2425	22.0706122449	2.2724137931	2.68315789474	2.7724137931
486	0.243	12.2048979592	3.72413793103	16.8621052632	-1.58275862069
487	0.2435	12.2048979592	0.820689655172	-5.82421052632	2.7724137931
488	0.244	10.7955102041	0.820689655172	2.68315789474	-0.131034482759
489	0.2445	12.2048979592	9.53103448276	1.26526315789	-1.58275862069
490	0.245	0.929795918367	-3.53448275862	-1.57052631579	-0.131034482759
491	0.2455	22.0706122449	0.820689655172	-7.24210526316	-0.131034482759
492	0.246	12.2048979592	-0.631034482759	-10.0778947368	14.3862068966
493	0.2465	15.0236734694	-6.43793103448	-8.66	-4.48620689655
494	0.247	12.2048979592	-9.34137931034	-17.1673684211	-0.131034482759
495	0.2475	13.6142857143	-3.53448275862	-8.66	1.32068965517
496	0.248	16.4330612245	9.53103448276	-8.66	-0.131034482759
497	0.2485	10.7955102041	-2.08275862069	-8.66	1.32068965517
498	0.249	22.0706122449	0.820689655172	-4.40631578947	-4.48620689655
499	0.2495	9.38612244898	-0.631034482759	-2.98842105263	-5.93793103448
500	0.25	15.0236734694	-2.08275862069	-10.0778947368	1.32068965517
501	0.2505	16.4330612245	2.2724137931	15.4442105263	-0.131034482759
502	0.251	16.4330612245	-2.08275862069	-2.98842105263	1.32068965517
503	0.2515	22.0706122449	-0.631034482759	-4.40631578947	-0.131034482759
504	0.252	29.1175510204	-2.08275862069	-5.82421052632	-0.131034482759
505	0.2525	44.6208163265	-4.98620689655	-2.98842105263	4.22413793103
506	0.253	29.1175510204	-2.08275862069	1.26526315789	-7.38965517241
507	0.2535	29.1175510204	0.820689655172	-0.152631578947	1.32068965517
508	0.254	36.1644897959	-3.53448275862	-2.98842105263	-0.131034482759
509	0.2545	40.3926530612	-12.2448275862	-2.98842105263	1.32068965517
510	0.255	40.3926530612	-2.08275862069	-1.57052631579	-0.131034482759
511	0.2555	46.0302040816	-7.88965517241	-2.98842105263	2.7724137931
512	0.256	37.573877551	-6.43793103448	1.26526315789	15.8379310345
513	0.2565	41.8020408163	-4.98620689655	1.26526315789	-10.2931034483
514	0.257	38.9832653061	-2.08275862069	-4.40631578947	-5.93793103448
515	0.2575	36.1644897959	-12.2448275862	-0.152631578947	1.32068965517
516	0.258	30.5269387755	18.2413793103	-0.152631578947	-0.131034482759
517	0.2585	22.0706122449	0.820689655172	-2.98842105263	-0.131034482759
518	0.259	13.6142857143	-2.08275862069	-4.40631578947	-0.131034482759
519	0.2595	19.2518367347	-0.631034482759	2.68315789474	-3.03448275862
520	0.26	17.8424489796	-0.631034482759	-4.40631578947	1.32068965517
521	0.2605	16.4330612245	0.820689655172	-2.98842105263	-0.131034482759
522	0.261	15.0236734694	2.2724137931	1.26526315789	-0.131034482759
523	0.2615	12.2048979592	-10.7931034483	2.68315789474	-0.131034482759
524	0.262	12.2048979592	-0.631034482759	-2.98842105263	-0.131034482759
525	0.2625	20.6612244898	-2.08275862069	-4.40631578947	-7.38965517241
526	0.263	12.2048979592	-6.43793103448	-2.98842105263	12.9344827586
527	0.2635	13.6142857143	-0.631034482759	4.10105263158	14.3862068966
528	0.264	15.0236734694	-4.98620689655	-2.98842105263	-0.131034482759
529	0.2645	13.6142857143	0.820689655172	-0.152631578947	-1.58275862069
530	0.265	13.6142857143	-4.98620689655	4.10105263158	1.32068965517
531	0.2655	12.2048979592	-4.98620689655	4.10105263158	-0.131034482759
532	0.266	23.48	-0.631034482759	5.51894736842	-1.58275862069
533	0.2665	-3.29836734694	-0.631034482759	6.93684210526	1.32068965517
534	0.267	7.97673469388	-2.08275862069	2.68315789474	-4.48620689655
535	0.2675	12.2048979592	2.2724137931	4.10105263158	-1.58275862069
536	0.268	10.7955102041	-16.6	5.51894736842	-1.58275862069
537	0.2685	16.4330612245	-10.7931034483	4.10105263158	-0.131034482759
538	0.269	12.2048979592	-2.08275862069	-0.152631578947	-0.131034482759
539	0.2695	33.3457142857	-0.631034482759	-1.57052631579	2.7724137931
540	0.27	26.2987755102	-0.631034482759	1.26526315789	-5.93793103448
541	0.2705	30.5269387755	-0.631034482759	-8.66	-0.131034482759
542	0.271	31.9363265306	-2.08275862069	-5.82421052632	-1.58275862069
543	0.2715	31.9363265306	-6.43793103448	4.10105263158	-3.03448275862
544	0.272	29.1175510204	-2.08275862069	2.68315789474	-0.131034482759
545	0.2725	15.0236734694	0.820689655172	-0.152631578947	-3.03448275862
546	0.273	43.2114285714	-0.631034482759	2.68315789474	1.32068965517
547	0.2735	17.8424489796	-2.08275862069	1.26526315789	12.9344827586
548	0.274	24.8893877551	0.820689655172	4.10105263158	-0.131034482759
549	0.2745	17.8424489796	-2.08275862069	-1.57052631579	-0.131034482759
550	0.275	13.6142857143	21.1448275862	5.51894736842	1.32068965517
551	0.2755	10.7955102041	-7.88965517241	-0.152631578947	1.32068965517
552	0.276	5.15795918367	2.2724137931	4.10105263158	-0.131034482759
553	0.2765	-4.70775510204	-2.08275862069	-1.57052631579	-0.131034482759
554	0.277	-1.88897959184	-2.08275862069	-0.152631578947	-3.03448275862
555	0.2775	0.929795918367	-0.631034482759	12.6084210526	-0.131034482759
556	0.278	-1.88897959184	-0.631034482759	1.26526315789	-0.131034482759
557	0.2785	-0.479591836735	-12.2448275862	2.68315789474	1.32068965517
558	0.279	7.97673469388	0.820689655172	1.26526315789	-0.131034482759
559	0.2795	2.33918367347	-4.98620689655	2.68315789474	-1.58275862069
560	0.28	17.8424489796	-4.98620689655	8.35473684211	2.7724137931
561	0.2805	12.2048979592	-6.43793103448	9.77263157895	-1.58275862069
562	0.281	9.38612244898	-4.98620689655	-12.9136842105	-1.58275862069
563	0.2815	10.7955102041	-2.08275862069	-10.0778947368	-1.58275862069
564	0.282	12.2048979592	-2.08275862069	-10.0778947368	-0.131034482759
565	0.2825	10.7955102041	-7.88965517241	-4.40631578947	-0.131034482759
566	0.283	15.0236734694	-0.631034482759	2.68315789474	-3.03448275862
567	0.2835	27.7081632653	-6.43793103448	4.10105263158	1.32068965517
568	0.284	12.2048979592	-3.53448275862	5.51894736842	-0.131034482759
569	0.2845	16.4330612245	-3.53448275862	12.6084210526	-1.58275862069
570	0.285	17.8424489796	-7.88965517241	-0.152631578947	-1.58275862069
571	0.2855	20.6612244898	-16.6	-0.152631578947	-0.131034482759
572	0.286	23.48	9.53103448276	4.10105263158	-0.131034482759
573	0.2865	26.2987755102	-2.08275862069	6.93684210526	1.32068965517
574	0.287	27.7081632653	-4.98620689655	5.51894736842	-1.58275862069
575	0.2875	23.48	-4.98620689655	-2.98842105263	-7.38965517241
576	0.288	29.1175510204	-3.53448275862	18.28	-0.131034482759
577	0.2885	27.7081632653	-2.08275862069	-1.57052631579	-1.58275862069
578	0.289	24.8893877551	-3.53448275862	-2.98842105263	-3.03448275862
579	0.2895	20.6612244898	-3.53448275862	-7.24210526316	-3.03448275862
580	0.29	24.8893877551	-0.631034482759	-11.4957894737	-1.58275862069
581	0.2905	10.7955102041	-2.08275862069	-4.40631578947	-0.131034482759
582	0.291	15.0236734694	0.820689655172	6.93684210526	-1.58275862069
583	0.2915	6.56734693878	2.2724137931	15.4442105263	-0.131034482759
584	0.292	3.74857142857	5.17586206897	4.10105263158	-1.58275862069
585	0.2925	-0.479591836735	15.3379310345	1.26526315789	-0.131034482759
586	0.293	-3.29836734694	-9.34137931034	2.68315789474	-0.131034482759
587	0.2935	-3.29836734694	-0.631034482759	-1.57052631579	1.32068965517
588	0.294	-1.88897959184	-0.631034482759	4.10105263158	-7.38965517241
589	0.2945	-1.88897959184	-0.631034482759	-10.0778947368	-0.131034482759
590	0.295	-0.479591836735	-0.631034482759	15.4442105263	-0.131034482759
591	0.2955	0.929795918367	-2.08275862069	-0.152631578947	-0.131034482759
592	0.296	3.74857142857	3.72413793103	-1.57052631579	-0.131034482759
593	0.2965	3.74857142857	-3.53448275862	-1.57052631579	-1.58275862069
594	0.297	22.0706122449	-2.08275862069	1.26526315789	2.7724137931
595	0.2975	-6.11714285714	-6.43793103448	1.26526315789	-8.84137931034
596	0.298	5.15795918367	-0.631034482759	-2.98842105263	-7.38965517241
597	0.2985	10.7955102041	-3.53448275862	4.10105263158	-1.58275862069
598	0.299	9.38612244898	0.820689655172	-1.57052631579	-0.131034482759
599	0.2995	3.74857142857	10.9827586207	-0.152631578947	-0.131034482759
600	0.3	2.33918367347	-6.43793103448	1.26526315789	-0.131034482759
601	0.3005	-6.11714285714	-0.631034482759	2.68315789474	2.7724137931
602	0.301	5.15795918367	-2.08275862069	4.10105263158	-1.58275862069
603	0.3015	9.38612244898	-0.631034482759	4.10105263158	1.32068965517
604	0.302	12.2048979592	-3.53448275862	-4.40631578947	-0.131034482759
605	0.3025	17.8424489796	-13.6965517241	-0.152631578947	1.32068965517
606	0.303	22.0706122449	-9.34137931034	-1.57052631579	-0.131034482759
607	0.3035	26.2987755102	0.820689655172	1.26526315789	1.32068965517
608	0.304	15.0236734694	-0.631034482759	-0.152631578947	1.32068965517
609	0.3045	26.2987755102	-0.631034482759	1.26526315789	-5.93793103448
610	0.305	24.8893877551	0.820689655172	6.93684210526	2.7724137931
611	0.3055	23.48	-3.53448275862	4.10105263158	-0.131034482759
612	0.306	23.48	0.820689655172	15.4442105263	-4.48620689655
613	0.3065	19.2518367347	-10.7931034483	-1.57052631579	-1.58275862069
614	0.307	22.0706122449	-2.08275862069	-1.57052631579	-0.131034482759
615	0.3075	12.2048979592	0.820689655172	-0.152631578947	-1.58275862069
616	0.308	0.929795918367	2.2724137931	1.26526315789	4.22413793103
617	0.3085	0.929795918367	3.72413793103	14.0263157895	1.32068965517
618	0.309	-3.29836734694	-0.631034482759	5.51894736842	-0.131034482759
619	0.3095	-4.70775510204	-9.34137931034	4.10105263158	-0.131034482759
620	0.31	-0.479591836735	19.6931034483	-0.152631578947	1.32068965517
621	0.3105	-7.52653061224	0.820689655172	-2.98842105263	1.32068965517
622	0.311	5.15795918367	3.72413793103	-0.152631578947	-0.131034482759
623	0.3115	-13.1640816327	0.820689655172	2.68315789474	-5.93793103448
624	0.312	-6.11714285714	0.820689655172	-11.4957894737	-1.58275862069
625	0.3125	-3.29836734694	-3.53448275862	16.8621052632	-3.03448275862
626	0.313	-1.88897959184	-2.08275862069	-11.4957894737	-0.131034482759
627	0.3135	-6.11714285714	10.9827586207	-1.57052631579	-0.131034482759
628	0.314	-8.93591836735	-0.631034482759	-0.152631578947	-1.58275862069
629	0.3145	-1.88897959184	-0.631034482759	2.68315789474	8.57931034483
630	0.315	-4.70775510204	-4.98620689655	2.68315789474	-5.93793103448
631	0.3155	-1.88897959184	-3.53448275862	-10.0778947368	-7.38965517241
632	0.316	-4.70775510204	-2.08275862069	-7.24210526316	-0.131034482759
633	0.3165	-4.70775510204	-0.631034482759	1.26526315789	-0.131034482759
634	0.317	-7.52653061224	-3.53448275862	4.10105263158	-0.131034482759
635	0.3175	-17.392244898	-0.631034482759	1.26526315789	-0.131034482759
636	0.318	17.8424489796	0.820689655172	-1.57052631579	-7.38965517241
637	0.3185	2.33918367347	0.820689655172	-1.57052631579	5.67586206897
638	0.319	5.15795918367	-3.53448275862	2.68315789474	-0.131034482759
639	0.3195	12.2048979592	0.820689655172	4.10105263158	-0.131034482759
640	0.32	12.2048979592	18.2413793103	5.51894736842	-0.131034482759
641	0.3205	16.4330612245	-6.43793103448	4.10105263158	1.32068965517
642	0.321	16.4330612245	-0.631034482759	6.93684210526	-0.131034482759
643	0.3215	13.6142857143	0.820689655172	2.68315789474	-0.131034482759
644	0.322	19.2518367347	-0.631034482759	-1.57052631579	2.7724137931
645	0.3225	17.8424489796	-4.98620689655	-11.4957894737	-0.131034482759
646	0.323	16.4330612245	-6.43793103448	-0.152631578947	-1.58275862069
647	0.3235	15.0236734694	-0.631034482759	1.26526315789	-0.131034482759
648	0.324	15.0236734694	-4.98620689655	5.51894736842	1.32068965517
649	0.3245	-7.52653061224	-0.631034482759	6.93684210526	-0.131034482759
650	0.325	0.929795918367	-0.631034482759	5.51894736842	-4.48620689655
651	0.3255	-1.88897959184	-0.631034482759	18.28	-0.131034482759
652	0.326	-3.29836734694	0.820689655172	4.10105263158	-0.131034482759
653	0.3265	-6.11714285714	5.17586206897	1.26526315789	-0.131034482759
654	0.327	-8.93591836735	15.3379310345	-2.98842105263	-0.131034482759
655	0.3275	-20.2110204082	0.820689655172	-1.57052631579	1.32068965517
656	0.328	-20.2110204082	-0.631034482759	2.68315789474	-11.7448275862
657	0.3285	-14.5734693878	-2.08275862069	1.26526315789	-8.84137931034
658	0.329	-14.5734693878	-3.53448275862	-1.57052631579	-0.131034482759
659	0.3295	-13.1640816327	-12.2448275862	-1.57052631579	-1.58275862069
660	0.33	-14.5734693878	15.3379310345	-1.57052631579	-0.131034482759
661	0.3305	-15.9828571429	-2.08275862069	-5.82421052632	-0.131034482759
662	0.331	-13.1640816327	-2.08275862069	-10.0778947368	-0.131034482759
663	0.3315	-18.8016326531	-2.08275862069	-8.66	12.9344827586
664	0.332	-14.5734693878	-0.631034482759	-2.98842105263	-8.84137931034
665	0.3325	-17.392244898	-3.53448275862	-7.24210526316	1.32068965517
666	0.333	-15.9828571429	0.820689655172	8.35473684211	-1.58275862069
667	0.3335	-15.9828571429	0.820689655172	6.93684210526	-0.131034482759
668	0.334	-13.1640816327	-2.08275862069	6.93684210526	-3.03448275862
669	0.3345	-27.2579591837	0.820689655172	6.93684210526	-0.131034482759
670	0.335	-24.4391836735	-0.631034482759	2.68315789474	-4.48620689655
671	0.3355	-10.3453061224	-0.631034482759	2.68315789474	-3.03448275862
672	0.336	-4.70775510204	0.820689655172	5.51894736842	-1.58275862069
673	0.3365	-0.479591836735	3.72413793103	5.51894736842	-3.03448275862
674	0.337	0.929795918367	18.2413793103	2.68315789474	-1.58275862069
675	0.3375	10.7955102041	-12.2448275862	-1.57052631579	-0.131034482759
676	0.338	3.74857142857	-4.98620689655	-1.57052631579	-0.131034482759
677	0.3385	9.38612244898	-4.98620689655	1.26526315789	-5.93793103448
678	0.339	9.38612244898	-6.43793103448	15.4442105263	-0.131034482759
679	0.3395	7.97673469388	-6.43793103448	-8.66	-1.58275862069
680	0.34	7.97673469388	-2.08275862069	-4.40631578947	-0.131034482759
681	0.3405	5.15795918367	13.8862068966	-0.152631578947	-0.131034482759
682	0.341	-1.88897959184	2.2724137931	4.10105263158	-0.131034482759
683	0.3415	0.929795918367	3.72413793103	4.10105263158	-7.38965517241
684	0.342	-10.3453061224	2.2724137931	2.68315789474	-3.03448275862
685	0.3425	-7.52653061224	3.72413793103	22.5336842105	-0.131034482759
686	0.343	-8.93591836735	0.820689655172	-1.57052631579	-1.58275862069
687	0.3435	-13.1640816327	-4.98620689655	1.26526315789	-1.58275862069
688	0.344	-13.1640816327	0.820689655172	-0.152631578947	-1.58275862069
689	0.3445	-27.2579591837	-0.631034482759	1.26526315789	-0.131034482759
690	0.345	-25.8485714286	2.2724137931	4.10105263158	-11.7448275862
691	0.3455	-14.5734693878	0.820689655172	-0.152631578947	-8.84137931034
692	0.346	-11.7546938776	-2.08275862069	1.26526315789	-0.131034482759
693	0.3465	-11.7546938776	-0.631034482759	-0.152631578947	-1.58275862069
694	0.347	-11.7546938776	6.6275862069	-2.98842105263	-0.131034482759
695	0.3475	-10.3453061224	-13.6965517241	-2.98842105263	-0.131034482759
696	0.348	-10.3453061224	-4.98620689655	-2.98842105263	-1.58275862069
697	0.3485	-0.479591836735	-3.53448275862	-1.57052631579	-4.48620689655
698	0.349	-7.52653061224	-0.631034482759	-7.24210526316	-4.48620689655
699	0.3495	-7.52653061224	0.820689655172	-4.40631578947	-1.58275862069
700	0.35	-11.7546938776	3.72413793103	4.10105263158	-1.58275862069
701	0.3505	-7.52653061224	3.72413793103	4.10105263158	-0.131034482759
702	0.351	-7.52653061224	-0.631034482759	4.10105263158	2.7724137931
703	0.3515	-17.392244898	-0.631034482759	2.68315789474	-3.03448275862
704	0.352	2.33918367347	-2.08275862069	4.10105263158	-1.58275862069
705	0.3525	2.33918367347	-2.08275862069	-5.82421052632	-4.48620689655
706	0.353	5.15795918367	-2.08275862069	18.28	-0.131034482759
707	0.3535	10.7955102041	-6.43793103448	4.10105263158	-0.131034482759
708	0.354	16.4330612245	-10.7931034483	1.26526315789	-0.131034482759
709	0.3545	19.2518367347	-4.98620689655	-2.98842105263	-1.58275862069
710	0.355	27.7081632653	-4.98620689655	-0.152631578947	1.32068965517
711	0.3555	12.2048979592	-2.08275862069	-0.152631578947	14.3862068966
712	0.356	16.4330612245	-4.98620689655	-1.57052631579	-8.84137931034
713	0.3565	13.6142857143	-3.53448275862	-1.57052631579	-0.131034482759
714	0.357	12.2048979592	-3.53448275862	6.93684210526	-0.131034482759
715	0.3575	10.7955102041	-7.88965517241	1.26526315789	1.32068965517
716	0.358	9.38612244898	0.820689655172	1.26526315789	-1.58275862069
717	0.3585	13.6142857143	0.820689655172	1.26526315789	-1.58275862069
718	0.359	-11.7546938776	2.2724137931	4.10105263158	1.32068965517
719	0.3595	-4.70775510204	-0.631034482759	-7.24210526316	-1.58275862069
720	0.36	-6.11714285714	-4.98620689655	21.1157894737	-0.131034482759
721	0.3605	-11.7546938776	-6.43793103448	2.68315789474	1.32068965517
722	0.361	-11.7546938776	-6.43793103448	1.26526315789	-0.131034482759
723	0.3615	7.97673469388	-2.08275862069	2.68315789474	-0.131034482759
724	0.362	-21.6204081633	-3.53448275862	2.68315789474	-0.131034482759
725	0.3625	-11.7546938776	-0.631034482759	2.68315789474	-4.48620689655
726	0.363	-10.3453061224	-2.08275862069	18.28	-1.58275862069
727	0.3635	-10.3453061224	-9.34137931034	-0.152631578947	1.32068965517
728	0.364	-8.93591836735	-3.53448275862	-1.57052631579	-1.58275862069
729	0.3645	-7.52653061224	-4.98620689655	4.10105263158	-0.131034482759
730	0.365	-18.8016326531	-3.53448275862	-1.57052631579	-0.131034482759
731	0.3655	-6.11714285714	-4.98620689655	-0.152631578947	-0.131034482759
732	0.366	-10.3453061224	-4.98620689655	-10.0778947368	-4.48620689655
733	0.3665	-10.3453061224	-0.631034482759	-4.40631578947	-1.58275862069
734	0.367	-7.52653061224	21.1448275862	1.26526315789	-1.58275862069
735	0.3675	-4.70775510204	-7.88965517241	2.68315789474	-0.131034482759
736	0.368	-13.1640816327	-3.53448275862	1.26526315789	-3.03448275862
737	0.3685	17.8424489796	-3.53448275862	-0.152631578947	-3.03448275862
738	0.369	-0.479591836735	-2.08275862069	-2.98842105263	-1.58275862069
739	0.3695	7.97673469388	2.2724137931	-1.57052631579	-0.131034482759
740	0.37	12.2048979592	-0.631034482759	1.26526315789	-0.131034482759
741	0.3705	16.4330612245	-12.2448275862	-0.152631578947	-0.131034482759
742	0.371	20.6612244898	-9.34137931034	-0.152631578947	-0.131034482759
743	0.3715	22.0706122449	-3.53448275862	-0.152631578947	-8.84137931034
744	0.372	13.6142857143	-4.98620689655	-1.57052631579	-5.93793103448
745	0.3725	15.0236734694	-7.88965517241	-8.66	-3.03448275862
746	0.373	12.2048979592	-2.08275862069	12.6084210526	-3.03448275862
747	0.3735	15.0236734694	-3.53448275862	-1.57052631579	-1.58275862069
748	0.374	10.7955102041	15.3379310345	1.26526315789	-3.03448275862
749	0.3745	3.74857142857	-7.88965517241	4.10105263158	1.32068965517
750	0.375	-10.3453061224	5.17586206897	6.93684210526	-0.131034482759
751	0.3755	-6.11714285714	0.820689655172	8.35473684211	-1.58275862069
752	0.376	-4.70775510204	-0.631034482759	-5.82421052632	-0.131034482759
753	0.3765	-7.52653061224	0.820689655172	-7.24210526316	-0.131034482759
754	0.377	-13.1640816327	-4.98620689655	1.26526315789	-1.58275862069
755	0.3775	-15.9828571429	-3.53448275862	2.68315789474	1.32068965517
756	0.378	-25.8485714286	-0.631034482759	2.68315789474	-1.58275862069
757	0.3785	-8.93591836735	-2.08275862069	-1.57052631579	10.0310344828
758	0.379	-15.9828571429	-3.53448275862	-1.57052631579	-5.93793103448
759	0.3795	-14.5734693878	-3.53448275862	-1.57052631579	1.32068965517
760	0.38	-11.7546938776	2.2724137931	-5.82421052632	-0.131034482759
761	0.3805	-15.9828571429	15.3379310345	2.68315789474	1.32068965517
762	0.381	-13.1640816327	-4.98620689655	1.26526315789	-0.131034482759
763	0.3815	-24.4391836735	-0.631034482759	-0.152631578947	-3.03448275862
764	0.382	-10.3453061224	-2.08275862069	-2.98842105263	15.8379310345
765	0.3825	-11.7546938776	-3.53448275862	-7.24210526316	-0.131034482759
766	0.383	-13.1640816327	-0.631034482759	-2.98842105263	-0.131034482759
767	0.3835	-13.1640816327	0.820689655172	1.26526315789	2.7724137931
768	0.384	-8.93591836735	-13.6965517241	2.68315789474	-0.131034482759
769	0.3845	-11.7546938776	-0.631034482759	4.10105263158	1.32068965517
770	0.385	-7.52653061224	-0.631034482759	4.10105263158	-1.58275862069
771	0.3855	9.38612244898	-3.53448275862	4.10105263158	2.7724137931
772	0.386	-0.479591836735	0.820689655172	2.68315789474	-7.38965517241
773	0.3865	5.15795918367	-2.08275862069	5.51894736842	10.0310344828
774	0.387	7.97673469388	-16.6	2.68315789474	-3.03448275862
775	0.3875	13.6142857143	16.7896551724	-1.57052631579	-0.131034482759
776	0.388	10.7955102041	-2.08275862069	-1.57052631579	-1.58275862069
777	0.3885	7.97673469388	-4.98620689655	-1.57052631579	-1.58275862069
778	0.389	15.0236734694	-3.53448275862	2.68315789474	-0.131034482759
779	0.3895	10.7955102041	-3.53448275862	-8.66	-10.2931034483
780	0.39	7.97673469388	-2.08275862069	-8.66	-0.131034482759
781	0.3905	10.7955102041	-10.7931034483	-4.40631578947	-0.131034482759
782	0.391	7.97673469388	9.53103448276	1.26526315789	-0.131034482759
783	0.3915	-3.29836734694	0.820689655172	6.93684210526	2.7724137931
784	0.392	-11.7546938776	0.820689655172	6.93684210526	-5.93793103448
785	0.3925	-3.29836734694	0.820689655172	4.10105263158	-4.48620689655
786	0.393	-0.479591836735	0.820689655172	8.35473684211	-0.131034482759
787	0.3935	-4.70775510204	-0.631034482759	-1.57052631579	-0.131034482759
788	0.394	-4.70775510204	3.72413793103	-4.40631578947	-0.131034482759
789	0.3945	-8.93591836735	-6.43793103448	-0.152631578947	-0.131034482759
790	0.395	-4.70775510204	-0.631034482759	1.26526315789	-1.58275862069
791	0.3955	12.2048979592	0.820689655172	-1.57052631579	-0.131034482759
792	0.396	-10.3453061224	-3.53448275862	1.26526315789	-0.131034482759
793	0.3965	-3.29836734694	-4.98620689655	2.68315789474	-1.58275862069
794	0.397	-4.70775510204	-4.98620689655	-0.152631578947	-0.131034482759
795	0.3975	-4.70775510204	-0.631034482759	6.93684210526	-0.131034482759
796	0.398	-6.11714285714	-13.6965517241	1.26526315789	-0.131034482759
797	0.3985	-3.29836734694	-3.53448275862	-1.57052631579	-0.131034482759
798	0.399	10.7955102041	-4.98620689655	-1.57052631579	-3.03448275862
799	0.3995	-4.70775510204	-4.98620689655	-4.40631578947	1.32068965517
800	0.4	0.929795918367	-2.08275862069	-12.9136842105	-3.03448275862
801	0.4005	0.929795918367	0.820689655172	-0.152631578947	2.7724137931
802	0.401	0.929795918367	-9.34137931034	4.10105263158	-0.131034482759
803	0.4015	2.33918367347	-6.43793103448	2.68315789474	1.32068965517
804	0.402	-6.11714285714	-3.53448275862	4.10105263158	-1.58275862069
805	0.4025	29.1175510204	-2.08275862069	5.51894736842	-7.38965517241
806	0.403	13.6142857143	0.820689655172	-0.152631578947	10.0310344828
807	0.4035	17.8424489796	-0.631034482759	-5.82421052632	-3.03448275862
808	0.404	19.2518367347	0.820689655172	-1.57052631579	-0.131034482759
809	0.4045	22.0706122449	-16.6	2.68315789474	-0.131034482759
810	0.405	24.8893877551	-9.34137931034	-0.152631578947	-0.131034482759
811	0.4055	15.0236734694	-4.98620689655	-1.57052631579	-1.58275862069
812	0.406	22.0706122449	-2.08275862069	-1.57052631579	8.57931034483
813	0.4065	17.8424489796	-2.08275862069	1.26526315789	-4.48620689655
814	0.407	13.6142857143	-0.631034482759	-14.3315789474	-8.84137931034
815	0.4075	9.38612244898	2.2724137931	18.28	1.32068965517
816	0.408	5.15795918367	-7.88965517241	2.68315789474	1.32068965517
817	0.4085	0.929795918367	-2.08275862069	2.68315789474	4.22413793103
818	0.409	12.2048979592	-0.631034482759	4.10105263158	5.67586206897
819	0.4095	-7.52653061224	-0.631034482759	4.10105263158	-10.2931034483
820	0.41	-4.70775510204	3.72413793103	2.68315789474	-7.38965517241
821	0.4105	-4.70775510204	0.820689655172	11.1905263158	-0.131034482759
822	0.411	-6.11714285714	2.2724137931	2.68315789474	1.32068965517
823	0.4115	-6.11714285714	15.3379310345	2.68315789474	-0.131034482759
824	0.412	-11.7546938776	-10.7931034483	1.26526315789	-0.131034482759
825	0.4125	15.0236734694	-0.631034482759	-1.57052631579	-8.84137931034
826	0.413	-3.29836734694	-2.08275862069	1.26526315789	14.3862068966
827	0.4135	-3.29836734694	-0.631034482759	-5.82421052632	-0.131034482759
828	0.414	-3.29836734694	-0.631034482759	-1.57052631579	1.32068965517
829	0.4145	-4.70775510204	0.820689655172	-0.152631578947	-0.131034482759
830	0.415	0.929795918367	-15.1482758621	-2.98842105263	-1.58275862069
831	0.4155	-1.88897959184	16.7896551724	-5.82421052632	2.7724137931
832	0.416	19.2518367347	-2.08275862069	-4.40631578947	-8.84137931034
833	0.4165	-1.88897959184	-2.08275862069	-2.98842105263	20.1931034483
834	0.417	-0.479591836735	-2.08275862069	-1.57052631579	4.22413793103
835	0.4175	-1.88897959184	-0.631034482759	-0.152631578947	-10.2931034483
836	0.418	5.15795918367	-3.53448275862	4.10105263158	2.7724137931
837	0.4185	10.7955102041	-2.08275862069	4.10105263158	1.32068965517
838	0.419	10.7955102041	0.820689655172	1.26526315789	-0.131034482759
839	0.4195	26.2987755102	-2.08275862069	2.68315789474	-7.38965517241
840	0.42	15.0236734694	-4.98620689655	4.10105263158	2.7724137931
841	0.4205	17.8424489796	-3.53448275862	2.68315789474	-1.58275862069
842	0.421	19.2518367347	-3.53448275862	14.0263157895	-1.58275862069
843	0.4215	20.6612244898	-12.2448275862	-4.40631578947	-0.131034482759
844	0.422	17.8424489796	9.53103448276	1.26526315789	1.32068965517
845	0.4225	17.8424489796	-4.98620689655	2.68315789474	-0.131034482759
846	0.423	27.7081632653	-4.98620689655	1.26526315789	2.7724137931
847	0.4235	7.97673469388	-4.98620689655	-0.152631578947	2.7724137931
848	0.424	13.6142857143	-4.98620689655	-14.3315789474	-7.38965517241
849	0.4245	10.7955102041	0.820689655172	-14.3315789474	-0.131034482759
850	0.425	2.33918367347	-3.53448275862	14.0263157895	1.32068965517
851	0.4255	-1.88897959184	13.8862068966	2.68315789474	-0.131034482759
852	0.426	-4.70775510204	-0.631034482759	4.10105263158	-1.58275862069
853	0.4265	5.15795918367	2.2724137931	-0.152631578947	2.7724137931
854	0.427	-13.1640816327	-0.631034482759	-2.98842105263	4.22413793103
855	0.4275	-10.3453061224	0.820689655172	-17.1673684211	-7.38965517241
856	0.428	-13.1640816327	2.2724137931	-15.7494736842	1.32068965517
857	0.4285	-14.5734693878	-2.08275862069	-4.40631578947	-0.131034482759
858	0.429	-10.3453061224	0.820689655172	-2.98842105263	-3.03448275862
859	0.4295	-7.52653061224	-4.98620689655	-2.98842105263	1.32068965517
860	0.43	7.97673469388	-4.98620689655	-4.40631578947	1.32068965517
861	0.4305	-18.8016326531	-3.53448275862	-5.82421052632	15.8379310345
862	0.431	-10.3453061224	-3.53448275862	-2.98842105263	-1.58275862069
863	0.4315	-11.7546938776	-6.43793103448	-1.57052631579	-3.03448275862
864	0.432	-10.3453061224	-0.631034482759	-1.57052631579	-0.131034482759
865	0.4325	-11.7546938776	-4.98620689655	2.68315789474	1.32068965517
866	0.433	-21.6204081633	-3.53448275862	6.93684210526	-0.131034482759
867	0.4335	5.15795918367	-2.08275862069	4.10105263158	-0.131034482759
868	0.434	-10.3453061224	-3.53448275862	6.93684210526	4.22413793103
869	0.4345	-7.52653061224	-2.08275862069	-5.82421052632	-0.131034482759
870	0.435	-4.70775510204	-2.08275862069	-10.0778947368	1.32068965517
871	0.4355	0.929795918367	15.3379310345	-5.82421052632	1.32068965517
872	0.436	2.33918367347	-9.34137931034	-2.98842105263	2.7724137931
873	0.4365	0.929795918367	-3.53448275862	-4.40631578947	2.7724137931
874	0.437	13.6142857143	-0.631034482759	-1.57052631579	-5.93793103448
875	0.4375	13.6142857143	-4.98620689655	-5.82421052632	-11.7448275862
876	0.438	16.4330612245	-2.08275862069	-2.98842105263	17.2896551724
877	0.4385	16.4330612245	-4.98620689655	-11.4957894737	-1.58275862069
878	0.439	13.6142857143	-9.34137931034	-2.98842105263	-0.131034482759
879	0.4395	17.8424489796	-7.88965517241	-4.40631578947	-0.131034482759
880	0.44	-4.70775510204	-3.53448275862	-7.24210526316	4.22413793103
881	0.4405	-0.479591836735	-0.631034482759	-2.98842105263	-11.7448275862
882	0.441	5.15795918367	-2.08275862069	-1.57052631579	-7.38965517241
883	0.4415	0.929795918367	-0.631034482759	-2.98842105263	-0.131034482759
884	0.442	-1.88897959184	-2.08275862069	4.10105263158	1.32068965517
885	0.4425	-1.88897959184	5.17586206897	4.10105263158	1.32068965517
886	0.443	-3.29836734694	-3.53448275862	5.51894736842	2.7724137931
887	0.4435	-17.392244898	3.72413793103	2.68315789474	-0.131034482759
888	0.444	3.74857142857	2.2724137931	1.26526315789	-0.131034482759
889	0.4445	-8.93591836735	2.2724137931	4.10105263158	20.1931034483
890	0.445	-10.3453061224	0.820689655172	19.6978947368	1.32068965517
891	0.4455	-10.3453061224	-0.631034482759	-7.24210526316	2.7724137931
892	0.446	-7.52653061224	-7.88965517241	-4.40631578947	2.7724137931
893	0.4465	-6.11714285714	-2.08275862069	-2.98842105263	-3.03448275862
894	0.447	-18.8016326531	0.820689655172	-2.98842105263	4.22413793103
895	0.4475	-11.7546938776	-0.631034482759	1.26526315789	-7.38965517241
896	0.448	-4.70775510204	-4.98620689655	-1.57052631579	-1.58275862069
897	0.4485	-1.88897959184	-4.98620689655	-0.152631578947	-0.131034482759
898	0.449	-0.479591836735	-0.631034482759	-4.40631578947	1.32068965517
899	0.4495	-3.29836734694	-12.2448275862	-0.152631578947	-0.131034482759
900	0.45	0.929795918367	0.820689655172	4.10105263158	-0.131034482759
901	0.4505	-1.88897959184	2.2724137931	2.68315789474	-3.03448275862
902	0.451	-3.29836734694	-0.631034482759	1.26526315789	10.0310344828
903	0.4515	0.929795918367	-0.631034482759	4.10105263158	-0.131034482759
904	0.452	3.74857142857	-2.08275862069	16.8621052632	-0.131034482759
905	0.4525	7.97673469388	-0.631034482759	-0.152631578947	-1.58275862069
906	0.453	12.2048979592	3.72413793103	-1.57052631579	-0.131034482759
907	0.4535	17.8424489796	-6.43793103448	2.68315789474	2.7724137931
908	0.454	10.7955102041	0.820689655172	-1.57052631579	21.6448275862
909	0.4545	23.48	-3.53448275862	-2.98842105263	-7.38965517241
910	0.455	20.6612244898	-2.08275862069	-7.24210526316	-5.93793103448
911	0.4555	19.2518367347	-2.08275862069	-7.24210526316	-0.131034482759
912	0.456	16.4330612245	-10.7931034483	-1.57052631579	-1.58275862069
913	0.4565	19.2518367347	-4.98620689655	-4.40631578947	-1.58275862069
914	0.457	-0.479591836735	-0.631034482759	-1.57052631579	1.32068965517
915	0.4575	2.33918367347	0.820689655172	1.26526315789	-10.2931034483
916	0.458	3.74857142857	2.2724137931	-2.98842105263	-10.2931034483
917	0.4585	0.929795918367	0.820689655172	-1.57052631579	1.32068965517
918	0.459	-3.29836734694	-4.98620689655	4.10105263158	1.32068965517
919	0.4595	-3.29836734694	15.3379310345	5.51894736842	1.32068965517
920	0.46	-6.11714285714	-6.43793103448	1.26526315789	1.32068965517
921	0.4605	-7.52653061224	2.2724137931	2.68315789474	-0.131034482759
922	0.461	-17.392244898	-0.631034482759	1.26526315789	2.7724137931
923	0.4615	-7.52653061224	-0.631034482759	4.10105263158	-1.58275862069
924	0.462	-7.52653061224	0.820689655172	5.51894736842	-0.131034482759
925	0.4625	-8.93591836735	0.820689655172	-1.57052631579	-0.131034482759
926	0.463	-7.52653061224	15.3379310345	-1.57052631579	-0.131034482759
927	0.4635	-11.7546938776	-9.34137931034	-1.57052631579	1.32068965517
928	0.464	-6.11714285714	-2.08275862069	-0.152631578947	-3.03448275862
929	0.4645	-13.1640816327	-2.08275862069	-1.57052631579	-3.03448275862
930	0.465	-1.88897959184	-2.08275862069	-1.57052631579	-3.03448275862
931	0.4655	-0.479591836735	-3.53448275862	-7.24210526316	-1.58275862069
932	0.466	-1.88897959184	3.72413793103	-1.57052631579	-0.131034482759
933	0.4665	-0.479591836735	19.6931034483	2.68315789474	1.32068965517
934	0.467	-1.88897959184	-9.34137931034	4.10105263158	4.22413793103
935	0.4675	-0.479591836735	0.820689655172	4.10105263158	2.7724137931
936	0.468	7.97673469388	0.820689655172	4.10105263158	-7.38965517241
937	0.4685	5.15795918367	-0.631034482759	-1.57052631579	17.2896551724
938	0.469	9.38612244898	-0.631034482759	15.4442105263	-0.131034482759
939	0.4695	10.7955102041	-2.08275862069	-2.98842105263	-0.131034482759
940	0.47	15.0236734694	-6.43793103448	-1.57052631579	-0.131034482759
941	0.4705	16.4330612245	-0.631034482759	-7.24210526316	-0.131034482759
942	0.471	29.1175510204	-2.08275862069	-5.82421052632	4.22413793103
943	0.4715	13.6142857143	-4.98620689655	-0.152631578947	15.8379310345
944	0.472	13.6142857143	-3.53448275862	4.10105263158	-4.48620689655
945	0.4725	15.0236734694	-2.08275862069	-8.66	1.32068965517
946	0.473	9.38612244898	0.820689655172	-1.57052631579	-0.131034482759
947	0.4735	9.38612244898	15.3379310345	-1.57052631579	-1.58275862069
948	0.474	9.38612244898	-7.88965517241	-1.57052631579	1.32068965517
949	0.4745	-4.70775510204	2.2724137931	2.68315789474	2.7724137931
950	0.475	-8.93591836735	3.72413793103	5.51894736842	-10.2931034483
951	0.4755	-11.7546938776	2.2724137931	1.26526315789	-5.93793103448
952	0.476	-11.7546938776	5.17586206897	-1.57052631579	1.32068965517
953	0.4765	-11.7546938776	-6.43793103448	4.10105263158	1.32068965517
954	0.477	-10.3453061224	19.6931034483	2.68315789474	-0.131034482759
955	0.4775	-13.1640816327	-9.34137931034	-1.57052631579	-0.131034482759
956	0.478	-13.1640816327	0.820689655172	2.68315789474	-0.131034482759
957	0.4785	-20.2110204082	2.2724137931	1.26526315789	-5.93793103448
958	0.479	-15.9828571429	0.820689655172	-11.4957894737	-0.131034482759
959	0.4795	-15.9828571429	-0.631034482759	19.6978947368	-1.58275862069
960	0.48	-15.9828571429	-2.08275862069	-0.152631578947	-0.131034482759
961	0.4805	-20.2110204082	-3.53448275862	1.26526315789	-0.131034482759
962	0.481	-13.1640816327	-2.08275862069	-1.57052631579	-1.58275862069
963	0.4815	-6.11714285714	-0.631034482759	2.68315789474	-5.93793103448
964	0.482	-18.8016326531	0.820689655172	-1.57052631579	-1.58275862069
965	0.4825	-18.8016326531	-2.08275862069	-10.0778947368	-1.58275862069
966	0.483	-21.6204081633	0.820689655172	4.10105263158	-0.131034482759
967	0.4835	-20.2110204082	5.17586206897	6.93684210526	1.32068965517
968	0.484	-18.8016326531	-7.88965517241	4.10105263158	1.32068965517
969	0.4845	-14.5734693878	-2.08275862069	6.93684210526	-0.131034482759
970	0.485	-3.29836734694	-0.631034482759	4.10105263158	-5.93793103448
971	0.4855	-15.9828571429	0.820689655172	-0.152631578947	12.9344827586
972	0.486	-15.9828571429	0.820689655172	19.6978947368	-1.58275862069
973	0.4865	-11.7546938776	0.820689655172	1.26526315789	-0.131034482759
974	0.487	-6.11714285714	2.2724137931	-1.57052631579	2.7724137931
975	0.4875	6.56734693878	-3.53448275862	-1.57052631579	1.32068965517
976	0.488	-4.70775510204	-2.08275862069	-1.57052631579	-1.58275862069
977	0.4885	5.15795918367	-0.631034482759	-0.152631578947	-1.58275862069
978	0.489	17.8424489796	-2.08275862069	2.68315789474	-3.03448275862
979	0.4895	22.0706122449	-2.08275862069	16.8621052632	-1.58275862069
980	0.49	20.6612244898	-2.08275862069	-7.24210526316	-1.58275862069
981	0.4905	26.2987755102	2.2724137931	-0.152631578947	-0.131034482759
982	0.491	27.7081632653	-2.08275862069	1.26526315789	1.32068965517
983	0.4915	5.15795918367	5.17586206897	2.68315789474	-4.48620689655
984	0.492	16.4330612245	0.820689655172	2.68315789474	7.1275862069
985	0.4925	16.4330612245	0.820689655172	-4.40631578947	-0.131034482759
986	0.493	10.7955102041	3.72413793103	-5.82421052632	-0.131034482759
987	0.4935	10.7955102041	-2.08275862069	2.68315789474	-1.58275862069
988	0.494	0.929795918367	0.820689655172	4.10105263158	-0.131034482759
989	0.4945	5.15795918367	-2.08275862069	2.68315789474	1.32068965517
990	0.495	15.0236734694	0.820689655172	2.68315789474	-0.131034482759
991	0.4955	-7.52653061224	0.820689655172	-1.57052631579	4.22413793103
992	0.496	-1.88897959184	0.820689655172	-11.4957894737	1.32068965517
993	0.4965	-3.29836734694	-2.08275862069	16.8621052632	-3.03448275862
994	0.497	-1.88897959184	-0.631034482759	-1.57052631579	-1.58275862069
995	0.4975	-1.88897959184	-4.98620689655	-1.57052631579	-1.58275862069
996	0.498	7.97673469388	-0.631034482759	-1.57052631579	-3.03448275862
997	0.4985	26.2987755102	-0.631034482759	-2.98842105263	-1.58275862069
998	0.499	16.4330612245	-3.53448275862	-7.24210526316	-3.03448275862
999	0.4995	16.4330612245	0.820689655172	6.93684210526	-0.131034482759
1000	0.5	15.0236734694	6.6275862069	1.26526315789	1.32068965517
1001	0.5005	15.0236734694	-10.7931034483	4.10105263158	-0.131034482759
1002	0.501	13.6142857143	-9.34137931034	4.10105263158	-0.131034482759
1003	0.5015	5.15795918367	-3.53448275862	-1.57052631579	1.32068965517
1004	0.502	13.6142857143	-0.631034482759	-0.152631578947	2.7724137931
1005	0.5025	15.0236734694	0.820689655172	-0.152631578947	-1.58275862069
1006	0.503	22.0706122449	0.820689655172	16.8621052632	-0.131034482759
1007	0.5035	20.6612244898	-2.08275862069	-5.82421052632	1.32068965517
1008	0.504	23.48	-2.08275862069	-1.57052631579	-0.131034482759
1009	0.5045	22.0706122449	-9.34137931034	-2.98842105263	-0.131034482759
1010	0.505	13.6142857143	-3.53448275862	-2.98842105263	-1.58275862069
1011	0.5055	23.48	-0.631034482759	-1.57052631579	-1.58275862069
1012	0.506	24.8893877551	-0.631034482759	-12.9136842105	-5.93793103448
1013	0.5065	24.8893877551	2.2724137931	5.51894736842	2.7724137931
1014	0.507	24.8893877551	-2.08275862069	-4.40631578947	-0.131034482759
1015	0.5075	23.48	-9.34137931034	-1.57052631579	1.32068965517
1016	0.508	10.7955102041	-0.631034482759	5.51894736842	1.32068965517
1017	0.5085	-4.70775510204	-4.98620689655	2.68315789474	2.7724137931
1018	0.509	-0.479591836735	-0.631034482759	4.10105263158	-10.2931034483
1019	0.5095	-3.29836734694	0.820689655172	-4.40631578947	1.32068965517
1020	0.51	-6.11714285714	0.820689655172	16.8621052632	-0.131034482759
1021	0.5105	-15.9828571429	0.820689655172	2.68315789474	-0.131034482759
1022	0.511	-18.8016326531	9.53103448276	2.68315789474	-3.03448275862
1023	0.5115	-17.392244898	-0.631034482759	2.68315789474	-4.48620689655
1024	0.512	-34.3048979592	0.820689655172	-0.152631578947	-3.03448275862
1025	0.5125	-21.6204081633	0.820689655172	-5.82421052632	-7.38965517241
1026	0.513	-24.4391836735	-2.08275862069	-1.57052631579	1.32068965517
1027	0.5135	-25.8485714286	-2.08275862069	-8.66	-1.58275862069
1028	0.514	-28.6673469388	3.72413793103	-1.57052631579	-0.131034482759
1029	0.5145	-27.2579591837	10.9827586207	-2.98842105263	1.32068965517
1030	0.515	-25.8485714286	-2.08275862069	-1.57052631579	1.32068965517
1031	0.5155	-34.3048979592	-2.08275862069	-5.82421052632	-0.131034482759
1032	0.516	-20.2110204082	-2.08275862069	-1.57052631579	-1.58275862069
1033	0.5165	-17.392244898	-0.631034482759	6.93684210526	-0.131034482759
1034	0.517	-15.9828571429	-3.53448275862	-8.66	-0.131034482759
1035	0.5175	-14.5734693878	0.820689655172	4.10105263158	1.32068965517
1036	0.518	-15.9828571429	-6.43793103448	2.68315789474	-3.03448275862
1037	0.5185	-18.8016326531	-2.08275862069	-1.57052631579	-0.131034482759
1038	0.519	-10.3453061224	-2.08275862069	-1.57052631579	-7.38965517241
1039	0.5195	-17.392244898	-2.08275862069	-14.3315789474	-3.03448275862
1040	0.52	-15.9828571429	-2.08275862069	16.8621052632	-0.131034482759
1041	0.5205	-11.7546938776	-2.08275862069	-0.152631578947	-0.131034482759
1042	0.521	-10.3453061224	-2.08275862069	-1.57052631579	1.32068965517
1043	0.5215	-13.1640816327	3.72413793103	-1.57052631579	-1.58275862069
1044	0.522	-11.7546938776	0.820689655172	-2.98842105263	-0.131034482759
1045	0.5225	-13.1640816327	0.820689655172	-1.57052631579	5.67586206897
1046	0.523	-11.7546938776	-2.08275862069	-0.152631578947	-8.84137931034
1047	0.5235	-7.52653061224	-0.631034482759	-10.0778947368	1.32068965517
1048	0.524	2.33918367347	-3.53448275862	-1.57052631579	-0.131034482759
1049	0.5245	12.2048979592	10.9827586207	4.10105263158	-0.131034482759
1050	0.525	19.2518367347	-0.631034482759	5.51894736842	-0.131034482759
1051	0.5255	34.7551020408	5.17586206897	6.93684210526	-1.58275862069
1052	0.526	48.8489795918	2.2724137931	5.51894736842	-3.03448275862
1053	0.5265	31.9363265306	0.820689655172	-2.98842105263	-1.58275862069
1054	0.527	31.9363265306	2.2724137931	15.4442105263	-1.58275862069
1055	0.5275	34.7551020408	2.2724137931	-8.66	-3.03448275862
1056	0.528	41.8020408163	21.1448275862	2.68315789474	2.7724137931
1057	0.5285	41.8020408163	-9.34137931034	4.10105263158	-0.131034482759
1058	0.529	31.9363265306	-0.631034482759	-1.57052631579	1.32068965517
1059	0.5295	30.5269387755	-4.98620689655	-2.98842105263	-7.38965517241
1060	0.53	27.7081632653	0.820689655172	-4.40631578947	-4.48620689655
1061	0.5305	24.8893877551	-2.08275862069	-1.57052631579	20.1931034483
1062	0.531	19.2518367347	-0.631034482759	-8.66	-5.93793103448
1063	0.5315	16.4330612245	2.2724137931	-2.98842105263	-0.131034482759
1064	0.532	13.6142857143	-6.43793103448	-4.40631578947	-0.131034482759
1065	0.5325	-0.479591836735	-0.631034482759	-1.57052631579	4.22413793103
1066	0.533	24.8893877551	2.2724137931	2.68315789474	-0.131034482759
1067	0.5335	7.97673469388	0.820689655172	-4.40631578947	1.32068965517
1068	0.534	7.97673469388	0.820689655172	19.6978947368	-1.58275862069
1069	0.5345	10.7955102041	-0.631034482759	1.26526315789	1.32068965517
1070	0.535	15.0236734694	5.17586206897	2.68315789474	-1.58275862069
1071	0.5355	19.2518367347	0.820689655172	-1.57052631579	-0.131034482759
1072	0.536	37.573877551	0.820689655172	-1.57052631579	2.7724137931
1073	0.5365	23.48	-0.631034482759	1.26526315789	20.1931034483
1074	0.537	34.7551020408	-2.08275862069	1.26526315789	-8.84137931034
1075	0.5375	38.9832653061	-0.631034482759	-4.40631578947	-0.131034482759
1076	0.538	34.7551020408	-0.631034482759	-7.24210526316	-0.131034482759
1077	0.5385	31.9363265306	15.3379310345	-0.152631578947	-0.131034482759
1078	0.539	20.6612244898	-0.631034482759	-0.152631578947	-1.58275862069
1079	0.5395	12.2048979592	-2.08275862069	-0.152631578947	-5.93793103448
1080	0.54	23.48	-2.08275862069	-2.98842105263	-0.131034482759
1081	0.5405	15.0236734694	-0.631034482759	-2.98842105263	-4.48620689655
1082	0.541	10.7955102041	-2.08275862069	-10.0778947368	-0.131034482759
1083	0.5415	0.929795918367	0.820689655172	1.26526315789	-0.131034482759
1084	0.542	-4.70775510204	0.820689655172	4.10105263158	1.32068965517
1085	0.5425	-4.70775510204	-2.08275862069	1.26526315789	1.32068965517
1086	0.543	-20.2110204082	2.2724137931	4.10105263158	-1.58275862069
1087	0.5435	-8.93591836735	3.72413793103	6.93684210526	-5.93793103448
1088	0.544	-7.52653061224	2.2724137931	5.51894736842	15.8379310345
1089	0.5445	-15.9828571429	5.17586206897	19.6978947368	2.7724137931
1090	0.545	-13.1640816327	0.820689655172	-5.82421052632	2.7724137931
1091	0.5455	-11.7546938776	-6.43793103448	-2.98842105263	2.7724137931
1092	0.546	-21.6204081633	0.820689655172	-1.57052631579	-0.131034482759
1093	0.5465	3.74857142857	0.820689655172	-1.57052631579	4.22413793103
1094	0.547	-0.479591836735	0.820689655172	-0.152631578947	1.32068965517
1095	0.5475	16.4330612245	-3.53448275862	-12.9136842105	4.22413793103
1096	0.548	24.8893877551	-0.631034482759	-7.24210526316	2.7724137931
1097	0.5485	34.7551020408	9.53103448276	-2.98842105263	1.32068965517
1098	0.549	29.1175510204	-9.34137931034	-4.40631578947	-1.58275862069
1099	0.5495	23.48	3.72413793103	-1.57052631579	-0.131034482759
1100	0.55	-3.29836734694	2.2724137931	2.68315789474	-0.131034482759
1101	0.5505	-1.88897959184	2.2724137931	5.51894736842	15.8379310345
1102	0.551	-11.7546938776	2.2724137931	2.68315789474	-5.93793103448
1103	0.5515	-13.1640816327	2.2724137931	4.10105263158	5.67586206897
1104	0.552	-15.9828571429	0.820689655172	-1.57052631579	2.7724137931
1105	0.5525	-20.2110204082	-0.631034482759	1.26526315789	2.7724137931
1106	0.553	-34.3048979592	2.2724137931	1.26526315789	-3.03448275862
1107	0.5535	-21.6204081633	3.72413793103	4.10105263158	1.32068965517
1108	0.554	-18.8016326531	2.2724137931	-1.57052631579	-7.38965517241
1109	0.5545	-17.392244898	2.2724137931	8.35473684211	-5.93793103448
1110	0.555	-13.1640816327	-12.2448275862	1.26526315789	-0.131034482759
1111	0.5555	-3.29836734694	18.2413793103	-0.152631578947	-1.58275862069
1112	0.556	-1.88897959184	-0.631034482759	-2.98842105263	-0.131034482759
1113	0.5565	16.4330612245	-2.08275862069	-1.57052631579	4.22413793103
1114	0.557	3.74857142857	0.820689655172	2.68315789474	21.6448275862
1115	0.5575	19.2518367347	2.2724137931	4.10105263158	-7.38965517241
1116	0.558	17.8424489796	2.2724137931	4.10105263158	-1.58275862069
1117	0.5585	15.0236734694	-9.34137931034	5.51894736842	-1.58275862069
1118	0.559	12.2048979592	21.1448275862	5.51894736842	-3.03448275862
1119	0.5595	3.74857142857	2.2724137931	4.10105263158	4.22413793103
1120	0.56	-0.479591836735	5.17586206897	5.51894736842	-8.84137931034
1121	0.5605	-4.70775510204	2.2724137931	2.68315789474	-8.84137931034
1122	0.561	-3.29836734694	2.2724137931	-2.98842105263	4.22413793103
1123	0.5615	0.929795918367	0.820689655172	1.26526315789	4.22413793103
1124	0.562	-0.479591836735	16.7896551724	-0.152631578947	5.67586206897
1125	0.5625	2.33918367347	-10.7931034483	-0.152631578947	4.22413793103
1126	0.563	-7.52653061224	0.820689655172	-1.57052631579	-0.131034482759
1127	0.5635	-6.11714285714	-0.631034482759	-5.82421052632	-0.131034482759
1128	0.564	-6.11714285714	3.72413793103	-0.152631578947	12.9344827586
1129	0.5645	-0.479591836735	0.820689655172	12.6084210526	-0.131034482759
1130	0.565	10.7955102041	-3.53448275862	-11.4957894737	-1.58275862069
1131	0.5655	12.2048979592	8.07931034483	-4.40631578947	-1.58275862069
1132	0.566	7.97673469388	-0.631034482759	-0.152631578947	-0.131034482759
1133	0.5665	-15.9828571429	2.2724137931	2.68315789474	2.7724137931
1134	0.567	-18.8016326531	3.72413793103	6.93684210526	-10.2931034483
1135	0.5675	-14.5734693878	0.820689655172	2.68315789474	15.8379310345
1136	0.568	-14.5734693878	2.2724137931	5.51894736842	1.32068965517
1137	0.5685	-13.1640816327	3.72413793103	-0.152631578947	1.32068965517
1138	0.569	-4.70775510204	-12.2448275862	-0.152631578947	1.32068965517
1139	0.5695	5.15795918367	-7.88965517241	-0.152631578947	-1.58275862069
1140	0.57	12.2048979592	0.820689655172	-0.152631578947	-1.58275862069
1141	0.5705	19.2518367347	2.2724137931	1.26526315789	14.3862068966
1142	0.571	33.3457142857	0.820689655172	1.26526315789	-8.84137931034
1143	0.5715	44.6208163265	0.820689655172	-2.98842105263	-1.58275862069
1144	0.572	60.1240816327	0.820689655172	-2.98842105263	-1.58275862069
1145	0.5725	65.7616326531	-6.43793103448	1.26526315789	-3.03448275862
1146	0.573	61.5334693878	0.820689655172	-1.57052631579	-1.58275862069
1147	0.5735	65.7616326531	2.2724137931	-4.40631578947	1.32068965517
1148	0.574	48.8489795918	2.2724137931	-1.57052631579	-5.93793103448
1149	0.5745	44.6208163265	3.72413793103	-1.57052631579	5.67586206897
1150	0.575	33.3457142857	3.72413793103	4.10105263158	-0.131034482759
1151	0.5755	24.8893877551	8.07931034483	4.10105263158	1.32068965517
1152	0.576	16.4330612245	21.1448275862	4.10105263158	4.22413793103
1153	0.5765	13.6142857143	-3.53448275862	2.68315789474	2.7724137931
1154	0.577	12.2048979592	0.820689655172	-1.57052631579	-3.03448275862
1155	0.5775	2.33918367347	0.820689655172	-1.57052631579	-8.84137931034
1156	0.578	2.33918367347	0.820689655172	-7.24210526316	-0.131034482759
1157	0.5785	-1.88897959184	0.820689655172	14.0263157895	-3.03448275862
1158	0.579	-6.11714285714	6.6275862069	-1.57052631579	-1.58275862069
1159	0.5795	-14.5734693878	-0.631034482759	-1.57052631579	-3.03448275862
1160	0.58	-10.3453061224	0.820689655172	-1.57052631579	-3.03448275862
1161	0.5805	-0.479591836735	-0.631034482759	-1.57052631579	-0.131034482759
1162	0.581	-27.2579591837	2.2724137931	-2.98842105263	4.22413793103
1163	0.5815	-20.2110204082	2.2724137931	-12.9136842105	-5.93793103448
1164	0.582	-20.2110204082	0.820689655172	12.6084210526	-4.48620689655
1165	0.5825	-21.6204081633	-3.53448275862	-2.98842105263	-5.93793103448
1166	0.583	-25.8485714286	3.72413793103	-1.57052631579	-4.48620689655
1167	0.5835	-18.8016326531	3.72413793103	2.68315789474	-8.84137931034
1168	0.584	2.33918367347	2.2724137931	5.51894736842	-4.48620689655
1169	0.5845	-0.479591836735	0.820689655172	-1.57052631579	-5.93793103448
1170	0.585	7.97673469388	2.2724137931	15.4442105263	-0.131034482759
1171	0.5855	19.2518367347	0.820689655172	1.26526315789	-0.131034482759
1172	0.586	24.8893877551	-4.98620689655	-1.57052631579	-1.58275862069
1173	0.5865	26.2987755102	6.6275862069	1.26526315789	-3.03448275862
1174	0.587	47.4395918367	0.820689655172	2.68315789474	-11.7448275862
1175	0.5875	34.7551020408	0.820689655172	-4.40631578947	18.7413793103
1176	0.588	38.9832653061	-0.631034482759	-2.98842105263	1.32068965517
1177	0.5885	36.1644897959	0.820689655172	8.35473684211	4.22413793103
1178	0.589	30.5269387755	3.72413793103	2.68315789474	4.22413793103
1179	0.5895	27.7081632653	-12.2448275862	-1.57052631579	2.7724137931
1180	0.59	22.0706122449	0.820689655172	-7.24210526316	2.7724137931
1181	0.5905	15.0236734694	-0.631034482759	-7.24210526316	-0.131034482759
1182	0.591	0.929795918367	2.2724137931	-2.98842105263	14.3862068966
1183	0.5915	-3.29836734694	0.820689655172	6.93684210526	1.32068965517
1184	0.592	-4.70775510204	3.72413793103	19.6978947368	-0.131034482759
1185	0.5925	-10.3453061224	3.72413793103	-5.82421052632	-0.131034482759
1186	0.593	-17.392244898	13.8862068966	-0.152631578947	-4.48620689655
1187	0.5935	-21.6204081633	2.2724137931	-0.152631578947	-1.58275862069
1188	0.594	-37.1236734694	3.72413793103	2.68315789474	-1.58275862069
1189	0.5945	-34.3048979592	5.17586206897	-0.152631578947	18.7413793103
1190	0.595	-41.3518367347	5.17586206897	1.26526315789	2.7724137931
1191	0.5955	-42.7612244898	3.72413793103	2.68315789474	2.7724137931
1192	0.596	-41.3518367347	8.07931034483	-2.98842105263	-0.131034482759
1193	0.5965	-49.8081632653	-10.7931034483	-2.98842105263	1.32068965517
1194	0.597	-65.3114285714	-0.631034482759	-0.152631578947	-0.131034482759
1195	0.5975	-65.3114285714	-0.631034482759	-4.40631578947	1.32068965517
1196	0.598	-72.3583673469	-2.08275862069	1.26526315789	1.32068965517
1197	0.5985	-72.3583673469	2.2724137931	-11.4957894737	-3.03448275862
1198	0.599	-68.1302040816	2.2724137931	-11.4957894737	-0.131034482759
1199	0.5995	-66.7208163265	5.17586206897	-1.57052631579	-1.58275862069
1200	0.6	-63.9020408163	-0.631034482759	-0.152631578947	-3.03448275862
1201	0.6005	-58.2644897959	-2.08275862069	1.26526315789	-1.58275862069
1202	0.601	-38.5330612245	2.2724137931	2.68315789474	-0.131034482759
1203	0.6015	-44.1706122449	0.820689655172	4.10105263158	15.8379310345
1204	0.602	-17.392244898	2.2724137931	1.26526315789	-7.38965517241
1205	0.6025	-6.11714285714	2.2724137931	-7.24210526316	-3.03448275862
1206	0.603	2.33918367347	0.820689655172	8.35473684211	-4.48620689655
1207	0.6035	-0.479591836735	13.8862068966	1.26526315789	-3.03448275862
1208	0.604	-8.93591836735	-2.08275862069	-1.57052631579	-1.58275862069
1209	0.6045	6.56734693878	-0.631034482759	-2.98842105263	-0.131034482759
1210	0.605	-21.6204081633	-0.631034482759	2.68315789474	2.7724137931
1211	0.6055	-14.5734693878	0.820689655172	2.68315789474	-11.7448275862
1212	0.606	-10.3453061224	0.820689655172	-7.24210526316	-1.58275862069
1213	0.6065	-4.70775510204	2.2724137931	6.93684210526	-0.131034482759
1214	0.607	7.97673469388	-0.631034482759	-8.66	2.7724137931
1215	0.6075	22.0706122449	2.2724137931	-0.152631578947	-0.131034482759
1216	0.608	34.7551020408	2.2724137931	2.68315789474	7.1275862069
1217	0.6085	5.15795918367	2.2724137931	4.10105263158	21.6448275862
1218	0.609	10.7955102041	5.17586206897	-1.57052631579	-4.48620689655
1219	0.6095	3.74857142857	6.6275862069	2.68315789474	-4.48620689655
1220	0.61	-4.70775510204	-3.53448275862	2.68315789474	-0.131034482759
1221	0.6105	-10.3453061224	6.6275862069	4.10105263158	-0.131034482759
1222	0.611	-17.392244898	0.820689655172	11.1905263158	-1.58275862069
1223	0.6115	-11.7546938776	3.72413793103	8.35473684211	-1.58275862069
1224	0.612	-48.3987755102	0.820689655172	5.51894736842	-0.131034482759
1225	0.6125	-48.3987755102	0.820689655172	-4.40631578947	-5.93793103448
1226	0.613	-49.8081632653	0.820689655172	8.35473684211	-1.58275862069
1227	0.6135	-52.6269387755	0.820689655172	-0.152631578947	1.32068965517
1228	0.614	-54.0363265306	2.2724137931	-5.82421052632	1.32068965517
1229	0.6145	-56.8551020408	-0.631034482759	-4.40631578947	-0.131034482759
1230	0.615	-41.3518367347	-0.631034482759	-4.40631578947	5.67586206897
1231	0.6155	-59.673877551	-0.631034482759	-1.57052631579	-0.131034482759
1232	0.616	-45.58	2.2724137931	1.26526315789	-14.6482758621
1233	0.6165	-39.9424489796	3.72413793103	-4.40631578947	-8.84137931034
1234	0.617	-32.8955102041	0.820689655172	2.68315789474	-1.58275862069
1235	0.6175	-20.2110204082	-0.631034482759	4.10105263158	-1.58275862069
1236	0.618	-1.88897959184	-3.53448275862	1.26526315789	-1.58275862069
1237	0.6185	17.8424489796	0.820689655172	1.26526315789	-1.58275862069
1238	0.619	38.9832653061	0.820689655172	-1.57052631579	-0.131034482759
1239	0.6195	53.0771428571	0.820689655172	-11.4957894737	-1.58275862069
1240	0.62	53.0771428571	0.820689655172	14.0263157895	-0.131034482759
1241	0.6205	44.6208163265	0.820689655172	-5.82421052632	-0.131034482759
1242	0.621	38.9832653061	-7.88965517241	-2.98842105263	-3.03448275862
1243	0.6215	27.7081632653	15.3379310345	-2.98842105263	-3.03448275862
1244	0.622	9.38612244898	0.820689655172	-4.40631578947	-4.48620689655
1245	0.6225	-3.29836734694	0.820689655172	-2.98842105263	8.57931034483
1246	0.623	-7.52653061224	-2.08275862069	-0.152631578947	-4.48620689655
1247	0.6235	-6.11714285714	2.2724137931	-15.7494736842	-8.84137931034
1248	0.624	-0.479591836735	0.820689655172	-2.98842105263	-1.58275862069
1249	0.6245	9.38612244898	-6.43793103448	1.26526315789	-1.58275862069
1250	0.625	15.0236734694	-6.43793103448	6.93684210526	-0.131034482759
1251	0.6255	13.6142857143	5.17586206897	5.51894736842	-0.131034482759
1252	0.626	12.2048979592	2.2724137931	5.51894736842	5.67586206897
1253	0.6265	17.8424489796	0.820689655172	1.26526315789	-7.38965517241
1254	0.627	10.7955102041	5.17586206897	4.10105263158	1.32068965517
1255	0.6275	5.15795918367	3.72413793103	4.10105263158	5.67586206897
1256	0.628	5.15795918367	-2.08275862069	1.26526315789	1.32068965517
1257	0.6285	-1.88897959184	3.72413793103	-0.152631578947	-0.131034482759
1258	0.629	-15.9828571429	2.2724137931	-0.152631578947	-1.58275862069
1259	0.6295	-3.29836734694	-0.631034482759	-1.57052631579	-3.03448275862
1260	0.63	-18.8016326531	0.820689655172	-1.57052631579	7.1275862069
1261	0.6305	-20.2110204082	-0.631034482759	1.26526315789	-3.03448275862
1262	0.631	-28.6673469388	-3.53448275862	-8.66	-0.131034482759
1263	0.6315	-34.3048979592	8.07931034483	-0.152631578947	-1.58275862069
1264	0.632	-38.5330612245	22.5965517241	-0.152631578947	-1.58275862069
1265	0.6325	-41.3518367347	-7.88965517241	1.26526315789	4.22413793103
1266	0.633	-32.8955102041	0.820689655172	4.10105263158	-3.03448275862
1267	0.6335	-35.7142857143	0.820689655172	2.68315789474	-8.84137931034
1268	0.634	-21.6204081633	0.820689655172	5.51894736842	8.57931034483
1269	0.6345	-21.6204081633	3.72413793103	21.1157894737	-0.131034482759
1270	0.635	-30.0767346939	3.72413793103	2.68315789474	-3.03448275862
1271	0.6355	-37.1236734694	10.9827586207	2.68315789474	-0.131034482759
1272	0.636	-44.1706122449	-3.53448275862	2.68315789474	-0.131034482759
1273	0.6365	-59.673877551	2.2724137931	-0.152631578947	2.7724137931
1274	0.637	-52.6269387755	2.2724137931	1.26526315789	-8.84137931034
1275	0.6375	-52.6269387755	-0.631034482759	-1.57052631579	12.9344827586
1276	0.638	-48.3987755102	0.820689655172	8.35473684211	-3.03448275862
1277	0.6385	-37.1236734694	9.53103448276	-0.152631578947	-4.48620689655
1278	0.639	-34.3048979592	-6.43793103448	-1.57052631579	-0.131034482759
1279	0.6395	-30.0767346939	0.820689655172	-2.98842105263	1.32068965517
1280	0.64	-14.5734693878	0.820689655172	-2.98842105263	4.22413793103
1281	0.6405	-41.3518367347	0.820689655172	-1.57052631579	4.22413793103
1282	0.641	-28.6673469388	0.820689655172	-5.82421052632	-8.84137931034
1283	0.6415	-18.8016326531	5.17586206897	-1.57052631579	-0.131034482759
1284	0.642	-3.29836734694	0.820689655172	2.68315789474	-4.48620689655
1285	0.6425	20.6612244898	5.17586206897	4.10105263158	-0.131034482759
1286	0.643	33.3457142857	0.820689655172	4.10105263158	-1.58275862069
1287	0.6435	60.1240816327	0.820689655172	-0.152631578947	-7.38965517241
1288	0.644	51.667755102	-0.631034482759	-0.152631578947	10.0310344828
1289	0.6445	55.8959183673	0.820689655172	4.10105263158	-3.03448275862
1290	0.645	47.4395918367	0.820689655172	19.6978947368	-3.03448275862
1291	0.6455	38.9832653061	-2.08275862069	1.26526315789	-0.131034482759
1292	0.646	29.1175510204	8.07931034483	-0.152631578947	-1.58275862069
1293	0.6465	17.8424489796	0.820689655172	-1.57052631579	-0.131034482759
1294	0.647	12.2048979592	0.820689655172	-1.57052631579	2.7724137931
1295	0.6475	-31.486122449	0.820689655172	1.26526315789	20.1931034483
1296	0.648	-28.6673469388	0.820689655172	1.26526315789	-7.38965517241
1297	0.6485	-34.3048979592	-0.631034482759	-10.0778947368	-1.58275862069
1298	0.649	-30.0767346939	-0.631034482759	-0.152631578947	-0.131034482759
1299	0.6495	-28.6673469388	0.820689655172	1.26526315789	4.22413793103
1300	0.65	-38.5330612245	0.820689655172	2.68315789474	2.7724137931
1301	0.6505	-10.3453061224	3.72413793103	4.10105263158	1.32068965517
1302	0.651	-23.0297959184	0.820689655172	5.51894736842	17.2896551724
1303	0.6515	9.38612244898	0.820689655172	-0.152631578947	-7.38965517241
1304	0.652	22.0706122449	0.820689655172	8.35473684211	-0.131034482759
1305	0.6525	23.48	0.820689655172	5.51894736842	-0.131034482759
1306	0.653	17.8424489796	-9.34137931034	-0.152631578947	1.32068965517
1307	0.6535	17.8424489796	0.820689655172	-0.152631578947	-0.131034482759
1308	0.654	2.33918367347	2.2724137931	-0.152631578947	-0.131034482759
1309	0.6545	23.48	0.820689655172	-2.98842105263	-7.38965517241
1310	0.655	29.1175510204	-2.08275862069	1.26526315789	-3.03448275862
1311	0.6555	22.0706122449	-2.08275862069	-0.152631578947	-3.03448275862
1312	0.656	5.15795918367	3.72413793103	-0.152631578947	-0.131034482759
1313	0.6565	-7.52653061224	19.6931034483	-4.40631578947	-5.93793103448
1314	0.657	-13.1640816327	2.2724137931	-2.98842105263	-3.03448275862
1315	0.6575	-23.0297959184	2.2724137931	-1.57052631579	-5.93793103448
1316	0.658	-30.0767346939	5.17586206897	4.10105263158	8.57931034483
1317	0.6585	-27.2579591837	3.72413793103	6.93684210526	-1.58275862069
1318	0.659	-27.2579591837	2.2724137931	-10.0778947368	-1.58275862069
1319	0.6595	-35.7142857143	5.17586206897	1.26526315789	-0.131034482759
1320	0.66	-46.9893877551	0.820689655172	-5.82421052632	-0.131034482759
1321	0.6605	-52.6269387755	-0.631034482759	1.26526315789	-0.131034482759
1322	0.661	-42.7612244898	0.820689655172	4.10105263158	1.32068965517
1323	0.6615	-51.2175510204	2.2724137931	8.35473684211	15.8379310345
1324	0.662	-41.3518367347	3.72413793103	11.1905263158	-5.93793103448
1325	0.6625	-20.2110204082	2.2724137931	-7.24210526316	1.32068965517
1326	0.663	3.74857142857	-0.631034482759	11.1905263158	1.32068965517
1327	0.6635	20.6612244898	2.2724137931	2.68315789474	-0.131034482759
1328	0.664	27.7081632653	-2.08275862069	1.26526315789	-1.58275862069
1329	0.6645	44.6208163265	-2.08275862069	-0.152631578947	-11.7448275862
1330	0.665	10.7955102041	0.820689655172	-4.40631578947	10.0310344828
1331	0.6655	-11.7546938776	0.820689655172	-0.152631578947	17.2896551724
1332	0.666	-35.7142857143	0.820689655172	16.8621052632	-0.131034482759
1333	0.6665	-51.2175510204	-2.08275862069	-7.24210526316	1.32068965517
1334	0.667	-55.4457142857	5.17586206897	1.26526315789	1.32068965517
1335	0.6675	-46.9893877551	-10.7931034483	4.10105263158	-0.131034482759
1336	0.668	-39.9424489796	0.820689655172	1.26526315789	1.32068965517
1337	0.6685	-18.8016326531	-0.631034482759	2.68315789474	-7.38965517241
1338	0.669	-10.3453061224	0.820689655172	-0.152631578947	-1.58275862069
1339	0.6695	-6.11714285714	0.820689655172	2.68315789474	-0.131034482759
1340	0.67	-3.29836734694	-0.631034482759	-1.57052631579	-0.131034482759
1341	0.6705	-4.70775510204	16.7896551724	-1.57052631579	-1.58275862069
1342	0.671	-10.3453061224	-4.98620689655	-1.57052631579	-0.131034482759
1343	0.6715	-7.52653061224	-2.08275862069	-1.57052631579	-0.131034482759
1344	0.672	-10.3453061224	-0.631034482759	-2.98842105263	12.9344827586
1345	0.6725	-15.9828571429	-2.08275862069	-11.4957894737	-0.131034482759
1346	0.673	-20.2110204082	0.820689655172	-5.82421052632	-1.58275862069
1347	0.6735	-21.6204081633	3.72413793103	-4.40631578947	-0.131034482759
1348	0.674	-20.2110204082	-9.34137931034	1.26526315789	-0.131034482759
1349	0.6745	-13.1640816327	2.2724137931	4.10105263158	-0.131034482759
1350	0.675	0.929795918367	5.17586206897	4.10105263158	-0.131034482759
1351	0.6755	15.0236734694	3.72413793103	6.93684210526	-0.131034482759
1352	0.676	29.1175510204	5.17586206897	21.1157894737	-0.131034482759
1353	0.6765	34.7551020408	2.2724137931	-1.57052631579	2.7724137931
1354	0.677	30.5269387755	3.72413793103	4.10105263158	-0.131034482759
1355	0.6775	27.7081632653	13.8862068966	4.10105263158	-0.131034482759
1356	0.678	24.8893877551	-4.98620689655	5.51894736842	2.7724137931
1357	0.6785	46.0302040816	2.2724137931	2.68315789474	1.32068965517
1358	0.679	46.0302040816	0.820689655172	2.68315789474	12.9344827586
1359	0.6795	40.3926530612	0.820689655172	15.4442105263	-4.48620689655
1360	0.68	26.2987755102	-0.631034482759	-11.4957894737	-0.131034482759
1361	0.6805	16.4330612245	2.2724137931	-2.98842105263	-3.03448275862
1362	0.681	23.48	-0.631034482759	-1.57052631579	-0.131034482759
1363	0.6815	33.3457142857	-0.631034482759	-1.57052631579	1.32068965517
1364	0.682	24.8893877551	0.820689655172	-2.98842105263	1.32068965517
1365	0.6825	17.8424489796	2.2724137931	-0.152631578947	-0.131034482759
1366	0.683	9.38612244898	2.2724137931	-8.66	-0.131034482759
1367	0.6835	2.33918367347	2.2724137931	22.5336842105	1.32068965517
1368	0.684	-0.479591836735	-2.08275862069	4.10105263158	1.32068965517
1369	0.6845	-0.479591836735	2.2724137931	4.10105263158	-0.131034482759
1370	0.685	0.929795918367	0.820689655172	2.68315789474	-1.58275862069
1371	0.6855	3.74857142857	2.2724137931	-0.152631578947	10.0310344828
1372	0.686	15.0236734694	0.820689655172	4.10105263158	1.32068965517
1373	0.6865	20.6612244898	2.2724137931	19.6978947368	1.32068965517
1374	0.687	23.48	0.820689655172	-7.24210526316	1.32068965517
1375	0.6875	29.1175510204	6.6275862069	-1.57052631579	-0.131034482759
1376	0.688	34.7551020408	9.53103448276	-4.40631578947	-0.131034482759
1377	0.6885	27.7081632653	-0.631034482759	-1.57052631579	-1.58275862069
1378	0.689	30.5269387755	-0.631034482759	-0.152631578947	-3.03448275862
1379	0.6895	22.0706122449	-0.631034482759	1.26526315789	14.3862068966
1380	0.69	23.48	2.2724137931	14.0263157895	-0.131034482759
1381	0.6905	26.2987755102	-2.08275862069	-0.152631578947	1.32068965517
1382	0.691	17.8424489796	-6.43793103448	2.68315789474	4.22413793103
1383	0.6915	5.15795918367	15.3379310345	4.10105263158	2.7724137931
1384	0.692	-10.3453061224	5.17586206897	4.10105263158	4.22413793103
1385	0.6925	-10.3453061224	6.6275862069	5.51894736842	-0.131034482759
1386	0.693	-10.3453061224	5.17586206897	4.10105263158	2.7724137931
1387	0.6935	-21.6204081633	2.2724137931	-7.24210526316	-0.131034482759
1388	0.694	-32.8955102041	6.6275862069	1.26526315789	-1.58275862069
1389	0.6945	-30.0767346939	13.8862068966	2.68315789474	-1.58275862069
1390	0.695	-27.2579591837	-2.08275862069	4.10105263158	-0.131034482759
1391	0.6955	-39.9424489796	2.2724137931	-1.57052631579	2.7724137931
1392	0.696	-32.8955102041	-0.631034482759	-2.98842105263	-0.131034482759
1393	0.6965	-31.486122449	-0.631034482759	-1.57052631579	17.2896551724
1394	0.697	-30.0767346939	2.2724137931	4.10105263158	-7.38965517241
1395	0.6975	-28.6673469388	-3.53448275862	-2.98842105263	1.32068965517
1396	0.698	-25.8485714286	3.72413793103	1.26526315789	1.32068965517
1397	0.6985	-17.392244898	-4.98620689655	-4.40631578947	2.7724137931
1398	0.699	-30.0767346939	-2.08275862069	-7.24210526316	2.7724137931
1399	0.6995	-25.8485714286	0.820689655172	1.26526315789	-7.38965517241
1400	0.7	-30.0767346939	3.72413793103	-2.98842105263	-8.84137931034
1401	0.7005	-41.3518367347	2.2724137931	-2.98842105263	1.32068965517
1402	0.701	-46.9893877551	-10.7931034483	4.10105263158	1.32068965517
1403	0.7015	-44.1706122449	16.7896551724	2.68315789474	-0.131034482759
1404	0.702	-44.1706122449	0.820689655172	-0.152631578947	2.7724137931
1405	0.7025	-23.0297959184	-0.631034482759	-1.57052631579	-10.2931034483
1406	0.703	-7.52653061224	0.820689655172	-4.40631578947	-8.84137931034
1407	0.7035	-6.11714285714	3.72413793103	-4.40631578947	17.2896551724
1408	0.704	0.929795918367	5.17586206897	-1.57052631579	-0.131034482759
1409	0.7045	15.0236734694	2.2724137931	-1.57052631579	-1.58275862069
1410	0.705	17.8424489796	3.72413793103	-2.98842105263	-1.58275862069
1411	0.7055	33.3457142857	0.820689655172	2.68315789474	-0.131034482759
1412	0.706	23.48	-3.53448275862	2.68315789474	2.7724137931
1413	0.7065	23.48	0.820689655172	4.10105263158	-5.93793103448
1414	0.707	3.74857142857	0.820689655172	-11.4957894737	1.32068965517
1415	0.7075	-15.9828571429	5.17586206897	-5.82421052632	1.32068965517
1416	0.708	-30.0767346939	3.72413793103	21.1157894737	1.32068965517
1417	0.7085	-27.2579591837	-4.98620689655	4.10105263158	-0.131034482759
1418	0.709	-20.2110204082	6.6275862069	4.10105263158	-0.131034482759
1419	0.7095	-18.8016326531	3.72413793103	4.10105263158	-3.03448275862
1420	0.71	-37.1236734694	0.820689655172	4.10105263158	1.32068965517
1421	0.7105	-41.3518367347	3.72413793103	6.93684210526	1.32068965517
1422	0.711	-49.8081632653	2.2724137931	-1.57052631579	4.22413793103
1423	0.7115	-55.4457142857	-9.34137931034	2.68315789474	4.22413793103
1424	0.712	-59.673877551	19.6931034483	2.68315789474	-0.131034482759
1425	0.7125	-68.1302040816	5.17586206897	1.26526315789	-0.131034482759
1426	0.713	-49.8081632653	2.2724137931	-2.98842105263	-4.48620689655
1427	0.7135	-73.767755102	0.820689655172	-5.82421052632	-3.03448275862
1428	0.714	-48.3987755102	0.820689655172	-12.9136842105	-7.38965517241
1429	0.7145	-31.486122449	0.820689655172	1.26526315789	-4.48620689655
1430	0.715	-18.8016326531	-12.2448275862	-5.82421052632	1.32068965517
1431	0.7155	-7.52653061224	18.2413793103	-0.152631578947	1.32068965517
1432	0.716	-11.7546938776	0.820689655172	4.10105263158	-0.131034482759
1433	0.7165	-10.3453061224	3.72413793103	5.51894736842	-0.131034482759
1434	0.717	12.2048979592	3.72413793103	4.10105263158	1.32068965517
1435	0.7175	12.2048979592	2.2724137931	-0.152631578947	5.67586206897
1436	0.718	31.9363265306	0.820689655172	12.6084210526	4.22413793103
1437	0.7185	61.5334693878	2.2724137931	6.93684210526	-3.03448275862
1438	0.719	88.3118367347	-4.98620689655	4.10105263158	4.22413793103
1439	0.7195	96.7681632653	-0.631034482759	4.10105263158	2.7724137931
1440	0.72	69.9897959184	3.72413793103	4.10105263158	2.7724137931
1441	0.7205	60.1240816327	0.820689655172	1.26526315789	-8.84137931034
1442	0.721	62.9428571429	0.820689655172	-2.98842105263	15.8379310345
1443	0.7215	64.352244898	2.2724137931	12.6084210526	-1.58275862069
1444	0.722	62.9428571429	-2.08275862069	14.0263157895	-3.03448275862
1445	0.7225	55.8959183673	-6.43793103448	-1.57052631579	-1.58275862069
1446	0.723	38.9832653061	15.3379310345	-1.57052631579	-3.03448275862
1447	0.7235	16.4330612245	0.820689655172	-2.98842105263	-0.131034482759
1448	0.724	15.0236734694	-0.631034482759	-4.40631578947	-1.58275862069
1449	0.7245	-17.392244898	3.72413793103	2.68315789474	12.9344827586
1450	0.725	-28.6673469388	2.2724137931	12.6084210526	-1.58275862069
1451	0.7255	-39.9424489796	6.6275862069	8.35473684211	2.7724137931
1452	0.726	-37.1236734694	10.9827586207	4.10105263158	2.7724137931
1453	0.7265	-32.8955102041	-2.08275862069	5.51894736842	-0.131034482759
1454	0.727	-23.0297959184	3.72413793103	2.68315789474	-0.131034482759
1455	0.7275	-37.1236734694	5.17586206897	1.26526315789	5.67586206897
1456	0.728	-27.2579591837	3.72413793103	4.10105263158	-3.03448275862
1457	0.7285	-18.8016326531	0.820689655172	-2.98842105263	-1.58275862069
1458	0.729	-6.11714285714	2.2724137931	-5.82421052632	2.7724137931
1459	0.7295	7.97673469388	3.72413793103	-2.98842105263	-0.131034482759
1460	0.73	0.929795918367	-3.53448275862	-2.98842105263	-3.03448275862
1461	0.7305	-4.70775510204	-3.53448275862	-2.98842105263	-4.48620689655
1462	0.731	37.573877551	-2.08275862069	-0.152631578947	-14.6482758621
1463	0.7315	37.573877551	-0.631034482759	-1.57052631579	2.7724137931
1464	0.732	40.3926530612	-2.08275862069	14.0263157895	-3.03448275862
1465	0.7325	37.573877551	0.820689655172	-8.66	-0.131034482759
1466	0.733	31.9363265306	3.72413793103	1.26526315789	1.32068965517
1467	0.7335	15.0236734694	3.72413793103	2.68315789474	2.7724137931
1468	0.734	0.929795918367	2.2724137931	2.68315789474	2.7724137931
1469	0.7345	-21.6204081633	3.72413793103	1.26526315789	2.7724137931
1470	0.735	-21.6204081633	0.820689655172	-0.152631578947	-5.93793103448
1471	0.7355	-27.2579591837	0.820689655172	-4.40631578947	-7.38965517241
1472	0.736	-23.0297959184	-0.631034482759	-4.40631578947	1.32068965517
1473	0.7365	-10.3453061224	0.820689655172	12.6084210526	1.32068965517
1474	0.737	17.8424489796	6.6275862069	1.26526315789	-0.131034482759
1475	0.7375	47.4395918367	0.820689655172	-0.152631578947	2.7724137931
1476	0.738	72.8085714286	0.820689655172	-0.152631578947	-0.131034482759
1477	0.7385	85.4930612245	0.820689655172	1.26526315789	-0.131034482759
1478	0.739	89.7212244898	-4.98620689655	-4.40631578947	-7.38965517241
1479	0.7395	77.0367346939	-2.08275862069	2.68315789474	4.22413793103
1480	0.74	57.3053061224	-15.1482758621	-1.57052631579	-1.58275862069
1481	0.7405	38.9832653061	2.2724137931	-1.57052631579	-0.131034482759
1482	0.741	30.5269387755	-4.98620689655	1.26526315789	-0.131034482759
1483	0.7415	27.7081632653	2.2724137931	4.10105263158	8.57931034483
1484	0.742	20.6612244898	-2.08275862069	5.51894736842	1.32068965517
1485	0.7425	19.2518367347	0.820689655172	-0.152631578947	-7.38965517241
1486	0.743	16.4330612245	3.72413793103	5.51894736842	17.2896551724
1487	0.7435	10.7955102041	-6.43793103448	1.26526315789	4.22413793103
1488	0.744	5.15795918367	15.3379310345	1.26526315789	-0.131034482759
1489	0.7445	-3.29836734694	0.820689655172	1.26526315789	-0.131034482759
1490	0.745	0.929795918367	0.820689655172	-1.57052631579	-0.131034482759
1491	0.7455	-13.1640816327	0.820689655172	1.26526315789	-0.131034482759
1492	0.746	-3.29836734694	-2.08275862069	11.1905263158	-1.58275862069
1493	0.7465	9.38612244898	-0.631034482759	14.0263157895	1.32068965517
1494	0.747	16.4330612245	-0.631034482759	-1.57052631579	1.32068965517
1495	0.7475	19.2518367347	0.820689655172	-1.57052631579	-0.131034482759
1496	0.748	16.4330612245	-2.08275862069	-2.98842105263	-1.58275862069
1497	0.7485	27.7081632653	-0.631034482759	-1.57052631579	-7.38965517241
1498	0.749	33.3457142857	-0.631034482759	-4.40631578947	-7.38965517241
1499	0.7495	40.3926530612	0.820689655172	-7.24210526316	-4.48620689655
1500	0.75	37.573877551	3.72413793103	8.35473684211	-0.131034482759
1501	0.7505	30.5269387755	-4.98620689655	4.10105263158	-0.131034482759
1502	0.751	23.48	-4.98620689655	2.68315789474	2.7724137931
1503	0.7515	0.929795918367	2.2724137931	-0.152631578947	-0.131034482759
1504	0.752	10.7955102041	-0.631034482759	-7.24210526316	-7.38965517241
1505	0.7525	-4.70775510204	0.820689655172	-5.82421052632	12.9344827586
1506	0.753	-0.479591836735	0.820689655172	16.8621052632	-0.131034482759
1507	0.7535	10.7955102041	-2.08275862069	2.68315789474	-0.131034482759
1508	0.754	20.6612244898	2.2724137931	-2.98842105263	-3.03448275862
1509	0.7545	23.48	3.72413793103	-2.98842105263	-0.131034482759
1510	0.755	16.4330612245	0.820689655172	-0.152631578947	1.32068965517
1511	0.7555	-11.7546938776	-0.631034482759	-0.152631578947	4.22413793103
1512	0.756	-17.392244898	0.820689655172	-4.40631578947	-10.2931034483
1513	0.7565	-27.2579591837	0.820689655172	-5.82421052632	1.32068965517
1514	0.757	-32.8955102041	0.820689655172	11.1905263158	1.32068965517
1515	0.7575	-28.6673469388	6.6275862069	-0.152631578947	-0.131034482759
1516	0.758	-25.8485714286	6.6275862069	4.10105263158	1.32068965517
1517	0.7585	-18.8016326531	2.2724137931	5.51894736842	2.7724137931
1518	0.759	-24.4391836735	3.72413793103	4.10105263158	2.7724137931
1519	0.7595	-27.2579591837	0.820689655172	6.93684210526	1.32068965517
1520	0.76	-25.8485714286	3.72413793103	18.28	1.32068965517
1521	0.7605	-32.8955102041	0.820689655172	2.68315789474	2.7724137931
1522	0.761	-34.3048979592	-6.43793103448	-1.57052631579	1.32068965517
1523	0.7615	-27.2579591837	18.2413793103	1.26526315789	2.7724137931
1524	0.762	-10.3453061224	0.820689655172	1.26526315789	-0.131034482759
1525	0.7625	30.5269387755	0.820689655172	-0.152631578947	2.7724137931
1526	0.763	40.3926530612	-0.631034482759	-4.40631578947	2.7724137931
1527	0.7635	51.667755102	0.820689655172	-11.4957894737	1.32068965517
1528	0.764	48.8489795918	2.2724137931	-7.24210526316	1.32068965517
1529	0.7645	33.3457142857	3.72413793103	1.26526315789	1.32068965517
1530	0.765	16.4330612245	-10.7931034483	-1.57052631579	2.7724137931
1531	0.7655	7.97673469388	-2.08275862069	-1.57052631579	1.32068965517
1532	0.766	0.929795918367	0.820689655172	-0.152631578947	2.7724137931
1533	0.7665	-4.70775510204	0.820689655172	2.68315789474	-7.38965517241
1534	0.767	-4.70775510204	0.820689655172	-8.66	4.22413793103
1535	0.7675	-1.88897959184	3.72413793103	-4.40631578947	2.7724137931
1536	0.768	-6.11714285714	3.72413793103	2.68315789474	-0.131034482759
1537	0.7685	-6.11714285714	-4.98620689655	-0.152631578947	-0.131034482759
1538	0.769	-14.5734693878	0.820689655172	-0.152631578947	-3.03448275862
1539	0.7695	10.7955102041	0.820689655172	-0.152631578947	-11.7448275862
1540	0.77	16.4330612245	0.820689655172	-0.152631578947	18.7413793103
1541	0.7705	29.1175510204	0.820689655172	-2.98842105263	1.32068965517
1542	0.771	34.7551020408	0.820689655172	1.26526315789	-3.03448275862
1543	0.7715	29.1175510204	-9.34137931034	-1.57052631579	-0.131034482759
1544	0.772	16.4330612245	3.72413793103	1.26526315789	2.7724137931
1545	0.7725	-6.11714285714	-2.08275862069	2.68315789474	-1.58275862069
1546	0.773	-15.9828571429	-0.631034482759	-0.152631578947	-5.93793103448
1547	0.7735	-32.8955102041	-2.08275862069	-5.82421052632	15.8379310345
1548	0.774	-31.486122449	0.820689655172	11.1905263158	-0.131034482759
1549	0.7745	-25.8485714286	0.820689655172	-2.98842105263	-1.58275862069
1550	0.775	-21.6204081633	-4.98620689655	4.10105263158	2.7724137931
1551	0.7755	3.74857142857	-4.98620689655	2.68315789474	1.32068965517
1552	0.776	27.7081632653	-0.631034482759	2.68315789474	8.57931034483
1553	0.7765	23.48	-0.631034482759	2.68315789474	8.57931034483
1554	0.777	31.9363265306	0.820689655172	5.51894736842	5.67586206897
1555	0.7775	26.2987755102	2.2724137931	19.6978947368	2.7724137931
1556	0.778	17.8424489796	0.820689655172	-2.98842105263	1.32068965517
1557	0.7785	13.6142857143	3.72413793103	4.10105263158	1.32068965517
1558	0.779	10.7955102041	-2.08275862069	-0.152631578947	-0.131034482759
1559	0.7795	-6.11714285714	-0.631034482759	-2.98842105263	-5.93793103448
1560	0.78	22.0706122449	-4.98620689655	-0.152631578947	-0.131034482759
1561	0.7805	7.97673469388	-2.08275862069	4.10105263158	2.7724137931
1562	0.781	7.97673469388	0.820689655172	-10.0778947368	-3.03448275862
1563	0.7815	-0.479591836735	2.2724137931	-1.57052631579	-1.58275862069
1564	0.782	-10.3453061224	-3.53448275862	-5.82421052632	4.22413793103
1565	0.7825	-23.0297959184	0.820689655172	-0.152631578947	5.67586206897
1566	0.783	-39.9424489796	0.820689655172	4.10105263158	2.7724137931
1567	0.7835	-30.0767346939	0.820689655172	-0.152631578947	2.7724137931
1568	0.784	-27.2579591837	0.820689655172	-0.152631578947	-1.58275862069
1569	0.7845	-27.2579591837	3.72413793103	1.26526315789	-3.03448275862
1570	0.785	-21.6204081633	5.17586206897	5.51894736842	1.32068965517
1571	0.7855	-11.7546938776	-10.7931034483	2.68315789474	5.67586206897
1572	0.786	0.929795918367	0.820689655172	4.10105263158	7.1275862069
1573	0.7865	20.6612244898	-0.631034482759	2.68315789474	1.32068965517
1574	0.787	33.3457142857	-0.631034482759	2.68315789474	20.1931034483
1575	0.7875	41.8020408163	-0.631034482759	2.68315789474	5.67586206897
1576	0.788	46.0302040816	-0.631034482759	15.4442105263	4.22413793103
1577	0.7885	64.352244898	-10.7931034483	-2.98842105263	-0.131034482759
1578	0.789	78.446122449	18.2413793103	-1.57052631579	-0.131034482759
1579	0.7895	89.7212244898	-9.34137931034	-2.98842105263	-3.03448275862
1580	0.79	85.4930612245	-2.08275862069	-1.57052631579	-3.03448275862
1581	0.7905	78.446122449	0.820689655172	-1.57052631579	-0.131034482759
1582	0.791	77.0367346939	0.820689655172	2.68315789474	-0.131034482759
1583	0.7915	67.1710204082	0.820689655172	-0.152631578947	-0.131034482759
1584	0.792	50.2583673469	5.17586206897	-2.98842105263	-0.131034482759
1585	0.7925	33.3457142857	21.1448275862	1.26526315789	4.22413793103
1586	0.793	26.2987755102	-6.43793103448	1.26526315789	5.67586206897
1587	0.7935	26.2987755102	0.820689655172	-0.152631578947	7.1275862069
1588	0.794	7.97673469388	2.2724137931	-0.152631578947	4.22413793103
1589	0.7945	12.2048979592	2.2724137931	-0.152631578947	1.32068965517
1590	0.795	7.97673469388	0.820689655172	4.10105263158	1.32068965517
1591	0.7955	5.15795918367	5.17586206897	-0.152631578947	-0.131034482759
1592	0.796	3.74857142857	19.6931034483	-2.98842105263	-1.58275862069
1593	0.7965	-0.479591836735	-7.88965517241	-2.98842105263	-1.58275862069
1594	0.797	17.8424489796	-0.631034482759	-1.57052631579	-11.7448275862
1595	0.7975	-1.88897959184	-2.08275862069	-1.57052631579	14.3862068966
1596	0.798	-0.479591836735	-0.631034482759	-7.24210526316	2.7724137931
1597	0.7985	3.74857142857	2.2724137931	-2.98842105263	-0.131034482759
1598	0.799	-0.479591836735	2.2724137931	-4.40631578947	-1.58275862069
1599	0.7995	-3.29836734694	-7.88965517241	2.68315789474	-0.131034482759
1600	0.8	-3.29836734694	2.2724137931	-0.152631578947	5.67586206897
1601	0.8005	-15.9828571429	0.820689655172	2.68315789474	1.32068965517
1602	0.801	-27.2579591837	2.2724137931	1.26526315789	-0.131034482759
1603	0.8015	-28.6673469388	2.2724137931	2.68315789474	-1.58275862069
1604	0.802	-17.392244898	-2.08275862069	-1.57052631579	1.32068965517
1605	0.8025	-3.29836734694	-13.6965517241	1.26526315789	-0.131034482759
1606	0.803	3.74857142857	16.7896551724	2.68315789474	-0.131034482759
1607	0.8035	-3.29836734694	0.820689655172	1.26526315789	-0.131034482759
1608	0.804	-15.9828571429	0.820689655172	-0.152631578947	-3.03448275862
1609	0.8045	0.929795918367	-0.631034482759	-5.82421052632	2.7724137931
1610	0.805	13.6142857143	0.820689655172	-4.40631578947	-0.131034482759
1611	0.8055	16.4330612245	0.820689655172	-1.57052631579	-0.131034482759
1612	0.806	19.2518367347	0.820689655172	-5.82421052632	-0.131034482759
1613	0.8065	17.8424489796	-10.7931034483	-1.57052631579	-1.58275862069
1614	0.807	10.7955102041	-0.631034482759	-2.98842105263	-5.93793103448
1615	0.8075	17.8424489796	0.820689655172	-0.152631578947	4.22413793103
1616	0.808	-7.52653061224	-0.631034482759	2.68315789474	14.3862068966
1617	0.8085	20.6612244898	0.820689655172	-4.40631578947	-1.58275862069
1618	0.809	40.3926530612	3.72413793103	15.4442105263	-3.03448275862
1619	0.8095	55.8959183673	-2.08275862069	-2.98842105263	-0.131034482759
1620	0.81	60.1240816327	21.1448275862	1.26526315789	1.32068965517
1621	0.8105	44.6208163265	-3.53448275862	-1.57052631579	2.7724137931
1622	0.811	33.3457142857	3.72413793103	-0.152631578947	-0.131034482759
1623	0.8115	12.2048979592	2.2724137931	1.26526315789	4.22413793103
1624	0.812	9.38612244898	0.820689655172	1.26526315789	-1.58275862069
1625	0.8125	3.74857142857	-3.53448275862	8.35473684211	-3.03448275862
1626	0.813	9.38612244898	-9.34137931034	-4.40631578947	-0.131034482759
1627	0.8135	17.8424489796	-3.53448275862	-2.98842105263	-0.131034482759
1628	0.814	19.2518367347	-3.53448275862	-4.40631578947	4.22413793103
1629	0.8145	-3.29836734694	-3.53448275862	-2.98842105263	18.7413793103
1630	0.815	-6.11714285714	-2.08275862069	-4.40631578947	-7.38965517241
1631	0.8155	-15.9828571429	-2.08275862069	-12.9136842105	-8.84137931034
1632	0.816	-24.4391836735	-0.631034482759	-8.66	-0.131034482759
1633	0.8165	-28.6673469388	-3.53448275862	4.10105263158	1.32068965517
1634	0.817	-23.0297959184	5.17586206897	2.68315789474	-0.131034482759
1635	0.8175	-20.2110204082	0.820689655172	1.26526315789	-1.58275862069
1636	0.818	9.38612244898	0.820689655172	-0.152631578947	-1.58275862069
1637	0.8185	9.38612244898	-2.08275862069	1.26526315789	-1.58275862069
1638	0.819	23.48	-3.53448275862	14.0263157895	-0.131034482759
1639	0.8195	40.3926530612	-4.98620689655	-10.0778947368	1.32068965517
1640	0.82	51.667755102	-3.53448275862	-8.66	1.32068965517
1641	0.8205	60.1240816327	-4.98620689655	-1.57052631579	1.32068965517
1642	0.821	53.0771428571	0.820689655172	-2.98842105263	-1.58275862069
1643	0.8215	55.8959183673	-0.631034482759	-4.40631578947	-7.38965517241
1644	0.822	50.2583673469	0.820689655172	-4.40631578947	-5.93793103448
1645	0.8225	50.2583673469	-0.631034482759	-8.66	-1.58275862069
1646	0.823	41.8020408163	2.2724137931	-0.152631578947	1.32068965517
1647	0.8235	34.7551020408	-12.2448275862	-1.57052631579	1.32068965517
1648	0.824	34.7551020408	-12.2448275862	-2.98842105263	-1.58275862069
1649	0.8245	33.3457142857	0.820689655172	-0.152631578947	1.32068965517
1650	0.825	34.7551020408	0.820689655172	4.10105263158	-1.58275862069
1651	0.8255	26.2987755102	2.2724137931	-0.152631578947	8.57931034483
1652	0.826	26.2987755102	0.820689655172	19.6978947368	-1.58275862069
1653	0.8265	24.8893877551	-0.631034482759	2.68315789474	1.32068965517
1654	0.827	22.0706122449	-4.98620689655	4.10105263158	-0.131034482759
1655	0.8275	19.2518367347	18.2413793103	4.10105263158	2.7724137931
1656	0.828	20.6612244898	0.820689655172	2.68315789474	-0.131034482759
1657	0.8285	19.2518367347	0.820689655172	4.10105263158	4.22413793103
1658	0.829	23.48	2.2724137931	4.10105263158	-5.93793103448
1659	0.8295	22.0706122449	-2.08275862069	-14.3315789474	-7.38965517241
1660	0.83	20.6612244898	-0.631034482759	-11.4957894737	-0.131034482759
1661	0.8305	10.7955102041	-4.98620689655	-1.57052631579	4.22413793103
1662	0.831	0.929795918367	-7.88965517241	-0.152631578947	1.32068965517
1663	0.8315	-14.5734693878	-0.631034482759	-1.57052631579	-1.58275862069
1664	0.832	3.74857142857	-2.08275862069	-7.24210526316	-3.03448275862
1665	0.8325	-11.7546938776	-0.631034482759	-1.57052631579	18.7413793103
1666	0.833	-15.9828571429	-0.631034482759	-1.57052631579	-4.48620689655
1667	0.8335	-18.8016326531	0.820689655172	-1.57052631579	1.32068965517
1668	0.834	-14.5734693878	-7.88965517241	4.10105263158	1.32068965517
1669	0.8345	-6.11714285714	19.6931034483	2.68315789474	-1.58275862069
1670	0.835	0.929795918367	-0.631034482759	-0.152631578947	-0.131034482759
1671	0.8355	5.15795918367	0.820689655172	-1.57052631579	2.7724137931
1672	0.836	0.929795918367	-0.631034482759	1.26526315789	-13.1965517241
1673	0.8365	3.74857142857	0.820689655172	-7.24210526316	-0.131034482759
1674	0.837	20.6612244898	-3.53448275862	-1.57052631579	-0.131034482759
1675	0.8375	31.9363265306	6.6275862069	-2.98842105263	2.7724137931
1676	0.838	31.9363265306	-2.08275862069	-2.98842105263	-0.131034482759
1677	0.8385	17.8424489796	-2.08275862069	-2.98842105263	-0.131034482759
1678	0.839	27.7081632653	2.2724137931	-4.40631578947	-7.38965517241
1679	0.8395	24.8893877551	-2.08275862069	4.10105263158	-1.58275862069
1680	0.84	26.2987755102	-2.08275862069	-5.82421052632	-0.131034482759
1681	0.8405	26.2987755102	-0.631034482759	-7.24210526316	-0.131034482759
1682	0.841	26.2987755102	-6.43793103448	2.68315789474	1.32068965517
1683	0.8415	34.7551020408	0.820689655172	6.93684210526	-0.131034482759
1684	0.842	51.667755102	-0.631034482759	4.10105263158	-0.131034482759
1685	0.8425	31.9363265306	-0.631034482759	2.68315789474	-1.58275862069
1686	0.843	36.1644897959	3.72413793103	2.68315789474	10.0310344828
1687	0.8435	29.1175510204	0.820689655172	21.1157894737	-0.131034482759
1688	0.844	29.1175510204	-0.631034482759	-0.152631578947	1.32068965517
1689	0.8445	23.48	5.17586206897	-0.152631578947	1.32068965517
1690	0.845	22.0706122449	-0.631034482759	1.26526315789	1.32068965517
1691	0.8455	9.38612244898	0.820689655172	2.68315789474	-10.2931034483
1692	0.846	23.48	-3.53448275862	-4.40631578947	-3.03448275862
1693	0.8465	29.1175510204	-4.98620689655	-0.152631578947	2.7724137931
1694	0.847	30.5269387755	-0.631034482759	-4.40631578947	-0.131034482759
1695	0.8475	22.0706122449	-12.2448275862	-2.98842105263	-0.131034482759
1696	0.848	16.4330612245	-10.7931034483	-1.57052631579	2.7724137931
1697	0.8485	0.929795918367	-3.53448275862	-1.57052631579	-0.131034482759
1698	0.849	20.6612244898	-3.53448275862	1.26526315789	-11.7448275862
1699	0.8495	7.97673469388	0.820689655172	2.68315789474	4.22413793103
1700	0.85	12.2048979592	-2.08275862069	2.68315789474	-8.84137931034
1701	0.8505	16.4330612245	-4.98620689655	2.68315789474	1.32068965517
1702	0.851	12.2048979592	5.17586206897	-0.152631578947	1.32068965517
1703	0.8515	2.33918367347	-3.53448275862	-0.152631578947	-0.131034482759
1704	0.852	10.7955102041	-2.08275862069	-2.98842105263	-0.131034482759
1705	0.8525	10.7955102041	-2.08275862069	-2.98842105263	-1.58275862069
1706	0.853	46.0302040816	0.820689655172	-4.40631578947	1.32068965517
1707	0.8535	67.1710204082	-0.631034482759	-0.152631578947	-0.131034482759
1708	0.854	71.3991836735	2.2724137931	-4.40631578947	-0.131034482759
1709	0.8545	68.5804081633	12.4344827586	-2.98842105263	-0.131034482759
1710	0.855	50.2583673469	-10.7931034483	2.68315789474	-0.131034482759
1711	0.8555	40.3926530612	-2.08275862069	4.10105263158	-3.03448275862
1712	0.856	23.48	-2.08275862069	-0.152631578947	-5.93793103448
1713	0.8565	33.3457142857	-0.631034482759	-11.4957894737	-0.131034482759
1714	0.857	36.1644897959	-2.08275862069	-1.57052631579	15.8379310345
1715	0.8575	33.3457142857	-9.34137931034	-4.40631578947	1.32068965517
1716	0.858	33.3457142857	8.07931034483	-4.40631578947	1.32068965517
1717	0.8585	31.9363265306	0.820689655172	-4.40631578947	-0.131034482759
1718	0.859	44.6208163265	0.820689655172	-4.40631578947	2.7724137931
1719	0.8595	12.2048979592	-2.08275862069	-2.98842105263	15.8379310345
1720	0.86	15.0236734694	0.820689655172	4.10105263158	1.32068965517
1721	0.8605	9.38612244898	-0.631034482759	-12.9136842105	-0.131034482759
1722	0.861	5.15795918367	-6.43793103448	-4.40631578947	2.7724137931
1723	0.8615	3.74857142857	-4.98620689655	-1.57052631579	1.32068965517
1724	0.862	2.33918367347	-0.631034482759	-0.152631578947	2.7724137931
1725	0.8625	-7.52653061224	-0.631034482759	-0.152631578947	-1.58275862069
1726	0.863	3.74857142857	-0.631034482759	-0.152631578947	-5.93793103448
1727	0.8635	2.33918367347	-0.631034482759	14.0263157895	-1.58275862069
1728	0.864	-0.479591836735	-2.08275862069	-12.9136842105	-10.2931034483
1729	0.8645	-1.88897959184	10.9827586207	-2.98842105263	-0.131034482759
1730	0.865	9.38612244898	-4.98620689655	-2.98842105263	1.32068965517
1731	0.8655	6.56734693878	-3.53448275862	-2.98842105263	-1.58275862069
1732	0.866	30.5269387755	0.820689655172	-2.98842105263	-5.93793103448
1733	0.8665	40.3926530612	0.820689655172	-8.66	-0.131034482759
1734	0.867	37.573877551	-0.631034482759	15.4442105263	1.32068965517
1735	0.8675	29.1175510204	-0.631034482759	1.26526315789	-1.58275862069
1736	0.868	26.2987755102	13.8862068966	-0.152631578947	-0.131034482759
1737	0.8685	37.573877551	-10.7931034483	-0.152631578947	1.32068965517
1738	0.869	60.1240816327	-3.53448275862	1.26526315789	-0.131034482759
