	Time	Channel 1	Channel 2	Channel 3	Channel 4
0	0.0	-11.8074020319	21.9957142857	49.5034632035	35.6504
1	0.0005	-14.6190130624	21.9957142857	46.6835497835	38.4808
2	0.001	3.6564586357	13.5142857143	50.9134199134	35.6504
3	0.0015	-4.77837445573	20.5821428571	48.0935064935	31.4048
4	0.002	-0.560957910015	17.755	42.4536796537	29.9896
5	0.0025	2.25065312046	31.8907142857	41.0437229437	17.2528
6	0.003	-8.99579100145	16.3414285714	38.2238095238	22.9136
7	0.0035	-1.96676342525	17.755	33.9939393939	22.9136
8	0.004	-7.58998548621	10.6871428571	24.1242424242	8.7616
9	0.0045	-8.99579100145	-2.035	19.8943722944	-13.8816
10	0.005	-20.2422351234	-16.1707142857	5.79480519481	-19.5424
11	0.0055	-23.0538461538	-20.4114285714	17.0744588745	-43.6008
12	0.006	-20.2422351234	-20.4114285714	4.38484848485	-37.94
13	0.0065	-14.6190130624	-18.9978571429	11.4346320346	-45.016
14	0.007	-11.8074020319	-13.3435714286	11.4346320346	-13.8816
15	0.0075	-3.37256894049	-2.035	14.2545454545	-13.8816
16	0.008	-4.77837445573	13.5142857143	35.4038961039	14.4224
17	0.0085	-10.4015965167	21.9957142857	53.7333333333	25.744
18	0.009	-13.2132075472	20.5821428571	33.9939393939	29.9896
19	0.0095	-10.4015965167	31.8907142857	39.6337662338	25.744
20	0.01	-17.4306240929	13.5142857143	38.2238095238	13.0072
21	0.0105	-16.0248185776	21.9957142857	29.7640692641	1.6856
22	0.011	-14.6190130624	17.755	28.3541125541	-1.1448
23	0.0115	-1.96676342525	17.755	25.5341991342	1.6856
24	0.012	10.6854862119	16.3414285714	32.583982684	5.9312
25	0.0125	16.3087082729	6.44642857143	19.8943722944	0.2704
26	0.013	17.7145137881	-0.621428571429	19.8943722944	-13.8816
27	0.0135	17.7145137881	-26.0657142857	4.38484848485	-25.2032
28	0.014	17.7145137881	-2.035	-4.07489177489	-26.6184
29	0.0145	20.5261248186	-23.2385714286	-1.25497835498	-22.3728
30	0.015	7.87387518142	-17.5842857143	-1.25497835498	-26.6184
31	0.0155	5.06226415094	-11.93	4.38484848485	-19.5424
32	0.016	10.6854862119	-0.621428571429	18.4844155844	-11.0512
33	0.0165	10.6854862119	19.1685714286	35.4038961039	7.3464
34	0.017	2.25065312046	29.0635714286	41.0437229437	15.8376
35	0.0175	-8.99579100145	33.3042857143	35.4038961039	15.8376
36	0.018	-17.4306240929	17.755	36.8138528139	13.0072
37	0.0185	-21.6480406386	24.8228571429	35.4038961039	5.9312
38	0.019	-28.6770682148	13.5142857143	35.4038961039	1.6856
39	0.0195	-24.4596516691	20.5821428571	41.0437229437	7.3464
40	0.02	-30.08287373	20.5821428571	45.2735930736	-2.56
41	0.0205	-21.6480406386	20.5821428571	42.4536796537	0.2704
42	0.021	-20.2422351234	7.86	31.174025974	-19.5424
43	0.0215	-28.6770682148	-7.68928571429	-1.25497835498	-37.94
44	0.022	-25.8654571843	-14.7571428571	-6.89480519481	-47.8464
45	0.0225	-30.08287373	-34.5471428571	-11.1246753247	-54.9224
46	0.023	-30.08287373	-28.8928571429	-12.5346320346	-49.2616
47	0.0235	-41.329317852	-14.7571428571	-6.89480519481	-39.3552
48	0.024	-4.77837445573	-7.68928571429	1.56493506494	-20.9576
49	0.0245	-16.0248185776	6.44642857143	18.4844155844	-9.636
50	0.025	-1.96676342525	23.4092857143	26.9441558442	20.0832
51	0.0255	7.87387518142	31.8907142857	35.4038961039	27.1592
52	0.026	5.06226415094	27.65	22.7142857143	29.9896
53	0.0265	12.0912917271	21.9957142857	29.7640692641	28.5744
54	0.027	14.9029027576	13.5142857143	18.4844155844	21.4984
55	0.0275	21.9319303338	16.3414285714	12.8445887446	18.668
56	0.028	12.0912917271	14.9278571429	8.61471861472	15.8376
57	0.0285	27.5551523948	14.9278571429	7.20476190476	18.668
58	0.029	10.6854862119	10.6871428571	8.61471861472	15.8376
59	0.0295	10.6854862119	3.61928571429	-12.5346320346	-19.5424
60	0.03	10.6854862119	2.20571428571	-13.9445887446	-45.016
61	0.0305	13.4970972424	-0.621428571429	-22.4043290043	-43.6008
62	0.031	14.9029027576	-4.86214285714	-11.1246753247	-40.7704
63	0.0315	3.6564586357	-6.27571428571	-8.30476190476	-30.864
64	0.032	12.0912917271	5.03285714286	-8.30476190476	-20.9576
65	0.0325	17.7145137881	6.44642857143	-8.30476190476	-12.4664
66	0.033	2.25065312046	20.5821428571	4.38484848485	4.516
67	0.0335	-0.560957910015	27.65	15.6645021645	21.4984
68	0.034	-0.560957910015	33.3042857143	22.7142857143	38.4808
69	0.0345	-6.18417997097	29.0635714286	31.174025974	27.1592
70	0.035	-11.8074020319	5.03285714286	26.9441558442	24.3288
71	0.0355	-17.4306240929	-3.44857142857	31.174025974	18.668
72	0.036	-20.2422351234	-6.27571428571	29.7640692641	17.2528
73	0.0365	-17.4306240929	9.27357142857	28.3541125541	21.4984
74	0.037	3.6564586357	10.6871428571	26.9441558442	24.3288
75	0.0375	10.6854862119	5.03285714286	19.8943722944	1.6856
76	0.038	-3.37256894049	-9.10285714286	-5.48484848485	-15.2968
77	0.0385	0.844847605225	-10.5164285714	1.56493506494	-20.9576
78	0.039	-1.96676342525	-20.4114285714	-11.1246753247	-25.2032
79	0.0395	-4.77837445573	-24.6521428571	-1.25497835498	-25.2032
80	0.04	-3.37256894049	-23.2385714286	-1.25497835498	-30.864
81	0.0405	-7.58998548621	0.792142857143	-1.25497835498	-28.0336
82	0.041	-13.2132075472	-4.86214285714	11.4346320346	-11.0512
83	0.0415	17.7145137881	9.27357142857	21.3043290043	13.0072
84	0.042	-7.58998548621	19.1685714286	29.7640692641	22.9136
85	0.0425	-4.77837445573	20.5821428571	28.3541125541	38.4808
86	0.043	-7.58998548621	17.755	33.9939393939	18.668
87	0.0435	-10.4015965167	0.792142857143	17.0744588745	13.0072
88	0.044	-8.99579100145	-7.68928571429	19.8943722944	4.516
89	0.0445	-14.6190130624	-20.4114285714	21.3043290043	1.6856
90	0.045	-11.8074020319	-2.035	22.7142857143	5.9312
91	0.0455	-27.2712626996	-0.621428571429	24.1242424242	0.2704
92	0.046	-10.4015965167	-4.86214285714	19.8943722944	-13.8816
93	0.0465	-14.6190130624	-14.7571428571	17.0744588745	-19.5424
94	0.047	-16.0248185776	-17.5842857143	19.8943722944	-23.788
95	0.0475	-3.37256894049	-11.93	33.9939393939	-22.3728
96	0.048	17.7145137881	-10.5164285714	12.8445887446	-18.1272
97	0.0485	33.1783744557	13.5142857143	18.4844155844	-20.9576
98	0.049	35.9899854862	-3.44857142857	19.8943722944	-15.2968
99	0.0495	40.2074020319	9.27357142857	25.5341991342	1.6856
100	0.05	38.8015965167	21.9957142857	39.6337662338	21.4984
101	0.0505	41.6132075472	29.0635714286	39.6337662338	39.896
102	0.051	47.2364296081	29.0635714286	32.583982684	20.0832
103	0.0515	40.2074020319	23.4092857143	38.2238095238	13.0072
104	0.052	31.7725689405	-3.44857142857	39.6337662338	15.8376
105	0.0525	23.3377358491	-38.7878571429	29.7640692641	13.0072
106	0.053	19.1203193033	-9.10285714286	32.583982684	14.4224
107	0.0535	9.27968069666	-13.3435714286	26.9441558442	13.0072
108	0.054	-14.6190130624	-4.86214285714	21.3043290043	1.6856
109	0.0545	-58.1989840348	-11.93	8.61471861472	-19.5424
110	0.055	-108.807982583	-23.2385714286	0.154978354978	-37.94
111	0.0555	-136.924092888	-21.825	1.56493506494	-15.2968
112	0.056	-143.953120464	-14.7571428571	19.8943722944	-20.9576
113	0.0565	-138.329898403	-7.68928571429	4.38484848485	-20.9576
114	0.057	-121.460232221	-2.035	1.56493506494	-20.9576
115	0.0575	-93.3441219158	-0.621428571429	0.154978354978	-13.8816
116	0.058	-62.4164005806	10.6871428571	14.2545454545	5.9312
117	0.0585	-18.8364296081	21.9957142857	19.8943722944	18.668
118	0.059	28.96095791	13.5142857143	21.3043290043	24.3288
119	0.0595	43.0190130624	10.6871428571	24.1242424242	14.4224
120	0.06	59.8886792453	17.755	18.4844155844	18.668
121	0.0605	64.106095791	14.9278571429	26.9441558442	4.516
122	0.061	65.5119013062	13.5142857143	18.4844155844	0.2704
123	0.0615	68.3235123367	5.03285714286	5.79480519481	-3.9752
124	0.062	68.3235123367	36.1314285714	4.38484848485	1.6856
125	0.0625	57.0770682148	14.9278571429	-1.25497835498	-15.2968
126	0.063	75.3525399129	0.792142857143	-9.71471861472	-20.9576
127	0.0635	48.6422351234	-4.86214285714	-9.71471861472	-15.2968
128	0.064	55.6712626996	-2.035	-9.71471861472	-28.0336
129	0.0645	43.0190130624	0.792142857143	-9.71471861472	-16.712
130	0.065	23.3377358491	0.792142857143	-22.4043290043	-22.3728
131	0.0655	-0.560957910015	-4.86214285714	-13.9445887446	-26.6184
132	0.066	-10.4015965167	-4.86214285714	-6.89480519481	-8.2208
133	0.0665	-18.8364296081	13.5142857143	5.79480519481	17.2528
134	0.067	-27.2712626996	34.7178571429	11.4346320346	25.744
135	0.0675	-44.1409288824	33.3042857143	11.4346320346	24.3288
136	0.068	-44.1409288824	36.1314285714	12.8445887446	29.9896
137	0.0685	-44.1409288824	30.4771428571	12.8445887446	31.4048
138	0.069	-39.9235123367	30.4771428571	4.38484848485	8.7616
139	0.0695	-21.6480406386	23.4092857143	-8.30476190476	3.1008
140	0.07	3.6564586357	20.5821428571	4.38484848485	5.9312
141	0.0705	35.9899854862	2.20571428571	8.61471861472	3.1008
142	0.071	57.0770682148	-21.825	1.56493506494	-6.8056
143	0.0715	71.1351233672	-16.1707142857	-5.48484848485	-19.5424
144	0.072	76.7583454282	-13.3435714286	-6.89480519481	-25.2032
145	0.0725	97.8454281567	-11.93	-4.07489177489	-23.788
146	0.073	100.657039187	-18.9978571429	-2.66493506494	-16.712
147	0.0735	89.4105950653	-23.2385714286	-13.9445887446	-32.2792
148	0.074	71.1351233672	-18.9978571429	11.4346320346	-18.1272
149	0.0745	47.2364296081	-4.86214285714	28.3541125541	5.9312
150	0.075	2.25065312046	17.755	28.3541125541	21.4984
151	0.0755	-39.9235123367	29.0635714286	29.7640692641	22.9136
152	0.076	-68.0396226415	16.3414285714	29.7640692641	24.3288
153	0.0765	-68.0396226415	24.8228571429	28.3541125541	24.3288
154	0.077	-103.184760522	20.5821428571	31.174025974	22.9136
155	0.0775	-100.373149492	23.4092857143	26.9441558442	5.9312
156	0.078	-100.373149492	26.2364285714	31.174025974	10.1768
157	0.0785	-94.7499274311	3.61928571429	46.6835497835	17.2528
158	0.079	-87.7208998549	-20.4114285714	33.9939393939	8.7616
159	0.0795	-75.0686502177	-20.4114285714	25.5341991342	-13.8816
160	0.08	-59.6047895501	-43.0285714286	8.61471861472	-40.7704
161	0.0805	-49.7641509434	-38.7878571429	1.56493506494	-47.8464
162	0.081	-18.8364296081	-34.5471428571	4.38484848485	-45.016
163	0.0815	-31.4886792453	-28.8928571429	7.20476190476	-37.94
164	0.082	-10.4015965167	-21.825	17.0744588745	-39.3552
165	0.0825	-4.77837445573	-10.5164285714	19.8943722944	-1.1448
166	0.083	0.844847605225	10.6871428571	39.6337662338	11.592
167	0.0835	10.6854862119	24.8228571429	41.0437229437	24.3288
168	0.084	17.7145137881	13.5142857143	38.2238095238	24.3288
169	0.0845	20.5261248186	27.65	35.4038961039	25.744
170	0.085	28.96095791	26.2364285714	33.9939393939	24.3288
171	0.0855	31.7725689405	24.8228571429	28.3541125541	18.668
172	0.086	37.3957910015	24.8228571429	29.7640692641	13.0072
173	0.0865	40.2074020319	27.65	32.583982684	15.8376
174	0.087	28.96095791	31.8907142857	38.2238095238	13.0072
175	0.0875	27.5551523948	27.65	17.0744588745	-1.1448
176	0.088	23.3377358491	20.5821428571	14.2545454545	-15.2968
177	0.0885	17.7145137881	6.44642857143	12.8445887446	-23.788
178	0.089	10.6854862119	3.61928571429	7.20476190476	-32.2792
179	0.0895	9.27968069666	6.44642857143	5.79480519481	-39.3552
180	0.09	27.5551523948	7.86	2.97489177489	-39.3552
181	0.0905	37.3957910015	16.3414285714	8.61471861472	-29.4488
182	0.091	16.3087082729	29.0635714286	24.1242424242	-5.3904
183	0.0915	17.7145137881	38.9585714286	49.5034632035	14.4224
184	0.092	12.0912917271	50.2671428571	49.5034632035	21.4984
185	0.0925	10.6854862119	54.5078571429	35.4038961039	22.9136
186	0.093	9.27968069666	40.3721428571	38.2238095238	22.9136
187	0.0935	16.3087082729	53.0942857143	36.8138528139	15.8376
188	0.094	23.3377358491	43.1992857143	33.9939393939	14.4224
189	0.0945	19.1203193033	40.3721428571	31.174025974	10.1768
190	0.095	23.3377358491	41.7857142857	31.174025974	-2.56
191	0.0955	23.3377358491	41.7857142857	29.7640692641	8.7616
192	0.096	14.9029027576	31.8907142857	24.1242424242	-1.1448
193	0.0965	5.06226415094	16.3414285714	12.8445887446	-36.5248
194	0.097	-1.96676342525	-11.93	8.61471861472	-49.2616
195	0.0975	-7.58998548621	-57.1642857143	4.38484848485	-60.5832
196	0.098	-7.58998548621	-52.9235714286	0.154978354978	-59.168
197	0.0985	-25.8654571843	-21.825	8.61471861472	-47.8464
198	0.099	-1.96676342525	-3.44857142857	15.6645021645	-33.6944
199	0.0995	-16.0248185776	17.755	28.3541125541	13.0072
200	0.1	-13.2132075472	37.545	43.8636363636	10.1768
201	0.1005	-16.0248185776	44.6128571429	39.6337662338	27.1592
202	0.101	-16.0248185776	46.0264285714	59.3731601732	21.4984
203	0.1015	-14.6190130624	43.1992857143	46.6835497835	21.4984
204	0.102	-11.8074020319	44.6128571429	41.0437229437	10.1768
205	0.1025	-6.18417997097	37.545	43.8636363636	4.516
206	0.103	-3.37256894049	37.545	42.4536796537	5.9312
207	0.1035	10.6854862119	41.7857142857	45.2735930736	11.592
208	0.104	-11.8074020319	47.44	42.4536796537	10.1768
209	0.1045	9.27968069666	29.0635714286	25.5341991342	-35.1096
210	0.105	28.96095791	13.5142857143	24.1242424242	-50.6768
211	0.1055	55.6712626996	-0.621428571429	5.79480519481	-53.5072
212	0.106	82.3815674891	3.61928571429	0.154978354978	-56.3376
213	0.1065	100.657039187	27.65	-25.2242424242	-59.168
214	0.107	109.091872279	79.9521428571	-20.9943722944	-40.7704
215	0.1075	123.149927431	57.335	2.97489177489	-11.0512
216	0.108	124.555732946	50.2671428571	24.1242424242	14.4224
217	0.1085	121.744121916	48.8535714286	36.8138528139	17.2528
218	0.109	123.149927431	50.2671428571	38.2238095238	13.0072
219	0.1095	113.309288824	50.2671428571	29.7640692641	14.4224
220	0.11	93.628011611	43.1992857143	38.2238095238	4.516
221	0.1105	71.1351233672	40.3721428571	48.0935064935	4.516
222	0.111	48.6422351234	33.3042857143	29.7640692641	0.2704
223	0.1115	19.1203193033	55.9214285714	32.583982684	4.516
224	0.112	-16.0248185776	37.545	32.583982684	4.516
225	0.1125	-44.1409288824	36.1314285714	28.3541125541	0.2704
226	0.113	-82.0976777939	27.65	17.0744588745	-35.1096
227	0.1135	-105.996371553	13.5142857143	11.4346320346	-33.6944
228	0.114	-115.83701016	14.9278571429	11.4346320346	-26.6184
229	0.1145	-125.677648766	20.5821428571	43.8636363636	-22.3728
230	0.115	-129.895065312	23.4092857143	25.5341991342	-18.1272
231	0.1155	-114.431204644	23.4092857143	26.9441558442	-15.2968
232	0.116	-84.9092888244	19.1685714286	36.8138528139	0.2704
233	0.1165	-61.0105950653	36.1314285714	45.2735930736	17.2528
234	0.117	-44.1409288824	51.6807142857	49.5034632035	21.4984
235	0.1175	-38.5177068215	53.0942857143	50.9134199134	20.0832
236	0.118	-31.4886792453	54.5078571429	45.2735930736	38.4808
237	0.1185	-31.4886792453	53.0942857143	45.2735930736	22.9136
238	0.119	-31.4886792453	47.44	31.174025974	14.4224
239	0.1195	-31.4886792453	47.44	41.0437229437	8.7616
240	0.12	-28.6770682148	40.3721428571	42.4536796537	5.9312
241	0.1205	-24.4596516691	58.7485714286	39.6337662338	0.2704
242	0.121	-16.0248185776	54.5078571429	31.174025974	-22.3728
243	0.1215	-1.96676342525	19.1685714286	21.3043290043	-36.5248
244	0.122	33.1783744557	20.5821428571	18.4844155844	-40.7704
245	0.1225	30.3667634253	17.755	19.8943722944	-47.8464
246	0.123	50.0480406386	16.3414285714	15.6645021645	-47.8464
247	0.1235	62.7002902758	19.1685714286	33.9939393939	-39.3552
248	0.124	92.2222060958	26.2364285714	35.4038961039	-28.0336
249	0.1245	124.555732946	36.1314285714	25.5341991342	-11.0512
250	0.125	149.860232221	50.2671428571	33.9939393939	8.7616
251	0.1255	166.729898403	46.0264285714	43.8636363636	14.4224
252	0.126	192.034397678	50.2671428571	42.4536796537	15.8376
253	0.1265	200.469230769	50.2671428571	42.4536796537	8.7616
254	0.127	242.643396226	43.1992857143	33.9939393939	-5.3904
255	0.1275	253.889840348	38.9585714286	29.7640692641	-20.9576
256	0.128	273.571117562	37.545	19.8943722944	-6.8056
257	0.1285	276.382728592	40.3721428571	43.8636363636	-6.8056
258	0.129	253.889840348	40.3721428571	28.3541125541	-11.0512
259	0.1295	235.61436865	37.545	18.4844155844	-30.864
260	0.13	235.61436865	10.6871428571	8.61471861472	-45.016
261	0.1305	232.80275762	2.20571428571	4.38484848485	-50.6768
262	0.131	225.773730044	9.27357142857	7.20476190476	-47.8464
263	0.1315	170.947314949	10.6871428571	8.61471861472	-52.092
264	0.132	99.251233672	14.9278571429	8.61471861472	-39.3552
265	0.1325	-11.8074020319	23.4092857143	18.4844155844	-9.636
266	0.133	-131.300870827	40.3721428571	15.6645021645	1.6856
267	0.1335	-229.707256894	50.2671428571	29.7640692641	15.8376
268	0.134	-299.997532656	41.7857142857	31.174025974	22.9136
269	0.1345	-339.360087083	43.1992857143	29.7640692641	15.8376
270	0.135	-367.476197388	50.2671428571	24.1242424242	10.1768
271	0.1355	-367.476197388	50.2671428571	19.8943722944	1.6856
272	0.136	-288.751088534	44.6128571429	18.4844155844	5.9312
273	0.1365	-231.113062409	44.6128571429	14.2545454545	-6.8056
274	0.137	-121.460232221	41.7857142857	24.1242424242	1.6856
275	0.1375	-16.0248185776	38.9585714286	0.154978354978	-13.8816
276	0.138	28.96095791	21.9957142857	-4.07489177489	-40.7704
277	0.1385	27.5551523948	10.6871428571	-9.71471861472	-50.6768
278	0.139	16.3087082729	10.6871428571	-9.71471861472	-45.016
279	0.1395	14.9029027576	17.755	-4.07489177489	-30.864
280	0.14	3.6564586357	24.8228571429	-1.25497835498	-25.2032
281	0.1405	16.3087082729	24.8228571429	-4.07489177489	-22.3728
282	0.141	2.25065312046	27.65	-2.66493506494	-11.0512
283	0.1415	3.6564586357	36.1314285714	4.38484848485	-3.9752
284	0.142	-0.560957910015	46.0264285714	18.4844155844	14.4224
285	0.1425	-7.58998548621	44.6128571429	26.9441558442	14.4224
286	0.143	-10.4015965167	53.0942857143	14.2545454545	17.2528
287	0.1435	-18.8364296081	38.9585714286	11.4346320346	8.7616
288	0.144	-25.8654571843	50.2671428571	4.38484848485	0.2704
289	0.1445	-41.329317852	40.3721428571	-1.25497835498	-6.8056
290	0.145	-11.8074020319	34.7178571429	0.154978354978	-1.1448
291	0.1455	-23.0538461538	37.545	5.79480519481	-2.56
292	0.146	-38.5177068215	34.7178571429	-2.66493506494	8.7616
293	0.1465	-35.706095791	20.5821428571	-13.9445887446	-29.4488
294	0.147	-37.1119013062	10.6871428571	-6.89480519481	-23.788
295	0.1475	-31.4886792453	19.1685714286	-15.3545454545	-23.788
296	0.148	-28.6770682148	31.8907142857	-15.3545454545	-22.3728
297	0.1485	-25.8654571843	17.755	-18.1744588745	-16.712
298	0.149	-32.8944847605	21.9957142857	-16.7645021645	-9.636
299	0.1495	-24.4596516691	24.8228571429	-9.71471861472	7.3464
300	0.15	-3.37256894049	37.545	-1.25497835498	17.2528
301	0.1505	-8.99579100145	44.6128571429	2.97489177489	7.3464
302	0.151	-4.77837445573	46.0264285714	-1.25497835498	28.5744
303	0.1515	-0.560957910015	44.6128571429	-4.07489177489	17.2528
304	0.152	0.844847605225	43.1992857143	-4.07489177489	8.7616
305	0.1525	-3.37256894049	29.0635714286	-9.71471861472	4.516
306	0.153	-4.77837445573	38.9585714286	-11.1246753247	3.1008
307	0.1535	-10.4015965167	31.8907142857	-8.30476190476	3.1008
308	0.154	-16.0248185776	34.7178571429	-6.89480519481	3.1008
309	0.1545	2.25065312046	29.0635714286	-12.5346320346	-16.712
310	0.155	-11.8074020319	19.1685714286	-22.4043290043	-16.712
311	0.1555	-7.58998548621	12.1007142857	-22.4043290043	-45.016
312	0.156	-6.18417997097	5.03285714286	-22.4043290043	-43.6008
313	0.1565	-7.58998548621	6.44642857143	-30.8640692641	-47.8464
314	0.157	-4.77837445573	-6.27571428571	-25.2242424242	-37.94
315	0.1575	-4.77837445573	9.27357142857	-18.1744588745	-18.1272
316	0.158	-8.99579100145	37.545	-6.89480519481	4.516
317	0.1585	-27.2712626996	46.0264285714	-1.25497835498	15.8376
318	0.159	-7.58998548621	48.8535714286	-1.25497835498	17.2528
319	0.1595	-39.9235123367	47.44	-1.25497835498	14.4224
320	0.16	-32.8944847605	44.6128571429	-16.7645021645	1.6856
321	0.1605	-34.3002902758	38.9585714286	4.38484848485	-1.1448
322	0.161	-32.8944847605	37.545	-18.1744588745	0.2704
323	0.1615	-28.6770682148	40.3721428571	-12.5346320346	1.6856
324	0.162	-18.8364296081	24.8228571429	-9.71471861472	5.9312
325	0.1625	-4.77837445573	26.2364285714	-11.1246753247	-6.8056
326	0.163	-4.77837445573	24.8228571429	-18.1744588745	-23.788
327	0.1635	35.9899854862	14.9278571429	-25.2242424242	-28.0336
328	0.164	35.9899854862	10.6871428571	-25.2242424242	-32.2792
329	0.1645	20.5261248186	9.27357142857	-25.2242424242	-20.9576
330	0.165	23.3377358491	13.5142857143	-12.5346320346	-28.0336
331	0.1655	17.7145137881	16.3414285714	-30.8640692641	-19.5424
332	0.166	16.3087082729	24.8228571429	-20.9943722944	-5.3904
333	0.1665	12.0912917271	26.2364285714	-8.30476190476	14.4224
334	0.167	9.27968069666	60.1621428571	-6.89480519481	20.0832
335	0.1675	3.6564586357	43.1992857143	-8.30476190476	14.4224
336	0.168	17.7145137881	41.7857142857	-9.71471861472	18.668
337	0.1685	-3.37256894049	40.3721428571	-11.1246753247	-2.56
338	0.169	7.87387518142	34.7178571429	-18.1744588745	3.1008
339	0.1695	10.6854862119	33.3042857143	-18.1744588745	15.8376
340	0.17	12.0912917271	34.7178571429	-29.4541125541	-1.1448
341	0.1705	12.0912917271	33.3042857143	-26.6341991342	-2.56
342	0.171	13.4970972424	13.5142857143	-29.4541125541	-22.3728
343	0.1715	28.96095791	29.0635714286	-40.7337662338	-33.6944
344	0.172	48.6422351234	3.61928571429	-44.9636363636	-39.3552
345	0.1725	85.1931785196	2.20571428571	-42.1437229437	-39.3552
346	0.173	61.2944847605	-0.621428571429	-43.5536796537	-52.092
347	0.1735	65.5119013062	-0.621428571429	-46.3735930736	-36.5248
348	0.174	52.8596516691	0.792142857143	-42.1437229437	-22.3728
349	0.1745	41.6132075472	19.1685714286	-40.7337662338	-3.9752
350	0.175	33.1783744557	31.8907142857	-26.6341991342	15.8376
351	0.1755	16.3087082729	33.3042857143	-19.5844155844	17.2528
352	0.176	-1.96676342525	54.5078571429	-18.1744588745	15.8376
353	0.1765	-16.0248185776	36.1314285714	-23.8142857143	8.7616
354	0.177	-37.1119013062	30.4771428571	-30.8640692641	-5.3904
355	0.1775	-46.9525399129	27.65	-30.8640692641	-16.712
356	0.178	-68.0396226415	24.8228571429	-35.0939393939	4.516
357	0.1785	-79.2860667634	26.2364285714	-32.274025974	-16.712
358	0.179	-84.9092888244	26.2364285714	-39.3238095238	-19.5424
359	0.1795	-86.3150943396	10.6871428571	-46.3735930736	-30.864
360	0.18	-90.5325108853	-0.621428571429	-47.7835497835	-47.8464
361	0.1805	-89.1267053701	-16.1707142857	-54.8333333333	-63.4136
362	0.181	-84.9092888244	-2.035	-54.8333333333	-70.4896
363	0.1815	-73.6628447025	-18.9978571429	-60.4731601732	-71.9048
364	0.182	-53.9815674891	-11.93	-59.0632034632	-56.3376
365	0.1825	-48.3583454282	-2.035	-49.1935064935	-15.2968
366	0.183	-35.706095791	19.1685714286	-37.9138528139	-2.56
367	0.1835	-21.6480406386	29.0635714286	-30.8640692641	4.516
368	0.184	-17.4306240929	31.8907142857	-12.5346320346	17.2528
369	0.1845	-17.4306240929	21.9957142857	-18.1744588745	13.0072
370	0.185	-14.6190130624	43.1992857143	-18.1744588745	8.7616
371	0.1855	-14.6190130624	24.8228571429	-18.1744588745	1.6856
372	0.186	-6.18417997097	29.0635714286	-18.1744588745	5.9312
373	0.1865	-14.6190130624	29.0635714286	-18.1744588745	1.6856
374	0.187	13.4970972424	26.2364285714	-18.1744588745	-2.56
375	0.1875	30.3667634253	20.5821428571	-20.9943722944	-1.1448
376	0.188	47.2364296081	5.03285714286	-46.3735930736	-40.7704
377	0.1885	62.7002902758	-6.27571428571	-35.0939393939	-53.5072
378	0.189	73.9467343977	-21.825	-46.3735930736	-57.7528
379	0.1895	73.9467343977	5.03285714286	-46.3735930736	-56.3376
380	0.19	57.0770682148	-21.825	-42.1437229437	-49.2616
381	0.1905	47.2364296081	-7.68928571429	-35.0939393939	-35.1096
382	0.191	44.4248185776	7.86	-20.9943722944	-13.8816
383	0.1915	33.1783744557	23.4092857143	-9.71471861472	15.8376
384	0.192	31.7725689405	27.65	-8.30476190476	34.2352
385	0.1925	33.1783744557	26.2364285714	-8.30476190476	24.3288
386	0.193	31.7725689405	23.4092857143	-18.1744588745	22.9136
387	0.1935	33.1783744557	21.9957142857	0.154978354978	20.0832
388	0.194	33.1783744557	14.9278571429	-13.9445887446	10.1768
389	0.1945	30.3667634253	16.3414285714	-16.7645021645	7.3464
390	0.195	26.1493468795	16.3414285714	-18.1744588745	5.9312
391	0.1955	12.0912917271	16.3414285714	-18.1744588745	-1.1448
392	0.196	19.1203193033	6.44642857143	-25.2242424242	-19.5424
393	0.1965	-4.77837445573	-3.44857142857	-29.4541125541	-29.4488
394	0.197	-4.77837445573	-7.68928571429	-32.274025974	-43.6008
395	0.1975	-1.96676342525	-9.10285714286	-25.2242424242	-37.94
396	0.198	7.87387518142	-4.86214285714	-30.8640692641	-36.5248
397	0.1985	12.0912917271	-18.9978571429	-26.6341991342	-36.5248
398	0.199	14.9029027576	-0.621428571429	-29.4541125541	-26.6184
399	0.1995	9.27968069666	5.03285714286	-19.5844155844	-5.3904
400	0.2	-3.37256894049	21.9957142857	-8.30476190476	14.4224
401	0.2005	14.9029027576	29.0635714286	0.154978354978	15.8376
402	0.201	9.27968069666	29.0635714286	0.154978354978	27.1592
403	0.2015	13.4970972424	27.65	-5.48484848485	35.6504
404	0.202	16.3087082729	23.4092857143	-2.66493506494	7.3464
405	0.2025	19.1203193033	20.5821428571	-13.9445887446	4.516
406	0.203	19.1203193033	21.9957142857	-2.66493506494	3.1008
407	0.2035	19.1203193033	24.8228571429	-4.07489177489	0.2704
408	0.204	16.3087082729	19.1685714286	-6.89480519481	-9.636
409	0.2045	21.9319303338	5.03285714286	-18.1744588745	-32.2792
410	0.205	30.3667634253	-7.68928571429	-23.8142857143	-45.016
411	0.2055	20.5261248186	-14.7571428571	-28.0441558442	-50.6768
412	0.206	20.5261248186	-16.1707142857	-29.4541125541	-47.8464
413	0.2065	19.1203193033	-16.1707142857	-37.9138528139	-47.8464
414	0.207	19.1203193033	-14.7571428571	-25.2242424242	-36.5248
415	0.2075	20.5261248186	-11.93	-20.9943722944	-22.3728
416	0.208	24.7435413643	26.2364285714	-8.30476190476	0.2704
417	0.2085	19.1203193033	10.6871428571	-2.66493506494	22.9136
418	0.209	10.6854862119	21.9957142857	-1.25497835498	28.5744
419	0.2095	-4.77837445573	26.2364285714	0.154978354978	31.4048
420	0.21	-24.4596516691	23.4092857143	-5.48484848485	21.4984
421	0.2105	-25.8654571843	16.3414285714	-11.1246753247	-1.1448
422	0.211	-25.8654571843	10.6871428571	-15.3545454545	10.1768
423	0.2115	-24.4596516691	14.9278571429	-11.1246753247	13.0072
424	0.212	-18.8364296081	10.6871428571	-16.7645021645	13.0072
425	0.2125	-17.4306240929	2.20571428571	-13.9445887446	-8.2208
426	0.213	-14.6190130624	0.792142857143	-23.8142857143	-33.6944
427	0.2135	-3.37256894049	-16.1707142857	-32.274025974	-49.2616
428	0.214	17.7145137881	-16.1707142857	-32.274025974	-57.7528
429	0.2145	-4.77837445573	-13.3435714286	-32.274025974	-45.016
430	0.215	2.25065312046	-11.93	-32.274025974	-69.0744
431	0.2155	9.27968069666	-6.27571428571	-26.6341991342	-46.4312
432	0.216	10.6854862119	-0.621428571429	2.97489177489	-35.1096
433	0.2165	14.9029027576	17.755	1.56493506494	-13.8816
434	0.217	17.7145137881	29.0635714286	4.38484848485	-5.3904
435	0.2175	23.3377358491	41.7857142857	7.20476190476	-2.56
436	0.218	34.584179971	29.0635714286	7.20476190476	4.516
437	0.2185	43.0190130624	26.2364285714	5.79480519481	0.2704
438	0.219	24.7435413643	20.5821428571	1.56493506494	7.3464
439	0.2195	35.9899854862	16.3414285714	4.38484848485	-11.0512
440	0.22	43.0190130624	21.9957142857	0.154978354978	14.4224
441	0.2205	38.8015965167	20.5821428571	1.56493506494	-3.9752
442	0.221	34.584179971	19.1685714286	-4.07489177489	-29.4488
443	0.2215	28.96095791	-9.10285714286	-25.2242424242	-64.8288
444	0.222	28.96095791	-27.4792857143	-39.3238095238	-77.5656
445	0.2225	20.5261248186	-20.4114285714	-33.683982684	-66.244
446	0.223	9.27968069666	-17.5842857143	-16.7645021645	-47.8464
447	0.2235	2.25065312046	-6.27571428571	-5.48484848485	-25.2032
448	0.224	10.6854862119	2.20571428571	0.154978354978	-25.2032
449	0.2245	10.6854862119	10.6871428571	19.8943722944	0.2704
450	0.225	12.0912917271	24.8228571429	12.8445887446	17.2528
451	0.2255	14.9029027576	27.65	18.4844155844	18.668
452	0.226	13.4970972424	33.3042857143	19.8943722944	20.0832
453	0.2265	13.4970972424	14.9278571429	17.0744588745	17.2528
454	0.227	10.6854862119	21.9957142857	7.20476190476	13.0072
455	0.2275	3.6564586357	20.5821428571	7.20476190476	4.516
456	0.228	-1.96676342525	23.4092857143	5.79480519481	1.6856
457	0.2285	10.6854862119	21.9957142857	4.38484848485	-2.56
458	0.229	9.27968069666	19.1685714286	4.38484848485	-2.56
459	0.2295	9.27968069666	10.6871428571	1.56493506494	-15.2968
460	0.23	10.6854862119	-3.44857142857	-12.5346320346	-39.3552
461	0.2305	16.3087082729	0.792142857143	-12.5346320346	-40.7704
462	0.231	17.7145137881	-13.3435714286	-12.5346320346	-37.94
463	0.2315	13.4970972424	-9.10285714286	-8.30476190476	-33.6944
464	0.232	2.25065312046	-2.035	-6.89480519481	-25.2032
465	0.2325	3.6564586357	3.61928571429	-2.66493506494	-11.0512
466	0.233	19.1203193033	14.9278571429	0.154978354978	0.2704
467	0.2335	28.96095791	21.9957142857	5.79480519481	14.4224
468	0.234	40.2074020319	21.9957142857	2.97489177489	17.2528
469	0.2345	50.0480406386	27.65	11.4346320346	17.2528
470	0.235	68.3235123367	16.3414285714	4.38484848485	14.4224
471	0.2355	97.8454281567	16.3414285714	4.38484848485	5.9312
472	0.236	132.990566038	14.9278571429	8.61471861472	4.516
473	0.2365	168.135703919	14.9278571429	7.20476190476	4.516
474	0.237	189.222786647	14.9278571429	8.61471861472	-1.1448
475	0.2375	215.933091437	9.27357142857	8.61471861472	-18.1272
476	0.238	244.049201742	-0.621428571429	-6.89480519481	-26.6184
477	0.2385	270.759506531	-13.3435714286	-4.07489177489	-46.4312
478	0.239	298.875616836	-11.93	-18.1744588745	-42.1856
479	0.2395	319.962699565	-24.6521428571	-12.5346320346	-37.94
480	0.24	343.861393324	-9.10285714286	-13.9445887446	-33.6944
481	0.2405	373.383309144	-7.68928571429	-5.48484848485	-19.5424
482	0.241	408.528447025	5.03285714286	-1.25497835498	-9.636
483	0.2415	388.847169811	14.9278571429	8.61471861472	10.1768
484	0.242	393.064586357	23.4092857143	11.4346320346	29.9896
485	0.2425	374.789114659	23.4092857143	12.8445887446	20.0832
486	0.243	332.614949202	21.9957142857	7.20476190476	10.1768
487	0.2435	256.701451379	20.5821428571	11.4346320346	0.2704
488	0.244	144.23701016	9.27357142857	4.38484848485	-3.9752
489	0.2445	10.6854862119	29.0635714286	5.79480519481	-3.9752
490	0.245	-129.895065312	16.3414285714	4.38484848485	-2.56
491	0.2455	-236.73628447	16.3414285714	7.20476190476	-2.56
492	0.246	-344.983309144	7.86	4.38484848485	-22.3728
493	0.2465	-422.302612482	-3.44857142857	-6.89480519481	-46.4312
494	0.247	-471.505805515	-13.3435714286	-8.30476190476	-35.1096
495	0.2475	-468.694194485	-13.3435714286	-11.1246753247	-39.3552
496	0.248	-406.838751814	-14.7571428571	-6.89480519481	-36.5248
497	0.2485	-292.96850508	-11.93	-2.66493506494	-30.864
498	0.249	-167.851814224	-4.86214285714	-4.07489177489	-19.5424
499	0.2495	-94.7499274311	20.5821428571	7.20476190476	-2.56
500	0.25	-69.4454281567	21.9957142857	18.4844155844	15.8376
501	0.2505	-73.6628447025	27.65	17.0744588745	20.0832
502	0.251	-62.4164005806	26.2364285714	19.8943722944	13.0072
503	0.2515	-63.8222060958	24.8228571429	21.3043290043	-2.56
504	0.252	-61.0105950653	20.5821428571	14.2545454545	8.7616
505	0.2525	-55.3873730044	17.755	21.3043290043	-2.56
506	0.253	-52.5757619739	20.5821428571	15.6645021645	-1.1448
507	0.2535	-49.7641509434	9.27357142857	15.6645021645	3.1008
508	0.254	-46.9525399129	19.1685714286	11.4346320346	-5.3904
509	0.2545	-46.9525399129	-3.44857142857	2.97489177489	-22.3728
510	0.255	-52.5757619739	-2.035	1.56493506494	-28.0336
511	0.2555	-39.9235123367	-6.27571428571	-2.66493506494	-33.6944
512	0.256	-38.5177068215	-9.10285714286	1.56493506494	-33.6944
513	0.2565	-34.3002902758	-9.10285714286	-8.30476190476	-39.3552
514	0.257	-32.8944847605	-13.3435714286	0.154978354978	-43.6008
515	0.2575	-28.6770682148	-10.5164285714	1.56493506494	-32.2792
516	0.258	-31.4886792453	7.86	15.6645021645	-3.9752
517	0.2585	-28.6770682148	23.4092857143	24.1242424242	5.9312
518	0.259	-27.2712626996	21.9957142857	24.1242424242	10.1768
519	0.2595	-31.4886792453	20.5821428571	26.9441558442	10.1768
520	0.26	-31.4886792453	21.9957142857	24.1242424242	7.3464
521	0.2605	-37.1119013062	14.9278571429	21.3043290043	-5.3904
522	0.261	-25.8654571843	9.27357142857	21.3043290043	5.9312
523	0.2615	-21.6480406386	7.86	11.4346320346	5.9312
524	0.262	-18.8364296081	6.44642857143	14.2545454545	4.516
525	0.2625	-17.4306240929	-4.86214285714	17.0744588745	-8.2208
526	0.263	-16.0248185776	-13.3435714286	12.8445887446	-20.9576
527	0.2635	-16.0248185776	-3.44857142857	11.4346320346	-25.2032
528	0.264	-30.08287373	-11.93	11.4346320346	-32.2792
529	0.2645	-4.77837445573	-13.3435714286	8.61471861472	-33.6944
530	0.265	-16.0248185776	-16.1707142857	7.20476190476	-46.4312
531	0.2655	-14.6190130624	-17.5842857143	-6.89480519481	-43.6008
532	0.266	-16.0248185776	-10.5164285714	15.6645021645	-20.9576
533	0.2665	-17.4306240929	5.03285714286	22.7142857143	1.6856
534	0.267	-18.8364296081	19.1685714286	32.583982684	13.0072
535	0.2675	-18.8364296081	14.9278571429	33.9939393939	15.8376
536	0.268	-18.8364296081	10.6871428571	31.174025974	18.668
537	0.2685	-31.4886792453	13.5142857143	32.583982684	14.4224
538	0.269	-32.8944847605	16.3414285714	33.9939393939	8.7616
539	0.2695	-16.0248185776	9.27357142857	33.9939393939	13.0072
540	0.27	-16.0248185776	10.6871428571	18.4844155844	11.592
541	0.2705	-17.4306240929	9.27357142857	22.7142857143	0.2704
542	0.271	-14.6190130624	3.61928571429	33.9939393939	-13.8816
543	0.2715	-16.0248185776	-16.1707142857	25.5341991342	-33.6944
544	0.272	-16.0248185776	-17.5842857143	7.20476190476	-45.016
545	0.2725	-13.2132075472	-9.10285714286	2.97489177489	-49.2616
546	0.273	-14.6190130624	-33.1335714286	0.154978354978	-45.016
547	0.2735	-6.18417997097	-18.9978571429	7.20476190476	-39.3552
548	0.274	-24.4596516691	-14.7571428571	18.4844155844	-37.94
549	0.2745	-21.6480406386	-4.86214285714	25.5341991342	-6.8056
550	0.275	-23.0538461538	13.5142857143	38.2238095238	4.516
551	0.2755	-23.0538461538	16.3414285714	50.9134199134	5.9312
552	0.276	-20.2422351234	14.9278571429	26.9441558442	8.7616
553	0.2765	-16.0248185776	6.44642857143	31.174025974	4.516
554	0.277	-10.4015965167	5.03285714286	17.0744588745	-3.9752
555	0.2775	-4.77837445573	7.86	17.0744588745	-6.8056
556	0.278	-10.4015965167	7.86	19.8943722944	-6.8056
557	0.2785	3.6564586357	6.44642857143	24.1242424242	-2.56
558	0.279	-10.4015965167	6.44642857143	24.1242424242	-22.3728
559	0.2795	-4.77837445573	3.61928571429	2.97489177489	-25.2032
560	0.28	-6.18417997097	-3.44857142857	22.7142857143	-29.4488
561	0.2805	-7.58998548621	-6.27571428571	8.61471861472	-26.6184
562	0.281	-7.58998548621	-4.86214285714	14.2545454545	-33.6944
563	0.2815	-7.58998548621	-23.2385714286	12.8445887446	-35.1096
564	0.282	-4.77837445573	-20.4114285714	11.4346320346	-33.6944
565	0.2825	-4.77837445573	-3.44857142857	17.0744588745	-20.9576
566	0.283	-6.18417997097	6.44642857143	28.3541125541	3.1008
567	0.2835	-6.18417997097	17.755	32.583982684	28.5744
568	0.284	-0.560957910015	21.9957142857	38.2238095238	13.0072
569	0.2845	0.844847605225	24.8228571429	26.9441558442	21.4984
570	0.285	3.6564586357	24.8228571429	35.4038961039	13.0072
571	0.2855	12.0912917271	16.3414285714	22.7142857143	7.3464
572	0.286	19.1203193033	3.61928571429	28.3541125541	8.7616
573	0.2865	24.7435413643	23.4092857143	26.9441558442	4.516
574	0.287	28.96095791	10.6871428571	29.7640692641	4.516
575	0.2875	54.2654571843	6.44642857143	24.1242424242	-13.8816
576	0.288	73.9467343977	-6.27571428571	15.6645021645	-30.864
577	0.2885	90.8164005806	-9.10285714286	17.0744588745	-33.6944
578	0.289	97.8454281567	-11.93	18.4844155844	-47.8464
579	0.2895	89.4105950653	-20.4114285714	10.0246753247	-35.1096
580	0.29	76.7583454282	-23.2385714286	1.56493506494	-50.6768
581	0.2905	68.3235123367	-16.1707142857	14.2545454545	-40.7704
582	0.291	51.4538461538	-17.5842857143	22.7142857143	-18.1272
583	0.2915	35.9899854862	-2.035	31.174025974	0.2704
584	0.292	24.7435413643	13.5142857143	36.8138528139	13.0072
585	0.2925	26.1493468795	19.1685714286	38.2238095238	17.2528
586	0.293	14.9029027576	20.5821428571	38.2238095238	17.2528
587	0.2935	-30.08287373	19.1685714286	33.9939393939	5.9312
588	0.294	-38.5177068215	7.86	26.9441558442	7.3464
589	0.2945	-44.1409288824	3.61928571429	43.8636363636	-8.2208
590	0.295	-49.7641509434	6.44642857143	26.9441558442	-5.3904
591	0.2955	-59.6047895501	13.5142857143	33.9939393939	-2.56
592	0.296	-61.0105950653	20.5821428571	28.3541125541	-22.3728
593	0.2965	-65.228011611	-16.1707142857	15.6645021645	-49.2616
594	0.297	-53.9815674891	-28.8928571429	0.154978354978	-67.6592
595	0.2975	-55.3873730044	-23.2385714286	-2.66493506494	-67.6592
596	0.298	-34.3002902758	-17.5842857143	-4.07489177489	-53.5072
597	0.2985	-13.2132075472	-18.9978571429	-1.25497835498	-64.8288
598	0.299	-6.18417997097	-3.44857142857	15.6645021645	-23.788
599	0.2995	-0.560957910015	14.9278571429	41.0437229437	0.2704
600	0.3	0.844847605225	29.0635714286	32.583982684	17.2528
601	0.3005	0.844847605225	23.4092857143	29.7640692641	20.0832
602	0.301	0.844847605225	34.7178571429	28.3541125541	17.2528
603	0.3015	-10.4015965167	31.8907142857	29.7640692641	13.0072
604	0.302	23.3377358491	26.2364285714	25.5341991342	7.3464
605	0.3025	14.9029027576	26.2364285714	22.7142857143	-1.1448
606	0.303	7.87387518142	24.8228571429	22.7142857143	8.7616
607	0.3035	14.9029027576	23.4092857143	25.5341991342	22.9136
608	0.304	13.4970972424	23.4092857143	35.4038961039	0.2704
609	0.3045	14.9029027576	10.6871428571	15.6645021645	-22.3728
610	0.305	16.3087082729	-16.1707142857	2.97489177489	-49.2616
611	0.3055	20.5261248186	-9.10285714286	-5.48484848485	-54.9224
612	0.306	17.7145137881	-18.9978571429	-2.66493506494	-46.4312
613	0.3065	17.7145137881	-13.3435714286	1.56493506494	-32.2792
614	0.307	-4.77837445573	-3.44857142857	11.4346320346	-22.3728
615	0.3075	-3.37256894049	5.03285714286	28.3541125541	0.2704
616	0.308	-10.4015965167	21.9957142857	45.2735930736	34.2352
617	0.3085	-13.2132075472	29.0635714286	39.6337662338	27.1592
618	0.309	-6.18417997097	33.3042857143	41.0437229437	28.5744
619	0.3095	-0.560957910015	21.9957142857	36.8138528139	29.9896
620	0.31	2.25065312046	40.3721428571	32.583982684	25.744
621	0.3105	2.25065312046	40.3721428571	32.583982684	24.3288
622	0.311	5.06226415094	19.1685714286	31.174025974	18.668
623	0.3115	0.844847605225	29.0635714286	32.583982684	14.4224
624	0.312	2.25065312046	27.65	36.8138528139	-2.56
625	0.3125	-0.560957910015	21.9957142857	36.8138528139	4.516
626	0.313	0.844847605225	3.61928571429	11.4346320346	-29.4488
627	0.3135	-0.560957910015	-6.27571428571	19.8943722944	-40.7704
628	0.314	-1.96676342525	-10.5164285714	11.4346320346	-40.7704
629	0.3145	-1.96676342525	-4.86214285714	12.8445887446	-39.3552
630	0.315	2.25065312046	3.61928571429	12.8445887446	-33.6944
631	0.3155	5.06226415094	-7.68928571429	18.4844155844	-19.5424
632	0.316	-1.96676342525	9.27357142857	26.9441558442	-2.56
633	0.3165	2.25065312046	23.4092857143	36.8138528139	21.4984
634	0.317	3.6564586357	29.0635714286	41.0437229437	38.4808
635	0.3175	7.87387518142	30.4771428571	42.4536796537	17.2528
636	0.318	7.87387518142	30.4771428571	43.8636363636	18.668
637	0.3185	3.6564586357	29.0635714286	24.1242424242	10.1768
638	0.319	5.06226415094	21.9957142857	25.5341991342	7.3464
639	0.3195	7.87387518142	23.4092857143	35.4038961039	5.9312
640	0.32	2.25065312046	16.3414285714	33.9939393939	7.3464
641	0.3205	-4.77837445573	19.1685714286	31.174025974	4.516
642	0.321	5.06226415094	9.27357142857	26.9441558442	-16.712
643	0.3215	-3.37256894049	-0.621428571429	15.6645021645	-29.4488
644	0.322	2.25065312046	-13.3435714286	4.38484848485	-30.864
645	0.3225	2.25065312046	-14.7571428571	0.154978354978	-53.5072
646	0.323	5.06226415094	-16.1707142857	12.8445887446	-39.3552
647	0.3235	7.87387518142	-20.4114285714	8.61471861472	-33.6944
648	0.324	13.4970972424	10.6871428571	19.8943722944	-19.5424
649	0.3245	12.0912917271	-3.44857142857	26.9441558442	3.1008
650	0.325	12.0912917271	14.9278571429	36.8138528139	20.0832
651	0.3255	23.3377358491	23.4092857143	41.0437229437	25.744
652	0.326	-0.560957910015	21.9957142857	36.8138528139	22.9136
653	0.3265	10.6854862119	21.9957142857	32.583982684	14.4224
654	0.327	9.27968069666	19.1685714286	33.9939393939	4.516
655	0.3275	10.6854862119	13.5142857143	41.0437229437	7.3464
656	0.328	12.0912917271	14.9278571429	25.5341991342	0.2704
657	0.3285	12.0912917271	29.0635714286	28.3541125541	-1.1448
658	0.329	12.0912917271	2.20571428571	25.5341991342	-13.8816
659	0.3295	12.0912917271	-0.621428571429	14.2545454545	-36.5248
660	0.33	24.7435413643	-11.93	1.56493506494	-45.016
661	0.3305	30.3667634253	-16.1707142857	2.97489177489	-45.016
662	0.331	13.4970972424	-13.3435714286	8.61471861472	-43.6008
663	0.3315	12.0912917271	-9.10285714286	8.61471861472	-18.1272
664	0.332	10.6854862119	-4.86214285714	26.9441558442	-22.3728
665	0.3325	12.0912917271	0.792142857143	17.0744588745	-13.8816
666	0.333	14.9029027576	-0.621428571429	25.5341991342	4.516
667	0.3335	9.27968069666	29.0635714286	33.9939393939	18.668
668	0.334	12.0912917271	20.5821428571	35.4038961039	21.4984
669	0.3345	27.5551523948	20.5821428571	33.9939393939	24.3288
670	0.335	0.844847605225	21.9957142857	38.2238095238	13.0072
671	0.3355	10.6854862119	14.9278571429	31.174025974	7.3464
672	0.336	12.0912917271	13.5142857143	29.7640692641	5.9312
673	0.3365	12.0912917271	14.9278571429	15.6645021645	15.8376
674	0.337	13.4970972424	14.9278571429	32.583982684	17.2528
675	0.3375	10.6854862119	3.61928571429	22.7142857143	3.1008
676	0.338	13.4970972424	10.6871428571	11.4346320346	-16.712
677	0.3385	9.27968069666	-17.5842857143	8.61471861472	-18.1272
678	0.339	9.27968069666	-4.86214285714	11.4346320346	-18.1272
679	0.3395	17.7145137881	-4.86214285714	4.38484848485	-18.1272
680	0.34	10.6854862119	-4.86214285714	2.97489177489	-2.56
681	0.3405	14.9029027576	-6.27571428571	5.79480519481	-28.0336
682	0.341	12.0912917271	0.792142857143	14.2545454545	-11.0512
683	0.3415	10.6854862119	9.27357142857	29.7640692641	13.0072
684	0.342	9.27968069666	23.4092857143	38.2238095238	21.4984
685	0.3425	3.6564586357	16.3414285714	32.583982684	20.0832
686	0.343	10.6854862119	14.9278571429	28.3541125541	21.4984
687	0.3435	-3.37256894049	17.755	22.7142857143	8.7616
688	0.344	27.5551523948	9.27357142857	18.4844155844	4.516
689	0.3445	20.5261248186	10.6871428571	18.4844155844	-1.1448
690	0.345	10.6854862119	10.6871428571	15.6645021645	24.3288
691	0.3455	10.6854862119	14.9278571429	31.174025974	5.9312
692	0.346	12.0912917271	5.03285714286	12.8445887446	-6.8056
693	0.3465	10.6854862119	2.20571428571	2.97489177489	-16.712
694	0.347	12.0912917271	-11.93	5.79480519481	-18.1272
695	0.3475	14.9029027576	-4.86214285714	4.38484848485	-19.5424
696	0.348	0.844847605225	-7.68928571429	1.56493506494	-29.4488
697	0.3485	27.5551523948	-11.93	0.154978354978	-28.0336
698	0.349	20.5261248186	-10.5164285714	8.61471861472	-22.3728
699	0.3495	10.6854862119	3.61928571429	21.3043290043	13.0072
700	0.35	12.0912917271	19.1685714286	26.9441558442	37.0656
701	0.3505	12.0912917271	24.8228571429	38.2238095238	28.5744
702	0.351	10.6854862119	20.5821428571	28.3541125541	31.4048
703	0.3515	12.0912917271	37.545	31.174025974	32.82
704	0.352	14.9029027576	10.6871428571	28.3541125541	28.5744
705	0.3525	10.6854862119	7.86	31.174025974	25.744
706	0.353	0.844847605225	16.3414285714	32.583982684	22.9136
707	0.3535	9.27968069666	16.3414285714	29.7640692641	27.1592
708	0.354	12.0912917271	17.755	22.7142857143	28.5744
709	0.3545	10.6854862119	0.792142857143	7.20476190476	-11.0512
710	0.355	9.27968069666	-4.86214285714	7.20476190476	-13.8816
711	0.3555	10.6854862119	-6.27571428571	21.3043290043	-16.712
712	0.356	7.87387518142	-4.86214285714	4.38484848485	-16.712
713	0.3565	17.7145137881	-7.68928571429	4.38484848485	-22.3728
714	0.357	27.5551523948	-9.10285714286	2.97489177489	-28.0336
715	0.3575	19.1203193033	-7.68928571429	4.38484848485	-22.3728
716	0.358	47.2364296081	-0.621428571429	15.6645021645	0.2704
717	0.3585	33.1783744557	14.9278571429	24.1242424242	3.1008
718	0.359	33.1783744557	16.3414285714	26.9441558442	34.2352
719	0.3595	34.584179971	17.755	25.5341991342	22.9136
720	0.36	35.9899854862	16.3414285714	24.1242424242	18.668
721	0.3605	35.9899854862	-4.86214285714	19.8943722944	5.9312
722	0.361	38.8015965167	16.3414285714	15.6645021645	0.2704
723	0.3615	43.0190130624	0.792142857143	14.2545454545	0.2704
724	0.362	41.6132075472	5.03285714286	14.2545454545	5.9312
725	0.3625	21.9319303338	6.44642857143	14.2545454545	-8.2208
726	0.363	19.1203193033	-3.44857142857	0.154978354978	-19.5424
727	0.3635	12.0912917271	-6.27571428571	0.154978354978	-28.0336
728	0.364	0.844847605225	-9.10285714286	0.154978354978	-28.0336
729	0.3645	-8.99579100145	-13.3435714286	-4.07489177489	-25.2032
730	0.365	-18.8364296081	-10.5164285714	0.154978354978	-25.2032
731	0.3655	-25.8654571843	-20.4114285714	-6.89480519481	-26.6184
732	0.366	-34.3002902758	-10.5164285714	4.38484848485	-11.0512
733	0.3665	-28.6770682148	6.44642857143	21.3043290043	17.2528
734	0.367	-21.6480406386	17.755	26.9441558442	25.744
735	0.3675	-39.9235123367	16.3414285714	26.9441558442	22.9136
736	0.368	-25.8654571843	16.3414285714	28.3541125541	34.2352
737	0.3685	-21.6480406386	16.3414285714	15.6645021645	10.1768
738	0.369	-13.2132075472	10.6871428571	28.3541125541	17.2528
739	0.3695	-10.4015965167	7.86	26.9441558442	15.8376
740	0.37	-8.99579100145	10.6871428571	17.0744588745	14.4224
741	0.3705	-4.77837445573	17.755	19.8943722944	8.7616
742	0.371	5.06226415094	0.792142857143	14.2545454545	-9.636
743	0.3715	19.1203193033	-7.68928571429	8.61471861472	-16.712
744	0.372	0.844847605225	-10.5164285714	4.38484848485	-20.9576
745	0.3725	6.46806966618	-18.9978571429	-1.25497835498	-25.2032
746	0.373	7.87387518142	-26.0657142857	-5.48484848485	-50.6768
747	0.3735	13.4970972424	-30.3064285714	-26.6341991342	-53.5072
748	0.374	16.3087082729	-18.9978571429	-12.5346320346	-30.864
749	0.3745	14.9029027576	-4.86214285714	2.97489177489	0.2704
750	0.375	13.4970972424	7.86	15.6645021645	17.2528
751	0.3755	-4.77837445573	16.3414285714	18.4844155844	22.9136
752	0.376	20.5261248186	19.1685714286	18.4844155844	21.4984
753	0.3765	-0.560957910015	20.5821428571	17.0744588745	28.5744
754	0.377	3.6564586357	16.3414285714	17.0744588745	7.3464
755	0.3775	-1.96676342525	13.5142857143	14.2545454545	25.744
756	0.378	0.844847605225	7.86	18.4844155844	14.4224
757	0.3785	23.3377358491	14.9278571429	11.4346320346	15.8376
758	0.379	47.2364296081	-2.035	15.6645021645	10.1768
759	0.3795	64.106095791	-0.621428571429	4.38484848485	-5.3904
760	0.38	71.1351233672	-10.5164285714	0.154978354978	-28.0336
761	0.3805	52.8596516691	-23.2385714286	-8.30476190476	-46.4312
762	0.381	71.1351233672	-28.8928571429	-15.3545454545	-47.8464
763	0.3815	50.0480406386	-30.3064285714	-18.1744588745	-39.3552
764	0.382	37.3957910015	-27.4792857143	-25.2242424242	-33.6944
765	0.3825	26.1493468795	-9.10285714286	5.79480519481	-11.0512
766	0.383	21.9319303338	6.44642857143	15.6645021645	14.4224
767	0.3835	10.6854862119	20.5821428571	17.0744588745	20.0832
768	0.384	-1.96676342525	34.7178571429	14.2545454545	24.3288
769	0.3845	-11.8074020319	10.6871428571	12.8445887446	24.3288
770	0.385	-34.3002902758	16.3414285714	17.0744588745	24.3288
771	0.3855	-42.7351233672	14.9278571429	15.6645021645	15.8376
772	0.386	-37.1119013062	7.86	12.8445887446	20.0832
773	0.3865	-42.7351233672	9.27357142857	14.2545454545	25.744
774	0.387	-45.5467343977	12.1007142857	1.56493506494	18.668
775	0.3875	-44.1409288824	6.44642857143	4.38484848485	5.9312
776	0.388	-32.8944847605	-9.10285714286	-5.48484848485	-18.1272
777	0.3885	-24.4596516691	-4.86214285714	-16.7645021645	-33.6944
778	0.389	-8.99579100145	-21.825	-22.4043290043	-35.1096
779	0.3895	-1.96676342525	-21.825	-18.1744588745	-30.864
780	0.39	7.87387518142	-16.1707142857	-12.5346320346	-29.4488
781	0.3905	-1.96676342525	-16.1707142857	-4.07489177489	-29.4488
782	0.391	7.87387518142	-2.035	0.154978354978	-2.56
783	0.3915	3.6564586357	13.5142857143	19.8943722944	13.0072
784	0.392	2.25065312046	19.1685714286	15.6645021645	21.4984
785	0.3925	-0.560957910015	20.5821428571	22.7142857143	21.4984
786	0.393	-3.37256894049	26.2364285714	19.8943722944	21.4984
787	0.3935	0.844847605225	19.1685714286	15.6645021645	13.0072
788	0.394	-10.4015965167	14.9278571429	14.2545454545	5.9312
789	0.3945	3.6564586357	14.9278571429	10.0246753247	4.516
790	0.395	-4.77837445573	6.44642857143	8.61471861472	-2.56
791	0.3955	0.844847605225	10.6871428571	1.56493506494	13.0072
792	0.396	-1.96676342525	3.61928571429	0.154978354978	-3.9752
793	0.3965	0.844847605225	-9.10285714286	-6.89480519481	-28.0336
794	0.397	-0.560957910015	-14.7571428571	-18.1744588745	-39.3552
795	0.3975	-1.96676342525	-27.4792857143	-16.7645021645	-39.3552
796	0.398	2.25065312046	-20.4114285714	-15.3545454545	-40.7704
797	0.3985	-11.8074020319	-18.9978571429	-13.9445887446	-35.1096
798	0.399	16.3087082729	-13.3435714286	-12.5346320346	-20.9576
799	0.3995	-6.18417997097	0.792142857143	0.154978354978	14.4224
800	0.4	-0.560957910015	10.6871428571	17.0744588745	35.6504
801	0.4005	-0.560957910015	17.755	35.4038961039	21.4984
802	0.401	-6.18417997097	14.9278571429	25.5341991342	22.9136
803	0.4015	-3.37256894049	20.5821428571	22.7142857143	24.3288
804	0.402	-1.96676342525	30.4771428571	15.6645021645	21.4984
805	0.4025	-4.77837445573	0.792142857143	15.6645021645	17.2528
806	0.403	-16.0248185776	6.44642857143	15.6645021645	17.2528
807	0.4035	-14.6190130624	10.6871428571	12.8445887446	21.4984
808	0.404	-4.77837445573	7.86	8.61471861472	10.1768
809	0.4045	-4.77837445573	-6.27571428571	-1.25497835498	-11.0512
810	0.405	-6.18417997097	-20.4114285714	-22.4043290043	-28.0336
811	0.4055	-3.37256894049	-27.4792857143	-18.1744588745	-30.864
812	0.406	-3.37256894049	-33.1335714286	-19.5844155844	-33.6944
813	0.4065	-1.96676342525	-14.7571428571	-19.5844155844	-35.1096
814	0.407	-1.96676342525	-27.4792857143	-15.3545454545	-28.0336
815	0.4075	3.6564586357	-13.3435714286	-16.7645021645	-13.8816
816	0.408	2.25065312046	0.792142857143	-5.48484848485	3.1008
817	0.4085	-0.560957910015	10.6871428571	0.154978354978	17.2528
818	0.409	-3.37256894049	19.1685714286	8.61471861472	3.1008
819	0.4095	-3.37256894049	14.9278571429	-1.25497835498	10.1768
820	0.41	-4.77837445573	17.755	15.6645021645	-1.1448
821	0.4105	-4.77837445573	7.86	-1.25497835498	-2.56
822	0.411	-6.18417997097	-10.5164285714	2.97489177489	-1.1448
823	0.4115	-3.37256894049	16.3414285714	2.97489177489	0.2704
824	0.412	-14.6190130624	2.20571428571	7.20476190476	3.1008
825	0.4125	16.3087082729	2.20571428571	7.20476190476	-1.1448
826	0.413	-3.37256894049	-10.5164285714	-9.71471861472	-32.2792
827	0.4135	5.06226415094	-16.1707142857	-37.9138528139	-36.5248
828	0.414	9.27968069666	-17.5842857143	-15.3545454545	-43.6008
829	0.4145	3.6564586357	-23.2385714286	-12.5346320346	-36.5248
830	0.415	0.844847605225	-18.9978571429	-4.07489177489	-19.5424
831	0.4155	2.25065312046	-3.44857142857	-2.66493506494	-13.8816
832	0.416	0.844847605225	9.27357142857	-8.30476190476	-3.9752
833	0.4165	-1.96676342525	-3.44857142857	-2.66493506494	13.0072
834	0.417	5.06226415094	14.9278571429	1.56493506494	22.9136
835	0.4175	-8.99579100145	10.6871428571	2.97489177489	18.668
836	0.418	0.844847605225	10.6871428571	4.38484848485	17.2528
837	0.4185	-0.560957910015	7.86	17.0744588745	15.8376
838	0.419	0.844847605225	7.86	1.56493506494	17.2528
839	0.4195	0.844847605225	6.44642857143	0.154978354978	17.2528
840	0.42	0.844847605225	13.5142857143	4.38484848485	18.668
841	0.4205	-3.37256894049	3.61928571429	14.2545454545	17.2528
842	0.421	-0.560957910015	0.792142857143	14.2545454545	-6.8056
843	0.4215	9.27968069666	-13.3435714286	4.38484848485	-22.3728
844	0.422	-1.96676342525	-18.9978571429	-6.89480519481	-6.8056
845	0.4225	-0.560957910015	-14.7571428571	-6.89480519481	-28.0336
846	0.423	0.844847605225	-17.5842857143	-11.1246753247	-25.2032
847	0.4235	0.844847605225	-16.1707142857	11.4346320346	-23.788
848	0.424	-0.560957910015	-14.7571428571	-5.48484848485	-13.8816
849	0.4245	-1.96676342525	3.61928571429	0.154978354978	1.6856
850	0.425	-1.96676342525	21.9957142857	5.79480519481	17.2528
851	0.4255	-1.96676342525	6.44642857143	11.4346320346	22.9136
852	0.426	3.6564586357	14.9278571429	10.0246753247	27.1592
853	0.4265	-11.8074020319	13.5142857143	12.8445887446	14.4224
854	0.427	-0.560957910015	6.44642857143	2.97489177489	4.516
855	0.4275	-3.37256894049	3.61928571429	18.4844155844	5.9312
856	0.428	0.844847605225	5.03285714286	-5.48484848485	1.6856
857	0.4285	-1.96676342525	3.61928571429	0.154978354978	1.6856
858	0.429	2.25065312046	19.1685714286	4.38484848485	-5.3904
859	0.4295	-1.96676342525	-13.3435714286	-2.66493506494	-15.2968
860	0.43	-8.99579100145	-13.3435714286	-1.25497835498	-23.788
861	0.4305	-13.2132075472	-14.7571428571	-4.07489177489	-22.3728
862	0.431	12.0912917271	-11.93	-6.89480519481	-23.788
863	0.4315	-1.96676342525	-13.3435714286	-8.30476190476	-3.9752
864	0.432	-1.96676342525	-14.7571428571	-16.7645021645	-25.2032
865	0.4325	-0.560957910015	-9.10285714286	-4.07489177489	-9.636
866	0.433	-3.37256894049	0.792142857143	25.5341991342	8.7616
867	0.4335	-1.96676342525	19.1685714286	15.6645021645	24.3288
868	0.434	-3.37256894049	16.3414285714	15.6645021645	25.744
869	0.4345	-16.0248185776	13.5142857143	14.2545454545	28.5744
870	0.435	5.06226415094	14.9278571429	11.4346320346	21.4984
871	0.4355	-10.4015965167	9.27357142857	11.4346320346	7.3464
872	0.436	-0.560957910015	6.44642857143	7.20476190476	18.668
873	0.4365	0.844847605225	10.6871428571	4.38484848485	15.8376
874	0.437	0.844847605225	10.6871428571	17.0744588745	15.8376
875	0.4375	0.844847605225	-4.86214285714	8.61471861472	-1.1448
876	0.438	0.844847605225	5.03285714286	0.154978354978	-20.9576
877	0.4385	2.25065312046	-30.3064285714	1.56493506494	-29.4488
878	0.439	3.6564586357	-24.6521428571	14.2545454545	-20.9576
879	0.4395	-6.18417997097	-17.5842857143	29.7640692641	-32.2792
880	0.44	-1.96676342525	-13.3435714286	38.2238095238	-5.3904
881	0.4405	-3.37256894049	-11.93	31.174025974	-22.3728
882	0.441	-1.96676342525	-10.5164285714	32.583982684	-6.8056
883	0.4415	-0.560957910015	5.03285714286	31.174025974	14.4224
884	0.442	-3.37256894049	9.27357142857	-5.48484848485	22.9136
885	0.4425	-1.96676342525	26.2364285714	2.97489177489	24.3288
886	0.443	-1.96676342525	6.44642857143	0.154978354978	22.9136
887	0.4435	-1.96676342525	13.5142857143	-12.5346320346	17.2528
888	0.444	-7.58998548621	9.27357142857	-18.1744588745	-6.8056
889	0.4445	-1.96676342525	2.20571428571	-13.9445887446	0.2704
890	0.445	-0.560957910015	3.61928571429	-1.25497835498	-1.1448
891	0.4455	-0.560957910015	6.44642857143	-4.07489177489	1.6856
892	0.446	-0.560957910015	0.792142857143	-5.48484848485	-12.4664
893	0.4465	-0.560957910015	-17.5842857143	-8.30476190476	-16.712
894	0.447	0.844847605225	7.86	-9.71471861472	-13.8816
895	0.4475	-0.560957910015	-11.93	-6.89480519481	-11.0512
896	0.448	5.06226415094	-7.68928571429	0.154978354978	-9.636
897	0.4485	-8.99579100145	-4.86214285714	2.97489177489	-19.5424
898	0.449	3.6564586357	-9.10285714286	-4.07489177489	-26.6184
899	0.4495	3.6564586357	-3.44857142857	8.61471861472	-3.9752
900	0.45	5.06226415094	16.3414285714	26.9441558442	22.9136
901	0.4505	2.25065312046	23.4092857143	24.1242424242	29.9896
902	0.451	5.06226415094	5.03285714286	25.5341991342	27.1592
903	0.4515	3.6564586357	23.4092857143	24.1242424242	25.744
904	0.452	5.06226415094	9.27357142857	24.1242424242	17.2528
905	0.4525	-0.560957910015	9.27357142857	15.6645021645	14.4224
906	0.453	-3.37256894049	10.6871428571	4.38484848485	29.9896
907	0.4535	-0.560957910015	13.5142857143	2.97489177489	7.3464
908	0.454	-0.560957910015	12.1007142857	2.97489177489	4.516
909	0.4545	0.844847605225	3.61928571429	17.0744588745	-5.3904
910	0.455	0.844847605225	-7.68928571429	-12.5346320346	-13.8816
911	0.4555	0.844847605225	-6.27571428571	-6.89480519481	-19.5424
912	0.456	-0.560957910015	-20.4114285714	-1.25497835498	-22.3728
913	0.4565	3.6564586357	-17.5842857143	-1.25497835498	-29.4488
914	0.457	-6.18417997097	-20.4114285714	0.154978354978	-26.6184
915	0.4575	13.4970972424	-10.5164285714	11.4346320346	-3.9752
916	0.458	-7.58998548621	5.03285714286	18.4844155844	8.7616
917	0.4585	-7.58998548621	16.3414285714	15.6645021645	22.9136
918	0.459	-4.77837445573	19.1685714286	45.2735930736	28.5744
919	0.4595	-8.99579100145	20.5821428571	31.174025974	28.5744
920	0.46	-7.58998548621	21.9957142857	28.3541125541	22.9136
921	0.4605	-4.77837445573	30.4771428571	28.3541125541	21.4984
922	0.461	-6.18417997097	7.86	26.9441558442	21.4984
923	0.4615	-17.4306240929	16.3414285714	25.5341991342	20.0832
924	0.462	-13.2132075472	17.755	22.7142857143	18.668
925	0.4625	0.844847605225	14.9278571429	19.8943722944	17.2528
926	0.463	2.25065312046	-0.621428571429	0.154978354978	-15.2968
927	0.4635	0.844847605225	-13.3435714286	-8.30476190476	-40.7704
928	0.464	-0.560957910015	-23.2385714286	-2.66493506494	-40.7704
929	0.4645	2.25065312046	-38.7878571429	-6.89480519481	-45.016
930	0.465	0.844847605225	-14.7571428571	-4.07489177489	-37.94
931	0.4655	-3.37256894049	-20.4114285714	2.97489177489	-23.788
932	0.466	20.5261248186	-3.44857142857	14.2545454545	1.6856
933	0.4665	-7.58998548621	10.6871428571	25.5341991342	22.9136
934	0.467	-3.37256894049	16.3414285714	29.7640692641	39.896
935	0.4675	-3.37256894049	21.9957142857	31.174025974	17.2528
936	0.468	-4.77837445573	19.1685714286	39.6337662338	28.5744
937	0.4685	-3.37256894049	16.3414285714	24.1242424242	21.4984
938	0.469	-4.77837445573	16.3414285714	22.7142857143	17.2528
939	0.4695	-4.77837445573	13.5142857143	24.1242424242	15.8376
940	0.47	-1.96676342525	9.27357142857	21.3043290043	18.668
941	0.4705	-11.8074020319	13.5142857143	28.3541125541	13.0072
942	0.471	0.844847605225	2.20571428571	19.8943722944	-6.8056
943	0.4715	-6.18417997097	-6.27571428571	8.61471861472	-18.1272
944	0.472	-4.77837445573	-16.1707142857	-6.89480519481	-23.788
945	0.4725	-4.77837445573	-17.5842857143	8.61471861472	-30.864
946	0.473	-3.37256894049	-24.6521428571	-2.66493506494	-30.864
947	0.4735	-4.77837445573	-17.5842857143	1.56493506494	-26.6184
948	0.474	-3.37256894049	-17.5842857143	7.20476190476	-13.8816
949	0.4745	-0.560957910015	-4.86214285714	21.3043290043	10.1768
950	0.475	-13.2132075472	14.9278571429	32.583982684	25.744
951	0.4755	12.0912917271	20.5821428571	33.9939393939	28.5744
952	0.476	0.844847605225	20.5821428571	31.174025974	15.8376
953	0.4765	0.844847605225	17.755	26.9441558442	44.1416
954	0.477	0.844847605225	16.3414285714	25.5341991342	14.4224
955	0.4775	0.844847605225	6.44642857143	17.0744588745	13.0072
956	0.478	-0.560957910015	10.6871428571	21.3043290043	10.1768
957	0.4785	-0.560957910015	-2.035	18.4844155844	13.0072
958	0.479	-3.37256894049	5.03285714286	12.8445887446	5.9312
959	0.4795	0.844847605225	-3.44857142857	1.56493506494	-13.8816
960	0.48	-14.6190130624	-14.7571428571	-6.89480519481	-29.4488
961	0.4805	9.27968069666	-21.825	-12.5346320346	-39.3552
962	0.481	-4.77837445573	-28.8928571429	-20.9943722944	-32.2792
963	0.4815	0.844847605225	-33.1335714286	-22.4043290043	-36.5248
964	0.482	3.6564586357	-23.2385714286	2.97489177489	-35.1096
965	0.4825	-0.560957910015	-10.5164285714	12.8445887446	-15.2968
966	0.483	-1.96676342525	6.44642857143	25.5341991342	13.0072
967	0.4835	-1.96676342525	24.8228571429	25.5341991342	25.744
968	0.484	-0.560957910015	17.755	28.3541125541	32.82
969	0.4845	-10.4015965167	21.9957142857	36.8138528139	31.4048
970	0.485	9.27968069666	17.755	46.6835497835	27.1592
971	0.4855	-1.96676342525	14.9278571429	36.8138528139	17.2528
972	0.486	-0.560957910015	10.6871428571	12.8445887446	17.2528
973	0.4865	-3.37256894049	10.6871428571	14.2545454545	14.4224
974	0.487	-0.560957910015	6.44642857143	-1.25497835498	17.2528
975	0.4875	-0.560957910015	24.8228571429	11.4346320346	0.2704
976	0.488	0.844847605225	-14.7571428571	14.2545454545	-28.0336
977	0.4885	-1.96676342525	-28.8928571429	-8.30476190476	-49.2616
978	0.489	17.7145137881	-28.8928571429	-22.4043290043	-52.092
979	0.4895	-6.18417997097	-27.4792857143	-22.4043290043	-63.4136
980	0.49	3.6564586357	-7.68928571429	-32.274025974	-50.6768
981	0.4905	3.6564586357	9.27357142857	-19.5844155844	-29.4488
982	0.491	-0.560957910015	14.9278571429	-6.89480519481	-2.56
983	0.4915	0.844847605225	14.9278571429	21.3043290043	21.4984
984	0.492	-7.58998548621	7.86	26.9441558442	24.3288
985	0.4925	0.844847605225	14.9278571429	22.7142857143	24.3288
986	0.493	-1.96676342525	14.9278571429	10.0246753247	22.9136
987	0.4935	-3.37256894049	13.5142857143	0.154978354978	17.2528
988	0.494	-6.18417997097	3.61928571429	0.154978354978	-2.56
989	0.4945	-3.37256894049	2.20571428571	-5.48484848485	24.3288
990	0.495	-1.96676342525	2.20571428571	15.6645021645	8.7616
991	0.4955	-3.37256894049	7.86	12.8445887446	7.3464
992	0.496	-1.96676342525	5.03285714286	21.3043290043	-9.636
993	0.4965	-0.560957910015	-24.6521428571	5.79480519481	-29.4488
994	0.497	-0.560957910015	-6.27571428571	-1.25497835498	-35.1096
995	0.4975	-0.560957910015	-23.2385714286	1.56493506494	-28.0336
996	0.498	0.844847605225	-18.9978571429	12.8445887446	-30.864
997	0.4985	-3.37256894049	-16.1707142857	14.2545454545	-6.8056
998	0.499	-0.560957910015	-9.10285714286	32.583982684	-19.5424
999	0.4995	-3.37256894049	0.792142857143	43.8636363636	14.4224
1000	0.5	-4.77837445573	14.9278571429	46.6835497835	27.1592
1001	0.5005	-4.77837445573	23.4092857143	36.8138528139	32.82
1002	0.501	-4.77837445573	6.44642857143	24.1242424242	29.9896
1003	0.5015	-4.77837445573	34.7178571429	18.4844155844	31.4048
1004	0.502	-14.6190130624	16.3414285714	14.2545454545	24.3288
1005	0.5025	10.6854862119	13.5142857143	-1.25497835498	24.3288
1006	0.503	7.87387518142	13.5142857143	-2.66493506494	20.0832
1007	0.5035	-6.18417997097	10.6871428571	18.4844155844	21.4984
1008	0.504	-4.77837445573	6.44642857143	41.0437229437	25.744
1009	0.5045	-4.77837445573	-0.621428571429	50.9134199134	-8.2208
1010	0.505	-1.96676342525	-10.5164285714	21.3043290043	-18.1272
1011	0.5055	0.844847605225	-11.93	12.8445887446	-20.9576
1012	0.506	-0.560957910015	3.61928571429	7.20476190476	-19.5424
1013	0.5065	-1.96676342525	-17.5842857143	15.6645021645	-13.8816
1014	0.507	-11.8074020319	-9.10285714286	18.4844155844	-13.8816
1015	0.5075	-6.18417997097	-4.86214285714	19.8943722944	-2.56
1016	0.508	-0.560957910015	2.20571428571	19.8943722944	27.1592
1017	0.5085	-1.96676342525	13.5142857143	14.2545454545	22.9136
1018	0.509	-3.37256894049	19.1685714286	43.8636363636	28.5744
1019	0.5095	-6.18417997097	17.755	31.174025974	32.82
1020	0.51	-4.77837445573	20.5821428571	38.2238095238	21.4984
1021	0.5105	-3.37256894049	5.03285714286	29.7640692641	13.0072
1022	0.511	-1.96676342525	6.44642857143	25.5341991342	7.3464
1023	0.5115	9.27968069666	5.03285714286	28.3541125541	1.6856
1024	0.512	-3.37256894049	13.5142857143	29.7640692641	22.9136
1025	0.5125	-1.96676342525	5.03285714286	22.7142857143	-9.636
1026	0.513	-1.96676342525	-6.27571428571	7.20476190476	-16.712
1027	0.5135	3.6564586357	-14.7571428571	-12.5346320346	-28.0336
1028	0.514	0.844847605225	-23.2385714286	-12.5346320346	-29.4488
1029	0.5145	-0.560957910015	-7.68928571429	5.79480519481	-30.864
1030	0.515	-0.560957910015	-17.5842857143	12.8445887446	-25.2032
1031	0.5155	3.6564586357	-9.10285714286	15.6645021645	-16.712
1032	0.516	-8.99579100145	-3.44857142857	33.9939393939	-2.56
1033	0.5165	5.06226415094	9.27357142857	59.3731601732	22.9136
1034	0.517	-3.37256894049	20.5821428571	70.6528138528	21.4984
1035	0.5175	-0.560957910015	19.1685714286	56.5532467532	32.82
1036	0.518	-1.96676342525	20.5821428571	36.8138528139	29.9896
1037	0.5185	-1.96676342525	17.755	-5.48484848485	24.3288
1038	0.519	-0.560957910015	5.03285714286	-1.25497835498	20.0832
1039	0.5195	-0.560957910015	17.755	14.2545454545	17.2528
1040	0.52	-13.2132075472	12.1007142857	24.1242424242	15.8376
1041	0.5205	17.7145137881	13.5142857143	22.7142857143	13.0072
1042	0.521	5.06226415094	2.20571428571	15.6645021645	-16.712
1043	0.5215	0.844847605225	-10.5164285714	1.56493506494	-13.8816
1044	0.522	3.6564586357	-18.9978571429	18.4844155844	-35.1096
1045	0.5225	0.844847605225	-21.825	18.4844155844	-28.0336
1046	0.523	-0.560957910015	-13.3435714286	14.2545454545	-20.9576
1047	0.5235	0.844847605225	-3.44857142857	7.20476190476	-12.4664
1048	0.524	0.844847605225	-9.10285714286	7.20476190476	-11.0512
1049	0.5245	-8.99579100145	2.20571428571	17.0744588745	1.6856
1050	0.525	7.87387518142	10.6871428571	24.1242424242	10.1768
1051	0.5255	-3.37256894049	19.1685714286	24.1242424242	35.6504
1052	0.526	-1.96676342525	16.3414285714	29.7640692641	15.8376
1053	0.5265	-1.96676342525	16.3414285714	31.174025974	20.0832
1054	0.527	-1.96676342525	13.5142857143	28.3541125541	17.2528
1055	0.5275	-0.560957910015	14.9278571429	19.8943722944	10.1768
1056	0.528	2.25065312046	2.20571428571	11.4346320346	10.1768
1057	0.5285	3.6564586357	5.03285714286	8.61471861472	8.7616
1058	0.529	-10.4015965167	7.86	14.2545454545	8.7616
1059	0.5295	-6.18417997097	3.61928571429	12.8445887446	-8.2208
1060	0.53	5.06226415094	-10.5164285714	2.97489177489	-18.1272
1061	0.5305	0.844847605225	-14.7571428571	-1.25497835498	-30.864
1062	0.531	3.6564586357	-13.3435714286	-13.9445887446	-16.712
1063	0.5315	3.6564586357	-6.27571428571	8.61471861472	-12.4664
1064	0.532	-0.560957910015	-6.27571428571	5.79480519481	-8.2208
1065	0.5325	-0.560957910015	-13.3435714286	8.61471861472	1.6856
1066	0.533	2.25065312046	27.65	24.1242424242	20.0832
1067	0.5335	-4.77837445573	17.755	32.583982684	28.5744
1068	0.534	13.4970972424	20.5821428571	38.2238095238	28.5744
1069	0.5345	17.7145137881	16.3414285714	38.2238095238	31.4048
1070	0.535	-8.99579100145	16.3414285714	41.0437229437	20.0832
1071	0.5355	-3.37256894049	13.5142857143	49.5034632035	15.8376
1072	0.536	-1.96676342525	10.6871428571	35.4038961039	14.4224
1073	0.5365	-0.560957910015	7.86	22.7142857143	13.0072
1074	0.537	0.844847605225	9.27357142857	8.61471861472	15.8376
1075	0.5375	-0.560957910015	23.4092857143	7.20476190476	4.516
1076	0.538	7.87387518142	-2.035	11.4346320346	-6.8056
1077	0.5385	-4.77837445573	-6.27571428571	11.4346320346	-16.712
1078	0.539	7.87387518142	-11.93	15.6645021645	-25.2032
1079	0.5395	-1.96676342525	-13.3435714286	7.20476190476	-8.2208
1080	0.54	3.6564586357	-14.7571428571	5.79480519481	-35.1096
1081	0.5405	2.25065312046	-11.93	1.56493506494	-20.9576
1082	0.541	0.844847605225	-2.035	-2.66493506494	5.9312
1083	0.5415	0.844847605225	19.1685714286	-4.07489177489	24.3288
1084	0.542	-0.560957910015	14.9278571429	8.61471861472	27.1592
1085	0.5425	5.06226415094	13.5142857143	29.7640692641	28.5744
1086	0.543	-14.6190130624	17.755	38.2238095238	22.9136
1087	0.5435	-8.99579100145	16.3414285714	31.174025974	17.2528
1088	0.544	16.3087082729	10.6871428571	14.2545454545	10.1768
1089	0.5445	7.87387518142	7.86	-13.9445887446	14.4224
1090	0.545	5.06226415094	10.6871428571	8.61471861472	15.8376
1091	0.5455	7.87387518142	9.27357142857	2.97489177489	14.4224
1092	0.546	5.06226415094	7.86	5.79480519481	-2.56
1093	0.5465	12.0912917271	9.27357142857	1.56493506494	-16.712
1094	0.547	10.6854862119	-21.825	-4.07489177489	-20.9576
1095	0.5475	-4.77837445573	-11.93	-1.25497835498	-22.3728
1096	0.548	-7.58998548621	-14.7571428571	-2.66493506494	-22.3728
1097	0.5485	-4.77837445573	-10.5164285714	-6.89480519481	-6.8056
1098	0.549	-4.77837445573	-4.86214285714	-6.89480519481	-15.2968
1099	0.5495	-3.37256894049	2.20571428571	22.7142857143	4.516
1100	0.55	-1.96676342525	16.3414285714	26.9441558442	24.3288
1101	0.5505	-3.37256894049	19.1685714286	4.38484848485	25.744
1102	0.551	0.844847605225	33.3042857143	11.4346320346	27.1592
1103	0.5515	-1.96676342525	7.86	15.6645021645	28.5744
1104	0.552	3.6564586357	16.3414285714	17.0744588745	17.2528
1105	0.5525	16.3087082729	10.6871428571	12.8445887446	14.4224
1106	0.553	28.96095791	9.27357142857	19.8943722944	14.4224
1107	0.5535	16.3087082729	9.27357142857	28.3541125541	5.9312
1108	0.554	17.7145137881	5.03285714286	33.9939393939	3.1008
1109	0.5545	14.9029027576	-0.621428571429	26.9441558442	-11.0512
1110	0.555	13.4970972424	-11.93	-6.89480519481	-22.3728
1111	0.5555	14.9029027576	-16.1707142857	-2.66493506494	-25.2032
1112	0.556	10.6854862119	-13.3435714286	-1.25497835498	-23.788
1113	0.5565	14.9029027576	-16.1707142857	2.97489177489	-23.788
1114	0.557	0.844847605225	-13.3435714286	1.56493506494	-25.2032
1115	0.5575	19.1203193033	-11.93	4.38484848485	-9.636
1116	0.558	-3.37256894049	2.20571428571	22.7142857143	0.2704
1117	0.5585	3.6564586357	14.9278571429	32.583982684	22.9136
1118	0.559	3.6564586357	21.9957142857	29.7640692641	27.1592
1119	0.5595	5.06226415094	19.1685714286	35.4038961039	28.5744
1120	0.56	5.06226415094	16.3414285714	29.7640692641	20.0832
1121	0.5605	9.27968069666	21.9957142857	12.8445887446	10.1768
1122	0.561	12.0912917271	7.86	0.154978354978	10.1768
1123	0.5615	12.0912917271	6.44642857143	2.97489177489	13.0072
1124	0.562	3.6564586357	6.44642857143	12.8445887446	10.1768
1125	0.5625	0.844847605225	3.61928571429	11.4346320346	-2.56
1126	0.563	13.4970972424	-6.27571428571	1.56493506494	-19.5424
1127	0.5635	10.6854862119	-9.10285714286	8.61471861472	-19.5424
1128	0.564	10.6854862119	-20.4114285714	-15.3545454545	-37.94
1129	0.5645	6.46806966618	-28.8928571429	-18.1744588745	-50.6768
1130	0.565	7.87387518142	-34.5471428571	-16.7645021645	-49.2616
1131	0.5655	14.9029027576	-21.825	-11.1246753247	-32.2792
1132	0.566	0.844847605225	-4.86214285714	5.79480519481	-1.1448
1133	0.5665	16.3087082729	9.27357142857	25.5341991342	24.3288
1134	0.567	5.06226415094	16.3414285714	24.1242424242	22.9136
1135	0.5675	7.87387518142	16.3414285714	25.5341991342	31.4048
1136	0.568	10.6854862119	20.5821428571	36.8138528139	25.744
1137	0.5685	7.87387518142	17.755	19.8943722944	24.3288
1138	0.569	5.06226415094	6.44642857143	29.7640692641	21.4984
1139	0.5695	3.6564586357	3.61928571429	28.3541125541	21.4984
1140	0.57	12.0912917271	13.5142857143	26.9441558442	22.9136
1141	0.5705	7.87387518142	9.27357142857	12.8445887446	21.4984
1142	0.571	3.6564586357	2.20571428571	-9.71471861472	-3.9752
1143	0.5715	-0.560957910015	-9.10285714286	-26.6341991342	-22.3728
1144	0.572	12.0912917271	-16.1707142857	-18.1744588745	-28.0336
1145	0.5725	13.4970972424	-21.825	-29.4541125541	-33.6944
1146	0.573	14.9029027576	-27.4792857143	-19.5844155844	-39.3552
1147	0.5735	13.4970972424	-30.3064285714	-11.1246753247	-37.94
1148	0.574	12.0912917271	-0.621428571429	7.20476190476	-16.712
1149	0.5745	5.06226415094	-2.035	35.4038961039	5.9312
1150	0.575	14.9029027576	10.6871428571	50.9134199134	22.9136
1151	0.5755	23.3377358491	16.3414285714	49.5034632035	24.3288
1152	0.576	-1.96676342525	16.3414285714	38.2238095238	29.9896
1153	0.5765	2.25065312046	17.755	28.3541125541	15.8376
1154	0.577	2.25065312046	13.5142857143	35.4038961039	15.8376
1155	0.5775	2.25065312046	5.03285714286	36.8138528139	10.1768
1156	0.578	5.06226415094	6.44642857143	29.7640692641	8.7616
1157	0.5785	-0.560957910015	3.61928571429	19.8943722944	8.7616
1158	0.579	3.6564586357	-0.621428571429	5.79480519481	5.9312
1159	0.5795	-1.96676342525	-13.3435714286	7.20476190476	-11.0512
1160	0.58	9.27968069666	-21.825	-11.1246753247	-19.5424
1161	0.5805	12.0912917271	-24.6521428571	-36.5038961039	-18.1272
1162	0.581	12.0912917271	-20.4114285714	-60.4731601732	-25.2032
1163	0.5815	12.0912917271	-20.4114285714	-32.274025974	-25.2032
1164	0.582	10.6854862119	-30.3064285714	-4.07489177489	-19.5424
1165	0.5825	12.0912917271	-0.621428571429	17.0744588745	-6.8056
1166	0.583	10.6854862119	-3.44857142857	52.3233766234	17.2528
1167	0.5835	9.27968069666	6.44642857143	86.1623376623	31.4048
1168	0.584	3.6564586357	17.755	96.032034632	31.4048
1169	0.5845	5.06226415094	17.755	90.3922077922	27.1592
1170	0.585	3.6564586357	14.9278571429	63.603030303	39.896
1171	0.5855	2.25065312046	14.9278571429	49.5034632035	22.9136
1172	0.586	10.6854862119	6.44642857143	25.5341991342	20.0832
1173	0.5865	14.9029027576	7.86	29.7640692641	20.0832
1174	0.587	16.3087082729	2.20571428571	4.38484848485	20.0832
1175	0.5875	14.9029027576	-2.035	-20.9943722944	1.6856
1176	0.588	7.87387518142	-4.86214285714	-40.7337662338	-18.1272
1177	0.5885	30.3667634253	-13.3435714286	-30.8640692641	-25.2032
1178	0.589	13.4970972424	-18.9978571429	-33.683982684	-37.94
1179	0.5895	13.4970972424	-20.4114285714	-49.1935064935	-33.6944
1180	0.59	16.3087082729	-18.9978571429	-13.9445887446	-30.864
1181	0.5905	10.6854862119	-16.1707142857	-5.48484848485	-19.5424
1182	0.591	10.6854862119	10.6871428571	8.61471861472	1.6856
1183	0.5915	3.6564586357	13.5142857143	22.7142857143	21.4984
1184	0.592	7.87387518142	17.755	24.1242424242	28.5744
1185	0.5925	0.844847605225	20.5821428571	22.7142857143	31.4048
1186	0.593	2.25065312046	21.9957142857	15.6645021645	31.4048
1187	0.5935	3.6564586357	16.3414285714	11.4346320346	7.3464
1188	0.594	7.87387518142	7.86	5.79480519481	8.7616
1189	0.5945	12.0912917271	7.86	-1.25497835498	8.7616
1190	0.595	12.0912917271	6.44642857143	-1.25497835498	7.3464
1191	0.5955	13.4970972424	13.5142857143	4.38484848485	8.7616
1192	0.596	9.27968069666	-3.44857142857	-1.25497835498	-11.0512
1193	0.5965	13.4970972424	-13.3435714286	-11.1246753247	-33.6944
1194	0.597	9.27968069666	-20.4114285714	-15.3545454545	-37.94
1195	0.5975	17.7145137881	-21.825	-18.1744588745	-22.3728
1196	0.598	19.1203193033	-21.825	-12.5346320346	-46.4312
1197	0.5985	17.7145137881	-18.9978571429	-12.5346320346	-19.5424
1198	0.599	17.7145137881	-14.7571428571	-1.25497835498	-13.8816
1199	0.5995	14.9029027576	-13.3435714286	12.8445887446	8.7616
1200	0.6	13.4970972424	31.8907142857	25.5341991342	24.3288
1201	0.6005	12.0912917271	10.6871428571	31.174025974	32.82
1202	0.601	17.7145137881	19.1685714286	32.583982684	31.4048
1203	0.6015	5.06226415094	19.1685714286	33.9939393939	17.2528
1204	0.602	14.9029027576	16.3414285714	28.3541125541	17.2528
1205	0.6025	13.4970972424	9.27357142857	31.174025974	15.8376
1206	0.603	14.9029027576	6.44642857143	19.8943722944	15.8376
1207	0.6035	12.0912917271	7.86	21.3043290043	18.668
1208	0.604	12.0912917271	-4.86214285714	12.8445887446	8.7616
1209	0.6045	16.3087082729	5.03285714286	-8.30476190476	-26.6184
1210	0.605	16.3087082729	-33.1335714286	-28.0441558442	-53.5072
1211	0.6055	34.584179971	-34.5471428571	-40.7337662338	-61.9984
1212	0.606	16.3087082729	-30.3064285714	-25.2242424242	-61.9984
1213	0.6065	21.9319303338	-26.0657142857	-2.66493506494	-29.4488
1214	0.607	17.7145137881	-14.7571428571	2.97489177489	-20.9576
1215	0.6075	19.1203193033	-3.44857142857	19.8943722944	0.2704
1216	0.608	16.3087082729	7.86	26.9441558442	18.668
1217	0.6085	14.9029027576	5.03285714286	31.174025974	27.1592
1218	0.609	12.0912917271	9.27357142857	32.583982684	31.4048
1219	0.6095	12.0912917271	19.1685714286	29.7640692641	25.744
1220	0.61	16.3087082729	17.755	29.7640692641	25.744
1221	0.6105	17.7145137881	9.27357142857	25.5341991342	17.2528
1222	0.611	14.9029027576	6.44642857143	24.1242424242	8.7616
1223	0.6115	14.9029027576	6.44642857143	21.3043290043	17.2528
1224	0.612	16.3087082729	10.6871428571	25.5341991342	18.668
1225	0.6125	13.4970972424	6.44642857143	19.8943722944	10.1768
1226	0.613	16.3087082729	-3.44857142857	14.2545454545	-16.712
1227	0.6135	17.7145137881	-23.2385714286	2.97489177489	-26.6184
1228	0.614	17.7145137881	-24.6521428571	-4.07489177489	-25.2032
1229	0.6145	2.25065312046	-20.4114285714	-6.89480519481	-23.788
1230	0.615	5.06226415094	-13.3435714286	-2.66493506494	-19.5424
1231	0.6155	16.3087082729	-9.10285714286	11.4346320346	-5.3904
1232	0.616	16.3087082729	2.20571428571	5.79480519481	4.516
1233	0.6165	16.3087082729	14.9278571429	43.8636363636	20.0832
1234	0.617	13.4970972424	21.9957142857	28.3541125541	28.5744
1235	0.6175	14.9029027576	21.9957142857	31.174025974	27.1592
1236	0.618	13.4970972424	26.2364285714	24.1242424242	25.744
1237	0.6185	17.7145137881	16.3414285714	21.3043290043	22.9136
1238	0.619	-0.560957910015	13.5142857143	19.8943722944	14.4224
1239	0.6195	30.3667634253	13.5142857143	21.3043290043	15.8376
1240	0.62	5.06226415094	9.27357142857	21.3043290043	13.0072
1241	0.6205	12.0912917271	10.6871428571	24.1242424242	20.0832
1242	0.621	12.0912917271	6.44642857143	25.5341991342	-3.9752
1243	0.6215	14.9029027576	-10.5164285714	-2.66493506494	-22.3728
1244	0.622	16.3087082729	-16.1707142857	-4.07489177489	-30.864
1245	0.6225	16.3087082729	-23.2385714286	-6.89480519481	-32.2792
1246	0.623	14.9029027576	-21.825	-6.89480519481	-29.4488
1247	0.6235	-0.560957910015	-14.7571428571	-1.25497835498	-20.9576
1248	0.624	28.96095791	-7.68928571429	5.79480519481	-11.0512
1249	0.6245	10.6854862119	0.792142857143	15.6645021645	20.0832
1250	0.625	13.4970972424	13.5142857143	29.7640692641	14.4224
1251	0.6255	10.6854862119	20.5821428571	33.9939393939	28.5744
1252	0.626	13.4970972424	20.5821428571	45.2735930736	27.1592
1253	0.6265	13.4970972424	5.03285714286	39.6337662338	22.9136
1254	0.627	13.4970972424	31.8907142857	38.2238095238	17.2528
1255	0.6275	13.4970972424	5.03285714286	35.4038961039	11.592
1256	0.628	17.7145137881	7.86	24.1242424242	10.1768
1257	0.6285	30.3667634253	9.27357142857	17.0744588745	10.1768
1258	0.629	9.27968069666	10.6871428571	12.8445887446	8.7616
1259	0.6295	16.3087082729	2.20571428571	12.8445887446	-20.9576
1260	0.63	16.3087082729	-11.93	15.6645021645	-29.4488
1261	0.6305	16.3087082729	-17.5842857143	-6.89480519481	-33.6944
1262	0.631	14.9029027576	-17.5842857143	-8.30476190476	-29.4488
1263	0.6315	14.9029027576	-23.2385714286	0.154978354978	-29.4488
1264	0.632	14.9029027576	-17.5842857143	4.38484848485	-22.3728
1265	0.6325	0.844847605225	-3.44857142857	8.61471861472	-11.0512
1266	0.633	14.9029027576	6.44642857143	24.1242424242	14.4224
1267	0.6335	14.9029027576	21.9957142857	32.583982684	18.668
1268	0.634	13.4970972424	21.9957142857	25.5341991342	28.5744
1269	0.6345	12.0912917271	17.755	35.4038961039	25.744
1270	0.635	12.0912917271	14.9278571429	19.8943722944	22.9136
1271	0.6355	12.0912917271	9.27357142857	21.3043290043	15.8376
1272	0.636	13.4970972424	13.5142857143	24.1242424242	13.0072
1273	0.6365	16.3087082729	13.5142857143	31.174025974	18.668
1274	0.637	3.6564586357	14.9278571429	33.9939393939	14.4224
1275	0.6375	21.9319303338	2.20571428571	24.1242424242	0.2704
1276	0.638	17.7145137881	-7.68928571429	14.2545454545	-28.0336
1277	0.6385	14.9029027576	-13.3435714286	2.97489177489	-2.56
1278	0.639	14.9029027576	-11.93	-2.66493506494	-19.5424
1279	0.6395	17.7145137881	-11.93	0.154978354978	-20.9576
1280	0.64	16.3087082729	-27.4792857143	4.38484848485	-20.9576
1281	0.6405	17.7145137881	0.792142857143	4.38484848485	-22.3728
1282	0.641	16.3087082729	-17.5842857143	14.2545454545	-6.8056
1283	0.6415	17.7145137881	5.03285714286	24.1242424242	17.2528
1284	0.642	13.4970972424	14.9278571429	21.3043290043	24.3288
1285	0.6425	14.9029027576	13.5142857143	10.0246753247	28.5744
1286	0.643	14.9029027576	10.6871428571	4.38484848485	34.2352
1287	0.6435	12.0912917271	9.27357142857	1.56493506494	15.8376
1288	0.644	13.4970972424	-0.621428571429	4.38484848485	4.516
1289	0.6445	14.9029027576	3.61928571429	17.0744588745	5.9312
1290	0.645	14.9029027576	13.5142857143	19.8943722944	3.1008
1291	0.6455	9.27968069666	-3.44857142857	15.6645021645	3.1008
1292	0.646	3.6564586357	-4.86214285714	11.4346320346	-11.0512
1293	0.6465	17.7145137881	-14.7571428571	12.8445887446	-25.2032
1294	0.647	9.27968069666	-17.5842857143	8.61471861472	-6.8056
1295	0.6475	13.4970972424	-23.2385714286	5.79480519481	-33.6944
1296	0.648	13.4970972424	-27.4792857143	-12.5346320346	-29.4488
1297	0.6485	12.0912917271	-26.0657142857	-4.07489177489	-36.5248
1298	0.649	13.4970972424	-30.3064285714	-19.5844155844	-25.2032
1299	0.6495	16.3087082729	-0.621428571429	-8.30476190476	4.516
1300	0.65	10.6854862119	-3.44857142857	14.2545454545	25.744
1301	0.6505	10.6854862119	7.86	31.174025974	29.9896
1302	0.651	16.3087082729	6.44642857143	49.5034632035	29.9896
1303	0.6515	9.27968069666	2.20571428571	53.7333333333	15.8376
1304	0.652	9.27968069666	0.792142857143	53.7333333333	10.1768
1305	0.6525	12.0912917271	2.20571428571	35.4038961039	34.2352
1306	0.653	9.27968069666	2.20571428571	35.4038961039	20.0832
1307	0.6535	10.6854862119	-6.27571428571	33.9939393939	20.0832
1308	0.654	14.9029027576	-6.27571428571	21.3043290043	10.1768
1309	0.6545	16.3087082729	-7.68928571429	4.38484848485	-13.8816
1310	0.655	19.1203193033	-28.8928571429	-1.25497835498	-29.4488
1311	0.6555	23.3377358491	-37.3742857143	-1.25497835498	-37.94
1312	0.656	20.5261248186	-43.0285714286	0.154978354978	-42.1856
1313	0.6565	20.5261248186	-43.0285714286	4.38484848485	-50.6768
1314	0.657	20.5261248186	-38.7878571429	24.1242424242	-29.4488
1315	0.6575	23.3377358491	-27.4792857143	15.6645021645	-9.636
1316	0.658	20.5261248186	-14.7571428571	25.5341991342	10.1768
1317	0.6585	19.1203193033	-6.27571428571	35.4038961039	21.4984
1318	0.659	13.4970972424	-0.621428571429	19.8943722944	22.9136
1319	0.6595	20.5261248186	2.20571428571	11.4346320346	22.9136
1320	0.66	24.7435413643	5.03285714286	19.8943722944	18.668
1321	0.6605	16.3087082729	-2.035	25.5341991342	27.1592
1322	0.661	19.1203193033	-7.68928571429	25.5341991342	1.6856
1323	0.6615	20.5261248186	-9.10285714286	5.79480519481	7.3464
1324	0.662	20.5261248186	-6.27571428571	26.9441558442	8.7616
1325	0.6625	23.3377358491	-6.27571428571	5.79480519481	1.6856
1326	0.663	26.1493468795	-0.621428571429	0.154978354978	-12.4664
1327	0.6635	27.5551523948	2.20571428571	7.20476190476	-16.712
1328	0.664	23.3377358491	-24.6521428571	7.20476190476	-18.1272
1329	0.6645	26.1493468795	-17.5842857143	2.97489177489	-19.5424
1330	0.665	14.9029027576	-18.9978571429	-1.25497835498	-26.6184
1331	0.6655	23.3377358491	-17.5842857143	0.154978354978	-29.4488
1332	0.666	21.9319303338	-4.86214285714	18.4844155844	1.6856
1333	0.6665	17.7145137881	16.3414285714	25.5341991342	21.4984
1334	0.667	19.1203193033	21.9957142857	36.8138528139	29.9896
1335	0.6675	20.5261248186	31.8907142857	49.5034632035	31.4048
1336	0.668	17.7145137881	17.755	60.7831168831	32.82
1337	0.6685	21.9319303338	23.4092857143	57.9632034632	25.744
1338	0.669	23.3377358491	17.755	39.6337662338	20.0832
1339	0.6695	19.1203193033	14.9278571429	18.4844155844	22.9136
1340	0.67	23.3377358491	17.755	-12.5346320346	27.1592
1341	0.6705	21.9319303338	16.3414285714	-43.5536796537	7.3464
1342	0.671	21.9319303338	5.03285714286	-50.6034632035	-8.2208
1343	0.6715	19.1203193033	-7.68928571429	-44.9636363636	-20.9576
1344	0.672	17.7145137881	-0.621428571429	-22.4043290043	-22.3728
1345	0.6725	12.0912917271	-17.5842857143	-4.07489177489	-28.0336
1346	0.673	12.0912917271	-16.1707142857	2.97489177489	-37.94
1347	0.6735	16.3087082729	-18.9978571429	1.56493506494	-50.6768
1348	0.674	14.9029027576	-11.93	-1.25497835498	-6.8056
1349	0.6745	12.0912917271	0.792142857143	-8.30476190476	-2.56
1350	0.675	10.6854862119	19.1685714286	2.97489177489	21.4984
1351	0.6755	10.6854862119	24.8228571429	-6.89480519481	27.1592
1352	0.676	12.0912917271	26.2364285714	12.8445887446	29.9896
1353	0.6765	16.3087082729	38.9585714286	18.4844155844	25.744
1354	0.677	12.0912917271	6.44642857143	4.38484848485	13.0072
1355	0.6775	16.3087082729	10.6871428571	-8.30476190476	4.516
1356	0.678	19.1203193033	9.27357142857	-6.89480519481	-5.3904
1357	0.6785	19.1203193033	13.5142857143	-8.30476190476	22.9136
1358	0.679	20.5261248186	10.6871428571	-2.66493506494	-3.9752
1359	0.6795	17.7145137881	0.792142857143	-16.7645021645	-16.712
1360	0.68	20.5261248186	-11.93	-2.66493506494	-43.6008
1361	0.6805	21.9319303338	-28.8928571429	-39.3238095238	-56.3376
1362	0.681	28.96095791	-4.86214285714	-35.0939393939	-46.4312
1363	0.6815	23.3377358491	-23.2385714286	-30.8640692641	-45.016
1364	0.682	26.1493468795	-11.93	-26.6341991342	-33.6944
1365	0.6825	17.7145137881	2.20571428571	0.154978354978	-13.8816
1366	0.683	20.5261248186	21.9957142857	15.6645021645	35.6504
1367	0.6835	17.7145137881	31.8907142857	25.5341991342	35.6504
1368	0.684	20.5261248186	31.8907142857	15.6645021645	31.4048
1369	0.6845	19.1203193033	26.2364285714	26.9441558442	31.4048
1370	0.685	19.1203193033	24.8228571429	24.1242424242	28.5744
1371	0.6855	21.9319303338	41.7857142857	19.8943722944	18.668
1372	0.686	17.7145137881	19.1685714286	19.8943722944	20.0832
1373	0.6865	14.9029027576	23.4092857143	15.6645021645	20.0832
1374	0.687	20.5261248186	21.9957142857	18.4844155844	15.8376
1375	0.6875	17.7145137881	20.5821428571	15.6645021645	22.9136
1376	0.688	19.1203193033	2.20571428571	8.61471861472	-29.4488
1377	0.6885	23.3377358491	-14.7571428571	-11.1246753247	-29.4488
1378	0.689	21.9319303338	-21.825	-13.9445887446	-45.016
1379	0.6895	19.1203193033	-13.3435714286	-12.5346320346	-37.94
1380	0.69	23.3377358491	-21.825	-1.25497835498	-22.3728
1381	0.6905	20.5261248186	2.20571428571	12.8445887446	-6.8056
1382	0.691	5.06226415094	9.27357142857	22.7142857143	10.1768
1383	0.6915	35.9899854862	23.4092857143	29.7640692641	25.744
1384	0.692	12.0912917271	29.0635714286	36.8138528139	37.0656
1385	0.6925	19.1203193033	31.8907142857	32.583982684	46.972
1386	0.693	19.1203193033	30.4771428571	19.8943722944	27.1592
1387	0.6935	17.7145137881	29.0635714286	5.79480519481	29.9896
1388	0.694	19.1203193033	30.4771428571	2.97489177489	28.5744
1389	0.6945	17.7145137881	26.2364285714	14.2545454545	25.744
1390	0.695	14.9029027576	29.0635714286	26.9441558442	24.3288
1391	0.6955	13.4970972424	27.65	29.7640692641	25.744
1392	0.696	34.584179971	23.4092857143	19.8943722944	5.9312
1393	0.6965	13.4970972424	2.20571428571	4.38484848485	-16.712
1394	0.697	16.3087082729	-7.68928571429	-4.07489177489	-11.0512
1395	0.6975	20.5261248186	-11.93	-6.89480519481	-32.2792
1396	0.698	19.1203193033	-10.5164285714	-8.30476190476	-23.788
1397	0.6985	19.1203193033	-6.27571428571	-2.66493506494	-19.5424
1398	0.699	19.1203193033	-7.68928571429	5.79480519481	-6.8056
1399	0.6995	20.5261248186	16.3414285714	24.1242424242	20.0832
1400	0.7	14.9029027576	19.1685714286	41.0437229437	32.82
1401	0.7005	12.0912917271	31.8907142857	38.2238095238	37.0656
1402	0.701	13.4970972424	29.0635714286	36.8138528139	31.4048
1403	0.7015	14.9029027576	29.0635714286	32.583982684	32.82
1404	0.702	16.3087082729	27.65	42.4536796537	25.744
1405	0.7025	14.9029027576	24.8228571429	21.3043290043	21.4984
1406	0.703	16.3087082729	24.8228571429	29.7640692641	18.668
1407	0.7035	16.3087082729	16.3414285714	32.583982684	21.4984
1408	0.704	14.9029027576	14.9278571429	24.1242424242	13.0072
1409	0.7045	17.7145137881	12.1007142857	7.20476190476	-9.636
1410	0.705	27.5551523948	-7.68928571429	-2.66493506494	-29.4488
1411	0.7055	35.9899854862	-14.7571428571	-5.48484848485	-33.6944
1412	0.706	17.7145137881	-16.1707142857	-8.30476190476	-37.94
1413	0.7065	16.3087082729	-14.7571428571	18.4844155844	-30.864
1414	0.707	16.3087082729	-9.10285714286	-1.25497835498	-19.5424
1415	0.7075	16.3087082729	2.20571428571	18.4844155844	-2.56
1416	0.708	16.3087082729	7.86	31.174025974	21.4984
1417	0.7085	14.9029027576	19.1685714286	35.4038961039	31.4048
1418	0.709	14.9029027576	31.8907142857	29.7640692641	34.2352
1419	0.7095	9.27968069666	31.8907142857	31.174025974	31.4048
1420	0.71	27.5551523948	34.7178571429	32.583982684	32.82
1421	0.7105	16.3087082729	30.4771428571	39.6337662338	13.0072
1422	0.711	19.1203193033	26.2364285714	35.4038961039	29.9896
1423	0.7115	17.7145137881	29.0635714286	45.2735930736	20.0832
1424	0.712	16.3087082729	26.2364285714	24.1242424242	22.9136
1425	0.7125	13.4970972424	13.5142857143	21.3043290043	5.9312
1426	0.713	19.1203193033	24.8228571429	5.79480519481	-15.2968
1427	0.7135	14.9029027576	-10.5164285714	-1.25497835498	-30.864
1428	0.714	27.5551523948	-6.27571428571	0.154978354978	-23.788
1429	0.7145	5.06226415094	-7.68928571429	7.20476190476	-22.3728
1430	0.715	3.6564586357	-0.621428571429	11.4346320346	-6.8056
1431	0.7155	14.9029027576	3.61928571429	14.2545454545	-11.0512
1432	0.716	12.0912917271	9.27357142857	5.79480519481	5.9312
1433	0.7165	10.6854862119	23.4092857143	39.6337662338	32.82
1434	0.717	10.6854862119	17.755	43.8636363636	39.896
1435	0.7175	13.4970972424	31.8907142857	41.0437229437	37.0656
1436	0.718	5.06226415094	31.8907142857	41.0437229437	37.0656
1437	0.7185	3.6564586357	29.0635714286	39.6337662338	31.4048
1438	0.719	28.96095791	26.2364285714	36.8138528139	28.5744
1439	0.7195	14.9029027576	26.2364285714	39.6337662338	28.5744
1440	0.72	13.4970972424	23.4092857143	36.8138528139	21.4984
1441	0.7205	16.3087082729	23.4092857143	52.3233766234	22.9136
1442	0.721	19.1203193033	16.3414285714	52.3233766234	3.1008
1443	0.7215	20.5261248186	0.792142857143	21.3043290043	-11.0512
1444	0.722	23.3377358491	0.792142857143	26.9441558442	-5.3904
1445	0.7225	20.5261248186	-6.27571428571	25.5341991342	-6.8056
1446	0.723	9.27968069666	-2.035	21.3043290043	-8.2208
1447	0.7235	33.1783744557	0.792142857143	21.3043290043	-6.8056
1448	0.724	20.5261248186	-2.035	21.3043290043	-12.4664
1449	0.7245	21.9319303338	6.44642857143	24.1242424242	29.9896
1450	0.725	21.9319303338	21.9957142857	33.9939393939	21.4984
1451	0.7255	19.1203193033	24.8228571429	35.4038961039	34.2352
1452	0.726	17.7145137881	27.65	35.4038961039	35.6504
1453	0.7265	17.7145137881	17.755	32.583982684	31.4048
1454	0.727	16.3087082729	29.0635714286	36.8138528139	22.9136
1455	0.7275	21.9319303338	13.5142857143	32.583982684	18.668
1456	0.728	17.7145137881	9.27357142857	31.174025974	18.668
1457	0.7285	17.7145137881	13.5142857143	31.174025974	21.4984
1458	0.729	20.5261248186	12.1007142857	32.583982684	5.9312
1459	0.7295	23.3377358491	3.61928571429	26.9441558442	-2.56
1460	0.73	17.7145137881	-6.27571428571	18.4844155844	-5.3904
1461	0.7305	21.9319303338	-2.035	8.61471861472	-6.8056
1462	0.731	19.1203193033	-9.10285714286	4.38484848485	-8.2208
1463	0.7315	20.5261248186	-10.5164285714	4.38484848485	-13.8816
1464	0.732	26.1493468795	-9.10285714286	12.8445887446	-9.636
1465	0.7325	34.584179971	-0.621428571429	25.5341991342	3.1008
1466	0.733	16.3087082729	14.9278571429	39.6337662338	34.2352
1467	0.7335	19.1203193033	26.2364285714	36.8138528139	55.4632
1468	0.734	19.1203193033	27.65	33.9939393939	45.5568
1469	0.7345	19.1203193033	26.2364285714	25.5341991342	39.896
1470	0.735	14.9029027576	26.2364285714	38.2238095238	38.4808
1471	0.7355	17.7145137881	16.3414285714	35.4038961039	31.4048
1472	0.736	16.3087082729	14.9278571429	32.583982684	29.9896
1473	0.7365	17.7145137881	23.4092857143	29.7640692641	29.9896
1474	0.737	10.6854862119	23.4092857143	29.7640692641	28.5744
1475	0.7375	19.1203193033	19.1685714286	22.7142857143	31.4048
1476	0.738	19.1203193033	7.86	11.4346320346	-2.56
1477	0.7385	19.1203193033	2.20571428571	4.38484848485	-5.3904
1478	0.739	21.9319303338	2.20571428571	33.9939393939	1.6856
1479	0.7395	19.1203193033	0.792142857143	15.6645021645	0.2704
1480	0.74	23.3377358491	16.3414285714	15.6645021645	-1.1448
1481	0.7405	20.5261248186	-10.5164285714	7.20476190476	-1.1448
1482	0.741	23.3377358491	2.20571428571	14.2545454545	10.1768
1483	0.7415	10.6854862119	17.755	26.9441558442	31.4048
1484	0.742	7.87387518142	26.2364285714	32.583982684	38.4808
1485	0.7425	17.7145137881	26.2364285714	33.9939393939	38.4808
1486	0.743	17.7145137881	26.2364285714	33.9939393939	54.048
1487	0.7435	16.3087082729	21.9957142857	19.8943722944	29.9896
1488	0.744	17.7145137881	16.3414285714	14.2545454545	22.9136
1489	0.7445	19.1203193033	9.27357142857	1.56493506494	20.0832
1490	0.745	20.5261248186	21.9957142857	14.2545454545	22.9136
1491	0.7455	3.6564586357	14.9278571429	17.0744588745	24.3288
1492	0.746	12.0912917271	7.86	11.4346320346	10.1768
1493	0.7465	19.1203193033	0.792142857143	5.79480519481	-1.1448
1494	0.747	17.7145137881	-3.44857142857	1.56493506494	0.2704
1495	0.7475	17.7145137881	-4.86214285714	0.154978354978	-1.1448
1496	0.748	19.1203193033	-2.035	-15.3545454545	-2.56
1497	0.7485	20.5261248186	-7.68928571429	-9.71471861472	-3.9752
1498	0.749	21.9319303338	-14.7571428571	1.56493506494	-5.3904
1499	0.7495	17.7145137881	-6.27571428571	15.6645021645	17.2528
1500	0.75	19.1203193033	23.4092857143	24.1242424242	35.6504
1501	0.7505	26.1493468795	27.65	25.5341991342	42.7264
1502	0.751	12.0912917271	30.4771428571	24.1242424242	38.4808
1503	0.7515	9.27968069666	27.65	29.7640692641	31.4048
1504	0.752	19.1203193033	21.9957142857	26.9441558442	34.2352
1505	0.7525	21.9319303338	19.1685714286	32.583982684	28.5744
1506	0.753	19.1203193033	16.3414285714	10.0246753247	29.9896
1507	0.7535	16.3087082729	12.1007142857	14.2545454545	28.5744
1508	0.754	14.9029027576	5.03285714286	8.61471861472	21.4984
1509	0.7545	23.3377358491	-0.621428571429	-1.25497835498	5.9312
1510	0.755	17.7145137881	-4.86214285714	-2.66493506494	3.1008
1511	0.7555	35.9899854862	-10.5164285714	-4.07489177489	0.2704
1512	0.756	9.27968069666	-17.5842857143	-12.5346320346	-15.2968
1513	0.7565	19.1203193033	-27.4792857143	-25.2242424242	-22.3728
1514	0.757	21.9319303338	-31.72	-9.71471861472	-26.6184
1515	0.7575	19.1203193033	-18.9978571429	-18.1744588745	-2.56
1516	0.758	17.7145137881	2.20571428571	0.154978354978	24.3288
1517	0.7585	14.9029027576	26.2364285714	8.61471861472	37.0656
1518	0.759	14.9029027576	5.03285714286	17.0744588745	41.3112
1519	0.7595	7.87387518142	16.3414285714	19.8943722944	42.7264
1520	0.76	30.3667634253	6.44642857143	18.4844155844	41.3112
1521	0.7605	13.4970972424	6.44642857143	15.6645021645	29.9896
1522	0.761	16.3087082729	7.86	-1.25497835498	29.9896
1523	0.7615	14.9029027576	7.86	31.174025974	32.82
1524	0.762	16.3087082729	9.27357142857	29.7640692641	31.4048
1525	0.7625	16.3087082729	0.792142857143	15.6645021645	22.9136
1526	0.763	16.3087082729	9.27357142857	17.0744588745	5.9312
1527	0.7635	17.7145137881	-17.5842857143	19.8943722944	-6.8056
1528	0.764	24.7435413643	-20.4114285714	19.8943722944	-13.8816
1529	0.7645	10.6854862119	-27.4792857143	0.154978354978	-35.1096
1530	0.765	17.7145137881	-30.3064285714	-18.1744588745	-13.8816
1531	0.7655	16.3087082729	-20.4114285714	-4.07489177489	-13.8816
1532	0.766	16.3087082729	-0.621428571429	31.174025974	21.4984
1533	0.7665	14.9029027576	16.3414285714	25.5341991342	39.896
1534	0.767	12.0912917271	24.8228571429	29.7640692641	45.5568
1535	0.7675	12.0912917271	13.5142857143	33.9939393939	42.7264
1536	0.768	13.4970972424	17.755	36.8138528139	45.5568
1537	0.7685	2.25065312046	21.9957142857	41.0437229437	38.4808
1538	0.769	-1.96676342525	14.9278571429	36.8138528139	31.4048
1539	0.7695	10.6854862119	10.6871428571	26.9441558442	38.4808
1540	0.77	13.4970972424	10.6871428571	8.61471861472	28.5744
1541	0.7705	13.4970972424	13.5142857143	0.154978354978	22.9136
1542	0.771	10.6854862119	5.03285714286	14.2545454545	15.8376
1543	0.7715	13.4970972424	-4.86214285714	4.38484848485	-6.8056
1544	0.772	16.3087082729	-4.86214285714	-2.66493506494	-19.5424
1545	0.7725	17.7145137881	-30.3064285714	-6.89480519481	-22.3728
1546	0.773	17.7145137881	-23.2385714286	1.56493506494	-20.9576
1547	0.7735	2.25065312046	-21.825	12.8445887446	-11.0512
1548	0.774	3.6564586357	-9.10285714286	22.7142857143	7.3464
1549	0.7745	13.4970972424	3.61928571429	41.0437229437	18.668
1550	0.775	12.0912917271	21.9957142857	67.8329004329	39.896
1551	0.7755	5.06226415094	30.4771428571	80.5225108225	44.1416
1552	0.776	7.87387518142	29.0635714286	60.7831168831	42.7264
1553	0.7765	9.27968069666	29.0635714286	57.9632034632	34.2352
1554	0.777	12.0912917271	21.9957142857	48.0935064935	29.9896
1555	0.7775	-3.37256894049	20.5821428571	24.1242424242	31.4048
1556	0.778	19.1203193033	21.9957142857	15.6645021645	28.5744
1557	0.7785	5.06226415094	21.9957142857	24.1242424242	37.0656
1558	0.779	7.87387518142	19.1685714286	33.9939393939	37.0656
1559	0.7795	7.87387518142	6.44642857143	38.2238095238	5.9312
1560	0.78	10.6854862119	-11.93	26.9441558442	-12.4664
1561	0.7805	7.87387518142	-23.2385714286	28.3541125541	-18.1272
1562	0.781	7.87387518142	-23.2385714286	12.8445887446	-20.9576
1563	0.7815	13.4970972424	-20.4114285714	4.38484848485	-19.5424
1564	0.782	7.87387518142	-16.1707142857	12.8445887446	-8.2208
1565	0.7825	16.3087082729	-3.44857142857	26.9441558442	14.4224
1566	0.783	3.6564586357	9.27357142857	41.0437229437	27.1592
1567	0.7835	2.25065312046	20.5821428571	63.603030303	44.1416
1568	0.784	7.87387518142	23.4092857143	79.1125541126	44.1416
1569	0.7845	3.6564586357	23.4092857143	69.2428571429	45.5568
1570	0.785	5.06226415094	16.3414285714	73.4727272727	39.896
1571	0.7855	3.6564586357	7.86	59.3731601732	31.4048
1572	0.786	12.0912917271	10.6871428571	49.5034632035	31.4048
1573	0.7865	14.9029027576	10.6871428571	43.8636363636	29.9896
1574	0.787	24.7435413643	12.1007142857	46.6835497835	31.4048
1575	0.7875	0.844847605225	5.03285714286	49.5034632035	15.8376
1576	0.788	9.27968069666	-7.68928571429	42.4536796537	-12.4664
1577	0.7885	5.06226415094	-21.825	43.8636363636	-25.2032
1578	0.789	7.87387518142	-31.72	8.61471861472	-36.5248
1579	0.7895	10.6854862119	-34.5471428571	-12.5346320346	-36.5248
1580	0.79	10.6854862119	-16.1707142857	-6.89480519481	-26.6184
1581	0.7905	9.27968069666	-24.6521428571	19.8943722944	-11.0512
1582	0.791	9.27968069666	-6.27571428571	52.3233766234	13.0072
1583	0.7915	9.27968069666	7.86	73.4727272727	34.2352
1584	0.792	2.25065312046	17.755	76.2926406926	58.2936
1585	0.7925	7.87387518142	16.3414285714	84.7523809524	41.3112
1586	0.793	7.87387518142	14.9278571429	83.3424242424	42.7264
1587	0.7935	10.6854862119	9.27357142857	81.9324675325	37.0656
1588	0.794	17.7145137881	9.27357142857	81.9324675325	24.3288
1589	0.7945	17.7145137881	17.755	83.3424242424	24.3288
1590	0.795	19.1203193033	0.792142857143	77.7025974026	22.9136
1591	0.7955	7.87387518142	3.61928571429	67.8329004329	22.9136
1592	0.796	28.96095791	-6.27571428571	53.7333333333	1.6856
1593	0.7965	12.0912917271	-23.2385714286	38.2238095238	-18.1272
1594	0.797	14.9029027576	-38.7878571429	32.583982684	-53.5072
1595	0.7975	16.3087082729	-43.0285714286	41.0437229437	-50.6768
1596	0.798	17.7145137881	-38.7878571429	19.8943722944	-39.3552
1597	0.7985	16.3087082729	-20.4114285714	1.56493506494	-30.864
1598	0.799	14.9029027576	5.03285714286	-2.66493506494	-11.0512
1599	0.7995	12.0912917271	30.4771428571	19.8943722944	21.4984
1600	0.8	9.27968069666	9.27357142857	50.9134199134	38.4808
1601	0.8005	-1.96676342525	13.5142857143	65.012987013	41.3112
1602	0.801	23.3377358491	9.27357142857	73.4727272727	35.6504
1603	0.8015	12.0912917271	6.44642857143	72.0627705628	54.048
1604	0.802	12.0912917271	6.44642857143	70.6528138528	25.744
1605	0.8025	12.0912917271	2.20571428571	70.6528138528	29.9896
1606	0.803	13.4970972424	3.61928571429	81.9324675325	32.82
1607	0.8035	10.6854862119	0.792142857143	81.9324675325	32.82
1608	0.804	14.9029027576	14.9278571429	76.2926406926	22.9136
1609	0.8045	-0.560957910015	-7.68928571429	59.3731601732	-1.1448
1610	0.805	7.87387518142	-23.2385714286	41.0437229437	-25.2032
1611	0.8055	23.3377358491	-27.4792857143	39.6337662338	-39.3552
1612	0.806	14.9029027576	-30.3064285714	41.0437229437	-11.0512
1613	0.8065	16.3087082729	-28.8928571429	43.8636363636	-28.0336
1614	0.807	16.3087082729	-20.4114285714	49.5034632035	-11.0512
1615	0.8075	16.3087082729	-13.3435714286	70.6528138528	1.6856
1616	0.808	16.3087082729	5.03285714286	69.2428571429	27.1592
1617	0.8085	16.3087082729	21.9957142857	73.4727272727	34.2352
1618	0.809	21.9319303338	16.3414285714	73.4727272727	38.4808
1619	0.8095	0.844847605225	14.9278571429	74.8826839827	35.6504
1620	0.81	16.3087082729	16.3414285714	73.4727272727	41.3112
1621	0.8105	19.1203193033	9.27357142857	73.4727272727	32.82
1622	0.811	16.3087082729	7.86	57.9632034632	20.0832
1623	0.8115	14.9029027576	7.86	77.7025974026	18.668
1624	0.812	16.3087082729	10.6871428571	62.1930735931	22.9136
1625	0.8125	17.7145137881	24.8228571429	59.3731601732	15.8376
1626	0.813	14.9029027576	-13.3435714286	46.6835497835	-3.9752
1627	0.8135	10.6854862119	-23.2385714286	38.2238095238	-19.5424
1628	0.814	28.96095791	-23.2385714286	39.6337662338	-11.0512
1629	0.8145	3.6564586357	-17.5842857143	41.0437229437	-15.2968
1630	0.815	10.6854862119	-18.9978571429	43.8636363636	-8.2208
1631	0.8155	10.6854862119	-16.1707142857	48.0935064935	-9.636
1632	0.816	12.0912917271	-4.86214285714	45.2735930736	14.4224
1633	0.8165	9.27968069666	9.27357142857	62.1930735931	32.82
1634	0.817	7.87387518142	33.3042857143	72.0627705628	41.3112
1635	0.8175	9.27968069666	13.5142857143	74.8826839827	39.896
1636	0.818	10.6854862119	19.1685714286	77.7025974026	41.3112
1637	0.8185	0.844847605225	17.755	70.6528138528	38.4808
1638	0.819	0.844847605225	9.27357142857	66.4229437229	49.8024
1639	0.8195	2.25065312046	10.6871428571	65.012987013	28.5744
1640	0.82	0.844847605225	3.61928571429	53.7333333333	27.1592
1641	0.8205	2.25065312046	3.61928571429	79.1125541126	28.5744
1642	0.821	5.06226415094	-7.68928571429	55.1432900433	4.516
1643	0.8215	3.6564586357	-2.035	48.0935064935	-11.0512
1644	0.822	10.6854862119	-21.825	42.4536796537	-16.712
1645	0.8225	3.6564586357	-23.2385714286	41.0437229437	-16.712
1646	0.823	0.844847605225	-27.4792857143	39.6337662338	-22.3728
1647	0.8235	-3.37256894049	-26.0657142857	38.2238095238	-23.788
1648	0.824	3.6564586357	-21.825	43.8636363636	-3.9752
1649	0.8245	-0.560957910015	-11.93	48.0935064935	15.8376
1650	0.825	-1.96676342525	0.792142857143	69.2428571429	34.2352
1651	0.8255	-0.560957910015	-4.86214285714	73.4727272727	38.4808
1652	0.826	0.844847605225	24.8228571429	73.4727272727	37.0656
1653	0.8265	0.844847605225	9.27357142857	77.7025974026	34.2352
1654	0.827	-8.99579100145	-0.621428571429	72.0627705628	24.3288
1655	0.8275	7.87387518142	-10.5164285714	70.6528138528	8.7616
1656	0.828	2.25065312046	-9.10285714286	60.7831168831	32.82
1657	0.8285	0.844847605225	-10.5164285714	57.9632034632	15.8376
1658	0.829	0.844847605225	-6.27571428571	52.3233766234	10.1768
1659	0.8295	2.25065312046	-18.9978571429	48.0935064935	-8.2208
1660	0.83	3.6564586357	-35.9607142857	29.7640692641	-28.0336
1661	0.8305	9.27968069666	-26.0657142857	15.6645021645	-32.2792
1662	0.831	10.6854862119	-38.7878571429	15.6645021645	-30.864
1663	0.8315	3.6564586357	-38.7878571429	19.8943722944	-32.2792
1664	0.832	-1.96676342525	-38.7878571429	26.9441558442	-29.4488
1665	0.8325	-6.18417997097	-30.3064285714	41.0437229437	-9.636
1666	0.833	-0.560957910015	-13.3435714286	73.4727272727	22.9136
1667	0.8335	-1.96676342525	-0.621428571429	66.4229437229	37.0656
1668	0.834	-1.96676342525	5.03285714286	62.1930735931	35.6504
1669	0.8345	-4.77837445573	-6.27571428571	62.1930735931	37.0656
1670	0.835	-4.77837445573	-4.86214285714	53.7333333333	32.82
1671	0.8355	-1.96676342525	-0.621428571429	43.8636363636	22.9136
1672	0.836	-16.0248185776	-6.27571428571	43.8636363636	21.4984
1673	0.8365	2.25065312046	-4.86214285714	53.7333333333	21.4984
1674	0.837	-3.37256894049	-2.035	62.1930735931	15.8376
1675	0.8375	-3.37256894049	-7.68928571429	55.1432900433	10.1768
1676	0.838	-4.77837445573	-24.6521428571	56.5532467532	-28.0336
1677	0.8385	-1.96676342525	-37.3742857143	15.6645021645	-36.5248
1678	0.839	-0.560957910015	-34.5471428571	-1.25497835498	-40.7704
1679	0.8395	3.6564586357	-47.2692857143	-4.07489177489	-52.092
1680	0.84	7.87387518142	-50.0964285714	-6.89480519481	-54.9224
1681	0.8405	7.87387518142	-44.4421428571	26.9441558442	-20.9576
1682	0.841	-3.37256894049	-18.9978571429	52.3233766234	17.2528
1683	0.8415	-4.77837445573	-4.86214285714	66.4229437229	20.0832
1684	0.842	-4.77837445573	2.20571428571	65.012987013	32.82
1685	0.8425	-6.18417997097	0.792142857143	52.3233766234	29.9896
1686	0.843	-6.18417997097	-4.86214285714	59.3731601732	29.9896
1687	0.8435	-3.37256894049	13.5142857143	57.9632034632	24.3288
1688	0.844	-3.37256894049	-13.3435714286	57.9632034632	21.4984
1689	0.8445	0.844847605225	-2.035	57.9632034632	24.3288
1690	0.845	-11.8074020319	-4.86214285714	60.7831168831	31.4048
1691	0.8455	-4.77837445573	-4.86214285714	59.3731601732	28.5744
1692	0.846	-4.77837445573	-11.93	45.2735930736	0.2704
1693	0.8465	-3.37256894049	-31.72	26.9441558442	-28.0336
1694	0.847	0.844847605225	-55.7507142857	22.7142857143	-46.4312
1695	0.8475	-0.560957910015	-64.2321428571	19.8943722944	-46.4312
1696	0.848	-1.96676342525	-52.9235714286	19.8943722944	-39.3552
1697	0.8485	-4.77837445573	-43.0285714286	28.3541125541	-22.3728
1698	0.849	-10.4015965167	-31.72	39.6337662338	-2.56
1699	0.8495	-6.18417997097	-14.7571428571	55.1432900433	21.4984
1700	0.85	0.844847605225	-4.86214285714	63.603030303	25.744
1701	0.8505	0.844847605225	-0.621428571429	55.1432900433	32.82
1702	0.851	-0.560957910015	-0.621428571429	65.012987013	31.4048
1703	0.8515	-0.560957910015	-13.3435714286	63.603030303	31.4048
1704	0.852	0.844847605225	7.86	59.3731601732	24.3288
1705	0.8525	-0.560957910015	-11.93	56.5532467532	21.4984
1706	0.853	10.6854862119	-9.10285714286	55.1432900433	21.4984
1707	0.8535	10.6854862119	-10.5164285714	56.5532467532	20.0832
1708	0.854	7.87387518142	-9.10285714286	48.0935064935	21.4984
1709	0.8545	5.06226415094	-21.825	31.174025974	-5.3904
1710	0.855	2.25065312046	-38.7878571429	31.174025974	-26.6184
1711	0.8555	-0.560957910015	-37.3742857143	32.583982684	-25.2032
1712	0.856	-0.560957910015	-44.4421428571	35.4038961039	-22.3728
1713	0.8565	2.25065312046	-41.615	33.9939393939	-18.1272
1714	0.857	-3.37256894049	-44.4421428571	35.4038961039	-11.0512
1715	0.8575	5.06226415094	-30.3064285714	42.4536796537	3.1008
1716	0.858	-7.58998548621	-16.1707142857	49.5034632035	13.0072
1717	0.8585	-1.96676342525	-7.68928571429	55.1432900433	38.4808
1718	0.859	-3.37256894049	-7.68928571429	62.1930735931	45.5568
1719	0.8595	-3.37256894049	-6.27571428571	53.7333333333	32.82
1720	0.86	-3.37256894049	-4.86214285714	59.3731601732	31.4048
1721	0.8605	-0.560957910015	-23.2385714286	57.9632034632	27.1592
1722	0.861	2.25065312046	-21.825	59.3731601732	21.4984
1723	0.8615	-1.96676342525	-23.2385714286	57.9632034632	22.9136
1724	0.862	-1.96676342525	-13.3435714286	56.5532467532	21.4984
1725	0.8625	-6.18417997097	-16.1707142857	43.8636363636	1.6856
1726	0.863	-3.37256894049	-33.1335714286	32.583982684	-13.8816
1727	0.8635	2.25065312046	-45.8557142857	12.8445887446	-35.1096
1728	0.864	0.844847605225	-48.6828571429	17.0744588745	-36.5248
1729	0.8645	2.25065312046	-52.9235714286	15.6645021645	-30.864
1730	0.865	3.6564586357	-54.3371428571	28.3541125541	-25.2032
1731	0.8655	0.844847605225	-45.8557142857	26.9441558442	-15.2968
1732	0.866	2.25065312046	-34.5471428571	26.9441558442	4.516
1733	0.8665	3.6564586357	-17.5842857143	39.6337662338	18.668
1734	0.867	0.844847605225	-7.68928571429	49.5034632035	32.82
1735	0.8675	2.25065312046	-4.86214285714	65.012987013	29.9896
1736	0.868	2.25065312046	-6.27571428571	67.8329004329	48.3872
1737	0.8685	3.6564586357	-2.035	66.4229437229	28.5744
1738	0.869	3.6564586357	-7.68928571429	65.012987013	22.9136
1739	0.8695	3.6564586357	-10.5164285714	65.012987013	21.4984
1740	0.87	2.25065312046	-21.825	66.4229437229	22.9136
1741	0.8705	-1.96676342525	-13.3435714286	66.4229437229	15.8376
1742	0.871	-1.96676342525	-21.825	52.3233766234	-6.8056
1743	0.8715	5.06226415094	-38.7878571429	38.2238095238	-30.864
1744	0.872	2.25065312046	-50.0964285714	29.7640692641	-47.8464
1745	0.8725	9.27968069666	-54.3371428571	25.5341991342	-40.7704
1746	0.873	3.6564586357	-44.4421428571	42.4536796537	-35.1096
1747	0.8735	3.6564586357	-52.9235714286	57.9632034632	-22.3728
1748	0.874	0.844847605225	-35.9607142857	76.2926406926	-9.636
1749	0.8745	-3.37256894049	-35.9607142857	90.3922077922	10.1768
1750	0.875	9.27968069666	-10.5164285714	104.491774892	31.4048
1751	0.8755	-11.8074020319	-4.86214285714	111.541558442	25.744
1752	0.876	-1.96676342525	-3.44857142857	117.181385281	35.6504
1753	0.8765	-0.560957910015	-2.035	117.181385281	48.3872
1754	0.877	-3.37256894049	-10.5164285714	110.131601732	20.0832
1755	0.8775	-3.37256894049	-11.93	121.411255411	15.8376
1756	0.878	-0.560957910015	-16.1707142857	129.870995671	18.668
1757	0.8785	-0.560957910015	-18.9978571429	127.051082251	14.4224
1758	0.879	-10.4015965167	-11.93	114.361471861	7.3464
1759	0.8795	-3.37256894049	-26.0657142857	84.7523809524	-28.0336
1760	0.88	-0.560957910015	-34.5471428571	38.2238095238	-45.016
1761	0.8805	3.6564586357	-13.3435714286	0.154978354978	-57.7528
1762	0.881	3.6564586357	-17.5842857143	-5.48484848485	-32.2792
1763	0.8815	3.6564586357	-35.9607142857	7.20476190476	-33.6944
1764	0.882	3.6564586357	-35.9607142857	-6.89480519481	-16.712
1765	0.8825	0.844847605225	-17.5842857143	-13.9445887446	-3.9752
1766	0.883	0.844847605225	-28.8928571429	-15.3545454545	15.8376
1767	0.8835	-0.560957910015	-9.10285714286	-13.9445887446	28.5744
1768	0.884	-1.96676342525	-4.86214285714	-15.3545454545	20.0832
1769	0.8845	3.6564586357	-3.44857142857	-15.3545454545	35.6504
1770	0.885	0.844847605225	-2.035	-18.1744588745	17.2528
1771	0.8855	0.844847605225	-3.44857142857	-33.683982684	22.9136
1772	0.886	3.6564586357	-6.27571428571	-40.7337662338	22.9136
1773	0.8865	3.6564586357	-21.825	-47.7835497835	24.3288
1774	0.887	2.25065312046	-16.1707142857	-52.0134199134	25.744
1775	0.8875	3.6564586357	-6.27571428571	-56.2432900433	7.3464
1776	0.888	-8.99579100145	-26.0657142857	-68.9329004329	-18.1272
1777	0.8885	10.6854862119	-40.2014285714	-68.9329004329	-33.6944
1778	0.889	0.844847605225	-40.2014285714	-67.5229437229	-19.5424
1779	0.8895	2.25065312046	-37.3742857143	-70.3428571429	-9.636
1780	0.89	2.25065312046	-33.1335714286	-60.4731601732	-19.5424
1781	0.8905	0.844847605225	-33.1335714286	-77.3926406926	-11.0512
1782	0.891	3.6564586357	-24.6521428571	-63.2930735931	7.3464
1783	0.8915	5.06226415094	7.86	-50.6034632035	27.1592
1784	0.892	0.844847605225	-0.621428571429	-43.5536796537	37.0656
1785	0.8925	-10.4015965167	0.792142857143	-40.7337662338	38.4808
1786	0.893	17.7145137881	0.792142857143	-40.7337662338	35.6504
1787	0.8935	-0.560957910015	-0.621428571429	-37.9138528139	15.8376
1788	0.894	0.844847605225	-7.68928571429	-54.8333333333	17.2528
1789	0.8945	2.25065312046	-7.68928571429	-42.1437229437	7.3464
1790	0.895	0.844847605225	-6.27571428571	-49.1935064935	10.1768
1791	0.8955	6.46806966618	-16.1707142857	-40.7337662338	10.1768
1792	0.896	5.06226415094	-14.7571428571	-47.7835497835	0.2704
1793	0.8965	0.844847605225	-33.1335714286	-50.6034632035	-11.0512
1794	0.897	-1.96676342525	-28.8928571429	-49.1935064935	-12.4664
1795	0.8975	5.06226415094	-28.8928571429	-43.5536796537	-20.9576
1796	0.898	-1.96676342525	-27.4792857143	-42.1437229437	-9.636
1797	0.8985	0.844847605225	-27.4792857143	-37.9138528139	-12.4664
1798	0.899	-0.560957910015	-21.825	-52.0134199134	-2.56
1799	0.8995	-1.96676342525	-16.1707142857	-37.9138528139	15.8376
1800	0.9	-3.37256894049	-10.5164285714	-18.1744588745	37.0656
1801	0.9005	-8.99579100145	0.792142857143	-15.3545454545	44.1416
1802	0.901	-6.18417997097	9.27357142857	-19.5844155844	41.3112
1803	0.9015	3.6564586357	7.86	-20.9943722944	42.7264
1804	0.902	14.9029027576	5.03285714286	-26.6341991342	34.2352
1805	0.9025	-11.8074020319	-0.621428571429	-26.6341991342	31.4048
1806	0.903	-4.77837445573	0.792142857143	-12.5346320346	27.1592
1807	0.9035	-4.77837445573	2.20571428571	-28.0441558442	28.5744
1808	0.904	-4.77837445573	2.20571428571	-18.1744588745	17.2528
1809	0.9045	-1.96676342525	-16.1707142857	-30.8640692641	-6.8056
1810	0.905	-3.37256894049	-11.93	-37.9138528139	-20.9576
1811	0.9055	-0.560957910015	-30.3064285714	-42.1437229437	-22.3728
1812	0.906	7.87387518142	-30.3064285714	-36.5038961039	-16.712
1813	0.9065	-11.8074020319	-28.8928571429	-26.6341991342	-23.788
1814	0.907	-4.77837445573	-28.8928571429	-18.1744588745	-20.9576
1815	0.9075	-1.96676342525	-23.2385714286	-4.07489177489	-9.636
1816	0.908	-0.560957910015	-10.5164285714	-1.25497835498	18.668
1817	0.9085	-3.37256894049	6.44642857143	2.97489177489	31.4048
1818	0.909	-3.37256894049	6.44642857143	-13.9445887446	34.2352
1819	0.9095	-0.560957910015	23.4092857143	-35.0939393939	34.2352
1820	0.91	-1.96676342525	6.44642857143	-33.683982684	28.5744
1821	0.9105	5.06226415094	-0.621428571429	-22.4043290043	22.9136
1822	0.911	-11.8074020319	-4.86214285714	-11.1246753247	14.4224
1823	0.9115	-7.58998548621	-2.035	-19.5844155844	24.3288
1824	0.912	0.844847605225	-7.68928571429	-9.71471861472	15.8376
1825	0.9125	2.25065312046	-7.68928571429	-33.683982684	7.3464
1826	0.913	0.844847605225	-17.5842857143	-32.274025974	-15.2968
1827	0.9135	2.25065312046	-35.9607142857	-33.683982684	-28.0336
1828	0.914	3.6564586357	-21.825	-30.8640692641	-29.4488
1829	0.9145	7.87387518142	-31.72	-39.3238095238	-22.3728
1830	0.915	9.27968069666	-27.4792857143	-36.5038961039	-11.0512
1831	0.9155	-7.58998548621	-17.5842857143	-22.4043290043	-11.0512
1832	0.916	0.844847605225	-14.7571428571	-4.07489177489	4.516
1833	0.9165	-3.37256894049	0.792142857143	11.4346320346	24.3288
1834	0.917	-3.37256894049	13.5142857143	11.4346320346	39.896
1835	0.9175	-4.77837445573	14.9278571429	2.97489177489	41.3112
1836	0.918	-0.560957910015	20.5821428571	2.97489177489	39.896
1837	0.9185	2.25065312046	6.44642857143	1.56493506494	32.82
1838	0.919	-4.77837445573	2.20571428571	1.56493506494	31.4048
1839	0.9195	12.0912917271	5.03285714286	1.56493506494	28.5744
1840	0.92	-13.2132075472	6.44642857143	0.154978354978	29.9896
1841	0.9205	-4.77837445573	3.61928571429	-1.25497835498	44.1416
1842	0.921	-3.37256894049	-4.86214285714	-5.48484848485	7.3464
1843	0.9215	-3.37256894049	-28.8928571429	-42.1437229437	-35.1096
1844	0.922	0.844847605225	-38.7878571429	-47.7835497835	-46.4312
1845	0.9225	-3.37256894049	-51.51	-29.4541125541	-36.5248
1846	0.923	-3.37256894049	-35.9607142857	-19.5844155844	-16.712
1847	0.9235	-17.4306240929	-21.825	-8.30476190476	-3.9752
1848	0.924	5.06226415094	-10.5164285714	-1.25497835498	7.3464
1849	0.9245	-4.77837445573	-4.86214285714	7.20476190476	17.2528
1850	0.925	-6.18417997097	9.27357142857	18.4844155844	37.0656
1851	0.9255	-6.18417997097	13.5142857143	-9.71471861472	42.7264
1852	0.926	-6.18417997097	13.5142857143	-9.71471861472	42.7264
1853	0.9265	-3.37256894049	27.65	-8.30476190476	42.7264
1854	0.927	-3.37256894049	5.03285714286	-9.71471861472	39.896
1855	0.9275	-3.37256894049	7.86	-12.5346320346	42.7264
1856	0.928	-14.6190130624	5.03285714286	-5.48484848485	45.5568
1857	0.9285	-10.4015965167	9.27357142857	5.79480519481	32.82
1858	0.929	-7.58998548621	9.27357142857	1.56493506494	32.82
1859	0.9295	-10.4015965167	-3.44857142857	-20.9943722944	10.1768
1860	0.93	-8.99579100145	-23.2385714286	-39.3238095238	-9.636
1861	0.9305	-6.18417997097	-23.2385714286	-36.5038961039	-16.712
1862	0.931	-10.4015965167	-44.4421428571	-30.8640692641	-13.8816
1863	0.9315	-4.77837445573	-30.3064285714	-28.0441558442	-8.2208
1864	0.932	-16.0248185776	-24.6521428571	-22.4043290043	-3.9752
1865	0.9325	-6.18417997097	-14.7571428571	-15.3545454545	10.1768
1866	0.933	-7.58998548621	0.792142857143	-1.25497835498	31.4048
1867	0.9335	-8.99579100145	13.5142857143	15.6645021645	45.5568
1868	0.934	-8.99579100145	16.3414285714	-2.66493506494	45.5568
1869	0.9345	-7.58998548621	9.27357142857	7.20476190476	44.1416
1870	0.935	-7.58998548621	27.65	14.2545454545	37.0656
1871	0.9355	-10.4015965167	-2.035	11.4346320346	29.9896
1872	0.936	3.6564586357	5.03285714286	8.61471861472	31.4048
1873	0.9365	-18.8364296081	2.20571428571	11.4346320346	21.4984
1874	0.937	-7.58998548621	3.61928571429	14.2545454545	32.82
1875	0.9375	-10.4015965167	0.792142857143	-4.07489177489	17.2528
1876	0.938	-8.99579100145	-11.93	-11.1246753247	-5.3904
1877	0.9385	-10.4015965167	-24.6521428571	-8.30476190476	-13.8816
1878	0.939	-8.99579100145	-40.2014285714	-15.3545454545	-22.3728
1879	0.9395	-8.99579100145	-21.825	-30.8640692641	-20.9576
1880	0.94	-18.8364296081	-33.1335714286	-46.3735930736	-18.1272
1881	0.9405	10.6854862119	-23.2385714286	-46.3735930736	-11.0512
1882	0.941	-11.8074020319	-9.10285714286	-30.8640692641	25.744
1883	0.9415	-7.58998548621	0.792142857143	-8.30476190476	21.4984
1884	0.942	-3.37256894049	9.27357142857	-6.89480519481	34.2352
1885	0.9425	-6.18417997097	9.27357142857	1.56493506494	35.6504
1886	0.943	-7.58998548621	2.20571428571	-2.66493506494	35.6504
1887	0.9435	-8.99579100145	-0.621428571429	-4.07489177489	31.4048
1888	0.944	-6.18417997097	0.792142857143	-2.66493506494	24.3288
1889	0.9445	-3.37256894049	-3.44857142857	0.154978354978	27.1592
1890	0.945	3.6564586357	-4.86214285714	-2.66493506494	28.5744
1891	0.9455	-4.77837445573	-7.68928571429	-1.25497835498	25.744
1892	0.946	-7.58998548621	-10.5164285714	-13.9445887446	0.2704
1893	0.9465	-7.58998548621	-21.825	4.38484848485	-13.8816
1894	0.947	-6.18417997097	-27.4792857143	-18.1744588745	-22.3728
1895	0.9475	-3.37256894049	-13.3435714286	-15.3545454545	-18.1272
1896	0.948	-7.58998548621	-34.5471428571	-18.1744588745	-9.636
1897	0.9485	-20.2422351234	-23.2385714286	-12.5346320346	-6.8056
1898	0.949	10.6854862119	-20.4114285714	-12.5346320346	1.6856
1899	0.9495	-13.2132075472	-10.5164285714	-11.1246753247	25.744
1900	0.95	-7.58998548621	2.20571428571	-4.07489177489	52.6328
1901	0.9505	-7.58998548621	7.86	8.61471861472	32.82
1902	0.951	-10.4015965167	6.44642857143	15.6645021645	37.0656
1903	0.9515	-10.4015965167	5.03285714286	33.9939393939	35.6504
1904	0.952	-7.58998548621	-2.035	4.38484848485	34.2352
1905	0.9525	-10.4015965167	-6.27571428571	-19.5844155844	27.1592
1906	0.953	-8.99579100145	0.792142857143	-28.0441558442	27.1592
1907	0.9535	-4.77837445573	-0.621428571429	-15.3545454545	17.2528
1908	0.954	-7.58998548621	-4.86214285714	-15.3545454545	32.82
1909	0.9545	-10.4015965167	-16.1707142857	-19.5844155844	4.516
1910	0.955	-6.18417997097	-28.8928571429	-42.1437229437	-20.9576
1911	0.9555	-11.8074020319	-34.5471428571	-33.683982684	-18.1272
1912	0.956	-8.99579100145	-38.7878571429	-23.8142857143	-12.4664
1913	0.9565	-7.58998548621	-7.68928571429	-22.4043290043	-2.56
1914	0.957	-7.58998548621	-24.6521428571	-18.1744588745	-2.56
1915	0.9575	-6.18417997097	-18.9978571429	-19.5844155844	-1.1448
1916	0.958	-0.560957910015	-6.27571428571	-6.89480519481	14.4224
1917	0.9585	-14.6190130624	6.44642857143	-2.66493506494	34.2352
1918	0.959	-11.8074020319	6.44642857143	-1.25497835498	25.744
1919	0.9595	-10.4015965167	6.44642857143	5.79480519481	29.9896
1920	0.96	-13.2132075472	5.03285714286	11.4346320346	31.4048
1921	0.9605	-10.4015965167	5.03285714286	0.154978354978	20.0832
1922	0.961	-8.99579100145	14.9278571429	-8.30476190476	20.0832
1923	0.9615	-11.8074020319	-11.93	-18.1744588745	18.668
1924	0.962	-8.99579100145	-3.44857142857	-32.274025974	20.0832
1925	0.9625	-20.2422351234	-4.86214285714	-36.5038961039	7.3464
1926	0.963	-10.4015965167	-17.5842857143	-32.274025974	-6.8056
1927	0.9635	-7.58998548621	-28.8928571429	-36.5038961039	-18.1272
1928	0.964	-11.8074020319	-26.0657142857	-15.3545454545	-15.2968
1929	0.9645	-10.4015965167	-21.825	-20.9943722944	-9.636
1930	0.965	-10.4015965167	-21.825	-2.66493506494	-6.8056
1931	0.9655	-8.99579100145	-24.6521428571	-15.3545454545	-3.9752
1932	0.966	-11.8074020319	-23.2385714286	-6.89480519481	4.516
1933	0.9665	-17.4306240929	-2.035	8.61471861472	22.9136
1934	0.967	5.06226415094	6.44642857143	8.61471861472	32.82
1935	0.9675	-13.2132075472	6.44642857143	7.20476190476	22.9136
1936	0.968	-11.8074020319	6.44642857143	-8.30476190476	32.82
1937	0.9685	-11.8074020319	6.44642857143	0.154978354978	29.9896
1938	0.969	-11.8074020319	3.61928571429	-5.48484848485	27.1592
1939	0.9695	-11.8074020319	2.20571428571	-5.48484848485	28.5744
1940	0.97	-13.2132075472	-0.621428571429	-2.66493506494	25.744
1941	0.9705	-10.4015965167	3.61928571429	-2.66493506494	22.9136
1942	0.971	-20.2422351234	-4.86214285714	-15.3545454545	0.2704
1943	0.9715	-11.8074020319	-20.4114285714	-29.4541125541	-1.1448
1944	0.972	-13.2132075472	-27.4792857143	-36.5038961039	-25.2032
1945	0.9725	-14.6190130624	-28.8928571429	-16.7645021645	-26.6184
1946	0.973	-14.6190130624	-30.3064285714	-19.5844155844	-29.4488
1947	0.9735	-14.6190130624	-31.72	-35.0939393939	-25.2032
1948	0.974	-13.2132075472	-9.10285714286	-28.0441558442	-12.4664
1949	0.9745	-11.8074020319	-21.825	-12.5346320346	7.3464
1950	0.975	-23.0538461538	0.792142857143	-4.07489177489	21.4984
1951	0.9755	0.844847605225	9.27357142857	1.56493506494	32.82
1952	0.976	-6.18417997097	7.86	4.38484848485	21.4984
1953	0.9765	-16.0248185776	7.86	-5.48484848485	29.9896
1954	0.977	-16.0248185776	3.61928571429	-1.25497835498	15.8376
1955	0.9775	-17.4306240929	-7.68928571429	-18.1744588745	13.0072
1956	0.978	-14.6190130624	-3.44857142857	-1.25497835498	11.592
1957	0.9785	-13.2132075472	-13.3435714286	-8.30476190476	10.1768
1958	0.979	-23.0538461538	-11.93	-5.48484848485	13.0072
1959	0.9795	-28.6770682148	-10.5164285714	-11.1246753247	0.2704
1960	0.98	-25.8654571843	-20.4114285714	-13.9445887446	-5.3904
1961	0.9805	-23.0538461538	-23.2385714286	-11.1246753247	7.3464
1962	0.981	-21.6480406386	-20.4114285714	-6.89480519481	0.2704
1963	0.9815	-23.0538461538	-20.4114285714	-19.5844155844	-6.8056
1964	0.982	-21.6480406386	-21.825	-9.71471861472	-8.2208
1965	0.9825	-20.2422351234	-28.8928571429	-8.30476190476	0.2704
