	Time	Channel 1	Channel 2	Channel 3	Channel 4
0	0.0	-10.6075757576	2.40821917808	1.60979020979	-0.137715517241
1	0.0005	-2.05303030303	0.984931506849	-1.21678321678	-7.17112068966
2	0.001	0.798484848485	-1.86164383562	-6.86993006993	1.26896551724
3	0.0015	-2.05303030303	-1.86164383562	3.02307692308	5.48900862069
4	0.002	-0.627272727273	-1.86164383562	-1.21678321678	5.48900862069
5	0.0025	-0.627272727273	0.984931506849	-1.21678321678	23.775862069
6	0.003	-4.90454545455	-4.70821917808	-1.21678321678	4.08232758621
7	0.0035	5.07575757576	0.984931506849	-1.21678321678	2.67564655172
8	0.004	-3.47878787879	0.984931506849	-12.5230769231	-0.137715517241
9	0.0045	-4.90454545455	0.984931506849	1.60979020979	-11.3911637931
10	0.005	0.798484848485	-1.86164383562	1.60979020979	-1.54439655172
11	0.0055	2.22424242424	2.40821917808	-11.1097902098	-1.54439655172
12	0.006	2.22424242424	0.984931506849	18.5692307692	-1.54439655172
13	0.0065	-2.05303030303	-0.438356164384	-5.45664335664	-8.57780172414
14	0.007	0.798484848485	-4.70821917808	0.196503496503	-0.137715517241
15	0.0075	-2.05303030303	-7.55479452055	0.196503496503	-0.137715517241
16	0.008	-0.627272727273	-4.70821917808	1.60979020979	-0.137715517241
17	0.0085	-7.75606060606	-0.438356164384	1.60979020979	1.26896551724
18	0.009	-3.47878787879	2.40821917808	-1.21678321678	8.30237068966
19	0.0095	2.22424242424	0.984931506849	1.60979020979	-8.57780172414
20	0.01	-0.627272727273	-0.438356164384	-11.1097902098	-2.95107758621
21	0.0105	-0.627272727273	0.984931506849	15.7426573427	1.26896551724
22	0.011	0.798484848485	3.83150684932	-9.6965034965	1.26896551724
23	0.0115	2.22424242424	-11.8246575342	-6.86993006993	1.26896551724
24	0.012	0.798484848485	15.2178082192	-8.28321678322	2.67564655172
25	0.0125	-0.627272727273	-0.438356164384	-8.28321678322	-0.137715517241
26	0.013	12.2045454545	-0.438356164384	-6.86993006993	-0.137715517241
27	0.0135	-4.90454545455	-0.438356164384	-4.04335664336	4.08232758621
28	0.014	-2.05303030303	0.984931506849	-4.04335664336	-5.76443965517
29	0.0145	-0.627272727273	0.984931506849	-13.9363636364	-2.95107758621
30	0.015	-2.05303030303	-1.86164383562	-4.04335664336	1.26896551724
31	0.0155	0.798484848485	3.83150684932	-11.1097902098	-1.54439655172
32	0.016	-0.627272727273	-11.8246575342	-1.21678321678	-0.137715517241
33	0.0165	-0.627272727273	-7.55479452055	0.196503496503	-1.54439655172
34	0.017	-3.47878787879	2.40821917808	0.196503496503	1.26896551724
35	0.0175	16.4818181818	0.984931506849	1.60979020979	-7.17112068966
36	0.018	-6.3303030303	-0.438356164384	-1.21678321678	1.26896551724
37	0.0185	5.07575757576	2.40821917808	0.196503496503	-5.76443965517
38	0.019	0.798484848485	-1.86164383562	4.43636363636	-8.57780172414
39	0.0195	-0.627272727273	-1.86164383562	-2.63006993007	-2.95107758621
40	0.02	-2.05303030303	0.984931506849	4.43636363636	-2.95107758621
41	0.0205	-2.05303030303	-10.401369863	4.43636363636	-4.35775862069
42	0.021	3.65	18.0643835616	4.43636363636	-5.76443965517
43	0.0215	-12.0333333333	-1.86164383562	3.02307692308	-7.17112068966
44	0.022	19.3333333333	-0.438356164384	3.02307692308	-4.35775862069
45	0.0225	-9.18181818182	0.984931506849	0.196503496503	-7.17112068966
46	0.023	-0.627272727273	2.40821917808	3.02307692308	4.08232758621
47	0.0235	-3.47878787879	2.40821917808	5.84965034965	-4.35775862069
48	0.024	-2.05303030303	6.67808219178	0.196503496503	-4.35775862069
49	0.0245	0.798484848485	-10.401369863	0.196503496503	-2.95107758621
50	0.025	2.22424242424	0.984931506849	0.196503496503	-5.76443965517
51	0.0255	5.07575757576	-0.438356164384	1.60979020979	-4.35775862069
52	0.026	-12.0333333333	-0.438356164384	0.196503496503	-4.35775862069
53	0.0265	20.7590909091	-0.438356164384	-1.21678321678	-2.95107758621
54	0.027	-9.18181818182	-1.86164383562	0.196503496503	-11.3911637931
55	0.0275	0.798484848485	-0.438356164384	-11.1097902098	-2.95107758621
56	0.028	0.798484848485	0.984931506849	18.5692307692	-5.76443965517
57	0.0285	-0.627272727273	-4.70821917808	-5.45664335664	-2.95107758621
58	0.029	-3.47878787879	0.984931506849	17.1559440559	-1.54439655172
59	0.0295	0.798484848485	-10.401369863	1.60979020979	-4.35775862069
60	0.03	0.798484848485	-1.86164383562	0.196503496503	-2.95107758621
61	0.0305	0.798484848485	-7.55479452055	1.60979020979	-1.54439655172
62	0.031	0.798484848485	-1.86164383562	4.43636363636	1.26896551724
63	0.0315	0.798484848485	-1.86164383562	3.02307692308	9.70905172414
64	0.032	-3.47878787879	-0.438356164384	1.60979020979	2.67564655172
65	0.0325	-0.627272727273	-0.438356164384	4.43636363636	12.5224137931
66	0.033	-0.627272727273	2.40821917808	-2.63006993007	-0.137715517241
67	0.0335	-0.627272727273	-8.97808219178	3.02307692308	2.67564655172
68	0.034	0.798484848485	13.7945205479	4.43636363636	1.26896551724
69	0.0345	-3.47878787879	-4.70821917808	3.02307692308	4.08232758621
70	0.035	0.798484848485	0.984931506849	1.60979020979	4.08232758621
71	0.0355	-7.75606060606	0.984931506849	3.02307692308	-5.76443965517
72	0.036	0.798484848485	-4.70821917808	-4.04335664336	19.5558189655
73	0.0365	2.22424242424	-1.86164383562	-1.21678321678	-4.35775862069
74	0.037	0.798484848485	0.984931506849	-12.5230769231	2.67564655172
75	0.0375	2.22424242424	-1.86164383562	-1.21678321678	1.26896551724
76	0.038	-3.47878787879	-11.8246575342	-1.21678321678	-0.137715517241
77	0.0385	-3.47878787879	19.4876712329	-1.21678321678	-1.54439655172
78	0.039	2.22424242424	-10.401369863	0.196503496503	-0.137715517241
79	0.0395	-2.05303030303	0.984931506849	-1.21678321678	-0.137715517241
80	0.04	19.3333333333	0.984931506849	0.196503496503	-14.2045258621
81	0.0405	-7.75606060606	2.40821917808	0.196503496503	-2.95107758621
82	0.041	-0.627272727273	0.984931506849	-4.04335664336	15.3357758621
83	0.0415	-3.47878787879	3.83150684932	0.196503496503	-9.98448275862
84	0.042	-0.627272727273	3.83150684932	-11.1097902098	-4.35775862069
85	0.0425	0.798484848485	-0.438356164384	3.02307692308	-2.95107758621
86	0.043	0.798484848485	0.984931506849	-8.28321678322	-4.35775862069
87	0.0435	3.65	-6.13150684932	-2.63006993007	-4.35775862069
88	0.044	-6.3303030303	-1.86164383562	-1.21678321678	-4.35775862069
89	0.0445	13.6303030303	-0.438356164384	1.60979020979	-0.137715517241
90	0.045	-4.90454545455	-0.438356164384	4.43636363636	-9.98448275862
91	0.0455	-4.90454545455	-0.438356164384	-1.21678321678	8.30237068966
92	0.046	0.798484848485	-0.438356164384	14.3293706294	1.26896551724
93	0.0465	0.798484848485	-0.438356164384	-9.6965034965	-1.54439655172
94	0.047	-2.05303030303	-1.86164383562	15.7426573427	-0.137715517241
95	0.0475	-0.627272727273	19.4876712329	-1.21678321678	1.26896551724
96	0.048	-4.90454545455	-8.97808219178	-1.21678321678	1.26896551724
97	0.0485	0.798484848485	2.40821917808	0.196503496503	1.26896551724
98	0.049	-2.05303030303	-1.86164383562	0.196503496503	4.08232758621
99	0.0495	-0.627272727273	0.984931506849	3.02307692308	9.70905172414
100	0.05	2.22424242424	-1.86164383562	-2.63006993007	5.48900862069
101	0.0505	-2.05303030303	-1.86164383562	1.60979020979	9.70905172414
102	0.051	0.798484848485	-0.438356164384	1.60979020979	5.48900862069
103	0.0515	0.798484848485	-8.97808219178	-2.63006993007	5.48900862069
104	0.052	0.798484848485	-0.438356164384	-4.04335664336	4.08232758621
105	0.0525	-2.05303030303	0.984931506849	-4.04335664336	5.48900862069
106	0.053	3.65	2.40821917808	-2.63006993007	12.5224137931
107	0.0535	-6.3303030303	-1.86164383562	-1.21678321678	-2.95107758621
108	0.054	2.22424242424	-0.438356164384	0.196503496503	8.30237068966
109	0.0545	0.798484848485	-1.86164383562	3.02307692308	-2.95107758621
110	0.055	-3.47878787879	-1.86164383562	-1.21678321678	25.1825431034
111	0.0555	0.798484848485	-3.28493150685	1.60979020979	8.30237068966
112	0.056	0.798484848485	-0.438356164384	3.02307692308	8.30237068966
113	0.0565	2.22424242424	-0.438356164384	3.02307692308	8.30237068966
114	0.057	0.798484848485	8.10136986301	3.02307692308	4.08232758621
115	0.0575	9.35303030303	-1.86164383562	1.60979020979	6.89568965517
116	0.058	0.798484848485	-1.86164383562	4.43636363636	-0.137715517241
117	0.0585	-4.90454545455	-0.438356164384	1.60979020979	16.7424568966
118	0.059	-3.47878787879	0.984931506849	7.26293706294	2.67564655172
119	0.0595	-2.05303030303	-3.28493150685	0.196503496503	-7.17112068966
120	0.06	-0.627272727273	-3.28493150685	4.43636363636	1.26896551724
121	0.0605	-3.47878787879	-4.70821917808	4.43636363636	-0.137715517241
122	0.061	0.798484848485	2.40821917808	4.43636363636	-0.137715517241
123	0.0615	-2.05303030303	-4.70821917808	3.02307692308	-1.54439655172
124	0.062	17.9075757576	-1.86164383562	0.196503496503	2.67564655172
125	0.0625	-7.75606060606	-0.438356164384	0.196503496503	-7.17112068966
126	0.063	-0.627272727273	0.984931506849	-1.21678321678	19.5558189655
127	0.0635	-0.627272727273	-0.438356164384	-4.04335664336	-4.35775862069
128	0.064	-0.627272727273	0.984931506849	-2.63006993007	-0.137715517241
129	0.0645	-0.627272727273	3.83150684932	4.43636363636	-0.137715517241
130	0.065	-0.627272727273	-10.401369863	0.196503496503	-0.137715517241
131	0.0655	0.798484848485	18.0643835616	0.196503496503	1.26896551724
132	0.066	-13.4590909091	0.984931506849	0.196503496503	1.26896551724
133	0.0665	19.3333333333	3.83150684932	0.196503496503	1.26896551724
134	0.067	-10.6075757576	0.984931506849	0.196503496503	-7.17112068966
135	0.0675	0.798484848485	0.984931506849	-1.21678321678	18.149137931
136	0.068	0.798484848485	-0.438356164384	-1.21678321678	-8.57780172414
137	0.0685	0.798484848485	-1.86164383562	-4.04335664336	-0.137715517241
138	0.069	2.22424242424	-1.86164383562	-1.21678321678	1.26896551724
139	0.0695	0.798484848485	-7.55479452055	-1.21678321678	-1.54439655172
140	0.07	5.07575757576	-1.86164383562	1.60979020979	-0.137715517241
141	0.0705	-9.18181818182	-0.438356164384	1.60979020979	-0.137715517241
142	0.071	17.9075757576	-0.438356164384	-1.21678321678	4.08232758621
143	0.0715	-6.3303030303	2.40821917808	0.196503496503	1.26896551724
144	0.072	-0.627272727273	-0.438356164384	1.60979020979	6.89568965517
145	0.0725	0.798484848485	2.40821917808	-5.45664335664	-0.137715517241
146	0.073	-0.627272727273	-4.70821917808	-2.63006993007	2.67564655172
147	0.0735	-3.47878787879	2.40821917808	-1.21678321678	4.08232758621
148	0.074	-3.47878787879	-13.2479452055	4.43636363636	4.08232758621
149	0.0745	2.22424242424	0.984931506849	4.43636363636	2.67564655172
150	0.075	-7.75606060606	-1.86164383562	0.196503496503	-0.137715517241
151	0.0755	15.0560606061	-3.28493150685	0.196503496503	-1.54439655172
152	0.076	-2.05303030303	0.984931506849	1.60979020979	9.70905172414
153	0.0765	0.798484848485	2.40821917808	4.43636363636	-12.7978448276
154	0.077	0.798484848485	0.984931506849	-6.86993006993	-0.137715517241
155	0.0775	0.798484848485	-1.86164383562	1.60979020979	-0.137715517241
156	0.078	0.798484848485	-4.70821917808	-4.04335664336	-0.137715517241
157	0.0785	0.798484848485	5.25479452055	0.196503496503	1.26896551724
158	0.079	-13.4590909091	-1.86164383562	-1.21678321678	-1.54439655172
159	0.0795	16.4818181818	-0.438356164384	-1.21678321678	5.48900862069
160	0.08	-9.18181818182	0.984931506849	-1.21678321678	2.67564655172
161	0.0805	-2.05303030303	-0.438356164384	-1.21678321678	6.89568965517
162	0.081	0.798484848485	0.984931506849	17.1559440559	5.48900862069
163	0.0815	-2.05303030303	2.40821917808	-5.45664335664	4.08232758621
164	0.082	0.798484848485	-0.438356164384	14.3293706294	5.48900862069
165	0.0825	0.798484848485	0.984931506849	3.02307692308	5.48900862069
166	0.083	5.07575757576	-1.86164383562	3.02307692308	5.48900862069
167	0.0835	-9.18181818182	2.40821917808	1.60979020979	1.26896551724
168	0.084	19.3333333333	0.984931506849	1.60979020979	5.48900862069
169	0.0845	-9.18181818182	-0.438356164384	3.02307692308	-2.95107758621
170	0.085	3.65	0.984931506849	3.02307692308	-1.54439655172
171	0.0855	0.798484848485	-0.438356164384	17.1559440559	-4.35775862069
172	0.086	-0.627272727273	2.40821917808	-9.6965034965	-2.95107758621
173	0.0865	-2.05303030303	2.40821917808	0.196503496503	-2.95107758621
174	0.087	0.798484848485	16.6410958904	1.60979020979	-4.35775862069
175	0.0875	-2.05303030303	-8.97808219178	3.02307692308	-5.76443965517
176	0.088	-4.90454545455	-0.438356164384	4.43636363636	-2.95107758621
177	0.0885	-2.05303030303	-0.438356164384	3.02307692308	-1.54439655172
178	0.089	-2.05303030303	0.984931506849	1.60979020979	-11.3911637931
179	0.0895	3.65	0.984931506849	4.43636363636	8.30237068966
180	0.09	0.798484848485	0.984931506849	0.196503496503	-4.35775862069
181	0.0905	0.798484848485	0.984931506849	12.9160839161	-7.17112068966
182	0.091	0.798484848485	-10.401369863	1.60979020979	-9.98448275862
183	0.0915	-0.627272727273	13.7945205479	0.196503496503	-8.57780172414
184	0.092	-12.0333333333	2.40821917808	0.196503496503	-11.3911637931
185	0.0925	19.3333333333	-1.86164383562	-1.21678321678	-5.76443965517
186	0.093	-9.18181818182	-0.438356164384	-1.21678321678	-9.98448275862
187	0.0935	-0.627272727273	-1.86164383562	-2.63006993007	6.89568965517
188	0.094	2.22424242424	-0.438356164384	-1.21678321678	-14.2045258621
189	0.0945	-2.05303030303	-1.86164383562	-5.45664335664	-8.57780172414
190	0.095	-0.627272727273	-3.28493150685	0.196503496503	-7.17112068966
191	0.0955	0.798484848485	-0.438356164384	1.60979020979	-8.57780172414
192	0.096	2.22424242424	6.67808219178	0.196503496503	-7.17112068966
193	0.0965	-9.18181818182	-0.438356164384	0.196503496503	-7.17112068966
194	0.097	7.92727272727	-0.438356164384	-2.63006993007	-7.17112068966
195	0.0975	-0.627272727273	0.984931506849	-1.21678321678	-2.95107758621
196	0.098	-3.47878787879	-0.438356164384	-9.6965034965	-5.76443965517
197	0.0985	-0.627272727273	-0.438356164384	17.1559440559	-2.95107758621
198	0.099	0.798484848485	2.40821917808	-8.28321678322	-4.35775862069
199	0.0995	0.798484848485	-1.86164383562	-1.21678321678	-0.137715517241
200	0.1	2.22424242424	-7.55479452055	0.196503496503	-0.137715517241
201	0.1005	-2.05303030303	3.83150684932	1.60979020979	1.26896551724
202	0.101	-2.05303030303	0.984931506849	0.196503496503	-1.54439655172
203	0.1015	-2.05303030303	0.984931506849	3.02307692308	1.26896551724
204	0.102	2.22424242424	-3.28493150685	0.196503496503	-5.76443965517
205	0.1025	-0.627272727273	0.984931506849	-12.5230769231	-2.95107758621
206	0.103	0.798484848485	2.40821917808	12.9160839161	-0.137715517241
207	0.1035	0.798484848485	2.40821917808	-8.28321678322	-4.35775862069
208	0.104	0.798484848485	0.984931506849	-4.04335664336	-0.137715517241
209	0.1045	-0.627272727273	-3.28493150685	-6.86993006993	-0.137715517241
210	0.105	5.07575757576	0.984931506849	0.196503496503	-0.137715517241
211	0.1055	5.07575757576	2.40821917808	1.60979020979	-0.137715517241
212	0.106	-6.3303030303	2.40821917808	-1.21678321678	-0.137715517241
213	0.1065	0.798484848485	0.984931506849	1.60979020979	-7.17112068966
214	0.107	0.798484848485	-0.438356164384	-13.9363636364	-2.95107758621
215	0.1075	2.22424242424	-0.438356164384	3.02307692308	-11.3911637931
216	0.108	-2.05303030303	0.984931506849	-8.28321678322	-4.35775862069
217	0.1085	0.798484848485	-4.70821917808	0.196503496503	-7.17112068966
218	0.109	-0.627272727273	5.25479452055	3.02307692308	-7.17112068966
219	0.1095	5.07575757576	-3.28493150685	-1.21678321678	-8.57780172414
220	0.11	-12.0333333333	-0.438356164384	-1.21678321678	-8.57780172414
221	0.1105	-0.627272727273	-1.86164383562	-1.21678321678	-2.95107758621
222	0.111	0.798484848485	-3.28493150685	-6.86993006993	-12.7978448276
223	0.1115	2.22424242424	-0.438356164384	12.9160839161	-11.3911637931
224	0.112	-0.627272727273	-3.28493150685	-1.21678321678	-7.17112068966
225	0.1125	-2.05303030303	2.40821917808	0.196503496503	-5.76443965517
226	0.113	0.798484848485	-6.13150684932	3.02307692308	-5.76443965517
227	0.1135	-3.47878787879	0.984931506849	1.60979020979	-5.76443965517
228	0.114	-4.90454545455	0.984931506849	3.02307692308	-7.17112068966
229	0.1145	-3.47878787879	-1.86164383562	-1.21678321678	5.48900862069
230	0.115	-2.05303030303	-0.438356164384	4.43636363636	-14.2045258621
231	0.1155	-2.05303030303	-0.438356164384	-5.45664335664	-1.54439655172
232	0.116	2.22424242424	-0.438356164384	11.5027972028	-0.137715517241
233	0.1165	-0.627272727273	0.984931506849	-1.21678321678	-1.54439655172
234	0.117	0.798484848485	18.0643835616	1.60979020979	1.26896551724
235	0.1175	-0.627272727273	-7.55479452055	4.43636363636	1.26896551724
236	0.118	-14.8848484848	-0.438356164384	1.60979020979	-0.137715517241
237	0.1185	15.0560606061	0.984931506849	3.02307692308	2.67564655172
238	0.119	-0.627272727273	-0.438356164384	1.60979020979	-5.76443965517
239	0.1195	-3.47878787879	0.984931506849	0.196503496503	18.149137931
240	0.12	0.798484848485	6.67808219178	4.43636363636	4.08232758621
241	0.1205	0.798484848485	3.83150684932	-4.04335664336	2.67564655172
242	0.121	0.798484848485	16.6410958904	-1.21678321678	4.08232758621
243	0.1215	-4.90454545455	-7.55479452055	-2.63006993007	5.48900862069
244	0.122	3.65	-0.438356164384	0.196503496503	8.30237068966
245	0.1225	-14.8848484848	-0.438356164384	0.196503496503	5.48900862069
246	0.123	-3.47878787879	-1.86164383562	-1.21678321678	16.7424568966
247	0.1235	-0.627272727273	0.984931506849	-4.04335664336	1.26896551724
248	0.124	0.798484848485	0.984931506849	8.67622377622	5.48900862069
249	0.1245	2.22424242424	0.984931506849	-1.21678321678	4.08232758621
250	0.125	-0.627272727273	2.40821917808	19.9825174825	2.67564655172
251	0.1255	2.22424242424	-10.401369863	1.60979020979	5.48900862069
252	0.126	-3.47878787879	-1.86164383562	3.02307692308	5.48900862069
253	0.1265	-0.627272727273	-0.438356164384	3.02307692308	2.67564655172
254	0.127	-6.3303030303	0.984931506849	4.43636363636	-1.54439655172
255	0.1275	-0.627272727273	0.984931506849	4.43636363636	4.08232758621
256	0.128	-2.05303030303	-0.438356164384	4.43636363636	-4.35775862069
257	0.1285	-3.47878787879	5.25479452055	4.43636363636	-0.137715517241
258	0.129	0.798484848485	0.984931506849	8.67622377622	2.67564655172
259	0.1295	-0.627272727273	-10.401369863	1.60979020979	-0.137715517241
260	0.13	-0.627272727273	10.9479452055	5.84965034965	1.26896551724
261	0.1305	-3.47878787879	0.984931506849	7.26293706294	1.26896551724
262	0.131	15.0560606061	-0.438356164384	4.43636363636	1.26896551724
263	0.1315	-9.18181818182	0.984931506849	8.67622377622	-11.3911637931
264	0.132	-0.627272727273	0.984931506849	4.43636363636	2.67564655172
265	0.1325	-2.05303030303	0.984931506849	4.43636363636	-7.17112068966
266	0.133	-2.05303030303	-0.438356164384	1.60979020979	1.26896551724
267	0.1335	0.798484848485	-1.86164383562	3.02307692308	1.26896551724
268	0.134	-0.627272727273	-13.2479452055	3.02307692308	1.26896551724
269	0.1345	0.798484848485	18.0643835616	1.60979020979	2.67564655172
270	0.135	-3.47878787879	-10.401369863	4.43636363636	1.26896551724
271	0.1355	16.4818181818	-1.86164383562	4.43636363636	-0.137715517241
272	0.136	-9.18181818182	-7.55479452055	0.196503496503	-5.76443965517
273	0.1365	-0.627272727273	-1.86164383562	3.02307692308	-7.17112068966
274	0.137	0.798484848485	-0.438356164384	-6.86993006993	-2.95107758621
275	0.1375	0.798484848485	-3.28493150685	3.02307692308	-1.54439655172
276	0.138	2.22424242424	6.67808219178	3.02307692308	-5.76443965517
277	0.1385	0.798484848485	-11.8246575342	4.43636363636	-2.95107758621
278	0.139	-0.627272727273	18.0643835616	3.02307692308	-1.54439655172
279	0.1395	-2.05303030303	-6.13150684932	-1.21678321678	-1.54439655172
280	0.14	2.22424242424	0.984931506849	1.60979020979	-1.54439655172
281	0.1405	-3.47878787879	-0.438356164384	4.43636363636	16.7424568966
282	0.141	-0.627272727273	0.984931506849	0.196503496503	-7.17112068966
283	0.1415	-0.627272727273	0.984931506849	17.1559440559	2.67564655172
284	0.142	-0.627272727273	0.984931506849	-2.63006993007	4.08232758621
285	0.1425	-0.627272727273	3.83150684932	4.43636363636	4.08232758621
286	0.143	-0.627272727273	-10.401369863	3.02307692308	8.30237068966
287	0.1435	3.65	-1.86164383562	1.60979020979	9.70905172414
288	0.144	-4.90454545455	0.984931506849	4.43636363636	5.48900862069
289	0.1445	3.65	-1.86164383562	1.60979020979	4.08232758621
290	0.145	-4.90454545455	-1.86164383562	-1.21678321678	16.7424568966
291	0.1455	-2.05303030303	-1.86164383562	3.02307692308	-5.76443965517
292	0.146	0.798484848485	-3.28493150685	14.3293706294	2.67564655172
293	0.1465	-0.627272727273	-1.86164383562	-5.45664335664	4.08232758621
294	0.147	2.22424242424	-6.13150684932	0.196503496503	5.48900862069
295	0.1475	-3.47878787879	0.984931506849	0.196503496503	2.67564655172
296	0.148	5.07575757576	-1.86164383562	0.196503496503	5.48900862069
297	0.1485	-13.4590909091	-1.86164383562	1.60979020979	4.08232758621
298	0.149	22.1848484848	2.40821917808	-1.21678321678	4.08232758621
299	0.1495	3.65	-0.438356164384	0.196503496503	-4.35775862069
300	0.15	0.798484848485	-0.438356164384	0.196503496503	-1.54439655172
301	0.1505	-0.627272727273	0.984931506849	5.84965034965	4.08232758621
302	0.151	-0.627272727273	2.40821917808	-8.28321678322	1.26896551724
303	0.1515	0.798484848485	-13.2479452055	-2.63006993007	4.08232758621
304	0.152	-0.627272727273	16.6410958904	-1.21678321678	-0.137715517241
305	0.1525	-4.90454545455	-6.13150684932	0.196503496503	-0.137715517241
306	0.153	7.92727272727	-1.86164383562	3.02307692308	-9.98448275862
307	0.1535	-0.627272727273	-0.438356164384	-1.21678321678	12.5224137931
308	0.154	0.798484848485	-0.438356164384	4.43636363636	-9.98448275862
309	0.1545	2.22424242424	-0.438356164384	-8.28321678322	1.26896551724
310	0.155	0.798484848485	0.984931506849	1.60979020979	-8.57780172414
311	0.1555	-2.05303030303	-4.70821917808	1.60979020979	-0.137715517241
312	0.156	0.798484848485	8.10136986301	0.196503496503	-1.54439655172
313	0.1565	-3.47878787879	-4.70821917808	3.02307692308	-2.95107758621
314	0.157	0.798484848485	-3.28493150685	-1.21678321678	-0.137715517241
315	0.1575	-10.6075757576	0.984931506849	1.60979020979	-14.2045258621
316	0.158	-0.627272727273	-0.438356164384	5.84965034965	9.70905172414
317	0.1585	-0.627272727273	-0.438356164384	1.60979020979	-1.54439655172
318	0.159	0.798484848485	0.984931506849	12.9160839161	-5.76443965517
319	0.1595	0.798484848485	0.984931506849	-9.6965034965	-8.57780172414
320	0.16	-0.627272727273	-10.401369863	0.196503496503	-7.17112068966
321	0.1605	0.798484848485	16.6410958904	3.02307692308	-4.35775862069
322	0.161	-0.627272727273	-7.55479452055	3.02307692308	-5.76443965517
323	0.1615	-6.3303030303	0.984931506849	3.02307692308	-2.95107758621
324	0.162	-4.90454545455	-1.86164383562	0.196503496503	-0.137715517241
325	0.1625	0.798484848485	-0.438356164384	4.43636363636	-0.137715517241
326	0.163	0.798484848485	2.40821917808	1.60979020979	-0.137715517241
327	0.1635	0.798484848485	2.40821917808	8.67622377622	2.67564655172
328	0.164	-2.05303030303	5.25479452055	4.43636363636	-2.95107758621
329	0.1645	0.798484848485	-11.8246575342	1.60979020979	-2.95107758621
330	0.165	-0.627272727273	-4.70821917808	1.60979020979	-7.17112068966
331	0.1655	-2.05303030303	-1.86164383562	4.43636363636	-4.35775862069
332	0.166	20.7590909091	2.40821917808	0.196503496503	-4.35775862069
333	0.1665	-9.18181818182	0.984931506849	0.196503496503	-15.6112068966
334	0.167	-0.627272727273	0.984931506849	-4.04335664336	8.30237068966
335	0.1675	0.798484848485	-1.86164383562	-4.04335664336	-5.76443965517
336	0.168	0.798484848485	0.984931506849	-4.04335664336	-7.17112068966
337	0.1685	-0.627272727273	-4.70821917808	-1.21678321678	1.26896551724
338	0.169	-2.05303030303	9.52465753425	-1.21678321678	-0.137715517241
339	0.1695	2.22424242424	-3.28493150685	0.196503496503	-0.137715517241
340	0.17	-13.4590909091	-0.438356164384	1.60979020979	-0.137715517241
341	0.1705	19.3333333333	-0.438356164384	1.60979020979	5.48900862069
342	0.171	-10.6075757576	0.984931506849	0.196503496503	4.08232758621
343	0.1715	0.798484848485	0.984931506849	3.02307692308	16.7424568966
344	0.172	0.798484848485	-0.438356164384	1.60979020979	6.89568965517
345	0.1725	0.798484848485	-0.438356164384	15.7426573427	5.48900862069
346	0.173	0.798484848485	5.25479452055	1.60979020979	9.70905172414
347	0.1735	-2.05303030303	-10.401369863	3.02307692308	6.89568965517
348	0.174	3.65	-1.86164383562	4.43636363636	8.30237068966
349	0.1745	-10.6075757576	-1.86164383562	3.02307692308	4.08232758621
350	0.175	12.2045454545	-1.86164383562	3.02307692308	5.48900862069
351	0.1755	-4.90454545455	0.984931506849	3.02307692308	2.67564655172
352	0.176	2.22424242424	0.984931506849	8.67622377622	4.08232758621
353	0.1765	2.22424242424	0.984931506849	1.60979020979	2.67564655172
354	0.177	-0.627272727273	-1.86164383562	15.7426573427	6.89568965517
355	0.1775	-0.627272727273	2.40821917808	3.02307692308	6.89568965517
356	0.178	2.22424242424	20.9109589041	-1.21678321678	6.89568965517
357	0.1785	0.798484848485	0.984931506849	-2.63006993007	8.30237068966
358	0.179	-4.90454545455	2.40821917808	-1.21678321678	1.26896551724
359	0.1795	9.35303030303	-3.28493150685	-1.21678321678	2.67564655172
360	0.18	-7.75606060606	3.83150684932	-6.86993006993	-0.137715517241
361	0.1805	0.798484848485	3.83150684932	4.43636363636	1.26896551724
362	0.181	-0.627272727273	2.40821917808	-11.1097902098	-0.137715517241
363	0.1815	-0.627272727273	-3.28493150685	4.43636363636	4.08232758621
364	0.182	-0.627272727273	2.40821917808	-5.45664335664	1.26896551724
365	0.1825	-0.627272727273	-7.55479452055	-2.63006993007	4.08232758621
366	0.183	-4.90454545455	0.984931506849	0.196503496503	2.67564655172
367	0.1835	5.07575757576	0.984931506849	0.196503496503	4.08232758621
368	0.184	0.798484848485	0.984931506849	1.60979020979	1.26896551724
369	0.1845	-0.627272727273	0.984931506849	7.26293706294	12.5224137931
370	0.185	-0.627272727273	0.984931506849	-4.04335664336	1.26896551724
371	0.1855	-0.627272727273	0.984931506849	11.5027972028	13.9290948276
372	0.186	-0.627272727273	-3.28493150685	4.43636363636	-4.35775862069
373	0.1865	-2.05303030303	3.83150684932	7.26293706294	-4.35775862069
374	0.187	-3.47878787879	-0.438356164384	7.26293706294	-2.95107758621
375	0.1875	2.22424242424	-1.86164383562	7.26293706294	-4.35775862069
376	0.188	-9.18181818182	2.40821917808	4.43636363636	-12.7978448276
377	0.1885	-0.627272727273	0.984931506849	3.02307692308	9.70905172414
378	0.189	2.22424242424	0.984931506849	4.43636363636	-7.17112068966
379	0.1895	-0.627272727273	0.984931506849	0.196503496503	6.89568965517
380	0.19	-2.05303030303	-3.28493150685	-1.21678321678	-2.95107758621
381	0.1905	-2.05303030303	3.83150684932	-6.86993006993	-2.95107758621
382	0.191	0.798484848485	-8.97808219178	0.196503496503	-1.54439655172
383	0.1915	0.798484848485	19.4876712329	1.60979020979	-1.54439655172
384	0.192	-13.4590909091	-1.86164383562	1.60979020979	2.67564655172
385	0.1925	19.3333333333	-0.438356164384	3.02307692308	4.08232758621
386	0.193	-7.75606060606	0.984931506849	7.26293706294	-1.54439655172
387	0.1935	0.798484848485	-0.438356164384	4.43636363636	8.30237068966
388	0.194	-0.627272727273	-0.438356164384	4.43636363636	-1.54439655172
389	0.1945	0.798484848485	-3.28493150685	17.1559440559	-0.137715517241
390	0.195	2.22424242424	6.67808219178	4.43636363636	-0.137715517241
391	0.1955	-2.05303030303	-10.401369863	3.02307692308	2.67564655172
392	0.196	0.798484848485	-1.86164383562	1.60979020979	2.67564655172
393	0.1965	-3.47878787879	-0.438356164384	1.60979020979	-0.137715517241
394	0.197	5.07575757576	2.40821917808	3.02307692308	2.67564655172
395	0.1975	-0.627272727273	0.984931506849	0.196503496503	13.9290948276
396	0.198	-0.627272727273	-0.438356164384	1.60979020979	-9.98448275862
397	0.1985	-2.05303030303	-0.438356164384	-5.45664335664	2.67564655172
398	0.199	-2.05303030303	0.984931506849	4.43636363636	-0.137715517241
399	0.1995	-0.627272727273	-4.70821917808	-2.63006993007	1.26896551724
400	0.2	0.798484848485	3.83150684932	1.60979020979	2.67564655172
401	0.2005	-10.6075757576	-1.86164383562	4.43636363636	1.26896551724
402	0.201	-12.0333333333	-4.70821917808	4.43636363636	2.67564655172
403	0.2015	19.3333333333	-0.438356164384	1.60979020979	6.89568965517
404	0.202	-0.627272727273	-1.86164383562	-1.21678321678	-0.137715517241
405	0.2025	-2.05303030303	-1.86164383562	3.02307692308	5.48900862069
406	0.203	-0.627272727273	-3.28493150685	4.43636363636	2.67564655172
407	0.2035	0.798484848485	2.40821917808	-1.21678321678	-0.137715517241
408	0.204	0.798484848485	19.4876712329	3.02307692308	2.67564655172
409	0.2045	-0.627272727273	0.984931506849	1.60979020979	-0.137715517241
410	0.205	0.798484848485	0.984931506849	1.60979020979	1.26896551724
411	0.2055	-0.627272727273	-0.438356164384	1.60979020979	1.26896551724
412	0.206	0.798484848485	0.984931506849	3.02307692308	-7.17112068966
413	0.2065	-2.05303030303	2.40821917808	-1.21678321678	-1.54439655172
414	0.207	-0.627272727273	3.83150684932	5.84965034965	2.67564655172
415	0.2075	-2.05303030303	-1.86164383562	19.9825174825	1.26896551724
416	0.208	0.798484848485	18.0643835616	4.43636363636	1.26896551724
417	0.2085	3.65	-4.70821917808	4.43636363636	1.26896551724
418	0.209	-0.627272727273	2.40821917808	5.84965034965	-0.137715517241
419	0.2095	-7.75606060606	-4.70821917808	7.26293706294	-1.54439655172
420	0.21	-2.05303030303	-0.438356164384	1.60979020979	13.9290948276
421	0.2105	-0.627272727273	0.984931506849	7.26293706294	-8.57780172414
422	0.211	-0.627272727273	0.984931506849	-4.04335664336	-1.54439655172
423	0.2115	3.65	-0.438356164384	14.3293706294	-2.95107758621
424	0.212	0.798484848485	-6.13150684932	3.02307692308	-0.137715517241
425	0.2125	3.65	10.9479452055	3.02307692308	1.26896551724
426	0.213	-2.05303030303	-7.55479452055	0.196503496503	4.08232758621
427	0.2135	2.22424242424	-1.86164383562	1.60979020979	4.08232758621
428	0.214	-6.3303030303	-1.86164383562	1.60979020979	-1.54439655172
429	0.2145	-0.627272727273	-1.86164383562	-1.21678321678	2.67564655172
430	0.215	0.798484848485	0.984931506849	-2.63006993007	5.48900862069
431	0.2155	0.798484848485	0.984931506849	-4.04335664336	4.08232758621
432	0.216	-0.627272727273	5.25479452055	-1.21678321678	1.26896551724
433	0.2165	-2.05303030303	-11.8246575342	-2.63006993007	1.26896551724
434	0.217	3.65	18.0643835616	0.196503496503	5.48900862069
435	0.2175	-3.47878787879	0.984931506849	1.60979020979	4.08232758621
436	0.218	17.9075757576	0.984931506849	1.60979020979	6.89568965517
437	0.2185	-9.18181818182	0.984931506849	0.196503496503	22.3691810345
438	0.219	0.798484848485	-0.438356164384	1.60979020979	-0.137715517241
439	0.2195	-0.627272727273	2.40821917808	-9.6965034965	8.30237068966
440	0.22	0.798484848485	-0.438356164384	14.3293706294	12.5224137931
441	0.2205	0.798484848485	2.40821917808	-2.63006993007	8.30237068966
442	0.221	-2.05303030303	-6.13150684932	-2.63006993007	5.48900862069
443	0.2215	0.798484848485	15.2178082192	-1.21678321678	2.67564655172
444	0.222	-0.627272727273	-7.55479452055	-1.21678321678	5.48900862069
445	0.2225	12.2045454545	0.984931506849	0.196503496503	4.08232758621
446	0.223	-6.3303030303	0.984931506849	3.02307692308	4.08232758621
447	0.2235	2.22424242424	-0.438356164384	0.196503496503	-0.137715517241
448	0.224	-3.47878787879	0.984931506849	0.196503496503	1.26896551724
449	0.2245	-0.627272727273	-1.86164383562	-4.04335664336	-0.137715517241
450	0.225	-2.05303030303	-13.2479452055	-1.21678321678	1.26896551724
451	0.2255	-2.05303030303	20.9109589041	-1.21678321678	-0.137715517241
452	0.226	2.22424242424	-7.55479452055	-1.21678321678	1.26896551724
453	0.2265	-2.05303030303	-1.86164383562	0.196503496503	1.26896551724
454	0.227	7.92727272727	0.984931506849	-1.21678321678	-4.35775862069
455	0.2275	-4.90454545455	-0.438356164384	0.196503496503	5.48900862069
456	0.228	-0.627272727273	0.984931506849	5.84965034965	-2.95107758621
457	0.2285	0.798484848485	0.984931506849	3.02307692308	-2.95107758621
458	0.229	-0.627272727273	-0.438356164384	0.196503496503	5.48900862069
459	0.2295	-3.47878787879	3.83150684932	0.196503496503	2.67564655172
460	0.23	-3.47878787879	-10.401369863	0.196503496503	5.48900862069
461	0.2305	0.798484848485	-0.438356164384	3.02307692308	8.30237068966
462	0.231	-16.3106060606	-0.438356164384	3.02307692308	5.48900862069
463	0.2315	17.9075757576	0.984931506849	1.60979020979	9.70905172414
464	0.232	-13.4590909091	-0.438356164384	1.60979020979	-2.95107758621
465	0.2325	0.798484848485	-1.86164383562	-4.04335664336	8.30237068966
466	0.233	-4.90454545455	0.984931506849	0.196503496503	-1.54439655172
467	0.2335	-6.3303030303	0.984931506849	-1.21678321678	5.48900862069
468	0.234	-2.05303030303	3.83150684932	7.26293706294	4.08232758621
469	0.2345	-3.47878787879	-0.438356164384	4.43636363636	2.67564655172
470	0.235	2.22424242424	2.40821917808	1.60979020979	4.08232758621
471	0.2355	-13.4590909091	0.984931506849	4.43636363636	-1.54439655172
472	0.236	22.1848484848	2.40821917808	4.43636363636	-9.98448275862
473	0.2365	0.798484848485	-0.438356164384	-1.21678321678	16.7424568966
474	0.237	0.798484848485	-0.438356164384	0.196503496503	-7.17112068966
475	0.2375	0.798484848485	-0.438356164384	-5.45664335664	1.26896551724
476	0.238	-0.627272727273	-4.70821917808	7.26293706294	2.67564655172
477	0.2385	0.798484848485	-3.28493150685	-6.86993006993	-0.137715517241
478	0.239	-2.05303030303	5.25479452055	-2.63006993007	2.67564655172
479	0.2395	-9.18181818182	-1.86164383562	-2.63006993007	2.67564655172
480	0.24	15.0560606061	-1.86164383562	-2.63006993007	2.67564655172
481	0.2405	-6.3303030303	0.984931506849	1.60979020979	-8.57780172414
482	0.241	-3.47878787879	-0.438356164384	-1.21678321678	-4.35775862069
483	0.2415	-4.90454545455	2.40821917808	0.196503496503	11.1157327586
484	0.242	-3.47878787879	0.984931506849	-6.86993006993	-2.95107758621
485	0.2425	-0.627272727273	-1.86164383562	15.7426573427	-4.35775862069
486	0.243	-3.47878787879	2.40821917808	0.196503496503	-2.95107758621
487	0.2435	-6.3303030303	-6.13150684932	-1.21678321678	-2.95107758621
488	0.244	-2.05303030303	5.25479452055	1.60979020979	-1.54439655172
489	0.2445	-6.3303030303	2.40821917808	1.60979020979	-0.137715517241
490	0.245	5.07575757576	3.83150684932	1.60979020979	-7.17112068966
491	0.2455	-2.05303030303	5.25479452055	-8.28321678322	-2.95107758621
492	0.246	-2.05303030303	0.984931506849	5.84965034965	-7.17112068966
493	0.2465	-3.47878787879	2.40821917808	-5.45664335664	-0.137715517241
494	0.247	-0.627272727273	-1.86164383562	19.9825174825	-0.137715517241
495	0.2475	3.65	8.10136986301	4.43636363636	4.08232758621
496	0.248	0.798484848485	0.984931506849	4.43636363636	-0.137715517241
497	0.2485	3.65	-0.438356164384	3.02307692308	2.67564655172
498	0.249	-6.3303030303	-3.28493150685	3.02307692308	-7.17112068966
499	0.2495	-0.627272727273	-3.28493150685	4.43636363636	5.48900862069
500	0.25	-0.627272727273	0.984931506849	1.60979020979	-2.95107758621
501	0.2505	-3.47878787879	-1.86164383562	4.43636363636	2.67564655172
502	0.251	-3.47878787879	-1.86164383562	11.5027972028	-0.137715517241
503	0.2515	-2.05303030303	5.25479452055	3.02307692308	1.26896551724
504	0.252	2.22424242424	-1.86164383562	3.02307692308	1.26896551724
505	0.2525	-2.05303030303	9.52465753425	3.02307692308	1.26896551724
506	0.253	6.50151515152	-4.70821917808	1.60979020979	-0.137715517241
507	0.2535	-12.0333333333	-3.28493150685	-1.21678321678	1.26896551724
508	0.254	-0.627272727273	-0.438356164384	0.196503496503	13.9290948276
509	0.2545	-2.05303030303	-0.438356164384	1.60979020979	-7.17112068966
510	0.255	-2.05303030303	-0.438356164384	1.60979020979	1.26896551724
511	0.2555	-3.47878787879	0.984931506849	4.43636363636	1.26896551724
512	0.256	-2.05303030303	-11.8246575342	3.02307692308	1.26896551724
513	0.2565	0.798484848485	19.4876712329	0.196503496503	-0.137715517241
514	0.257	0.798484848485	-4.70821917808	-1.21678321678	1.26896551724
515	0.2575	-4.90454545455	2.40821917808	3.02307692308	-2.95107758621
516	0.258	0.798484848485	3.83150684932	0.196503496503	15.3357758621
517	0.2585	-0.627272727273	5.25479452055	3.02307692308	-11.3911637931
518	0.259	-2.05303030303	2.40821917808	12.9160839161	-2.95107758621
519	0.2595	-0.627272727273	0.984931506849	-1.21678321678	-1.54439655172
520	0.26	-0.627272727273	-1.86164383562	18.5692307692	-1.54439655172
521	0.2605	-0.627272727273	16.6410958904	3.02307692308	-1.54439655172
522	0.261	-0.627272727273	-3.28493150685	4.43636363636	4.08232758621
523	0.2615	-12.0333333333	6.67808219178	4.43636363636	-2.95107758621
524	0.262	17.9075757576	-0.438356164384	3.02307692308	4.08232758621
525	0.2625	-0.627272727273	0.984931506849	4.43636363636	-5.76443965517
526	0.263	-3.47878787879	-0.438356164384	-2.63006993007	1.26896551724
527	0.2635	-0.627272727273	-1.86164383562	18.5692307692	-0.137715517241
528	0.264	-2.05303030303	0.984931506849	-2.63006993007	1.26896551724
529	0.2645	-2.05303030303	-0.438356164384	8.67622377622	-0.137715517241
530	0.265	-0.627272727273	-3.28493150685	1.60979020979	-0.137715517241
531	0.2655	0.798484848485	0.984931506849	1.60979020979	-1.54439655172
532	0.266	-12.0333333333	0.984931506849	1.60979020979	-0.137715517241
533	0.2665	7.92727272727	0.984931506849	3.02307692308	-0.137715517241
534	0.267	-3.47878787879	0.984931506849	-6.86993006993	-5.76443965517
535	0.2675	-0.627272727273	-0.438356164384	11.5027972028	-2.95107758621
536	0.268	-0.627272727273	0.984931506849	-11.1097902098	-1.54439655172
537	0.2685	-0.627272727273	-1.86164383562	14.3293706294	-2.95107758621
538	0.269	-0.627272727273	16.6410958904	-4.04335664336	-2.95107758621
539	0.2695	-3.47878787879	-6.13150684932	-8.28321678322	-1.54439655172
540	0.27	-13.4590909091	-0.438356164384	-5.45664335664	-1.54439655172
541	0.2705	12.2045454545	0.984931506849	-6.86993006993	-0.137715517241
542	0.271	-12.0333333333	0.984931506849	-4.04335664336	-9.98448275862
543	0.2715	0.798484848485	0.984931506849	-9.6965034965	-1.54439655172
544	0.272	-0.627272727273	2.40821917808	-4.04335664336	-2.95107758621
545	0.2725	-0.627272727273	-0.438356164384	-1.21678321678	-1.54439655172
546	0.273	-2.05303030303	5.25479452055	-4.04335664336	-1.54439655172
547	0.2735	-2.05303030303	-4.70821917808	3.02307692308	-1.54439655172
548	0.274	-9.18181818182	-0.438356164384	4.43636363636	-2.95107758621
549	0.2745	9.35303030303	2.40821917808	4.43636363636	1.26896551724
550	0.275	-10.6075757576	0.984931506849	11.5027972028	-7.17112068966
551	0.2755	0.798484848485	0.984931506849	5.84965034965	9.70905172414
552	0.276	0.798484848485	-0.438356164384	5.84965034965	-5.76443965517
553	0.2765	-2.05303030303	-1.86164383562	4.43636363636	-2.95107758621
554	0.277	-2.05303030303	3.83150684932	5.84965034965	-2.95107758621
555	0.2775	-0.627272727273	-1.86164383562	-6.86993006993	-1.54439655172
556	0.278	-0.627272727273	-6.13150684932	1.60979020979	-1.54439655172
557	0.2785	-4.90454545455	-3.28493150685	4.43636363636	-1.54439655172
558	0.279	10.7787878788	-1.86164383562	4.43636363636	-0.137715517241
559	0.2795	-9.18181818182	0.984931506849	4.43636363636	-7.17112068966
560	0.28	-3.47878787879	-0.438356164384	-2.63006993007	-5.76443965517
561	0.2805	0.798484848485	0.984931506849	18.5692307692	-4.35775862069
562	0.281	-3.47878787879	-1.86164383562	3.02307692308	-4.35775862069
563	0.2815	-2.05303030303	0.984931506849	4.43636363636	-2.95107758621
564	0.282	-3.47878787879	-4.70821917808	3.02307692308	-4.35775862069
565	0.2825	3.65	0.984931506849	3.02307692308	-5.76443965517
566	0.283	-7.75606060606	0.984931506849	3.02307692308	-7.17112068966
567	0.2835	2.22424242424	-0.438356164384	1.60979020979	-7.17112068966
568	0.284	-0.627272727273	-0.438356164384	0.196503496503	13.9290948276
569	0.2845	-2.05303030303	0.984931506849	14.3293706294	-4.35775862069
570	0.285	-0.627272727273	-0.438356164384	-8.28321678322	-5.76443965517
571	0.2855	0.798484848485	-0.438356164384	-1.21678321678	-2.95107758621
572	0.286	-0.627272727273	-6.13150684932	-2.63006993007	-0.137715517241
573	0.2865	5.07575757576	13.7945205479	-1.21678321678	-1.54439655172
574	0.287	-9.18181818182	-1.86164383562	-1.21678321678	-2.95107758621
575	0.2875	22.1848484848	-1.86164383562	-1.21678321678	-0.137715517241
576	0.288	-7.75606060606	-0.438356164384	0.196503496503	-4.35775862069
577	0.2885	-0.627272727273	2.40821917808	3.02307692308	1.26896551724
578	0.289	-2.05303030303	-0.438356164384	3.02307692308	4.08232758621
579	0.2895	-3.47878787879	-1.86164383562	-4.04335664336	-0.137715517241
580	0.29	-2.05303030303	2.40821917808	1.60979020979	2.67564655172
581	0.2905	-0.627272727273	-3.28493150685	-4.04335664336	4.08232758621
582	0.291	0.798484848485	0.984931506849	4.43636363636	1.26896551724
583	0.2915	-9.18181818182	-1.86164383562	5.84965034965	-0.137715517241
584	0.292	15.0560606061	-1.86164383562	3.02307692308	5.48900862069
585	0.2925	-10.6075757576	0.984931506849	3.02307692308	-4.35775862069
586	0.293	-0.627272727273	0.984931506849	3.02307692308	2.67564655172
587	0.2935	-3.47878787879	-1.86164383562	-4.04335664336	-0.137715517241
588	0.294	0.798484848485	-1.86164383562	-1.21678321678	-0.137715517241
589	0.2945	-0.627272727273	0.984931506849	-6.86993006993	1.26896551724
590	0.295	0.798484848485	3.83150684932	-1.21678321678	4.08232758621
591	0.2955	-12.0333333333	-0.438356164384	-2.63006993007	-2.95107758621
592	0.296	19.3333333333	0.984931506849	-5.45664335664	2.67564655172
593	0.2965	-9.18181818182	0.984931506849	-1.21678321678	1.26896551724
594	0.297	-2.05303030303	0.984931506849	1.60979020979	2.67564655172
595	0.2975	-2.05303030303	-1.86164383562	-1.21678321678	15.3357758621
596	0.298	-0.627272727273	-0.438356164384	-2.63006993007	-1.54439655172
597	0.2985	0.798484848485	0.984931506849	-2.63006993007	2.67564655172
598	0.299	-2.05303030303	0.984931506849	0.196503496503	4.08232758621
599	0.2995	-2.05303030303	-3.28493150685	-1.21678321678	2.67564655172
600	0.3	23.6106060606	0.984931506849	3.02307692308	1.26896551724
601	0.3005	-6.3303030303	-1.86164383562	1.60979020979	1.26896551724
602	0.301	0.798484848485	0.984931506849	5.84965034965	-1.54439655172
603	0.3015	-0.627272727273	0.984931506849	-8.28321678322	-0.137715517241
604	0.302	0.798484848485	-1.86164383562	0.196503496503	-11.3911637931
605	0.3025	-2.05303030303	-3.28493150685	1.60979020979	-1.54439655172
606	0.303	-0.627272727273	2.40821917808	-1.21678321678	-2.95107758621
607	0.3035	-0.627272727273	0.984931506849	0.196503496503	-4.35775862069
608	0.304	2.22424242424	-1.86164383562	-1.21678321678	1.26896551724
609	0.3045	-6.3303030303	-0.438356164384	-1.21678321678	-14.2045258621
610	0.305	0.798484848485	-0.438356164384	-1.21678321678	1.26896551724
611	0.3055	0.798484848485	-3.28493150685	4.43636363636	-8.57780172414
612	0.306	0.798484848485	-3.28493150685	-8.28321678322	-1.54439655172
613	0.3065	-0.627272727273	0.984931506849	14.3293706294	-1.54439655172
614	0.307	-0.627272727273	6.67808219178	1.60979020979	-0.137715517241
615	0.3075	0.798484848485	-7.55479452055	0.196503496503	-1.54439655172
616	0.308	-2.05303030303	-1.86164383562	3.02307692308	-1.54439655172
617	0.3085	7.92727272727	2.40821917808	1.60979020979	1.26896551724
618	0.309	-6.3303030303	2.40821917808	0.196503496503	-4.35775862069
619	0.3095	0.798484848485	0.984931506849	3.02307692308	-2.95107758621
620	0.31	-0.627272727273	-0.438356164384	-4.04335664336	2.67564655172
621	0.3105	0.798484848485	-1.86164383562	7.26293706294	-0.137715517241
622	0.311	-0.627272727273	0.984931506849	3.02307692308	5.48900862069
623	0.3115	-0.627272727273	-1.86164383562	-6.86993006993	6.89568965517
624	0.312	2.22424242424	-0.438356164384	-1.21678321678	2.67564655172
625	0.3125	-13.4590909091	-3.28493150685	4.43636363636	1.26896551724
626	0.313	20.7590909091	-0.438356164384	3.02307692308	6.89568965517
627	0.3135	-7.75606060606	-1.86164383562	3.02307692308	2.67564655172
628	0.314	0.798484848485	-0.438356164384	1.60979020979	12.5224137931
629	0.3145	0.798484848485	-0.438356164384	-4.04335664336	4.08232758621
630	0.315	-2.05303030303	-1.86164383562	17.1559440559	1.26896551724
631	0.3155	0.798484848485	0.984931506849	0.196503496503	1.26896551724
632	0.316	-2.05303030303	-3.28493150685	-1.21678321678	-0.137715517241
633	0.3165	-0.627272727273	2.40821917808	1.60979020979	-0.137715517241
634	0.317	15.0560606061	-1.86164383562	0.196503496503	1.26896551724
635	0.3175	-9.18181818182	-1.86164383562	3.02307692308	-11.3911637931
636	0.318	2.22424242424	-0.438356164384	-1.21678321678	13.9290948276
637	0.3185	0.798484848485	-0.438356164384	-2.63006993007	-8.57780172414
638	0.319	0.798484848485	-1.86164383562	0.196503496503	-2.95107758621
639	0.3195	0.798484848485	0.984931506849	8.67622377622	-1.54439655172
640	0.32	0.798484848485	-10.401369863	-1.21678321678	-2.95107758621
641	0.3205	-4.90454545455	-8.97808219178	-1.21678321678	-2.95107758621
642	0.321	-2.05303030303	-3.28493150685	1.60979020979	-5.76443965517
643	0.3215	-3.47878787879	2.40821917808	0.196503496503	-1.54439655172
644	0.322	0.798484848485	0.984931506849	3.02307692308	-5.76443965517
645	0.3225	-2.05303030303	-1.86164383562	-9.6965034965	-8.57780172414
646	0.323	0.798484848485	-0.438356164384	19.9825174825	-5.76443965517
647	0.3235	-2.05303030303	0.984931506849	-6.86993006993	-4.35775862069
648	0.324	0.798484848485	-0.438356164384	15.7426573427	-4.35775862069
649	0.3245	0.798484848485	-3.28493150685	1.60979020979	-0.137715517241
650	0.325	3.65	-1.86164383562	-1.21678321678	-1.54439655172
651	0.3255	-12.0333333333	0.984931506849	-1.21678321678	-2.95107758621
652	0.326	23.6106060606	0.984931506849	-2.63006993007	-0.137715517241
653	0.3265	-4.90454545455	-0.438356164384	0.196503496503	-9.98448275862
654	0.327	3.65	-0.438356164384	-1.21678321678	-2.95107758621
655	0.3275	-0.627272727273	2.40821917808	0.196503496503	-2.95107758621
656	0.328	0.798484848485	-0.438356164384	-1.21678321678	-1.54439655172
657	0.3285	0.798484848485	5.25479452055	-5.45664335664	-0.137715517241
658	0.329	-0.627272727273	-8.97808219178	0.196503496503	1.26896551724
659	0.3295	-3.47878787879	0.984931506849	3.02307692308	-0.137715517241
660	0.33	-7.75606060606	-0.438356164384	0.196503496503	-1.54439655172
661	0.3305	12.2045454545	-1.86164383562	3.02307692308	6.89568965517
662	0.331	0.798484848485	0.984931506849	7.26293706294	-5.76443965517
663	0.3315	-2.05303030303	-3.28493150685	3.02307692308	20.9625
664	0.332	-2.05303030303	-4.70821917808	19.9825174825	4.08232758621
665	0.3325	-2.05303030303	-1.86164383562	-1.21678321678	5.48900862069
666	0.333	0.798484848485	8.10136986301	1.60979020979	5.48900862069
667	0.3335	0.798484848485	-10.401369863	3.02307692308	2.67564655172
668	0.334	0.798484848485	-3.28493150685	3.02307692308	2.67564655172
669	0.3345	19.3333333333	-1.86164383562	0.196503496503	4.08232758621
670	0.335	-7.75606060606	-0.438356164384	0.196503496503	-1.54439655172
671	0.3355	-3.47878787879	-0.438356164384	1.60979020979	2.67564655172
672	0.336	-2.05303030303	-1.86164383562	0.196503496503	13.9290948276
673	0.3365	-0.627272727273	-1.86164383562	1.60979020979	1.26896551724
674	0.337	-0.627272727273	2.40821917808	3.02307692308	-0.137715517241
675	0.3375	-0.627272727273	5.25479452055	3.02307692308	1.26896551724
676	0.338	-4.90454545455	-6.13150684932	0.196503496503	-0.137715517241
677	0.3385	-0.627272727273	-1.86164383562	0.196503496503	2.67564655172
678	0.339	-7.75606060606	0.984931506849	3.02307692308	1.26896551724
679	0.3395	0.798484848485	-1.86164383562	3.02307692308	-0.137715517241
680	0.34	2.22424242424	-1.86164383562	-11.1097902098	-1.54439655172
681	0.3405	2.22424242424	-0.438356164384	1.60979020979	-11.3911637931
682	0.341	-0.627272727273	-3.28493150685	-8.28321678322	-0.137715517241
683	0.3415	2.22424242424	-0.438356164384	1.60979020979	-2.95107758621
684	0.342	5.07575757576	-6.13150684932	1.60979020979	-0.137715517241
685	0.3425	-4.90454545455	0.984931506849	-1.21678321678	1.26896551724
686	0.343	-2.05303030303	0.984931506849	0.196503496503	-0.137715517241
687	0.3435	-3.47878787879	0.984931506849	-1.21678321678	1.26896551724
688	0.344	-0.627272727273	-0.438356164384	3.02307692308	-11.3911637931
689	0.3445	-0.627272727273	-0.438356164384	-2.63006993007	-1.54439655172
690	0.345	-0.627272727273	2.40821917808	5.84965034965	-1.54439655172
691	0.3455	-0.627272727273	2.40821917808	15.7426573427	-0.137715517241
692	0.346	-0.627272727273	0.984931506849	0.196503496503	1.26896551724
693	0.3465	0.798484848485	6.67808219178	0.196503496503	2.67564655172
694	0.347	7.92727272727	-1.86164383562	-2.63006993007	1.26896551724
695	0.3475	20.7590909091	0.984931506849	3.02307692308	-1.54439655172
696	0.348	-6.3303030303	0.984931506849	3.02307692308	-0.137715517241
697	0.3485	0.798484848485	-1.86164383562	4.43636363636	-5.76443965517
698	0.349	0.798484848485	2.40821917808	14.3293706294	-0.137715517241
699	0.3495	0.798484848485	-3.28493150685	-12.5230769231	-0.137715517241
700	0.35	0.798484848485	2.40821917808	-1.21678321678	-0.137715517241
701	0.3505	0.798484848485	9.52465753425	0.196503496503	-1.54439655172
702	0.351	2.22424242424	-4.70821917808	0.196503496503	-1.54439655172
703	0.3515	-12.0333333333	0.984931506849	3.02307692308	-4.35775862069
704	0.352	15.0560606061	-0.438356164384	1.60979020979	-7.17112068966
705	0.3525	0.798484848485	-1.86164383562	-5.45664335664	-5.76443965517
706	0.353	-0.627272727273	2.40821917808	15.7426573427	-4.35775862069
707	0.3535	0.798484848485	2.40821917808	-9.6965034965	-4.35775862069
708	0.354	-2.05303030303	0.984931506849	0.196503496503	-4.35775862069
709	0.3545	2.22424242424	-10.401369863	0.196503496503	-7.17112068966
710	0.355	9.35303030303	-1.86164383562	-1.21678321678	-2.95107758621
711	0.3555	-2.05303030303	0.984931506849	0.196503496503	-2.95107758621
712	0.356	15.0560606061	-0.438356164384	3.02307692308	-15.6112068966
713	0.3565	-6.3303030303	0.984931506849	0.196503496503	-2.95107758621
714	0.357	-3.47878787879	-1.86164383562	-2.63006993007	5.48900862069
715	0.3575	-2.05303030303	-1.86164383562	4.43636363636	-4.35775862069
716	0.358	-0.627272727273	-3.28493150685	7.26293706294	-7.17112068966
717	0.3585	2.22424242424	-0.438356164384	0.196503496503	-7.17112068966
718	0.359	-0.627272727273	-10.401369863	-1.21678321678	-2.95107758621
719	0.3595	-2.05303030303	-0.438356164384	-1.21678321678	-2.95107758621
720	0.36	7.92727272727	-0.438356164384	0.196503496503	-0.137715517241
721	0.3605	-9.18181818182	-0.438356164384	0.196503496503	-14.2045258621
722	0.361	-0.627272727273	-1.86164383562	1.60979020979	-5.76443965517
723	0.3615	2.22424242424	-1.86164383562	11.5027972028	-7.17112068966
724	0.362	3.65	-0.438356164384	-9.6965034965	-4.35775862069
725	0.3625	0.798484848485	0.984931506849	0.196503496503	-4.35775862069
726	0.363	-0.627272727273	2.40821917808	0.196503496503	-4.35775862069
727	0.3635	2.22424242424	-0.438356164384	0.196503496503	-2.95107758621
728	0.364	-9.18181818182	0.984931506849	-1.21678321678	-2.95107758621
729	0.3645	10.7787878788	-0.438356164384	0.196503496503	-9.98448275862
730	0.365	2.22424242424	-1.86164383562	-15.3496503497	-7.17112068966
731	0.3655	0.798484848485	-3.28493150685	15.7426573427	-7.17112068966
732	0.366	2.22424242424	0.984931506849	-6.86993006993	-5.76443965517
733	0.3665	-2.05303030303	3.83150684932	-1.21678321678	-8.57780172414
734	0.367	-2.05303030303	-8.97808219178	0.196503496503	-5.76443965517
735	0.3675	0.798484848485	2.40821917808	0.196503496503	-11.3911637931
736	0.368	-12.0333333333	0.984931506849	1.60979020979	-11.3911637931
737	0.3685	13.6303030303	0.984931506849	1.60979020979	-14.2045258621
738	0.369	-3.47878787879	2.40821917808	-1.21678321678	-1.54439655172
739	0.3695	2.22424242424	0.984931506849	17.1559440559	-11.3911637931
740	0.37	0.798484848485	-0.438356164384	-1.21678321678	-11.3911637931
741	0.3705	2.22424242424	5.25479452055	1.60979020979	-11.3911637931
742	0.371	0.798484848485	-11.8246575342	1.60979020979	-11.3911637931
743	0.3715	3.65	10.9479452055	4.43636363636	-11.3911637931
744	0.372	-4.90454545455	-4.70821917808	3.02307692308	-9.98448275862
745	0.3725	19.3333333333	-0.438356164384	1.60979020979	-9.98448275862
746	0.373	-6.3303030303	0.984931506849	4.43636363636	-15.6112068966
747	0.3735	0.798484848485	0.984931506849	3.02307692308	-8.57780172414
748	0.374	-0.627272727273	0.984931506849	-8.28321678322	-8.57780172414
749	0.3745	-2.05303030303	-1.86164383562	0.196503496503	-8.57780172414
750	0.375	-2.05303030303	-10.401369863	-8.28321678322	-7.17112068966
751	0.3755	0.798484848485	18.0643835616	-2.63006993007	-7.17112068966
752	0.376	-12.0333333333	-0.438356164384	-1.21678321678	-8.57780172414
753	0.3765	17.9075757576	-0.438356164384	1.60979020979	-7.17112068966
754	0.377	-0.627272727273	-0.438356164384	-1.21678321678	1.26896551724
755	0.3775	-0.627272727273	-0.438356164384	3.02307692308	-17.017887931
756	0.378	0.798484848485	-1.86164383562	-5.45664335664	-9.98448275862
757	0.3785	0.798484848485	0.984931506849	-1.21678321678	-9.98448275862
758	0.379	-0.627272727273	-11.8246575342	-1.21678321678	-8.57780172414
759	0.3795	0.798484848485	16.6410958904	-1.21678321678	-11.3911637931
760	0.38	-2.05303030303	-6.13150684932	1.60979020979	-14.2045258621
761	0.3805	-13.4590909091	0.984931506849	0.196503496503	-14.2045258621
762	0.381	-0.627272727273	0.984931506849	-1.21678321678	2.67564655172
763	0.3815	-0.627272727273	0.984931506849	-4.04335664336	-15.6112068966
764	0.382	-2.05303030303	-0.438356164384	3.02307692308	-11.3911637931
765	0.3825	0.798484848485	2.40821917808	-6.86993006993	-11.3911637931
766	0.383	3.65	0.984931506849	3.02307692308	-11.3911637931
767	0.3835	0.798484848485	0.984931506849	0.196503496503	-8.57780172414
768	0.384	6.50151515152	-1.86164383562	0.196503496503	-8.57780172414
769	0.3845	-7.75606060606	0.984931506849	-1.21678321678	-8.57780172414
770	0.385	10.7787878788	0.984931506849	-2.63006993007	-17.017887931
771	0.3855	-2.05303030303	-1.86164383562	-5.45664335664	-11.3911637931
772	0.386	2.22424242424	0.984931506849	7.26293706294	-11.3911637931
773	0.3865	3.65	0.984931506849	-12.5230769231	-11.3911637931
774	0.387	-0.627272727273	-1.86164383562	-4.04335664336	-9.98448275862
775	0.3875	-0.627272727273	-6.13150684932	-9.6965034965	-9.98448275862
776	0.388	2.22424242424	0.984931506849	-4.04335664336	-14.2045258621
777	0.3885	3.65	2.40821917808	-1.21678321678	-11.3911637931
778	0.389	-4.90454545455	0.984931506849	0.196503496503	-12.7978448276
779	0.3895	2.22424242424	0.984931506849	1.60979020979	-21.2379310345
780	0.39	-0.627272727273	-0.438356164384	3.02307692308	2.67564655172
781	0.3905	0.798484848485	-0.438356164384	24.2223776224	-8.57780172414
782	0.391	-0.627272727273	0.984931506849	1.60979020979	-8.57780172414
783	0.3915	2.22424242424	-0.438356164384	5.84965034965	-8.57780172414
784	0.392	-0.627272727273	-3.28493150685	5.84965034965	-11.3911637931
785	0.3925	-2.05303030303	16.6410958904	7.26293706294	-11.3911637931
786	0.393	2.22424242424	-0.438356164384	7.26293706294	-12.7978448276
787	0.3935	-6.3303030303	2.40821917808	7.26293706294	-9.98448275862
788	0.394	0.798484848485	0.984931506849	4.43636363636	-5.76443965517
789	0.3945	2.22424242424	0.984931506849	-9.6965034965	-12.7978448276
790	0.395	0.798484848485	-1.86164383562	0.196503496503	-19.83125
791	0.3955	0.798484848485	-3.28493150685	-2.63006993007	-11.3911637931
792	0.396	-0.627272727273	-1.86164383562	-4.04335664336	-8.57780172414
793	0.3965	-3.47878787879	-4.70821917808	-2.63006993007	-8.57780172414
794	0.397	5.07575757576	-6.13150684932	-4.04335664336	-7.17112068966
795	0.3975	-12.0333333333	-1.86164383562	-2.63006993007	-5.76443965517
796	0.398	-0.627272727273	-1.86164383562	0.196503496503	2.67564655172
797	0.3985	-0.627272727273	-0.438356164384	-5.45664335664	-4.35775862069
798	0.399	0.798484848485	-0.438356164384	4.43636363636	-7.17112068966
799	0.3995	0.798484848485	0.984931506849	-5.45664335664	-7.17112068966
800	0.4	-2.05303030303	2.40821917808	3.02307692308	-5.76443965517
801	0.4005	-2.05303030303	10.9479452055	3.02307692308	-7.17112068966
802	0.401	2.22424242424	-1.86164383562	1.60979020979	-5.76443965517
803	0.4015	-16.3106060606	0.984931506849	1.60979020979	-2.95107758621
804	0.402	20.7590909091	-0.438356164384	3.02307692308	-2.95107758621
805	0.4025	-4.90454545455	0.984931506849	0.196503496503	-0.137715517241
806	0.403	-2.05303030303	-0.438356164384	15.7426573427	-0.137715517241
807	0.4035	2.22424242424	3.83150684932	-5.45664335664	1.26896551724
808	0.404	0.798484848485	-3.28493150685	15.7426573427	-0.137715517241
809	0.4045	-0.627272727273	-0.438356164384	-1.21678321678	1.26896551724
810	0.405	-2.05303030303	5.25479452055	-1.21678321678	-2.95107758621
811	0.4055	-9.18181818182	-3.28493150685	-1.21678321678	-2.95107758621
812	0.406	16.4818181818	-0.438356164384	-2.63006993007	-0.137715517241
813	0.4065	-7.75606060606	-0.438356164384	0.196503496503	-4.35775862069
814	0.407	-0.627272727273	-1.86164383562	-4.04335664336	18.149137931
815	0.4075	-0.627272727273	-1.86164383562	14.3293706294	1.26896551724
816	0.408	2.22424242424	0.984931506849	-8.28321678322	1.26896551724
817	0.4085	0.798484848485	2.40821917808	-1.21678321678	4.08232758621
818	0.409	-0.627272727273	-7.55479452055	-4.04335664336	1.26896551724
819	0.4095	3.65	-1.86164383562	-1.21678321678	6.89568965517
820	0.41	-13.4590909091	-0.438356164384	-1.21678321678	1.26896551724
821	0.4105	17.9075757576	-1.86164383562	-4.04335664336	4.08232758621
822	0.411	-4.90454545455	-0.438356164384	-1.21678321678	5.48900862069
823	0.4115	2.22424242424	-1.86164383562	-4.04335664336	-1.54439655172
824	0.412	-0.627272727273	-0.438356164384	0.196503496503	20.9625
825	0.4125	-3.47878787879	-0.438356164384	-9.6965034965	9.70905172414
826	0.413	-3.47878787879	0.984931506849	-4.04335664336	8.30237068966
827	0.4135	-3.47878787879	3.83150684932	-1.21678321678	6.89568965517
828	0.414	2.22424242424	-0.438356164384	0.196503496503	8.30237068966
829	0.4145	-13.4590909091	-0.438356164384	-1.21678321678	8.30237068966
830	0.415	19.3333333333	-0.438356164384	-2.63006993007	13.9290948276
831	0.4155	0.798484848485	-0.438356164384	-2.63006993007	1.26896551724
832	0.416	-0.627272727273	-0.438356164384	4.43636363636	8.30237068966
833	0.4165	-0.627272727273	0.984931506849	-12.5230769231	5.48900862069
834	0.417	-0.627272727273	-0.438356164384	-1.21678321678	5.48900862069
835	0.4175	-0.627272727273	2.40821917808	-4.04335664336	5.48900862069
836	0.418	0.798484848485	-1.86164383562	3.02307692308	6.89568965517
837	0.4185	-10.6075757576	5.25479452055	-1.21678321678	2.67564655172
838	0.419	17.9075757576	5.25479452055	-1.21678321678	8.30237068966
839	0.4195	-12.0333333333	3.83150684932	0.196503496503	-2.95107758621
840	0.42	-2.05303030303	2.40821917808	-4.04335664336	4.08232758621
841	0.4205	-0.627272727273	2.40821917808	-5.45664335664	-0.137715517241
842	0.421	2.22424242424	-0.438356164384	-1.21678321678	5.48900862069
843	0.4215	5.07575757576	2.40821917808	0.196503496503	4.08232758621
844	0.422	2.22424242424	9.52465753425	4.43636363636	4.08232758621
845	0.4225	-4.90454545455	-0.438356164384	1.60979020979	5.48900862069
846	0.423	15.0560606061	-1.86164383562	3.02307692308	9.70905172414
847	0.4235	-9.18181818182	-1.86164383562	0.196503496503	4.08232758621
848	0.424	-0.627272727273	-3.28493150685	-2.63006993007	19.5558189655
849	0.4245	0.798484848485	0.984931506849	3.02307692308	8.30237068966
850	0.425	0.798484848485	-1.86164383562	-4.04335664336	8.30237068966
851	0.4255	-0.627272727273	-0.438356164384	-9.6965034965	5.48900862069
852	0.426	2.22424242424	-4.70821917808	-1.21678321678	5.48900862069
853	0.4265	-0.627272727273	3.83150684932	-1.21678321678	2.67564655172
854	0.427	12.2045454545	-0.438356164384	-1.21678321678	-0.137715517241
855	0.4275	-4.90454545455	0.984931506849	-1.21678321678	-4.35775862069
856	0.428	-0.627272727273	0.984931506849	-4.04335664336	12.5224137931
857	0.4285	-3.47878787879	-0.438356164384	0.196503496503	-18.4245689655
858	0.429	0.798484848485	-0.438356164384	7.26293706294	-9.98448275862
859	0.4295	2.22424242424	2.40821917808	-4.04335664336	-8.57780172414
860	0.43	5.07575757576	-10.401369863	-6.86993006993	-9.98448275862
861	0.4305	0.798484848485	-7.55479452055	-2.63006993007	-11.3911637931
862	0.431	2.22424242424	0.984931506849	-1.21678321678	-11.3911637931
863	0.4315	2.22424242424	0.984931506849	0.196503496503	-9.98448275862
864	0.432	5.07575757576	2.40821917808	1.60979020979	-18.4245689655
865	0.4325	-2.05303030303	-1.86164383562	1.60979020979	-8.57780172414
866	0.433	-0.627272727273	-0.438356164384	-8.28321678322	-17.017887931
867	0.4335	-0.627272727273	-1.86164383562	5.84965034965	-9.98448275862
868	0.434	-2.05303030303	-0.438356164384	-6.86993006993	-9.98448275862
869	0.4345	2.22424242424	-1.86164383562	3.02307692308	-8.57780172414
870	0.435	0.798484848485	5.25479452055	4.43636363636	-12.7978448276
871	0.4355	5.07575757576	-1.86164383562	7.26293706294	-11.3911637931
872	0.436	-12.0333333333	-0.438356164384	7.26293706294	-14.2045258621
873	0.4365	-0.627272727273	-3.28493150685	4.43636363636	-5.76443965517
874	0.437	-0.627272727273	-0.438356164384	-2.63006993007	-18.4245689655
875	0.4375	0.798484848485	-0.438356164384	15.7426573427	-18.4245689655
876	0.438	0.798484848485	2.40821917808	-4.04335664336	-18.4245689655
877	0.4385	0.798484848485	-0.438356164384	3.02307692308	-17.017887931
878	0.439	2.22424242424	15.2178082192	3.02307692308	-15.6112068966
879	0.4395	0.798484848485	-4.70821917808	3.02307692308	-14.2045258621
880	0.44	-4.90454545455	3.83150684932	3.02307692308	-15.6112068966
881	0.4405	12.2045454545	-0.438356164384	4.43636363636	-11.3911637931
882	0.441	-3.47878787879	-0.438356164384	7.26293706294	-26.8646551724
883	0.4415	-0.627272727273	-0.438356164384	-4.04335664336	-18.4245689655
884	0.442	-0.627272727273	2.40821917808	19.9825174825	-18.4245689655
885	0.4425	-0.627272727273	-1.86164383562	-2.63006993007	-15.6112068966
886	0.443	0.798484848485	-1.86164383562	1.60979020979	-14.2045258621
887	0.4435	-0.627272727273	8.10136986301	1.60979020979	-11.3911637931
888	0.444	0.798484848485	-4.70821917808	0.196503496503	-12.7978448276
889	0.4445	-10.6075757576	0.984931506849	-1.21678321678	-15.6112068966
890	0.445	12.2045454545	-0.438356164384	1.60979020979	-9.98448275862
891	0.4455	0.798484848485	0.984931506849	4.43636363636	-18.4245689655
892	0.446	0.798484848485	0.984931506849	-9.6965034965	-11.3911637931
893	0.4465	0.798484848485	0.984931506849	3.02307692308	-21.2379310345
894	0.447	-2.05303030303	0.984931506849	-4.04335664336	-12.7978448276
895	0.4475	-0.627272727273	2.40821917808	3.02307692308	-11.3911637931
896	0.448	-3.47878787879	-7.55479452055	1.60979020979	-11.3911637931
897	0.4485	0.798484848485	-1.86164383562	0.196503496503	-7.17112068966
898	0.449	-7.75606060606	0.984931506849	-1.21678321678	-9.98448275862
899	0.4495	9.35303030303	-0.438356164384	0.196503496503	-11.3911637931
900	0.45	-2.05303030303	-3.28493150685	-8.28321678322	-9.98448275862
901	0.4505	-0.627272727273	-0.438356164384	4.43636363636	-8.57780172414
902	0.451	-0.627272727273	0.984931506849	-11.1097902098	-8.57780172414
903	0.4515	0.798484848485	3.83150684932	-2.63006993007	-9.98448275862
904	0.452	-0.627272727273	20.9109589041	-2.63006993007	-11.3911637931
905	0.4525	-7.75606060606	-8.97808219178	-4.04335664336	-11.3911637931
906	0.453	-4.90454545455	0.984931506849	-1.21678321678	-9.98448275862
907	0.4535	-0.627272727273	0.984931506849	-2.63006993007	-12.7978448276
908	0.454	-3.47878787879	0.984931506849	1.60979020979	-15.6112068966
909	0.4545	-2.05303030303	-1.86164383562	-1.21678321678	2.67564655172
910	0.455	0.798484848485	0.984931506849	17.1559440559	-11.3911637931
911	0.4555	-0.627272727273	0.984931506849	-8.28321678322	-12.7978448276
912	0.456	0.798484848485	-6.13150684932	0.196503496503	-12.7978448276
913	0.4565	-0.627272727273	16.6410958904	0.196503496503	-12.7978448276
914	0.457	-3.47878787879	-7.55479452055	0.196503496503	-11.3911637931
915	0.4575	-10.6075757576	0.984931506849	0.196503496503	-11.3911637931
916	0.458	-4.90454545455	-0.438356164384	1.60979020979	-1.54439655172
917	0.4585	-0.627272727273	0.984931506849	3.02307692308	-18.4245689655
918	0.459	2.22424242424	0.984931506849	-6.86993006993	-11.3911637931
919	0.4595	2.22424242424	0.984931506849	21.3958041958	-11.3911637931
920	0.46	0.798484848485	2.40821917808	1.60979020979	-9.98448275862
921	0.4605	-2.05303030303	19.4876712329	0.196503496503	-8.57780172414
922	0.461	0.798484848485	18.0643835616	0.196503496503	-7.17112068966
923	0.4615	-2.05303030303	-8.97808219178	-1.21678321678	-8.57780172414
924	0.462	16.4818181818	0.984931506849	1.60979020979	-9.98448275862
925	0.4625	-9.18181818182	2.40821917808	1.60979020979	-12.7978448276
926	0.463	-3.47878787879	-0.438356164384	0.196503496503	2.67564655172
927	0.4635	-0.627272727273	-3.28493150685	-2.63006993007	-12.7978448276
928	0.464	-0.627272727273	-1.86164383562	-4.04335664336	-2.95107758621
929	0.4645	0.798484848485	0.984931506849	3.02307692308	-2.95107758621
930	0.465	2.22424242424	-13.2479452055	1.60979020979	1.26896551724
931	0.4655	0.798484848485	16.6410958904	0.196503496503	-0.137715517241
932	0.466	-9.18181818182	0.984931506849	-1.21678321678	2.67564655172
933	0.4665	-4.90454545455	0.984931506849	-1.21678321678	2.67564655172
934	0.467	9.35303030303	0.984931506849	3.02307692308	-4.35775862069
935	0.4675	3.65	0.984931506849	-5.45664335664	-2.95107758621
936	0.468	-0.627272727273	-0.438356164384	4.43636363636	-8.57780172414
937	0.4685	-0.627272727273	0.984931506849	-6.86993006993	-1.54439655172
938	0.469	-0.627272727273	-0.438356164384	14.3293706294	-4.35775862069
939	0.4695	0.798484848485	9.52465753425	1.60979020979	-1.54439655172
940	0.47	0.798484848485	0.984931506849	0.196503496503	-1.54439655172
941	0.4705	-7.75606060606	2.40821917808	1.60979020979	-4.35775862069
942	0.471	15.0560606061	0.984931506849	1.60979020979	-1.54439655172
943	0.4715	-3.47878787879	5.25479452055	3.02307692308	-12.7978448276
944	0.472	0.798484848485	2.40821917808	-1.21678321678	9.70905172414
945	0.4725	-0.627272727273	2.40821917808	1.60979020979	-9.98448275862
946	0.473	-2.05303030303	0.984931506849	-8.28321678322	-1.54439655172
947	0.4735	-2.05303030303	-0.438356164384	0.196503496503	-2.95107758621
948	0.474	-0.627272727273	2.40821917808	-1.21678321678	-1.54439655172
949	0.4745	3.65	-4.70821917808	0.196503496503	-1.54439655172
950	0.475	-12.0333333333	-0.438356164384	-1.21678321678	-2.95107758621
951	0.4755	22.1848484848	0.984931506849	3.02307692308	5.48900862069
952	0.476	-0.627272727273	0.984931506849	3.02307692308	-12.7978448276
953	0.4765	2.22424242424	-1.86164383562	-1.21678321678	13.9290948276
954	0.477	2.22424242424	0.984931506849	10.0895104895	-2.95107758621
955	0.4775	0.798484848485	0.984931506849	3.02307692308	-4.35775862069
956	0.478	2.22424242424	9.52465753425	3.02307692308	-5.76443965517
957	0.4785	-0.627272727273	-4.70821917808	1.60979020979	-4.35775862069
958	0.479	6.50151515152	-0.438356164384	1.60979020979	-2.95107758621
959	0.4795	-12.0333333333	3.83150684932	0.196503496503	-4.35775862069
960	0.48	0.798484848485	-0.438356164384	0.196503496503	12.5224137931
961	0.4805	3.65	2.40821917808	-1.21678321678	-7.17112068966
962	0.481	2.22424242424	0.984931506849	5.84965034965	-0.137715517241
963	0.4815	10.7787878788	2.40821917808	-4.04335664336	-5.76443965517
964	0.482	0.798484848485	-13.2479452055	8.67622377622	-1.54439655172
965	0.4825	2.22424242424	2.40821917808	3.02307692308	-0.137715517241
966	0.483	2.22424242424	-7.55479452055	4.43636363636	-0.137715517241
967	0.4835	-2.05303030303	-0.438356164384	1.60979020979	1.26896551724
968	0.484	7.92727272727	-1.86164383562	1.60979020979	-1.54439655172
969	0.4845	-0.627272727273	-0.438356164384	0.196503496503	5.48900862069
970	0.485	0.798484848485	-0.438356164384	4.43636363636	-1.54439655172
971	0.4855	-0.627272727273	-0.438356164384	-1.21678321678	18.149137931
972	0.486	2.22424242424	-0.438356164384	1.60979020979	1.26896551724
973	0.4865	0.798484848485	-1.86164383562	1.60979020979	4.08232758621
974	0.487	2.22424242424	-3.28493150685	1.60979020979	4.08232758621
975	0.4875	0.798484848485	9.52465753425	1.60979020979	-0.137715517241
976	0.488	9.35303030303	2.40821917808	-1.21678321678	1.26896551724
977	0.4885	3.65	0.984931506849	0.196503496503	-0.137715517241
978	0.489	-0.627272727273	-0.438356164384	-1.21678321678	9.70905172414
979	0.4895	-2.05303030303	3.83150684932	3.02307692308	-5.76443965517
980	0.49	0.798484848485	-0.438356164384	0.196503496503	16.7424568966
981	0.4905	-2.05303030303	-1.86164383562	-5.45664335664	-0.137715517241
982	0.491	-0.627272727273	-3.28493150685	14.3293706294	-2.95107758621
983	0.4915	-0.627272727273	3.83150684932	0.196503496503	-5.76443965517
984	0.492	3.65	-0.438356164384	-1.21678321678	-4.35775862069
985	0.4925	-13.4590909091	0.984931506849	-4.04335664336	-5.76443965517
986	0.493	19.3333333333	2.40821917808	-2.63006993007	-4.35775862069
987	0.4935	-9.18181818182	0.984931506849	0.196503496503	-11.3911637931
988	0.494	0.798484848485	-0.438356164384	-1.21678321678	-7.17112068966
989	0.4945	-0.627272727273	0.984931506849	-2.63006993007	-5.76443965517
990	0.495	-2.05303030303	-4.70821917808	14.3293706294	-4.35775862069
991	0.4955	0.798484848485	0.984931506849	0.196503496503	-4.35775862069
992	0.496	0.798484848485	-4.70821917808	-1.21678321678	-4.35775862069
993	0.4965	-4.90454545455	0.984931506849	0.196503496503	-7.17112068966
994	0.497	-9.18181818182	-3.28493150685	1.60979020979	-2.95107758621
995	0.4975	17.9075757576	0.984931506849	1.60979020979	-2.95107758621
996	0.498	-0.627272727273	-1.86164383562	0.196503496503	-12.7978448276
997	0.4985	0.798484848485	0.984931506849	0.196503496503	-5.76443965517
998	0.499	0.798484848485	0.984931506849	-4.04335664336	-11.3911637931
999	0.4995	-0.627272727273	-0.438356164384	-2.63006993007	-4.35775862069
1000	0.5	0.798484848485	16.6410958904	1.60979020979	-5.76443965517
1001	0.5005	-4.90454545455	-10.401369863	3.02307692308	-5.76443965517
1002	0.501	0.798484848485	-0.438356164384	0.196503496503	-2.95107758621
1003	0.5015	-3.47878787879	-0.438356164384	0.196503496503	-2.95107758621
1004	0.502	3.65	-0.438356164384	1.60979020979	-9.98448275862
1005	0.5025	-2.05303030303	-0.438356164384	-4.04335664336	-7.17112068966
1006	0.503	-0.627272727273	-1.86164383562	11.5027972028	-2.95107758621
1007	0.5035	0.798484848485	2.40821917808	-8.28321678322	-7.17112068966
1008	0.504	0.798484848485	-1.86164383562	18.5692307692	-4.35775862069
1009	0.5045	0.798484848485	18.0643835616	1.60979020979	-7.17112068966
1010	0.505	-2.05303030303	-4.70821917808	0.196503496503	-5.76443965517
1011	0.5055	3.65	0.984931506849	1.60979020979	-7.17112068966
1012	0.506	-7.75606060606	3.83150684932	-1.21678321678	-7.17112068966
1013	0.5065	-0.627272727273	3.83150684932	1.60979020979	1.26896551724
1014	0.507	-0.627272727273	2.40821917808	-4.04335664336	-17.017887931
1015	0.5075	0.798484848485	0.984931506849	1.60979020979	-1.54439655172
1016	0.508	-0.627272727273	0.984931506849	4.43636363636	-7.17112068966
1017	0.5085	-0.627272727273	-3.28493150685	18.5692307692	-8.57780172414
1018	0.509	2.22424242424	-0.438356164384	3.02307692308	-5.76443965517
1019	0.5095	2.22424242424	-8.97808219178	4.43636363636	-7.17112068966
1020	0.51	-0.627272727273	-0.438356164384	-1.21678321678	-5.76443965517
1021	0.5105	17.9075757576	-1.86164383562	-2.63006993007	-4.35775862069
1022	0.511	-6.3303030303	-0.438356164384	-1.21678321678	-5.76443965517
1023	0.5115	-2.05303030303	-1.86164383562	0.196503496503	-4.35775862069
1024	0.512	-2.05303030303	-0.438356164384	-12.5230769231	-5.76443965517
1025	0.5125	-2.05303030303	-3.28493150685	-15.3496503497	-7.17112068966
1026	0.513	-0.627272727273	0.984931506849	-11.1097902098	-5.76443965517
1027	0.5135	-0.627272727273	-8.97808219178	-13.9363636364	-7.17112068966
1028	0.514	2.22424242424	-0.438356164384	-11.1097902098	-5.76443965517
1029	0.5145	2.22424242424	-1.86164383562	-12.5230769231	-8.57780172414
1030	0.515	-9.18181818182	0.984931506849	-11.1097902098	-5.76443965517
1031	0.5155	12.2045454545	-1.86164383562	-11.1097902098	-14.2045258621
1032	0.516	-2.05303030303	-1.86164383562	-8.28321678322	-15.6112068966
1033	0.5165	-3.47878787879	2.40821917808	-4.04335664336	-7.17112068966
1034	0.517	-0.627272727273	-3.28493150685	1.60979020979	-9.98448275862
1035	0.5175	-0.627272727273	-1.86164383562	14.3293706294	-11.3911637931
1036	0.518	0.798484848485	9.52465753425	5.84965034965	-9.98448275862
1037	0.5185	-4.90454545455	-7.55479452055	8.67622377622	-12.7978448276
1038	0.519	2.22424242424	-0.438356164384	14.3293706294	-11.3911637931
1039	0.5195	-9.18181818182	0.984931506849	14.3293706294	-11.3911637931
1040	0.52	-2.05303030303	0.984931506849	18.5692307692	-5.76443965517
1041	0.5205	-0.627272727273	-1.86164383562	7.26293706294	-15.6112068966
1042	0.521	-3.47878787879	-0.438356164384	15.7426573427	-1.54439655172
1043	0.5215	0.798484848485	0.984931506849	15.7426573427	-7.17112068966
1044	0.522	-2.05303030303	0.984931506849	5.84965034965	-4.35775862069
1045	0.5225	0.798484848485	5.25479452055	10.0895104895	-4.35775862069
1046	0.523	-0.627272727273	-0.438356164384	5.84965034965	-1.54439655172
1047	0.5235	0.798484848485	-3.28493150685	7.26293706294	-2.95107758621
1048	0.524	-12.0333333333	-0.438356164384	3.02307692308	-5.76443965517
1049	0.5245	-0.627272727273	0.984931506849	5.84965034965	-7.17112068966
1050	0.525	0.798484848485	2.40821917808	1.60979020979	-11.3911637931
1051	0.5255	0.798484848485	0.984931506849	-4.04335664336	-11.3911637931
1052	0.526	-0.627272727273	-0.438356164384	12.9160839161	-5.76443965517
1053	0.5265	-0.627272727273	5.25479452055	-1.21678321678	-8.57780172414
1054	0.527	0.798484848485	18.0643835616	-1.21678321678	-9.98448275862
1055	0.5275	0.798484848485	-8.97808219178	-2.63006993007	-11.3911637931
1056	0.528	-12.0333333333	-1.86164383562	-1.21678321678	-12.7978448276
1057	0.5285	15.0560606061	0.984931506849	-2.63006993007	-5.76443965517
1058	0.529	-10.6075757576	-0.438356164384	-2.63006993007	-7.17112068966
1059	0.5295	-4.90454545455	-1.86164383562	0.196503496503	-12.7978448276
1060	0.53	-2.05303030303	0.984931506849	18.5692307692	-7.17112068966
1061	0.5305	-2.05303030303	-0.438356164384	-8.28321678322	-2.95107758621
1062	0.531	-2.05303030303	2.40821917808	0.196503496503	-1.54439655172
1063	0.5315	-2.05303030303	13.7945205479	-4.04335664336	-1.54439655172
1064	0.532	2.22424242424	-7.55479452055	-6.86993006993	-1.54439655172
1065	0.5325	-6.3303030303	2.40821917808	-8.28321678322	-2.95107758621
1066	0.533	17.9075757576	-1.86164383562	-8.28321678322	1.26896551724
1067	0.5335	0.798484848485	-0.438356164384	-6.86993006993	-1.54439655172
1068	0.534	0.798484848485	0.984931506849	-6.86993006993	-4.35775862069
1069	0.5345	0.798484848485	0.984931506849	-8.28321678322	-1.54439655172
1070	0.535	-2.05303030303	5.25479452055	-6.86993006993	2.67564655172
1071	0.5355	-3.47878787879	-7.55479452055	-6.86993006993	2.67564655172
1072	0.536	0.798484848485	20.9109589041	-2.63006993007	1.26896551724
1073	0.5365	-3.47878787879	-6.13150684932	-1.21678321678	1.26896551724
1074	0.537	13.6303030303	-0.438356164384	3.02307692308	2.67564655172
1075	0.5375	5.07575757576	-3.28493150685	3.02307692308	1.26896551724
1076	0.538	-4.90454545455	-0.438356164384	4.43636363636	9.70905172414
1077	0.5385	0.798484848485	-0.438356164384	19.9825174825	1.26896551724
1078	0.539	-0.627272727273	0.984931506849	-6.86993006993	-0.137715517241
1079	0.5395	-2.05303030303	-1.86164383562	4.43636363636	-0.137715517241
1080	0.54	-2.05303030303	-4.70821917808	-2.63006993007	-0.137715517241
1081	0.5405	0.798484848485	-7.55479452055	5.84965034965	-0.137715517241
1082	0.541	-13.4590909091	-0.438356164384	4.43636363636	-2.95107758621
1083	0.5415	19.3333333333	-3.28493150685	3.02307692308	1.26896551724
1084	0.542	-9.18181818182	-0.438356164384	1.60979020979	-12.7978448276
1085	0.5425	-2.05303030303	-0.438356164384	-6.86993006993	-1.54439655172
1086	0.543	-3.47878787879	0.984931506849	24.2223776224	-2.95107758621
1087	0.5435	-0.627272727273	-1.86164383562	-4.04335664336	-0.137715517241
1088	0.544	3.65	2.40821917808	5.84965034965	-0.137715517241
1089	0.5445	2.22424242424	16.6410958904	5.84965034965	-1.54439655172
1090	0.545	-0.627272727273	-8.97808219178	4.43636363636	-1.54439655172
1091	0.5455	-2.05303030303	0.984931506849	3.02307692308	-1.54439655172
1092	0.546	-4.90454545455	-1.86164383562	1.60979020979	-1.54439655172
1093	0.5465	-2.05303030303	-1.86164383562	3.02307692308	12.5224137931
1094	0.547	-3.47878787879	0.984931506849	1.60979020979	-8.57780172414
1095	0.5475	0.798484848485	0.984931506849	-4.04335664336	-1.54439655172
1096	0.548	0.798484848485	-1.86164383562	-6.86993006993	-2.95107758621
1097	0.5485	2.22424242424	-1.86164383562	3.02307692308	1.26896551724
1098	0.549	0.798484848485	-4.70821917808	3.02307692308	2.67564655172
1099	0.5495	-0.627272727273	-10.401369863	3.02307692308	1.26896551724
1100	0.55	-4.90454545455	-3.28493150685	3.02307692308	5.48900862069
1101	0.5505	-4.90454545455	-1.86164383562	0.196503496503	5.48900862069
1102	0.551	10.7787878788	-0.438356164384	4.43636363636	-0.137715517241
1103	0.5515	0.798484848485	0.984931506849	0.196503496503	15.3357758621
1104	0.552	-0.627272727273	-0.438356164384	19.9825174825	4.08232758621
1105	0.5525	2.22424242424	-1.86164383562	-2.63006993007	1.26896551724
1106	0.553	0.798484848485	3.83150684932	4.43636363636	2.67564655172
1107	0.5535	-2.05303030303	13.7945205479	3.02307692308	5.48900862069
1108	0.554	-2.05303030303	-3.28493150685	0.196503496503	4.08232758621
1109	0.5545	-7.75606060606	0.984931506849	3.02307692308	4.08232758621
1110	0.555	-3.47878787879	2.40821917808	-1.21678321678	12.5224137931
1111	0.5555	-3.47878787879	2.40821917808	1.60979020979	5.48900862069
1112	0.556	0.798484848485	0.984931506849	-1.21678321678	13.9290948276
1113	0.5565	-2.05303030303	-0.438356164384	0.196503496503	5.48900862069
1114	0.557	0.798484848485	3.83150684932	-1.21678321678	5.48900862069
1115	0.5575	-2.05303030303	-13.2479452055	-4.04335664336	5.48900862069
1116	0.558	-2.05303030303	15.2178082192	-1.21678321678	2.67564655172
1117	0.5585	-2.05303030303	-3.28493150685	0.196503496503	1.26896551724
1118	0.559	3.65	-1.86164383562	1.60979020979	-1.54439655172
1119	0.5595	-9.18181818182	-3.28493150685	3.02307692308	12.5224137931
1120	0.56	0.798484848485	-1.86164383562	-1.21678321678	-4.35775862069
1121	0.5605	0.798484848485	-0.438356164384	3.02307692308	-12.7978448276
1122	0.561	0.798484848485	-0.438356164384	-5.45664335664	-4.35775862069
1123	0.5615	3.65	-3.28493150685	18.5692307692	-8.57780172414
1124	0.562	-0.627272727273	-3.28493150685	1.60979020979	-7.17112068966
1125	0.5625	0.798484848485	6.67808219178	1.60979020979	-7.17112068966
1126	0.563	-3.47878787879	-1.86164383562	3.02307692308	-7.17112068966
1127	0.5635	17.9075757576	-0.438356164384	3.02307692308	-4.35775862069
1128	0.564	-6.3303030303	0.984931506849	4.43636363636	-18.4245689655
1129	0.5645	0.798484848485	2.40821917808	0.196503496503	9.70905172414
1130	0.565	-0.627272727273	0.984931506849	4.43636363636	-11.3911637931
1131	0.5655	0.798484848485	0.984931506849	-4.04335664336	-4.35775862069
1132	0.566	2.22424242424	3.83150684932	4.43636363636	-5.76443965517
1133	0.5665	0.798484848485	-11.8246575342	1.60979020979	-7.17112068966
1134	0.567	0.798484848485	16.6410958904	0.196503496503	-7.17112068966
1135	0.5675	-12.0333333333	-0.438356164384	1.60979020979	-5.76443965517
1136	0.568	16.4818181818	-0.438356164384	3.02307692308	-4.35775862069
1137	0.5685	-6.3303030303	-0.438356164384	3.02307692308	-1.54439655172
1138	0.569	3.65	0.984931506849	4.43636363636	-4.35775862069
1139	0.5695	3.65	3.83150684932	-2.63006993007	-2.95107758621
1140	0.57	2.22424242424	-1.86164383562	17.1559440559	-1.54439655172
1141	0.5705	0.798484848485	-1.86164383562	3.02307692308	-2.95107758621
1142	0.571	-0.627272727273	0.984931506849	1.60979020979	-2.95107758621
1143	0.5715	-10.6075757576	2.40821917808	3.02307692308	-5.76443965517
1144	0.572	-13.4590909091	-1.86164383562	1.60979020979	-1.54439655172
1145	0.5725	20.7590909091	-0.438356164384	1.60979020979	-8.57780172414
1146	0.573	-9.18181818182	0.984931506849	-4.04335664336	-5.76443965517
1147	0.5735	-0.627272727273	-0.438356164384	5.84965034965	-2.95107758621
1148	0.574	-0.627272727273	-0.438356164384	-5.45664335664	-2.95107758621
1149	0.5745	0.798484848485	3.83150684932	-2.63006993007	-2.95107758621
1150	0.575	0.798484848485	16.6410958904	-2.63006993007	-5.76443965517
1151	0.5755	-2.05303030303	-7.55479452055	-1.21678321678	-4.35775862069
1152	0.576	-2.05303030303	0.984931506849	-1.21678321678	-2.95107758621
1153	0.5765	-6.3303030303	-0.438356164384	1.60979020979	-5.76443965517
1154	0.577	0.798484848485	0.984931506849	0.196503496503	1.26896551724
1155	0.5775	-2.05303030303	0.984931506849	-4.04335664336	-8.57780172414
1156	0.578	-2.05303030303	-0.438356164384	4.43636363636	-4.35775862069
1157	0.5785	-0.627272727273	-3.28493150685	5.84965034965	-4.35775862069
1158	0.579	-2.05303030303	2.40821917808	-1.21678321678	-4.35775862069
1159	0.5795	2.22424242424	9.52465753425	1.60979020979	-1.54439655172
1160	0.58	-0.627272727273	-4.70821917808	5.84965034965	-2.95107758621
1161	0.5805	5.07575757576	-3.28493150685	1.60979020979	-4.35775862069
1162	0.581	-7.75606060606	0.984931506849	4.43636363636	-9.98448275862
1163	0.5815	-0.627272727273	0.984931506849	1.60979020979	19.5558189655
1164	0.582	-2.05303030303	-0.438356164384	0.196503496503	-4.35775862069
1165	0.5825	-3.47878787879	-0.438356164384	4.43636363636	13.9290948276
1166	0.583	-0.627272727273	-0.438356164384	-1.21678321678	-0.137715517241
1167	0.5835	-0.627272727273	-10.401369863	1.60979020979	8.30237068966
1168	0.584	-0.627272727273	6.67808219178	1.60979020979	8.30237068966
1169	0.5845	0.798484848485	-6.13150684932	0.196503496503	5.48900862069
1170	0.585	-10.6075757576	2.40821917808	0.196503496503	5.48900862069
1171	0.5855	19.3333333333	2.40821917808	3.02307692308	9.70905172414
1172	0.586	-10.6075757576	-0.438356164384	-1.21678321678	6.89568965517
1173	0.5865	0.798484848485	-0.438356164384	0.196503496503	19.5558189655
1174	0.587	-0.627272727273	2.40821917808	-6.86993006993	-0.137715517241
1175	0.5875	0.798484848485	-0.438356164384	-1.21678321678	8.30237068966
1176	0.588	3.65	5.25479452055	3.02307692308	6.89568965517
1177	0.5885	0.798484848485	-11.8246575342	1.60979020979	8.30237068966
1178	0.589	2.22424242424	-0.438356164384	0.196503496503	8.30237068966
1179	0.5895	-10.6075757576	-0.438356164384	3.02307692308	4.08232758621
1180	0.59	15.0560606061	0.984931506849	5.84965034965	2.67564655172
1181	0.5905	-4.90454545455	-0.438356164384	3.02307692308	5.48900862069
1182	0.591	3.65	0.984931506849	4.43636363636	8.30237068966
1183	0.5915	-0.627272727273	2.40821917808	-4.04335664336	6.89568965517
1184	0.592	2.22424242424	-1.86164383562	0.196503496503	8.30237068966
1185	0.5925	-0.627272727273	0.984931506849	-1.21678321678	5.48900862069
1186	0.593	-0.627272727273	-4.70821917808	1.60979020979	5.48900862069
1187	0.5935	0.798484848485	2.40821917808	-1.21678321678	5.48900862069
1188	0.594	17.9075757576	-3.28493150685	1.60979020979	6.89568965517
1189	0.5945	20.7590909091	-1.86164383562	0.196503496503	8.30237068966
1190	0.595	-10.6075757576	-1.86164383562	0.196503496503	4.08232758621
1191	0.5955	-0.627272727273	-3.28493150685	-2.63006993007	8.30237068966
1192	0.596	-2.05303030303	-0.438356164384	11.5027972028	2.67564655172
1193	0.5965	2.22424242424	-0.438356164384	-11.1097902098	2.67564655172
1194	0.597	3.65	-8.97808219178	1.60979020979	5.48900862069
1195	0.5975	0.798484848485	10.9479452055	1.60979020979	4.08232758621
1196	0.598	-0.627272727273	-4.70821917808	3.02307692308	6.89568965517
1197	0.5985	3.65	-1.86164383562	0.196503496503	5.48900862069
1198	0.599	-7.75606060606	-0.438356164384	-1.21678321678	2.67564655172
1199	0.5995	0.798484848485	-0.438356164384	-2.63006993007	12.5224137931
1200	0.6	0.798484848485	0.984931506849	-6.86993006993	2.67564655172
1201	0.6005	0.798484848485	-0.438356164384	17.1559440559	4.08232758621
1202	0.601	2.22424242424	0.984931506849	-8.28321678322	4.08232758621
1203	0.6015	2.22424242424	5.25479452055	1.60979020979	5.48900862069
1204	0.602	2.22424242424	-6.13150684932	1.60979020979	8.30237068966
1205	0.6025	-0.627272727273	-4.70821917808	0.196503496503	6.89568965517
1206	0.603	-2.05303030303	2.40821917808	0.196503496503	8.30237068966
1207	0.6035	2.22424242424	2.40821917808	1.60979020979	-4.35775862069
1208	0.604	0.798484848485	0.984931506849	-1.21678321678	22.3691810345
1209	0.6045	-0.627272727273	0.984931506849	-1.21678321678	-1.54439655172
1210	0.605	-3.47878787879	-1.86164383562	-1.21678321678	6.89568965517
1211	0.6055	-0.627272727273	5.25479452055	3.02307692308	4.08232758621
1212	0.606	-0.627272727273	-10.401369863	4.43636363636	5.48900862069
1213	0.6065	-0.627272727273	6.67808219178	3.02307692308	6.89568965517
1214	0.607	2.22424242424	-1.86164383562	1.60979020979	5.48900862069
1215	0.6075	17.9075757576	-1.86164383562	0.196503496503	9.70905172414
1216	0.608	-9.18181818182	-1.86164383562	-1.21678321678	-0.137715517241
1217	0.6085	2.22424242424	-0.438356164384	-1.21678321678	9.70905172414
1218	0.609	-0.627272727273	-1.86164383562	-5.45664335664	15.3357758621
1219	0.6095	0.798484848485	-1.86164383562	-12.5230769231	2.67564655172
1220	0.61	-0.627272727273	2.40821917808	-1.21678321678	4.08232758621
1221	0.6105	0.798484848485	-1.86164383562	-9.6965034965	-0.137715517241
1222	0.611	-0.627272727273	-1.86164383562	-5.45664335664	4.08232758621
1223	0.6115	-9.18181818182	0.984931506849	-2.63006993007	1.26896551724
1224	0.612	17.9075757576	0.984931506849	-1.21678321678	5.48900862069
1225	0.6125	-10.6075757576	0.984931506849	-1.21678321678	-2.95107758621
1226	0.613	2.22424242424	2.40821917808	-8.28321678322	-1.54439655172
1227	0.6135	0.798484848485	0.984931506849	17.1559440559	-4.35775862069
1228	0.614	0.798484848485	2.40821917808	-1.21678321678	-1.54439655172
1229	0.6145	0.798484848485	0.984931506849	1.60979020979	1.26896551724
1230	0.615	-0.627272727273	-8.97808219178	0.196503496503	-0.137715517241
1231	0.6155	-0.627272727273	-1.86164383562	3.02307692308	1.26896551724
1232	0.616	-12.0333333333	0.984931506849	-2.63006993007	-2.95107758621
1233	0.6165	16.4818181818	0.984931506849	-4.04335664336	2.67564655172
1234	0.617	-9.18181818182	2.40821917808	-4.04335664336	-8.57780172414
1235	0.6175	2.22424242424	0.984931506849	-2.63006993007	2.67564655172
1236	0.618	2.22424242424	-1.86164383562	-11.1097902098	-7.17112068966
1237	0.6185	0.798484848485	-1.86164383562	-11.1097902098	-2.95107758621
1238	0.619	0.798484848485	-8.97808219178	-4.04335664336	1.26896551724
1239	0.6195	0.798484848485	15.2178082192	-4.04335664336	1.26896551724
1240	0.62	0.798484848485	-7.55479452055	-2.63006993007	-1.54439655172
1241	0.6205	3.65	-1.86164383562	0.196503496503	1.26896551724
1242	0.621	-9.18181818182	-0.438356164384	1.60979020979	-4.35775862069
1243	0.6215	7.92727272727	-0.438356164384	3.02307692308	12.5224137931
1244	0.622	2.22424242424	0.984931506849	3.02307692308	-0.137715517241
1245	0.6225	-0.627272727273	0.984931506849	12.9160839161	2.67564655172
1246	0.623	-0.627272727273	0.984931506849	1.60979020979	-1.54439655172
1247	0.6235	0.798484848485	-11.8246575342	7.26293706294	4.08232758621
1248	0.624	5.07575757576	15.2178082192	8.67622377622	4.08232758621
1249	0.6245	-2.05303030303	-8.97808219178	7.26293706294	1.26896551724
1250	0.625	5.07575757576	-0.438356164384	12.9160839161	2.67564655172
1251	0.6255	-13.4590909091	0.984931506849	7.26293706294	1.26896551724
1252	0.626	-4.90454545455	0.984931506849	4.43636363636	20.9625
1253	0.6265	-0.627272727273	-0.438356164384	4.43636363636	-1.54439655172
1254	0.627	0.798484848485	-0.438356164384	-2.63006993007	5.48900862069
1255	0.6275	5.07575757576	3.83150684932	19.9825174825	6.89568965517
1256	0.628	0.798484848485	-0.438356164384	-2.63006993007	8.30237068966
1257	0.6285	3.65	10.9479452055	1.60979020979	5.48900862069
1258	0.629	0.798484848485	-6.13150684932	4.43636363636	8.30237068966
1259	0.6295	-0.627272727273	-4.70821917808	1.60979020979	8.30237068966
1260	0.63	-3.47878787879	0.984931506849	1.60979020979	1.26896551724
1261	0.6305	-2.05303030303	-1.86164383562	-1.21678321678	25.1825431034
1262	0.631	0.798484848485	-1.86164383562	0.196503496503	-0.137715517241
1263	0.6315	-2.05303030303	0.984931506849	-11.1097902098	9.70905172414
1264	0.632	-0.627272727273	-1.86164383562	-4.04335664336	1.26896551724
1265	0.6325	0.798484848485	-0.438356164384	1.60979020979	9.70905172414
1266	0.633	0.798484848485	13.7945205479	-4.04335664336	5.48900862069
1267	0.6335	3.65	-11.8246575342	0.196503496503	6.89568965517
1268	0.634	-16.3106060606	-1.86164383562	-1.21678321678	1.26896551724
1269	0.6345	16.4818181818	-0.438356164384	-1.21678321678	6.89568965517
1270	0.635	-7.75606060606	-0.438356164384	-1.21678321678	4.08232758621
1271	0.6355	2.22424242424	-3.28493150685	4.43636363636	8.30237068966
1272	0.636	-2.05303030303	-1.86164383562	14.3293706294	2.67564655172
1273	0.6365	-2.05303030303	-3.28493150685	-8.28321678322	5.48900862069
1274	0.637	0.798484848485	-3.28493150685	17.1559440559	2.67564655172
1275	0.6375	2.22424242424	6.67808219178	-1.21678321678	1.26896551724
1276	0.638	-2.05303030303	-3.28493150685	-1.21678321678	2.67564655172
1277	0.6385	3.65	-1.86164383562	3.02307692308	5.48900862069
1278	0.639	-12.0333333333	-0.438356164384	1.60979020979	-2.95107758621
1279	0.6395	-0.627272727273	0.984931506849	-1.21678321678	15.3357758621
1280	0.64	-0.627272727273	0.984931506849	-4.04335664336	-0.137715517241
1281	0.6405	-0.627272727273	-0.438356164384	8.67622377622	4.08232758621
1282	0.641	0.798484848485	5.25479452055	-11.1097902098	1.26896551724
1283	0.6415	-0.627272727273	-11.8246575342	-1.21678321678	1.26896551724
1284	0.642	3.65	18.0643835616	-1.21678321678	5.48900862069
1285	0.6425	-2.05303030303	-6.13150684932	-1.21678321678	5.48900862069
1286	0.643	-2.05303030303	-0.438356164384	1.60979020979	4.08232758621
1287	0.6435	5.07575757576	-1.86164383562	1.60979020979	5.48900862069
1288	0.644	0.798484848485	-0.438356164384	3.02307692308	5.48900862069
1289	0.6445	-0.627272727273	-1.86164383562	1.60979020979	19.5558189655
1290	0.645	-0.627272727273	-0.438356164384	14.3293706294	5.48900862069
1291	0.6455	-4.90454545455	2.40821917808	-12.5230769231	8.30237068966
1292	0.646	-3.47878787879	-10.401369863	-1.21678321678	8.30237068966
1293	0.6465	0.798484848485	18.0643835616	0.196503496503	8.30237068966
1294	0.647	-0.627272727273	-8.97808219178	0.196503496503	12.5224137931
1295	0.6475	0.798484848485	-0.438356164384	-1.21678321678	9.70905172414
1296	0.648	-4.90454545455	-1.86164383562	-1.21678321678	13.9290948276
1297	0.6485	-2.05303030303	2.40821917808	-1.21678321678	22.3691810345
1298	0.649	-0.627272727273	-0.438356164384	-1.21678321678	12.5224137931
1299	0.6495	-0.627272727273	0.984931506849	5.84965034965	9.70905172414
1300	0.65	0.798484848485	-0.438356164384	4.43636363636	9.70905172414
1301	0.6505	2.22424242424	-6.13150684932	1.60979020979	9.70905172414
1302	0.651	2.22424242424	13.7945205479	3.02307692308	13.9290948276
1303	0.6515	-0.627272727273	-3.28493150685	0.196503496503	15.3357758621
1304	0.652	3.65	0.984931506849	1.60979020979	16.7424568966
1305	0.6525	-9.18181818182	2.40821917808	3.02307692308	4.08232758621
1306	0.653	0.798484848485	-0.438356164384	1.60979020979	23.775862069
1307	0.6535	-2.05303030303	-0.438356164384	3.02307692308	8.30237068966
1308	0.654	2.22424242424	3.83150684932	7.26293706294	12.5224137931
1309	0.6545	2.22424242424	-1.86164383562	-5.45664335664	4.08232758621
1310	0.655	2.22424242424	-7.55479452055	-1.21678321678	12.5224137931
1311	0.6555	2.22424242424	5.25479452055	3.02307692308	13.9290948276
1312	0.656	-3.47878787879	-0.438356164384	-1.21678321678	16.7424568966
1313	0.6565	0.798484848485	-1.86164383562	4.43636363636	16.7424568966
1314	0.657	-7.75606060606	0.984931506849	0.196503496503	2.67564655172
1315	0.6575	0.798484848485	-1.86164383562	-1.21678321678	19.5558189655
1316	0.658	2.22424242424	0.984931506849	1.60979020979	12.5224137931
1317	0.6585	-0.627272727273	-1.86164383562	-2.63006993007	30.8092672414
1318	0.659	-3.47878787879	-4.70821917808	-1.21678321678	16.7424568966
1319	0.6595	-3.47878787879	-3.28493150685	0.196503496503	15.3357758621
1320	0.66	-0.627272727273	2.40821917808	0.196503496503	13.9290948276
1321	0.6605	-0.627272727273	5.25479452055	-1.21678321678	16.7424568966
1322	0.661	-0.627272727273	-0.438356164384	-1.21678321678	15.3357758621
1323	0.6615	3.65	-1.86164383562	0.196503496503	12.5224137931
1324	0.662	0.798484848485	-0.438356164384	-2.63006993007	25.1825431034
1325	0.6625	2.22424242424	0.984931506849	3.02307692308	6.89568965517
1326	0.663	2.22424242424	0.984931506849	-4.04335664336	32.2159482759
1327	0.6635	2.22424242424	-3.28493150685	-4.04335664336	15.3357758621
1328	0.664	-0.627272727273	0.984931506849	14.3293706294	13.9290948276
1329	0.6645	-3.47878787879	-1.86164383562	1.60979020979	12.5224137931
1330	0.665	-0.627272727273	-3.28493150685	3.02307692308	15.3357758621
1331	0.6655	-10.6075757576	0.984931506849	1.60979020979	9.70905172414
1332	0.666	19.3333333333	-0.438356164384	0.196503496503	13.9290948276
1333	0.6665	-6.3303030303	-1.86164383562	-1.21678321678	9.70905172414
1334	0.667	-0.627272727273	0.984931506849	-12.5230769231	8.30237068966
1335	0.6675	-0.627272727273	-1.86164383562	1.60979020979	4.08232758621
1336	0.668	-0.627272727273	-0.438356164384	-6.86993006993	16.7424568966
1337	0.6685	-0.627272727273	-4.70821917808	15.7426573427	12.5224137931
1338	0.669	-0.627272727273	13.7945205479	-1.21678321678	13.9290948276
1339	0.6695	-2.05303030303	-11.8246575342	3.02307692308	15.3357758621
1340	0.67	-2.05303030303	-0.438356164384	3.02307692308	13.9290948276
1341	0.6705	-4.90454545455	-0.438356164384	1.60979020979	12.5224137931
1342	0.671	-2.05303030303	0.984931506849	1.60979020979	23.775862069
1343	0.6715	-2.05303030303	0.984931506849	1.60979020979	5.48900862069
1344	0.672	-4.90454545455	0.984931506849	-1.21678321678	13.9290948276
1345	0.6725	0.798484848485	0.984931506849	0.196503496503	4.08232758621
1346	0.673	-0.627272727273	-4.70821917808	3.02307692308	9.70905172414
1347	0.6735	0.798484848485	8.10136986301	4.43636363636	12.5224137931
1348	0.674	-4.90454545455	2.40821917808	4.43636363636	11.1157327586
1349	0.6745	2.22424242424	0.984931506849	3.02307692308	16.7424568966
1350	0.675	-12.0333333333	2.40821917808	4.43636363636	11.1157327586
1351	0.6755	0.798484848485	0.984931506849	3.02307692308	9.70905172414
1352	0.676	-2.05303030303	2.40821917808	4.43636363636	5.48900862069
1353	0.6765	-0.627272727273	0.984931506849	-5.45664335664	5.48900862069
1354	0.677	0.798484848485	-1.86164383562	4.43636363636	9.70905172414
1355	0.6775	-0.627272727273	2.40821917808	-4.04335664336	8.30237068966
1356	0.678	2.22424242424	-10.401369863	1.60979020979	5.48900862069
1357	0.6785	2.22424242424	15.2178082192	0.196503496503	5.48900862069
1358	0.679	3.65	3.83150684932	3.02307692308	5.48900862069
1359	0.6795	5.07575757576	-0.438356164384	1.60979020979	-1.54439655172
1360	0.68	-3.47878787879	-1.86164383562	1.60979020979	5.48900862069
1361	0.6805	0.798484848485	-1.86164383562	1.60979020979	1.26896551724
1362	0.681	-0.627272727273	-0.438356164384	-9.6965034965	5.48900862069
1363	0.6815	-0.627272727273	-4.70821917808	0.196503496503	5.48900862069
1364	0.682	-0.627272727273	-11.8246575342	-1.21678321678	2.67564655172
1365	0.6825	0.798484848485	13.7945205479	0.196503496503	4.08232758621
1366	0.683	0.798484848485	-10.401369863	0.196503496503	1.26896551724
1367	0.6835	-2.05303030303	-0.438356164384	1.60979020979	5.48900862069
1368	0.684	6.50151515152	-3.28493150685	4.43636363636	4.08232758621
1369	0.6845	2.22424242424	-3.28493150685	1.60979020979	-2.95107758621
1370	0.685	2.22424242424	-1.86164383562	7.26293706294	13.9290948276
1371	0.6855	-0.627272727273	-4.70821917808	0.196503496503	2.67564655172
1372	0.686	2.22424242424	-1.86164383562	4.43636363636	4.08232758621
1373	0.6865	-0.627272727273	-7.55479452055	4.43636363636	2.67564655172
1374	0.687	-0.627272727273	10.9479452055	3.02307692308	5.48900862069
1375	0.6875	-0.627272727273	0.984931506849	4.43636363636	2.67564655172
1376	0.688	5.07575757576	2.40821917808	4.43636363636	5.48900862069
1377	0.6885	2.22424242424	5.25479452055	4.43636363636	-0.137715517241
1378	0.689	-6.3303030303	5.25479452055	0.196503496503	4.08232758621
1379	0.6895	-0.627272727273	0.984931506849	12.9160839161	2.67564655172
1380	0.69	-0.627272727273	5.25479452055	-12.5230769231	-0.137715517241
1381	0.6905	-2.05303030303	0.984931506849	-1.21678321678	1.26896551724
1382	0.691	-2.05303030303	-0.438356164384	-2.63006993007	4.08232758621
1383	0.6915	0.798484848485	-3.28493150685	1.60979020979	1.26896551724
1384	0.692	-10.6075757576	0.984931506849	1.60979020979	1.26896551724
1385	0.6925	12.2045454545	-0.438356164384	-1.21678321678	6.89568965517
1386	0.693	-6.3303030303	0.984931506849	0.196503496503	-0.137715517241
1387	0.6935	0.798484848485	-0.438356164384	4.43636363636	20.9625
1388	0.694	-0.627272727273	0.984931506849	0.196503496503	-2.95107758621
1389	0.6945	2.22424242424	-0.438356164384	4.43636363636	4.08232758621
1390	0.695	2.22424242424	-10.401369863	1.60979020979	2.67564655172
1391	0.6955	2.22424242424	13.7945205479	0.196503496503	4.08232758621
1392	0.696	-3.47878787879	-8.97808219178	0.196503496503	1.26896551724
1393	0.6965	3.65	-0.438356164384	-5.45664335664	5.48900862069
1394	0.697	-12.0333333333	0.984931506849	-2.63006993007	5.48900862069
1395	0.6975	-2.05303030303	-1.86164383562	-4.04335664336	-1.54439655172
1396	0.698	-0.627272727273	0.984931506849	-13.9363636364	6.89568965517
1397	0.6985	-3.47878787879	3.83150684932	14.3293706294	6.89568965517
1398	0.699	-2.05303030303	0.984931506849	-15.3496503497	5.48900862069
1399	0.6995	-0.627272727273	-3.28493150685	7.26293706294	9.70905172414
1400	0.7	0.798484848485	19.4876712329	-8.28321678322	6.89568965517
1401	0.7005	-0.627272727273	-8.97808219178	-12.5230769231	5.48900862069
1402	0.701	2.22424242424	0.984931506849	-8.28321678322	8.30237068966
1403	0.7015	-12.0333333333	2.40821917808	-8.28321678322	6.89568965517
1404	0.702	0.798484848485	0.984931506849	-6.86993006993	25.1825431034
1405	0.7025	0.798484848485	0.984931506849	-4.04335664336	4.08232758621
1406	0.703	0.798484848485	-0.438356164384	-6.86993006993	22.3691810345
1407	0.7035	0.798484848485	0.984931506849	-2.63006993007	9.70905172414
1408	0.704	-3.47878787879	-7.55479452055	-1.21678321678	8.30237068966
1409	0.7045	0.798484848485	6.67808219178	0.196503496503	8.30237068966
1410	0.705	-0.627272727273	-6.13150684932	3.02307692308	8.30237068966
1411	0.7055	5.07575757576	0.984931506849	7.26293706294	6.89568965517
1412	0.706	-7.75606060606	0.984931506849	8.67622377622	-2.95107758621
1413	0.7065	0.798484848485	0.984931506849	14.3293706294	18.149137931
1414	0.707	-0.627272727273	-0.438356164384	15.7426573427	9.70905172414
1415	0.7075	-2.05303030303	-0.438356164384	27.048951049	8.30237068966
1416	0.708	0.798484848485	0.984931506849	11.5027972028	13.9290948276
1417	0.7085	2.22424242424	-10.401369863	8.67622377622	9.70905172414
1418	0.709	0.798484848485	8.10136986301	8.67622377622	9.70905172414
1419	0.7095	0.798484848485	-6.13150684932	5.84965034965	5.48900862069
1420	0.71	-7.75606060606	0.984931506849	7.26293706294	-2.95107758621
1421	0.7105	-0.627272727273	0.984931506849	4.43636363636	23.775862069
1422	0.711	-0.627272727273	2.40821917808	4.43636363636	1.26896551724
1423	0.7115	-2.05303030303	0.984931506849	8.67622377622	5.48900862069
1424	0.712	-2.05303030303	2.40821917808	-6.86993006993	-0.137715517241
1425	0.7125	0.798484848485	-13.2479452055	3.02307692308	2.67564655172
1426	0.713	2.22424242424	16.6410958904	1.60979020979	5.48900862069
1427	0.7135	0.798484848485	-8.97808219178	-2.63006993007	8.30237068966
1428	0.714	0.798484848485	0.984931506849	0.196503496503	9.70905172414
1429	0.7145	-7.75606060606	0.984931506849	-1.21678321678	9.70905172414
1430	0.715	-0.627272727273	-1.86164383562	0.196503496503	18.149137931
1431	0.7155	-0.627272727273	-3.28493150685	-1.21678321678	20.9625
1432	0.716	-0.627272727273	-0.438356164384	0.196503496503	12.5224137931
1433	0.7165	2.22424242424	3.83150684932	-4.04335664336	12.5224137931
1434	0.717	2.22424242424	-8.97808219178	3.02307692308	13.9290948276
1435	0.7175	-0.627272727273	10.9479452055	1.60979020979	12.5224137931
1436	0.718	-2.05303030303	-4.70821917808	3.02307692308	9.70905172414
1437	0.7185	2.22424242424	2.40821917808	3.02307692308	-0.137715517241
1438	0.719	-3.47878787879	-0.438356164384	0.196503496503	11.1157327586
1439	0.7195	2.22424242424	2.40821917808	1.60979020979	-1.54439655172
1440	0.72	-0.627272727273	0.984931506849	-9.6965034965	1.26896551724
1441	0.7205	-2.05303030303	-0.438356164384	1.60979020979	4.08232758621
1442	0.721	0.798484848485	3.83150684932	-6.86993006993	2.67564655172
1443	0.7215	0.798484848485	-7.55479452055	1.60979020979	1.26896551724
1444	0.722	0.798484848485	8.10136986301	1.60979020979	-1.54439655172
1445	0.7225	9.35303030303	-1.86164383562	4.43636363636	4.08232758621
1446	0.723	-0.627272727273	-0.438356164384	3.02307692308	-0.137715517241
1447	0.7235	-2.05303030303	0.984931506849	0.196503496503	15.3357758621
1448	0.724	-3.47878787879	-0.438356164384	4.43636363636	-9.98448275862
1449	0.7245	-2.05303030303	-0.438356164384	-6.86993006993	-0.137715517241
1450	0.725	-0.627272727273	-3.28493150685	0.196503496503	1.26896551724
1451	0.7255	-0.627272727273	-0.438356164384	-4.04335664336	2.67564655172
1452	0.726	0.798484848485	9.52465753425	3.02307692308	4.08232758621
1453	0.7265	-0.627272727273	-3.28493150685	0.196503496503	6.89568965517
1454	0.727	19.3333333333	-0.438356164384	3.02307692308	9.70905172414
1455	0.7275	-10.6075757576	0.984931506849	1.60979020979	-0.137715517241
1456	0.728	-0.627272727273	-0.438356164384	1.60979020979	8.30237068966
1457	0.7285	-3.47878787879	2.40821917808	-6.86993006993	4.08232758621
1458	0.729	0.798484848485	0.984931506849	4.43636363636	16.7424568966
1459	0.7295	2.22424242424	2.40821917808	1.60979020979	6.89568965517
1460	0.73	-0.627272727273	-7.55479452055	1.60979020979	5.48900862069
1461	0.7305	-0.627272727273	16.6410958904	-1.21678321678	8.30237068966
1462	0.731	-4.90454545455	-6.13150684932	1.60979020979	6.89568965517
1463	0.7315	19.3333333333	-0.438356164384	-1.21678321678	12.5224137931
1464	0.732	-6.3303030303	0.984931506849	1.60979020979	5.48900862069
1465	0.7325	-0.627272727273	-0.438356164384	0.196503496503	9.70905172414
1466	0.733	-0.627272727273	0.984931506849	-11.1097902098	2.67564655172
1467	0.7335	-0.627272727273	-0.438356164384	3.02307692308	4.08232758621
1468	0.734	0.798484848485	6.67808219178	0.196503496503	8.30237068966
1469	0.7345	0.798484848485	-1.86164383562	-1.21678321678	9.70905172414
1470	0.735	0.798484848485	10.9479452055	-1.21678321678	8.30237068966
1471	0.7355	-0.627272727273	-1.86164383562	-1.21678321678	9.70905172414
1472	0.736	-4.90454545455	-3.28493150685	0.196503496503	-5.76443965517
1473	0.7365	-0.627272727273	0.984931506849	0.196503496503	22.3691810345
1474	0.737	-0.627272727273	-0.438356164384	1.60979020979	-2.95107758621
1475	0.7375	0.798484848485	-1.86164383562	-6.86993006993	4.08232758621
1476	0.738	3.65	-3.28493150685	-4.04335664336	-1.54439655172
1477	0.7385	-0.627272727273	-8.97808219178	-1.21678321678	6.89568965517
1478	0.739	-0.627272727273	8.10136986301	0.196503496503	5.48900862069
1479	0.7395	-2.05303030303	-4.70821917808	3.02307692308	5.48900862069
1480	0.74	2.22424242424	2.40821917808	3.02307692308	4.08232758621
1481	0.7405	-12.0333333333	3.83150684932	0.196503496503	5.48900862069
1482	0.741	-4.90454545455	2.40821917808	1.60979020979	1.26896551724
1483	0.7415	0.798484848485	2.40821917808	3.02307692308	2.67564655172
1484	0.742	0.798484848485	-3.28493150685	-5.45664335664	4.08232758621
1485	0.7425	-0.627272727273	3.83150684932	15.7426573427	4.08232758621
1486	0.743	3.65	-6.13150684932	0.196503496503	4.08232758621
1487	0.7435	-0.627272727273	-6.13150684932	-1.21678321678	4.08232758621
1488	0.744	-4.90454545455	-3.28493150685	0.196503496503	6.89568965517
1489	0.7445	10.7787878788	-6.13150684932	0.196503496503	9.70905172414
1490	0.745	-6.3303030303	-4.70821917808	-1.21678321678	-2.95107758621
1491	0.7455	0.798484848485	-4.70821917808	-15.3496503497	4.08232758621
1492	0.746	2.22424242424	-3.28493150685	-4.04335664336	-1.54439655172
1493	0.7465	0.798484848485	-1.86164383562	-13.9363636364	4.08232758621
1494	0.747	0.798484848485	-1.86164383562	-4.04335664336	2.67564655172
1495	0.7475	3.65	12.3712328767	-4.04335664336	4.08232758621
1496	0.748	0.798484848485	-8.97808219178	-1.21678321678	6.89568965517
1497	0.7485	-4.90454545455	-0.438356164384	-1.21678321678	5.48900862069
1498	0.749	9.35303030303	-3.28493150685	-4.04335664336	5.48900862069
1499	0.7495	-2.05303030303	-0.438356164384	0.196503496503	4.08232758621
1500	0.75	-0.627272727273	0.984931506849	-2.63006993007	19.5558189655
1501	0.7505	-2.05303030303	-0.438356164384	1.60979020979	2.67564655172
1502	0.751	-0.627272727273	0.984931506849	-12.5230769231	6.89568965517
1503	0.7515	-0.627272727273	-11.8246575342	-1.21678321678	5.48900862069
1504	0.752	0.798484848485	18.0643835616	0.196503496503	9.70905172414
1505	0.7525	-2.05303030303	0.984931506849	0.196503496503	12.5224137931
1506	0.753	0.798484848485	-0.438356164384	1.60979020979	9.70905172414
1507	0.7535	15.0560606061	0.984931506849	3.02307692308	9.70905172414
1508	0.754	0.798484848485	-0.438356164384	-4.04335664336	6.89568965517
1509	0.7545	0.798484848485	-1.86164383562	1.60979020979	12.5224137931
1510	0.755	-0.627272727273	0.984931506849	7.26293706294	8.30237068966
1511	0.7555	-0.627272727273	2.40821917808	1.60979020979	8.30237068966
1512	0.756	0.798484848485	2.40821917808	1.60979020979	8.30237068966
1513	0.7565	-2.05303030303	-8.97808219178	5.84965034965	8.30237068966
1514	0.757	3.65	-1.86164383562	4.43636363636	5.48900862069
1515	0.7575	-13.4590909091	0.984931506849	4.43636363636	5.48900862069
1516	0.758	2.22424242424	0.984931506849	3.02307692308	23.775862069
1517	0.7585	-0.627272727273	2.40821917808	4.43636363636	8.30237068966
1518	0.759	2.22424242424	-1.86164383562	15.7426573427	6.89568965517
1519	0.7595	-2.05303030303	-3.28493150685	0.196503496503	9.70905172414
1520	0.76	-0.627272727273	-8.97808219178	-5.45664335664	9.70905172414
1521	0.7605	0.798484848485	9.52465753425	-1.21678321678	9.70905172414
1522	0.761	-3.47878787879	-3.28493150685	-1.21678321678	5.48900862069
1523	0.7615	12.2045454545	-0.438356164384	-1.21678321678	9.70905172414
1524	0.762	-4.90454545455	-3.28493150685	-1.21678321678	8.30237068966
1525	0.7625	-3.47878787879	-0.438356164384	-4.04335664336	22.3691810345
1526	0.763	0.798484848485	-0.438356164384	12.9160839161	6.89568965517
1527	0.7635	-2.05303030303	-1.86164383562	-6.86993006993	8.30237068966
1528	0.764	-3.47878787879	0.984931506849	1.60979020979	8.30237068966
1529	0.7645	-0.627272727273	-8.97808219178	-4.04335664336	5.48900862069
1530	0.765	-0.627272727273	8.10136986301	-1.21678321678	4.08232758621
1531	0.7655	-13.4590909091	-1.86164383562	0.196503496503	2.67564655172
1532	0.766	19.3333333333	-0.438356164384	0.196503496503	5.48900862069
1533	0.7665	-10.6075757576	-0.438356164384	3.02307692308	-0.137715517241
1534	0.767	-0.627272727273	-3.28493150685	0.196503496503	12.5224137931
1535	0.7675	0.798484848485	2.40821917808	10.0895104895	9.70905172414
1536	0.768	-0.627272727273	-0.438356164384	0.196503496503	6.89568965517
1537	0.7685	0.798484848485	2.40821917808	0.196503496503	12.5224137931
1538	0.769	0.798484848485	9.52465753425	-1.21678321678	11.1157327586
1539	0.7695	5.07575757576	0.984931506849	-1.21678321678	13.9290948276
1540	0.77	-12.0333333333	-0.438356164384	-1.21678321678	5.48900862069
1541	0.7705	17.9075757576	-0.438356164384	1.60979020979	19.5558189655
1542	0.771	-9.18181818182	-3.28493150685	3.02307692308	26.5892241379
1543	0.7715	0.798484848485	-1.86164383562	0.196503496503	9.70905172414
1544	0.772	0.798484848485	-0.438356164384	3.02307692308	11.1157327586
1545	0.7725	-0.627272727273	-1.86164383562	4.43636363636	15.3357758621
1546	0.773	0.798484848485	2.40821917808	-4.04335664336	13.9290948276
1547	0.7735	-3.47878787879	-6.13150684932	-1.21678321678	16.7424568966
1548	0.774	2.22424242424	0.984931506849	-4.04335664336	15.3357758621
1549	0.7745	-10.6075757576	0.984931506849	-4.04335664336	9.70905172414
1550	0.775	15.0560606061	-0.438356164384	-1.21678321678	13.9290948276
1551	0.7755	0.798484848485	0.984931506849	-8.28321678322	6.89568965517
1552	0.776	5.07575757576	0.984931506849	1.60979020979	22.3691810345
1553	0.7765	0.798484848485	0.984931506849	-5.45664335664	6.89568965517
1554	0.777	0.798484848485	0.984931506849	-1.21678321678	13.9290948276
1555	0.7775	0.798484848485	19.4876712329	-2.63006993007	12.5224137931
1556	0.778	-3.47878787879	-6.13150684932	-1.21678321678	12.5224137931
1557	0.7785	-2.05303030303	0.984931506849	0.196503496503	12.5224137931
1558	0.779	3.65	-0.438356164384	1.60979020979	9.70905172414
1559	0.7795	-0.627272727273	-0.438356164384	7.26293706294	5.48900862069
1560	0.78	-3.47878787879	-1.86164383562	-1.21678321678	23.775862069
1561	0.7805	-0.627272727273	-1.86164383562	19.9825174825	8.30237068966
1562	0.781	-0.627272727273	-3.28493150685	-5.45664335664	8.30237068966
1563	0.7815	0.798484848485	-7.55479452055	-1.21678321678	8.30237068966
1564	0.782	-0.627272727273	-6.13150684932	0.196503496503	6.89568965517
1565	0.7825	-10.6075757576	2.40821917808	-2.63006993007	8.30237068966
1566	0.783	17.9075757576	-0.438356164384	0.196503496503	13.9290948276
1567	0.7835	-9.18181818182	2.40821917808	-1.21678321678	6.89568965517
1568	0.784	0.798484848485	2.40821917808	-1.21678321678	13.9290948276
1569	0.7845	3.65	3.83150684932	11.5027972028	12.5224137931
1570	0.785	0.798484848485	3.83150684932	-2.63006993007	12.5224137931
1571	0.7855	2.22424242424	3.83150684932	7.26293706294	13.9290948276
1572	0.786	-0.627272727273	-0.438356164384	-5.45664335664	9.70905172414
1573	0.7865	3.65	-0.438356164384	-6.86993006993	9.70905172414
1574	0.787	-14.8848484848	0.984931506849	-8.28321678322	6.89568965517
1575	0.7875	17.9075757576	5.25479452055	-8.28321678322	6.89568965517
1576	0.788	-10.6075757576	6.67808219178	-2.63006993007	-5.76443965517
1577	0.7885	-2.05303030303	5.25479452055	-2.63006993007	18.149137931
1578	0.789	0.798484848485	3.83150684932	-1.21678321678	4.08232758621
1579	0.7895	-0.627272727273	3.83150684932	0.196503496503	4.08232758621
1580	0.79	-0.627272727273	-10.401369863	3.02307692308	4.08232758621
1581	0.7905	-2.05303030303	2.40821917808	1.60979020979	4.08232758621
1582	0.791	0.798484848485	-0.438356164384	3.02307692308	1.26896551724
1583	0.7915	-10.6075757576	-0.438356164384	0.196503496503	4.08232758621
1584	0.792	5.07575757576	-0.438356164384	3.02307692308	5.48900862069
1585	0.7925	-3.47878787879	0.984931506849	-6.86993006993	-0.137715517241
1586	0.793	-3.47878787879	0.984931506849	7.26293706294	2.67564655172
1587	0.7935	-2.05303030303	-0.438356164384	-1.21678321678	5.48900862069
1588	0.794	0.798484848485	-3.28493150685	19.9825174825	5.48900862069
1589	0.7945	-0.627272727273	16.6410958904	5.84965034965	6.89568965517
1590	0.795	-3.47878787879	-7.55479452055	4.43636363636	5.48900862069
1591	0.7955	0.798484848485	-0.438356164384	4.43636363636	5.48900862069
1592	0.796	-0.627272727273	-0.438356164384	1.60979020979	8.30237068966
1593	0.7965	0.798484848485	-0.438356164384	4.43636363636	15.3357758621
1594	0.797	0.798484848485	-1.86164383562	-1.21678321678	6.89568965517
1595	0.7975	-2.05303030303	-1.86164383562	3.02307692308	9.70905172414
1596	0.798	-3.47878787879	2.40821917808	-4.04335664336	5.48900862069
1597	0.7985	-2.05303030303	-10.401369863	4.43636363636	6.89568965517
1598	0.799	3.65	16.6410958904	4.43636363636	4.08232758621
1599	0.7995	-2.05303030303	-7.55479452055	4.43636363636	2.67564655172
1600	0.8	-3.47878787879	-0.438356164384	0.196503496503	4.08232758621
1601	0.8005	-6.3303030303	-0.438356164384	3.02307692308	5.48900862069
1602	0.801	2.22424242424	0.984931506849	3.02307692308	13.9290948276
1603	0.8015	-0.627272727273	0.984931506849	-5.45664335664	1.26896551724
1604	0.802	-3.47878787879	2.40821917808	7.26293706294	4.08232758621
1605	0.8025	-0.627272727273	2.40821917808	-6.86993006993	6.89568965517
1606	0.803	-0.627272727273	-11.8246575342	0.196503496503	5.48900862069
1607	0.8035	-0.627272727273	18.0643835616	1.60979020979	4.08232758621
1608	0.804	-3.47878787879	-7.55479452055	3.02307692308	2.67564655172
1609	0.8045	13.6303030303	-1.86164383562	-1.21678321678	-0.137715517241
1610	0.805	-10.6075757576	-1.86164383562	-2.63006993007	-0.137715517241
1611	0.8055	0.798484848485	0.984931506849	3.02307692308	2.67564655172
1612	0.806	-3.47878787879	-0.438356164384	-4.04335664336	12.5224137931
1613	0.8065	0.798484848485	-4.70821917808	-1.21678321678	-2.95107758621
1614	0.807	-2.05303030303	0.984931506849	-1.21678321678	-2.95107758621
1615	0.8075	-0.627272727273	-6.13150684932	-1.21678321678	-2.95107758621
1616	0.808	-0.627272727273	5.25479452055	0.196503496503	-0.137715517241
1617	0.8085	9.35303030303	-1.86164383562	1.60979020979	1.26896551724
1618	0.809	0.798484848485	-0.438356164384	3.02307692308	-7.17112068966
1619	0.8095	-2.05303030303	0.984931506849	-1.21678321678	6.89568965517
1620	0.81	-2.05303030303	0.984931506849	3.02307692308	-4.35775862069
1621	0.8105	-0.627272727273	0.984931506849	-11.1097902098	-2.95107758621
1622	0.811	-0.627272727273	5.25479452055	1.60979020979	-0.137715517241
1623	0.8115	0.798484848485	-11.8246575342	1.60979020979	-1.54439655172
1624	0.812	-3.47878787879	18.0643835616	-1.21678321678	-4.35775862069
1625	0.8125	-0.627272727273	-6.13150684932	0.196503496503	-2.95107758621
1626	0.813	0.798484848485	-0.438356164384	-1.21678321678	-7.17112068966
1627	0.8135	-6.3303030303	0.984931506849	1.60979020979	-5.76443965517
1628	0.814	-2.05303030303	0.984931506849	0.196503496503	-18.4245689655
1629	0.8145	-0.627272727273	2.40821917808	4.43636363636	-11.3911637931
1630	0.815	-3.47878787879	-0.438356164384	-5.45664335664	-11.3911637931
1631	0.8155	0.798484848485	0.984931506849	7.26293706294	-11.3911637931
1632	0.816	2.22424242424	10.9479452055	0.196503496503	-8.57780172414
1633	0.8165	2.22424242424	-4.70821917808	-1.21678321678	-9.98448275862
1634	0.817	-12.0333333333	0.984931506849	-1.21678321678	-8.57780172414
1635	0.8175	10.7787878788	-1.86164383562	-1.21678321678	-14.2045258621
1636	0.818	-4.90454545455	-1.86164383562	-1.21678321678	-5.76443965517
1637	0.8185	-0.627272727273	-3.28493150685	-8.28321678322	-12.7978448276
1638	0.819	-0.627272727273	-0.438356164384	-4.04335664336	-11.3911637931
1639	0.8195	2.22424242424	-1.86164383562	10.0895104895	-4.35775862069
1640	0.82	3.65	0.984931506849	0.196503496503	-5.76443965517
1641	0.8205	2.22424242424	-7.55479452055	1.60979020979	-5.76443965517
1642	0.821	2.22424242424	6.67808219178	0.196503496503	-5.76443965517
1643	0.8215	3.65	-1.86164383562	3.02307692308	-17.017887931
1644	0.822	-0.627272727273	-1.86164383562	3.02307692308	-5.76443965517
1645	0.8225	-0.627272727273	-0.438356164384	0.196503496503	-15.6112068966
1646	0.823	0.798484848485	0.984931506849	17.1559440559	-8.57780172414
1647	0.8235	0.798484848485	-0.438356164384	0.196503496503	-9.98448275862
1648	0.824	-0.627272727273	5.25479452055	0.196503496503	-9.98448275862
1649	0.8245	-2.05303030303	-4.70821917808	1.60979020979	-9.98448275862
1650	0.825	-0.627272727273	-0.438356164384	3.02307692308	-9.98448275862
1651	0.8255	12.2045454545	0.984931506849	0.196503496503	-5.76443965517
1652	0.826	-0.627272727273	-3.28493150685	-1.21678321678	-14.2045258621
1653	0.8265	0.798484848485	-1.86164383562	-12.5230769231	-7.17112068966
1654	0.827	0.798484848485	0.984931506849	-12.5230769231	-11.3911637931
1655	0.8275	0.798484848485	-1.86164383562	-6.86993006993	-9.98448275862
1656	0.828	-2.05303030303	0.984931506849	-15.3496503497	-5.76443965517
1657	0.8285	0.798484848485	-6.13150684932	-5.45664335664	-5.76443965517
1658	0.829	-9.18181818182	0.984931506849	-5.45664335664	-9.98448275862
1659	0.8295	17.9075757576	0.984931506849	-4.04335664336	-2.95107758621
1660	0.83	-12.0333333333	0.984931506849	-2.63006993007	-5.76443965517
1661	0.8305	-0.627272727273	-0.438356164384	-5.45664335664	2.67564655172
1662	0.831	0.798484848485	-0.438356164384	5.84965034965	-7.17112068966
1663	0.8315	-0.627272727273	-3.28493150685	-1.21678321678	-5.76443965517
1664	0.832	0.798484848485	15.2178082192	4.43636363636	-7.17112068966
1665	0.8325	-3.47878787879	-3.28493150685	7.26293706294	-7.17112068966
1666	0.833	-0.627272727273	0.984931506849	14.3293706294	-7.17112068966
1667	0.8335	-3.47878787879	-0.438356164384	12.9160839161	-17.017887931
1668	0.834	0.798484848485	0.984931506849	11.5027972028	4.08232758621
1669	0.8345	0.798484848485	0.984931506849	4.43636363636	-8.57780172414
1670	0.835	0.798484848485	0.984931506849	19.9825174825	-7.17112068966
1671	0.8355	-0.627272727273	2.40821917808	7.26293706294	-8.57780172414
1672	0.836	-0.627272727273	-11.8246575342	4.43636363636	-5.76443965517
1673	0.8365	-0.627272727273	16.6410958904	4.43636363636	-11.3911637931
1674	0.837	-4.90454545455	-4.70821917808	1.60979020979	-9.98448275862
1675	0.8375	5.07575757576	0.984931506849	1.60979020979	-15.6112068966
1676	0.838	-4.90454545455	-0.438356164384	1.60979020979	-4.35775862069
1677	0.8385	0.798484848485	-0.438356164384	5.84965034965	-11.3911637931
1678	0.839	2.22424242424	0.984931506849	0.196503496503	9.70905172414
1679	0.8395	-0.627272727273	2.40821917808	-4.04335664336	-4.35775862069
1680	0.84	0.798484848485	0.984931506849	8.67622377622	-5.76443965517
1681	0.8405	0.798484848485	9.52465753425	0.196503496503	-5.76443965517
1682	0.841	-3.47878787879	-3.28493150685	-1.21678321678	-5.76443965517
1683	0.8415	16.4818181818	0.984931506849	-4.04335664336	-1.54439655172
1684	0.842	-10.6075757576	0.984931506849	0.196503496503	-11.3911637931
1685	0.8425	-2.05303030303	-0.438356164384	0.196503496503	-5.76443965517
1686	0.843	-4.90454545455	-1.86164383562	-6.86993006993	-8.57780172414
1687	0.8435	-0.627272727273	-0.438356164384	14.3293706294	-4.35775862069
1688	0.844	-2.05303030303	2.40821917808	-9.6965034965	-5.76443965517
1689	0.8445	-0.627272727273	-6.13150684932	-2.63006993007	-2.95107758621
1690	0.845	-0.627272727273	-1.86164383562	-4.04335664336	-5.76443965517
1691	0.8455	0.798484848485	0.984931506849	-6.86993006993	-7.17112068966
1692	0.846	-13.4590909091	-1.86164383562	-6.86993006993	-2.95107758621
1693	0.8465	-0.627272727273	-0.438356164384	-12.5230769231	9.70905172414
1694	0.847	-3.47878787879	2.40821917808	-11.1097902098	-12.7978448276
1695	0.8475	0.798484848485	2.40821917808	-8.28321678322	5.48900862069
1696	0.848	3.65	2.40821917808	-6.86993006993	-7.17112068966
1697	0.8485	-0.627272727273	-10.401369863	-11.1097902098	-11.3911637931
1698	0.849	2.22424242424	18.0643835616	-4.04335664336	-9.98448275862
1699	0.8495	-2.05303030303	-4.70821917808	-2.63006993007	-12.7978448276
1700	0.85	9.35303030303	-0.438356164384	0.196503496503	-19.83125
1701	0.8505	-3.47878787879	2.40821917808	-1.21678321678	-12.7978448276
1702	0.851	-0.627272727273	2.40821917808	1.60979020979	-19.83125
1703	0.8515	-0.627272727273	2.40821917808	0.196503496503	-12.7978448276
1704	0.852	0.798484848485	0.984931506849	1.60979020979	-11.3911637931
1705	0.8525	-2.05303030303	-10.401369863	1.60979020979	-11.3911637931
1706	0.853	-0.627272727273	-7.55479452055	4.43636363636	-11.3911637931
1707	0.8535	-9.18181818182	0.984931506849	1.60979020979	-11.3911637931
1708	0.854	15.0560606061	-0.438356164384	4.43636363636	-5.76443965517
1709	0.8545	-10.6075757576	-0.438356164384	3.02307692308	-11.3911637931
1710	0.855	-0.627272727273	-0.438356164384	7.26293706294	-7.17112068966
1711	0.8555	-0.627272727273	-0.438356164384	0.196503496503	8.30237068966
1712	0.856	-0.627272727273	-1.86164383562	-5.45664335664	-8.57780172414
1713	0.8565	2.22424242424	-3.28493150685	5.84965034965	-7.17112068966
1714	0.857	-0.627272727273	15.2178082192	3.02307692308	-5.76443965517
1715	0.8575	3.65	-1.86164383562	1.60979020979	-4.35775862069
1716	0.858	3.65	0.984931506849	4.43636363636	-2.95107758621
1717	0.8585	-0.627272727273	0.984931506849	1.60979020979	-12.7978448276
1718	0.859	-2.05303030303	-1.86164383562	3.02307692308	16.7424568966
1719	0.8595	0.798484848485	0.984931506849	12.9160839161	1.26896551724
1720	0.86	-2.05303030303	0.984931506849	4.43636363636	5.48900862069
1721	0.8605	-0.627272727273	5.25479452055	4.43636363636	6.89568965517
1722	0.861	-0.627272727273	-13.2479452055	1.60979020979	5.48900862069
1723	0.8615	0.798484848485	-1.86164383562	1.60979020979	4.08232758621
1724	0.862	0.798484848485	0.984931506849	3.02307692308	4.08232758621
