	Time	Channel 1	Channel 2	Channel 3	Channel 4
0	0.0	-0.50618556701	13.7454545455	21.4333333333	1.36666666667
1	0.0005	9.41649484536	2.25454545455	14.3692307692	-0.0888888888889
2	0.001	-3.3412371134	-14.9818181818	12.9564102564	1.36666666667
3	0.0015	-4.7587628866	-16.4181818182	4.47948717949	2.82222222222
4	0.002	-6.17628865979	-14.9818181818	-3.99743589744	4.27777777778
5	0.0025	-0.50618556701	-2.05454545455	-6.82307692308	-8.82222222222
6	0.003	0.911340206186	23.8	-8.2358974359	-4.45555555556
7	0.0035	-11.8463917526	13.7454545455	-2.58461538462	-0.0888888888889
8	0.004	9.41649484536	8.0	-5.41025641026	-1.54444444444
9	0.0045	2.32886597938	6.56363636364	-1.17179487179	-1.54444444444
10	0.005	-1.92371134021	-9.23636363636	1.65384615385	-0.0888888888889
11	0.0055	-1.92371134021	-4.92727272727	3.06666666667	1.36666666667
12	0.006	0.911340206186	-4.92727272727	4.47948717949	2.82222222222
13	0.0065	-1.92371134021	-12.1090909091	4.47948717949	1.36666666667
14	0.007	3.74639175258	-3.49090909091	4.47948717949	2.82222222222
15	0.0075	-7.59381443299	-6.36363636364	4.47948717949	4.27777777778
16	0.008	0.911340206186	-2.05454545455	4.47948717949	-0.0888888888889
17	0.0085	-9.01134020619	-3.49090909091	3.06666666667	-0.0888888888889
18	0.009	-3.3412371134	-4.92727272727	5.89230769231	-0.0888888888889
19	0.0095	-16.0989690722	0.818181818182	11.5435897436	-0.0888888888889
20	0.01	-1.92371134021	-10.6727272727	12.9564102564	1.36666666667
21	0.0105	-4.7587628866	0.818181818182	4.47948717949	-3.0
22	0.011	-1.92371134021	-3.49090909091	3.06666666667	-3.0
23	0.0115	-14.681443299	-3.49090909091	3.06666666667	-0.0888888888889
24	0.012	0.911340206186	-2.05454545455	0.241025641026	-0.0888888888889
25	0.0125	-4.7587628866	-2.05454545455	3.06666666667	1.36666666667
26	0.013	10.8340206186	-6.36363636364	-1.17179487179	-1.54444444444
27	0.0135	-16.0989690722	-2.05454545455	-1.17179487179	-0.0888888888889
28	0.014	-4.7587628866	-4.92727272727	0.241025641026	-0.0888888888889
29	0.0145	-14.681443299	-2.05454545455	0.241025641026	1.36666666667
30	0.015	9.41649484536	-0.618181818182	3.06666666667	-3.0
31	0.0155	-18.9340206186	-0.618181818182	1.65384615385	-0.0888888888889
32	0.016	-10.4288659794	-0.618181818182	0.241025641026	-0.0888888888889
33	0.0165	5.16391752577	-0.618181818182	0.241025641026	-1.54444444444
34	0.017	-11.8463917526	-2.05454545455	-1.17179487179	-0.0888888888889
35	0.0175	22.1742268041	-2.05454545455	-2.58461538462	-0.0888888888889
36	0.018	-6.17628865979	0.818181818182	-2.58461538462	-0.0888888888889
37	0.0185	-1.92371134021	0.818181818182	-1.17179487179	-0.0888888888889
38	0.019	-9.01134020619	0.818181818182	-1.17179487179	1.36666666667
39	0.0195	19.3391752577	-0.618181818182	-3.99743589744	-1.54444444444
40	0.02	-6.17628865979	-10.6727272727	-1.17179487179	-1.54444444444
41	0.0205	-13.2639175258	-3.49090909091	-5.41025641026	-1.54444444444
42	0.021	7.99896907216	-4.92727272727	-1.17179487179	-1.54444444444
43	0.0215	9.41649484536	-2.05454545455	0.241025641026	-1.54444444444
44	0.022	-3.3412371134	-0.618181818182	0.241025641026	-0.0888888888889
45	0.0225	9.41649484536	-0.618181818182	3.06666666667	-1.54444444444
46	0.023	-11.8463917526	0.818181818182	5.89230769231	-0.0888888888889
47	0.0235	-4.7587628866	2.25454545455	5.89230769231	2.82222222222
48	0.024	-0.50618556701	0.818181818182	0.241025641026	5.73333333333
49	0.0245	19.3391752577	-3.49090909091	1.65384615385	-0.0888888888889
50	0.025	2.32886597938	-3.49090909091	1.65384615385	-1.54444444444
51	0.0255	-7.59381443299	-2.05454545455	3.06666666667	1.36666666667
52	0.026	17.9216494845	-2.05454545455	0.241025641026	-0.0888888888889
53	0.0265	9.41649484536	-0.618181818182	3.06666666667	4.27777777778
54	0.027	12.2515463918	-0.618181818182	3.06666666667	-3.0
55	0.0275	-11.8463917526	-0.618181818182	1.65384615385	1.36666666667
56	0.028	-0.50618556701	0.818181818182	-2.58461538462	1.36666666667
57	0.0285	-7.59381443299	-3.49090909091	-2.58461538462	4.27777777778
58	0.029	13.6690721649	-4.92727272727	-2.58461538462	-0.0888888888889
59	0.0295	-3.3412371134	-0.618181818182	-5.41025641026	14.4666666667
60	0.03	-0.50618556701	-0.618181818182	4.47948717949	-7.36666666667
61	0.0305	-7.59381443299	-0.618181818182	5.89230769231	-0.0888888888889
62	0.031	-4.7587628866	0.818181818182	1.65384615385	4.27777777778
63	0.0315	-4.7587628866	-2.05454545455	-1.17179487179	-1.54444444444
64	0.032	-6.17628865979	-2.05454545455	-2.58461538462	-7.36666666667
65	0.0325	0.911340206186	-0.618181818182	-3.99743589744	-7.36666666667
66	0.033	0.911340206186	-2.05454545455	-23.7769230769	20.2888888889
67	0.0335	0.911340206186	0.818181818182	-32.2538461538	2.82222222222
68	0.034	0.911340206186	-2.05454545455	-30.841025641	15.9222222222
69	0.0345	2.32886597938	-2.05454545455	-16.7128205128	-7.36666666667
70	0.035	3.74639175258	-2.05454545455	-3.99743589744	-5.91111111111
71	0.0355	-6.17628865979	-2.05454545455	1.65384615385	-4.45555555556
72	0.036	-1.92371134021	-0.618181818182	11.5435897436	-0.0888888888889
73	0.0365	-4.7587628866	-4.92727272727	17.1948717949	-7.36666666667
74	0.037	-4.7587628866	-2.05454545455	18.6076923077	10.1
75	0.0375	-7.59381443299	0.818181818182	20.0205128205	-8.82222222222
76	0.038	-3.3412371134	-2.05454545455	21.4333333333	13.0111111111
77	0.0385	-1.92371134021	-2.05454545455	21.4333333333	-0.0888888888889
78	0.039	-0.50618556701	-2.05454545455	12.9564102564	20.2888888889
79	0.0395	-0.50618556701	-0.618181818182	8.71794871795	15.9222222222
80	0.04	0.911340206186	2.25454545455	5.89230769231	8.64444444444
81	0.0405	3.74639175258	-0.618181818182	4.47948717949	15.9222222222
82	0.041	2.32886597938	-2.05454545455	3.06666666667	-7.36666666667
83	0.0415	0.911340206186	-3.49090909091	4.47948717949	-4.45555555556
84	0.042	-0.50618556701	-0.618181818182	1.65384615385	1.36666666667
85	0.0425	2.32886597938	-2.05454545455	-1.17179487179	4.27777777778
86	0.043	0.911340206186	-3.49090909091	3.06666666667	15.9222222222
87	0.0435	0.911340206186	-4.92727272727	-3.99743589744	-10.2777777778
88	0.044	2.32886597938	-3.49090909091	-15.3	-5.91111111111
89	0.0445	0.911340206186	0.818181818182	-18.1256410256	-0.0888888888889
90	0.045	3.74639175258	6.56363636364	-16.7128205128	-0.0888888888889
91	0.0455	5.16391752577	2.25454545455	-13.8871794872	-0.0888888888889
92	0.046	-1.92371134021	-2.05454545455	8.71794871795	-0.0888888888889
93	0.0465	-0.50618556701	0.818181818182	-2.58461538462	-7.36666666667
94	0.047	0.911340206186	-0.618181818182	-13.8871794872	17.3777777778
95	0.0475	-3.3412371134	-3.49090909091	4.47948717949	-7.36666666667
96	0.048	-3.3412371134	-7.8	1.65384615385	1.36666666667
97	0.0485	-4.7587628866	-2.05454545455	27.0846153846	-0.0888888888889
98	0.049	-1.92371134021	-2.05454545455	18.6076923077	-0.0888888888889
99	0.0495	-1.92371134021	-2.05454545455	-11.0615384615	-0.0888888888889
100	0.05	3.74639175258	-2.05454545455	-12.4743589744	-0.0888888888889
101	0.0505	2.32886597938	0.818181818182	-2.58461538462	-7.36666666667
102	0.051	3.74639175258	0.818181818182	-8.2358974359	2.82222222222
103	0.0515	0.911340206186	0.818181818182	0.241025641026	-0.0888888888889
104	0.052	0.911340206186	2.25454545455	5.89230769231	-11.7333333333
105	0.0525	-0.50618556701	-2.05454545455	7.30512820513	1.36666666667
106	0.053	-3.3412371134	-4.92727272727	20.0205128205	-1.54444444444
107	0.0535	-4.7587628866	0.818181818182	18.6076923077	1.36666666667
108	0.054	-7.59381443299	-4.92727272727	15.7820512821	4.27777777778
109	0.0545	-7.59381443299	-9.23636363636	20.0205128205	2.82222222222
110	0.055	-4.7587628866	-0.618181818182	20.0205128205	1.36666666667
111	0.0555	0.911340206186	-0.618181818182	14.3692307692	4.27777777778
112	0.056	3.74639175258	-6.36363636364	1.65384615385	4.27777777778
113	0.0565	7.99896907216	-4.92727272727	-5.41025641026	-0.0888888888889
114	0.057	7.99896907216	-10.6727272727	1.65384615385	-0.0888888888889
115	0.0575	5.16391752577	-12.1090909091	3.06666666667	4.27777777778
116	0.058	0.911340206186	8.0	3.06666666667	1.36666666667
117	0.0585	-9.01134020619	15.1818181818	1.65384615385	-0.0888888888889
118	0.059	-14.681443299	-4.92727272727	7.30512820513	-1.54444444444
119	0.0595	-17.5164948454	-2.05454545455	-1.17179487179	1.36666666667
120	0.06	-16.0989690722	-7.8	-3.99743589744	17.3777777778
121	0.0605	-10.4288659794	-0.618181818182	4.47948717949	-0.0888888888889
122	0.061	-9.01134020619	0.818181818182	5.89230769231	1.36666666667
123	0.0615	-3.3412371134	9.43636363636	7.30512820513	-0.0888888888889
124	0.062	-0.50618556701	-6.36363636364	8.71794871795	2.82222222222
125	0.0625	3.74639175258	0.818181818182	7.30512820513	-0.0888888888889
126	0.063	2.32886597938	-10.6727272727	-5.41025641026	17.3777777778
127	0.0635	9.41649484536	-6.36363636364	-2.58461538462	-0.0888888888889
128	0.064	9.41649484536	6.56363636364	-1.17179487179	-1.54444444444
129	0.0645	9.41649484536	15.1818181818	-1.17179487179	-0.0888888888889
130	0.065	3.74639175258	-7.8	0.241025641026	-0.0888888888889
131	0.0655	7.99896907216	10.8727272727	-1.17179487179	-0.0888888888889
132	0.066	3.74639175258	-10.6727272727	-1.17179487179	1.36666666667
133	0.0665	5.16391752577	2.25454545455	12.9564102564	-7.36666666667
134	0.067	0.911340206186	3.69090909091	-1.17179487179	1.36666666667
135	0.0675	-0.50618556701	16.6181818182	-2.58461538462	1.36666666667
136	0.068	-6.17628865979	-7.8	-3.99743589744	1.36666666667
137	0.0685	-6.17628865979	-6.36363636364	-3.99743589744	-0.0888888888889
138	0.069	-3.3412371134	-2.05454545455	-8.2358974359	-1.54444444444
139	0.0695	-0.50618556701	-10.6727272727	-3.99743589744	-1.54444444444
140	0.07	9.41649484536	0.818181818182	-2.58461538462	-0.0888888888889
141	0.0705	9.41649484536	-9.23636363636	-3.99743589744	1.36666666667
142	0.071	7.99896907216	-2.05454545455	-5.41025641026	4.27777777778
143	0.0715	3.74639175258	-3.49090909091	-1.17179487179	-0.0888888888889
144	0.072	3.74639175258	-2.05454545455	0.241025641026	1.36666666667
145	0.0725	-0.50618556701	-6.36363636364	1.65384615385	-0.0888888888889
146	0.073	-1.92371134021	-3.49090909091	7.30512820513	-4.45555555556
147	0.0735	0.911340206186	3.69090909091	-1.17179487179	-3.0
148	0.074	-6.17628865979	-6.36363636364	-1.17179487179	-0.0888888888889
149	0.0745	-6.17628865979	-2.05454545455	-3.99743589744	1.36666666667
150	0.075	-7.59381443299	-4.92727272727	-5.41025641026	1.36666666667
151	0.0755	-4.7587628866	-4.92727272727	-3.99743589744	1.36666666667
152	0.076	-10.4288659794	-3.49090909091	-2.58461538462	1.36666666667
153	0.0765	0.911340206186	-2.05454545455	-2.58461538462	1.36666666667
154	0.077	-1.92371134021	-2.05454545455	-5.41025641026	-0.0888888888889
155	0.0775	-1.92371134021	-4.92727272727	-3.99743589744	-0.0888888888889
156	0.078	-11.8463917526	-9.23636363636	-3.99743589744	-1.54444444444
157	0.0785	10.8340206186	-0.618181818182	-5.41025641026	-3.0
158	0.079	2.32886597938	-2.05454545455	-22.3641025641	-0.0888888888889
159	0.0795	15.0865979381	-0.618181818182	-40.7307692308	-0.0888888888889
160	0.08	-11.8463917526	-2.05454545455	-42.1435897436	1.36666666667
161	0.0805	-4.7587628866	-2.05454545455	-30.841025641	1.36666666667
162	0.081	-9.01134020619	-0.618181818182	-12.4743589744	-0.0888888888889
163	0.0815	16.5041237113	-3.49090909091	-1.17179487179	-0.0888888888889
164	0.082	-10.4288659794	-10.6727272727	11.5435897436	1.36666666667
165	0.0825	10.8340206186	-2.05454545455	21.4333333333	-0.0888888888889
166	0.083	13.6690721649	-3.49090909091	29.9102564103	-1.54444444444
167	0.0835	-14.681443299	-2.05454545455	34.1487179487	-0.0888888888889
168	0.084	-9.01134020619	0.818181818182	35.5615384615	-1.54444444444
169	0.0845	7.99896907216	-2.05454545455	36.9743589744	1.36666666667
170	0.085	23.5917525773	-0.618181818182	31.3230769231	-1.54444444444
171	0.0855	-0.50618556701	-0.618181818182	27.0846153846	-0.0888888888889
172	0.086	17.9216494845	-3.49090909091	21.4333333333	-0.0888888888889
173	0.0865	-9.01134020619	-2.05454545455	14.3692307692	-1.54444444444
174	0.087	-4.7587628866	-2.05454545455	14.3692307692	4.27777777778
175	0.0875	12.2515463918	-3.49090909091	8.71794871795	1.36666666667
176	0.088	-11.8463917526	-2.05454545455	7.30512820513	-5.91111111111
177	0.0885	-4.7587628866	-0.618181818182	1.65384615385	5.73333333333
178	0.089	-11.8463917526	-0.618181818182	-1.17179487179	-0.0888888888889
179	0.0895	5.16391752577	-2.05454545455	-2.58461538462	1.36666666667
180	0.09	-6.17628865979	-3.49090909091	-3.99743589744	-8.82222222222
181	0.0905	-3.3412371134	-0.618181818182	-8.2358974359	7.18888888889
182	0.091	-6.17628865979	-4.92727272727	-6.82307692308	-10.2777777778
183	0.0915	-14.681443299	-4.92727272727	-6.82307692308	-4.45555555556
184	0.092	-6.17628865979	-3.49090909091	-3.99743589744	14.4666666667
185	0.0925	-3.3412371134	-2.05454545455	-3.99743589744	-0.0888888888889
186	0.093	-4.7587628866	-0.618181818182	-5.41025641026	-0.0888888888889
187	0.0935	0.911340206186	2.25454545455	-3.99743589744	20.2888888889
188	0.094	0.911340206186	3.69090909091	-3.99743589744	8.64444444444
189	0.0945	3.74639175258	5.12727272727	-2.58461538462	14.4666666667
190	0.095	10.8340206186	-0.618181818182	-1.17179487179	15.9222222222
191	0.0955	10.8340206186	-3.49090909091	-1.17179487179	7.18888888889
192	0.096	2.32886597938	-6.36363636364	1.65384615385	-0.0888888888889
193	0.0965	-1.92371134021	-6.36363636364	-1.17179487179	8.64444444444
194	0.097	-4.7587628866	-6.36363636364	0.241025641026	-5.91111111111
195	0.0975	-4.7587628866	-2.05454545455	-13.8871794872	-3.0
196	0.098	-1.92371134021	0.818181818182	0.241025641026	-0.0888888888889
197	0.0985	-3.3412371134	0.818181818182	-6.82307692308	-1.54444444444
198	0.099	-0.50618556701	0.818181818182	0.241025641026	1.36666666667
199	0.0995	0.911340206186	2.25454545455	3.06666666667	1.36666666667
200	0.1	3.74639175258	0.818181818182	-6.82307692308	13.0111111111
201	0.1005	3.74639175258	2.25454545455	5.89230769231	-0.0888888888889
202	0.101	2.32886597938	0.818181818182	20.0205128205	1.36666666667
203	0.1015	0.911340206186	0.818181818182	1.65384615385	17.3777777778
204	0.102	-0.50618556701	0.818181818182	7.30512820513	1.36666666667
205	0.1025	0.911340206186	2.25454545455	20.0205128205	-0.0888888888889
206	0.103	-3.3412371134	0.818181818182	4.47948717949	-0.0888888888889
207	0.1035	-4.7587628866	-2.05454545455	-3.99743589744	-0.0888888888889
208	0.104	-3.3412371134	-6.36363636364	-11.0615384615	-1.54444444444
209	0.1045	-0.50618556701	-4.92727272727	-5.41025641026	-0.0888888888889
210	0.105	-3.3412371134	-4.92727272727	-9.64871794872	-3.0
211	0.1055	-3.3412371134	-3.49090909091	-12.4743589744	1.36666666667
212	0.106	-1.92371134021	0.818181818182	-12.4743589744	2.82222222222
213	0.1065	-0.50618556701	-0.618181818182	-6.82307692308	4.27777777778
214	0.107	2.32886597938	2.25454545455	-9.64871794872	1.36666666667
215	0.1075	-1.92371134021	-2.05454545455	-12.4743589744	-0.0888888888889
216	0.108	-1.92371134021	-13.5454545455	-16.7128205128	1.36666666667
217	0.1085	-1.92371134021	-6.36363636364	-23.7769230769	-0.0888888888889
218	0.109	-3.3412371134	-10.6727272727	-15.3	2.82222222222
219	0.1095	-0.50618556701	0.818181818182	-3.99743589744	-7.36666666667
220	0.11	0.911340206186	9.43636363636	1.65384615385	-0.0888888888889
221	0.1105	0.911340206186	-10.6727272727	4.47948717949	-0.0888888888889
222	0.111	3.74639175258	5.12727272727	8.71794871795	-0.0888888888889
223	0.1115	-1.92371134021	-9.23636363636	18.6076923077	-0.0888888888889
224	0.112	-1.92371134021	-6.36363636364	20.0205128205	-0.0888888888889
225	0.1125	0.911340206186	-2.05454545455	20.0205128205	-1.54444444444
226	0.113	-3.3412371134	2.25454545455	35.5615384615	-8.82222222222
227	0.1135	-3.3412371134	-6.36363636364	18.6076923077	-0.0888888888889
228	0.114	-6.17628865979	-7.8	12.9564102564	-1.54444444444
229	0.1145	-3.3412371134	6.56363636364	8.71794871795	1.36666666667
230	0.115	3.74639175258	-0.618181818182	4.47948717949	1.36666666667
231	0.1155	-1.92371134021	-3.49090909091	-1.17179487179	1.36666666667
232	0.116	-0.50618556701	-4.92727272727	-1.17179487179	1.36666666667
233	0.1165	-3.3412371134	-0.618181818182	-5.41025641026	1.36666666667
234	0.117	-1.92371134021	-3.49090909091	-6.82307692308	1.36666666667
235	0.1175	-14.681443299	-2.05454545455	-6.82307692308	1.36666666667
236	0.118	-1.92371134021	-2.05454545455	-6.82307692308	-1.54444444444
237	0.1185	-11.8463917526	-2.05454545455	-3.99743589744	-0.0888888888889
238	0.119	19.3391752577	-0.618181818182	-2.58461538462	-1.54444444444
239	0.1195	5.16391752577	-2.05454545455	-2.58461538462	1.36666666667
240	0.12	15.0865979381	-0.618181818182	-2.58461538462	-1.54444444444
241	0.1205	-7.59381443299	-0.618181818182	-5.41025641026	-3.0
242	0.121	-7.59381443299	0.818181818182	-9.64871794872	4.27777777778
243	0.1215	17.9216494845	0.818181818182	-8.2358974359	4.27777777778
244	0.122	20.7567010309	-2.05454545455	-6.82307692308	-0.0888888888889
245	0.1225	-6.17628865979	-2.05454545455	-2.58461538462	-0.0888888888889
246	0.123	0.911340206186	-4.92727272727	0.241025641026	1.36666666667
247	0.1235	22.1742268041	-4.92727272727	-1.17179487179	2.82222222222
248	0.124	-6.17628865979	-2.05454545455	-6.82307692308	-7.36666666667
249	0.1245	-0.50618556701	-4.92727272727	-8.2358974359	-7.36666666667
250	0.125	-7.59381443299	-6.36363636364	-3.99743589744	-7.36666666667
251	0.1255	-7.59381443299	-3.49090909091	1.65384615385	1.36666666667
252	0.126	0.911340206186	0.818181818182	0.241025641026	7.18888888889
253	0.1265	-1.92371134021	0.818181818182	5.89230769231	-0.0888888888889
254	0.127	-6.17628865979	2.25454545455	1.65384615385	1.36666666667
255	0.1275	-3.3412371134	3.69090909091	3.06666666667	17.3777777778
256	0.128	-1.92371134021	5.12727272727	1.65384615385	-0.0888888888889
257	0.1285	-4.7587628866	16.6181818182	-5.41025641026	-1.54444444444
258	0.129	-0.50618556701	8.0	-11.0615384615	-3.0
259	0.1295	-1.92371134021	-4.92727272727	-15.3	-5.91111111111
260	0.13	0.911340206186	-13.5454545455	1.65384615385	-11.7333333333
261	0.1305	-1.92371134021	-12.1090909091	0.241025641026	-5.91111111111
262	0.131	2.32886597938	-6.36363636364	-11.0615384615	-0.0888888888889
263	0.1315	-3.3412371134	-4.92727272727	-19.5384615385	-5.91111111111
264	0.132	-3.3412371134	-9.23636363636	-18.1256410256	2.82222222222
265	0.1325	-4.7587628866	-3.49090909091	-19.5384615385	-1.54444444444
266	0.133	0.911340206186	-3.49090909091	8.71794871795	-3.0
267	0.1335	2.32886597938	-3.49090909091	8.71794871795	-1.54444444444
268	0.134	0.911340206186	-2.05454545455	31.3230769231	-0.0888888888889
269	0.1345	0.911340206186	8.0	49.6897435897	-0.0888888888889
270	0.135	-3.3412371134	18.0545454545	29.9102564103	-1.54444444444
271	0.1355	-1.92371134021	22.3636363636	34.1487179487	-0.0888888888889
272	0.136	-3.3412371134	5.12727272727	14.3692307692	-3.0
273	0.1365	-6.17628865979	-9.23636363636	11.5435897436	-0.0888888888889
274	0.137	-4.7587628866	-13.5454545455	11.5435897436	4.27777777778
275	0.1375	-6.17628865979	-3.49090909091	20.0205128205	-4.45555555556
276	0.138	-0.50618556701	-0.618181818182	7.30512820513	5.73333333333
277	0.1385	-3.3412371134	-0.618181818182	11.5435897436	1.36666666667
278	0.139	0.911340206186	0.818181818182	-6.82307692308	-7.36666666667
279	0.1395	-0.50618556701	-3.49090909091	0.241025641026	-0.0888888888889
280	0.14	-6.17628865979	-4.92727272727	-2.58461538462	1.36666666667
281	0.1405	-6.17628865979	-0.618181818182	-1.17179487179	-7.36666666667
282	0.141	-4.7587628866	0.818181818182	-5.41025641026	-0.0888888888889
283	0.1415	-0.50618556701	-0.618181818182	15.7820512821	-0.0888888888889
284	0.142	-0.50618556701	-2.05454545455	-2.58461538462	-0.0888888888889
285	0.1425	0.911340206186	0.818181818182	1.65384615385	-3.0
286	0.143	-0.50618556701	-0.618181818182	1.65384615385	-14.6444444444
287	0.1435	0.911340206186	-2.05454545455	-1.17179487179	-3.0
288	0.144	0.911340206186	-0.618181818182	0.241025641026	-1.54444444444
289	0.1445	-4.7587628866	-3.49090909091	-3.99743589744	-3.0
290	0.145	-6.17628865979	0.818181818182	0.241025641026	-0.0888888888889
291	0.1455	-4.7587628866	-7.8	7.30512820513	-1.54444444444
292	0.146	-4.7587628866	-2.05454545455	15.7820512821	-11.7333333333
293	0.1465	0.911340206186	2.25454545455	3.06666666667	-0.0888888888889
294	0.147	-1.92371134021	-10.6727272727	7.30512820513	-0.0888888888889
295	0.1475	-0.50618556701	3.69090909091	1.65384615385	1.36666666667
296	0.148	-1.92371134021	-13.5454545455	1.65384615385	-0.0888888888889
297	0.1485	0.911340206186	0.818181818182	-2.58461538462	-3.0
298	0.149	2.32886597938	16.6181818182	1.65384615385	1.36666666667
299	0.1495	5.16391752577	-7.8	0.241025641026	2.82222222222
300	0.15	6.58144329897	-7.8	-1.17179487179	-3.0
301	0.1505	3.74639175258	13.7454545455	-1.17179487179	-0.0888888888889
302	0.151	-0.50618556701	-2.05454545455	-3.99743589744	1.36666666667
303	0.1515	-0.50618556701	-0.618181818182	-2.58461538462	1.36666666667
304	0.152	-1.92371134021	-12.1090909091	-2.58461538462	2.82222222222
305	0.1525	0.911340206186	16.6181818182	-6.82307692308	-0.0888888888889
306	0.153	-0.50618556701	8.0	-1.17179487179	-0.0888888888889
307	0.1535	2.32886597938	3.69090909091	-2.58461538462	-1.54444444444
308	0.154	3.74639175258	15.1818181818	-1.17179487179	-3.0
309	0.1545	2.32886597938	-9.23636363636	-1.17179487179	-1.54444444444
310	0.155	-0.50618556701	-9.23636363636	-2.58461538462	-4.45555555556
311	0.1555	5.16391752577	16.6181818182	-5.41025641026	2.82222222222
312	0.156	5.16391752577	-3.49090909091	-3.99743589744	2.82222222222
313	0.1565	7.99896907216	-3.49090909091	-1.17179487179	2.82222222222
314	0.157	0.911340206186	-7.8	-1.17179487179	2.82222222222
315	0.1575	9.41649484536	-3.49090909091	-6.82307692308	-0.0888888888889
316	0.158	3.74639175258	-6.36363636364	-6.82307692308	1.36666666667
317	0.1585	9.41649484536	2.25454545455	-6.82307692308	-0.0888888888889
318	0.159	5.16391752577	-3.49090909091	-5.41025641026	-1.54444444444
319	0.1595	-4.7587628866	-0.618181818182	-6.82307692308	1.36666666667
320	0.16	-3.3412371134	-4.92727272727	-3.99743589744	2.82222222222
321	0.1605	-3.3412371134	-3.49090909091	-1.17179487179	4.27777777778
322	0.161	-16.0989690722	-2.05454545455	-2.58461538462	2.82222222222
323	0.1615	-11.8463917526	-2.05454545455	-16.7128205128	2.82222222222
324	0.162	-23.1865979381	-3.49090909091	-18.1256410256	-1.54444444444
325	0.1625	-0.50618556701	-3.49090909091	-12.4743589744	-0.0888888888889
326	0.163	-3.3412371134	-0.618181818182	-6.82307692308	-1.54444444444
327	0.1635	-23.1865979381	-10.6727272727	0.241025641026	1.36666666667
328	0.164	-10.4288659794	0.818181818182	5.89230769231	5.73333333333
329	0.1645	13.6690721649	2.25454545455	10.1307692308	1.36666666667
330	0.165	2.32886597938	5.12727272727	15.7820512821	5.73333333333
331	0.1655	17.9216494845	6.56363636364	15.7820512821	1.36666666667
332	0.166	16.5041237113	-0.618181818182	14.3692307692	1.36666666667
333	0.1665	2.32886597938	-3.49090909091	14.3692307692	-7.36666666667
334	0.167	-1.92371134021	-3.49090909091	11.5435897436	4.27777777778
335	0.1675	7.99896907216	-3.49090909091	8.71794871795	-8.82222222222
336	0.168	-4.7587628866	-4.92727272727	8.71794871795	2.82222222222
337	0.1685	-3.3412371134	-2.05454545455	5.89230769231	18.8333333333
338	0.169	-7.59381443299	-3.49090909091	5.89230769231	1.36666666667
339	0.1695	-17.5164948454	0.818181818182	5.89230769231	1.36666666667
340	0.17	-6.17628865979	0.818181818182	3.06666666667	15.9222222222
341	0.1705	-1.92371134021	0.818181818182	5.89230769231	2.82222222222
342	0.171	-4.7587628866	-2.05454545455	5.89230769231	1.36666666667
343	0.1715	0.911340206186	0.818181818182	1.65384615385	15.9222222222
344	0.172	2.32886597938	0.818181818182	3.06666666667	1.36666666667
345	0.1725	3.74639175258	0.818181818182	-1.17179487179	18.8333333333
346	0.173	0.911340206186	-0.618181818182	4.47948717949	7.18888888889
347	0.1735	-0.50618556701	-2.05454545455	-11.0615384615	-0.0888888888889
348	0.174	-4.7587628866	0.818181818182	-2.58461538462	1.36666666667
349	0.1745	-4.7587628866	0.818181818182	1.65384615385	1.36666666667
350	0.175	-1.92371134021	-2.05454545455	15.7820512821	-0.0888888888889
351	0.1755	3.74639175258	-0.618181818182	0.241025641026	1.36666666667
352	0.176	7.99896907216	-4.92727272727	-11.0615384615	1.36666666667
353	0.1765	7.99896907216	-6.36363636364	-2.58461538462	1.36666666667
354	0.177	3.74639175258	-3.49090909091	-11.0615384615	-0.0888888888889
355	0.1775	-6.17628865979	-2.05454545455	-6.82307692308	-0.0888888888889
356	0.178	-4.7587628866	-6.36363636364	-3.99743589744	1.36666666667
357	0.1785	-6.17628865979	-4.92727272727	14.3692307692	-10.2777777778
358	0.179	-4.7587628866	-4.92727272727	4.47948717949	-0.0888888888889
359	0.1795	-4.7587628866	0.818181818182	12.9564102564	-3.0
360	0.18	-1.92371134021	3.69090909091	0.241025641026	1.36666666667
361	0.1805	3.74639175258	2.25454545455	0.241025641026	-0.0888888888889
362	0.181	7.99896907216	0.818181818182	15.7820512821	-5.91111111111
363	0.1815	5.16391752577	0.818181818182	-1.17179487179	1.36666666667
364	0.182	5.16391752577	-0.618181818182	12.9564102564	-1.54444444444
365	0.1825	3.74639175258	-6.36363636364	-5.41025641026	-0.0888888888889
366	0.183	5.16391752577	-3.49090909091	8.71794871795	-0.0888888888889
367	0.1835	2.32886597938	2.25454545455	3.06666666667	-11.7333333333
368	0.184	-0.50618556701	6.56363636364	-1.17179487179	-1.54444444444
369	0.1845	-1.92371134021	3.69090909091	-1.17179487179	-0.0888888888889
370	0.185	-0.50618556701	-3.49090909091	5.89230769231	-0.0888888888889
371	0.1855	0.911340206186	-0.618181818182	4.47948717949	-1.54444444444
372	0.186	2.32886597938	-0.618181818182	3.06666666667	-1.54444444444
373	0.1865	-0.50618556701	13.7454545455	-1.17179487179	-4.45555555556
374	0.187	-0.50618556701	-3.49090909091	-1.17179487179	1.36666666667
375	0.1875	-1.92371134021	18.0545454545	-2.58461538462	-0.0888888888889
376	0.188	0.911340206186	0.818181818182	-2.58461538462	-1.54444444444
377	0.1885	7.99896907216	9.43636363636	-3.99743589744	1.36666666667
378	0.189	3.74639175258	-7.8	-1.17179487179	1.36666666667
379	0.1895	5.16391752577	3.69090909091	-2.58461538462	1.36666666667
380	0.19	9.41649484536	0.818181818182	-19.5384615385	-3.0
381	0.1905	5.16391752577	-12.1090909091	-40.7307692308	-1.54444444444
382	0.191	-0.50618556701	-9.23636363636	-46.3820512821	-1.54444444444
383	0.1915	3.74639175258	0.818181818182	-43.5564102564	-0.0888888888889
384	0.192	-3.3412371134	-9.23636363636	-23.7769230769	-1.54444444444
385	0.1925	0.911340206186	-4.92727272727	-12.4743589744	-0.0888888888889
386	0.193	-4.7587628866	-10.6727272727	1.65384615385	4.27777777778
387	0.1935	2.32886597938	-6.36363636364	14.3692307692	-0.0888888888889
388	0.194	-1.92371134021	-9.23636363636	27.0846153846	-1.54444444444
389	0.1945	-7.59381443299	0.818181818182	29.9102564103	-0.0888888888889
390	0.195	2.32886597938	23.8	28.4974358974	1.36666666667
391	0.1955	-9.01134020619	13.7454545455	29.9102564103	-0.0888888888889
392	0.196	-4.7587628866	9.43636363636	28.4974358974	-0.0888888888889
393	0.1965	-4.7587628866	-0.618181818182	22.8461538462	1.36666666667
394	0.197	0.911340206186	-7.8	20.0205128205	2.82222222222
395	0.1975	9.41649484536	9.43636363636	17.1948717949	-0.0888888888889
396	0.198	-1.92371134021	-4.92727272727	12.9564102564	-0.0888888888889
397	0.1985	-9.01134020619	-2.05454545455	7.30512820513	1.36666666667
398	0.199	2.32886597938	15.1818181818	4.47948717949	1.36666666667
399	0.1995	16.5041237113	-0.618181818182	3.06666666667	-1.54444444444
400	0.2	-9.01134020619	-2.05454545455	-1.17179487179	-0.0888888888889
401	0.2005	2.32886597938	-0.618181818182	-2.58461538462	4.27777777778
402	0.201	-9.01134020619	-6.36363636364	-1.17179487179	-0.0888888888889
403	0.2015	10.8340206186	-9.23636363636	1.65384615385	1.36666666667
404	0.202	20.7567010309	-6.36363636364	-1.17179487179	1.36666666667
405	0.2025	-9.01134020619	-4.92727272727	0.241025641026	-7.36666666667
406	0.203	-11.8463917526	-4.92727272727	-3.99743589744	-0.0888888888889
407	0.2035	12.2515463918	-3.49090909091	0.241025641026	1.36666666667
408	0.204	-4.7587628866	-0.618181818182	0.241025641026	-1.54444444444
409	0.2045	-7.59381443299	0.818181818182	-1.17179487179	-1.54444444444
410	0.205	-4.7587628866	0.818181818182	-1.17179487179	-10.2777777778
411	0.2055	-3.3412371134	5.12727272727	-1.17179487179	13.0111111111
412	0.206	-4.7587628866	18.0545454545	0.241025641026	1.36666666667
413	0.2065	-6.17628865979	20.9272727273	-3.99743589744	-8.82222222222
414	0.207	-1.92371134021	15.1818181818	-12.4743589744	-8.82222222222
415	0.2075	-3.3412371134	-6.36363636364	-29.4282051282	-0.0888888888889
416	0.208	-4.7587628866	-9.23636363636	-39.3179487179	-0.0888888888889
417	0.2085	-1.92371134021	-6.36363636364	-20.9512820513	-0.0888888888889
418	0.209	-1.92371134021	-2.05454545455	-11.0615384615	-7.36666666667
419	0.2095	-1.92371134021	-2.05454545455	-6.82307692308	15.9222222222
420	0.21	-0.50618556701	-3.49090909091	5.89230769231	5.73333333333
421	0.2105	-1.92371134021	-4.92727272727	8.71794871795	-3.0
422	0.211	0.911340206186	-7.8	31.3230769231	-4.45555555556
423	0.2115	-0.50618556701	-6.36363636364	18.6076923077	2.82222222222
424	0.212	2.32886597938	-3.49090909091	22.8461538462	-0.0888888888889
425	0.2125	2.32886597938	-0.618181818182	4.47948717949	-5.91111111111
426	0.213	-0.50618556701	0.818181818182	7.30512820513	15.9222222222
427	0.2135	-0.50618556701	-2.05454545455	11.5435897436	-4.45555555556
428	0.214	0.911340206186	-2.05454545455	-11.0615384615	-0.0888888888889
429	0.2145	-0.50618556701	-0.618181818182	-30.841025641	-0.0888888888889
430	0.215	0.911340206186	2.25454545455	-46.3820512821	-10.2777777778
431	0.2155	0.911340206186	0.818181818182	-40.7307692308	1.36666666667
432	0.216	0.911340206186	-4.92727272727	-33.6666666667	14.4666666667
433	0.2165	-0.50618556701	-7.8	-8.2358974359	-1.54444444444
434	0.217	-0.50618556701	-3.49090909091	-1.17179487179	-1.54444444444
435	0.2175	0.911340206186	-2.05454545455	14.3692307692	-0.0888888888889
436	0.218	0.911340206186	0.818181818182	28.4974358974	-0.0888888888889
437	0.2185	0.911340206186	-10.6727272727	22.8461538462	-3.0
438	0.219	0.911340206186	-12.1090909091	22.8461538462	-0.0888888888889
439	0.2195	-0.50618556701	-7.8	25.6717948718	-7.36666666667
440	0.22	0.911340206186	16.6181818182	20.0205128205	-0.0888888888889
441	0.2205	0.911340206186	10.8727272727	8.71794871795	-0.0888888888889
442	0.221	0.911340206186	10.8727272727	-1.17179487179	-0.0888888888889
443	0.2215	0.911340206186	20.9272727273	-6.82307692308	1.36666666667
444	0.222	0.911340206186	-2.05454545455	-3.99743589744	-0.0888888888889
445	0.2225	-1.92371134021	-12.1090909091	-3.99743589744	-1.54444444444
446	0.223	5.16391752577	12.3090909091	-2.58461538462	2.82222222222
447	0.2235	2.32886597938	2.25454545455	0.241025641026	4.27777777778
448	0.224	-0.50618556701	-6.36363636364	4.47948717949	1.36666666667
449	0.2245	2.32886597938	-9.23636363636	5.89230769231	-1.54444444444
450	0.225	-0.50618556701	-2.05454545455	11.5435897436	-3.0
451	0.2255	-6.17628865979	-4.92727272727	20.0205128205	-0.0888888888889
452	0.226	5.16391752577	-3.49090909091	27.0846153846	-1.54444444444
453	0.2265	-0.50618556701	-2.05454545455	25.6717948718	2.82222222222
454	0.227	0.911340206186	-4.92727272727	25.6717948718	1.36666666667
455	0.2275	-16.0989690722	2.25454545455	20.0205128205	-0.0888888888889
456	0.228	-0.50618556701	0.818181818182	15.7820512821	1.36666666667
457	0.2285	-13.2639175258	2.25454545455	7.30512820513	1.36666666667
458	0.229	-6.17628865979	2.25454545455	1.65384615385	1.36666666667
459	0.2295	3.74639175258	0.818181818182	3.06666666667	-0.0888888888889
460	0.23	23.5917525773	-6.36363636364	-2.58461538462	-3.0
461	0.2305	17.9216494845	-4.92727272727	-3.99743589744	-5.91111111111
462	0.231	2.32886597938	-3.49090909091	1.65384615385	-4.45555555556
463	0.2315	19.3391752577	-7.8	4.47948717949	-0.0888888888889
464	0.232	-9.01134020619	-2.05454545455	7.30512820513	-1.54444444444
465	0.2325	-0.50618556701	0.818181818182	5.89230769231	-5.91111111111
466	0.233	-4.7587628866	0.818181818182	1.65384615385	5.73333333333
467	0.2335	-6.17628865979	2.25454545455	0.241025641026	-0.0888888888889
468	0.234	9.41649484536	2.25454545455	-5.41025641026	1.36666666667
469	0.2345	-4.7587628866	0.818181818182	-9.64871794872	1.36666666667
470	0.235	-10.4288659794	-0.618181818182	-11.0615384615	-8.82222222222
471	0.2355	-10.4288659794	-4.92727272727	-12.4743589744	-0.0888888888889
472	0.236	-3.3412371134	-0.618181818182	-6.82307692308	-7.36666666667
473	0.2365	-0.50618556701	-3.49090909091	-2.58461538462	17.3777777778
474	0.237	-4.7587628866	-3.49090909091	4.47948717949	-0.0888888888889
475	0.2375	-4.7587628866	-2.05454545455	0.241025641026	17.3777777778
476	0.238	-0.50618556701	-0.618181818182	-1.17179487179	1.36666666667
477	0.2385	0.911340206186	0.818181818182	0.241025641026	-7.36666666667
478	0.239	-0.50618556701	-2.05454545455	-1.17179487179	-4.45555555556
479	0.2395	-3.3412371134	-0.618181818182	-1.17179487179	2.82222222222
480	0.24	-1.92371134021	-0.618181818182	-1.17179487179	-8.82222222222
481	0.2405	-0.50618556701	-0.618181818182	-11.0615384615	1.36666666667
482	0.241	-0.50618556701	0.818181818182	-9.64871794872	-0.0888888888889
483	0.2415	-0.50618556701	-3.49090909091	-23.7769230769	-1.54444444444
484	0.242	-0.50618556701	-3.49090909091	-8.2358974359	2.82222222222
485	0.2425	-3.3412371134	-2.05454545455	-12.4743589744	1.36666666667
486	0.243	-1.92371134021	-2.05454545455	-2.58461538462	2.82222222222
487	0.2435	-0.50618556701	-2.05454545455	0.241025641026	-3.0
488	0.244	0.911340206186	-3.49090909091	3.06666666667	-8.82222222222
489	0.2445	-1.92371134021	-2.05454545455	27.0846153846	-1.54444444444
490	0.245	-1.92371134021	0.818181818182	36.9743589744	-0.0888888888889
491	0.2455	-3.3412371134	-3.49090909091	15.7820512821	-0.0888888888889
492	0.246	0.911340206186	-4.92727272727	8.71794871795	5.73333333333
493	0.2465	-0.50618556701	-2.05454545455	29.9102564103	-7.36666666667
494	0.247	-0.50618556701	-2.05454545455	5.89230769231	-1.54444444444
495	0.2475	-0.50618556701	3.69090909091	5.89230769231	-1.54444444444
496	0.248	0.911340206186	-0.618181818182	-3.99743589744	-0.0888888888889
497	0.2485	-1.92371134021	0.818181818182	3.06666666667	-0.0888888888889
498	0.249	0.911340206186	-4.92727272727	-5.41025641026	-0.0888888888889
499	0.2495	0.911340206186	-2.05454545455	-6.82307692308	-0.0888888888889
500	0.25	-0.50618556701	-6.36363636364	-2.58461538462	2.82222222222
501	0.2505	-0.50618556701	2.25454545455	-11.0615384615	-0.0888888888889
502	0.251	0.911340206186	-4.92727272727	-2.58461538462	-0.0888888888889
503	0.2515	0.911340206186	8.0	-3.99743589744	-1.54444444444
504	0.252	3.74639175258	6.56363636364	-1.17179487179	1.36666666667
505	0.2525	3.74639175258	10.8727272727	-1.17179487179	-0.0888888888889
506	0.253	2.32886597938	-2.05454545455	0.241025641026	-0.0888888888889
507	0.2535	5.16391752577	-6.36363636364	-3.99743589744	-0.0888888888889
508	0.254	5.16391752577	-14.9818181818	-3.99743589744	2.82222222222
509	0.2545	5.16391752577	-6.36363636364	-2.58461538462	-0.0888888888889
510	0.255	0.911340206186	0.818181818182	-2.58461538462	4.27777777778
511	0.2555	3.74639175258	10.8727272727	-3.99743589744	4.27777777778
512	0.256	-3.3412371134	-14.9818181818	-11.0615384615	1.36666666667
513	0.2565	-4.7587628866	3.69090909091	0.241025641026	-3.0
514	0.257	0.911340206186	-0.618181818182	1.65384615385	4.27777777778
515	0.2575	-1.92371134021	-10.6727272727	0.241025641026	2.82222222222
516	0.258	0.911340206186	-0.618181818182	-6.82307692308	2.82222222222
517	0.2585	-1.92371134021	-2.05454545455	-1.17179487179	5.73333333333
518	0.259	-6.17628865979	-12.1090909091	-3.99743589744	4.27777777778
519	0.2595	-1.92371134021	20.9272727273	1.65384615385	2.82222222222
520	0.26	0.911340206186	9.43636363636	0.241025641026	1.36666666667
521	0.2605	5.16391752577	3.69090909091	-2.58461538462	1.36666666667
522	0.261	5.16391752577	13.7454545455	-5.41025641026	1.36666666667
523	0.2615	0.911340206186	6.56363636364	-5.41025641026	-1.54444444444
524	0.262	-4.7587628866	-6.36363636364	-8.2358974359	-1.54444444444
525	0.2625	-0.50618556701	-4.92727272727	-2.58461538462	1.36666666667
526	0.263	-0.50618556701	-10.6727272727	-1.17179487179	-1.54444444444
527	0.2635	-13.2639175258	-2.05454545455	-1.17179487179	-1.54444444444
528	0.264	-7.59381443299	-0.618181818182	-1.17179487179	-1.54444444444
529	0.2645	-7.59381443299	-0.618181818182	-3.99743589744	-0.0888888888889
530	0.265	-10.4288659794	-2.05454545455	-1.17179487179	1.36666666667
531	0.2655	-4.7587628866	-2.05454545455	-1.17179487179	1.36666666667
532	0.266	-1.92371134021	-3.49090909091	-2.58461538462	-0.0888888888889
533	0.2665	13.6690721649	-6.36363636364	1.65384615385	-0.0888888888889
534	0.267	-13.2639175258	-2.05454545455	1.65384615385	-0.0888888888889
535	0.2675	5.16391752577	-3.49090909091	0.241025641026	-0.0888888888889
536	0.268	-14.681443299	-9.23636363636	3.06666666667	4.27777777778
537	0.2685	10.8340206186	-10.6727272727	3.06666666667	-0.0888888888889
538	0.269	9.41649484536	-6.36363636364	4.47948717949	-3.0
539	0.2695	-11.8463917526	-4.92727272727	3.06666666667	-0.0888888888889
540	0.27	-10.4288659794	-6.36363636364	3.06666666667	-7.36666666667
541	0.2705	9.41649484536	-6.36363636364	-1.17179487179	1.36666666667
542	0.271	-3.3412371134	-3.49090909091	-2.58461538462	-0.0888888888889
543	0.2715	20.7567010309	-0.618181818182	-1.17179487179	-0.0888888888889
544	0.272	9.41649484536	-2.05454545455	-1.17179487179	2.82222222222
545	0.2725	3.74639175258	5.12727272727	4.47948717949	-11.7333333333
546	0.273	-4.7587628866	10.8727272727	4.47948717949	-4.45555555556
547	0.2735	-13.2639175258	23.8	5.89230769231	-11.7333333333
548	0.274	-7.59381443299	13.7454545455	4.47948717949	-7.36666666667
549	0.2745	-11.8463917526	-0.618181818182	4.47948717949	-7.36666666667
550	0.275	-9.01134020619	-4.92727272727	7.30512820513	-14.6444444444
551	0.2755	-9.01134020619	-0.618181818182	3.06666666667	14.4666666667
552	0.276	-6.17628865979	2.25454545455	7.30512820513	-0.0888888888889
553	0.2765	-1.92371134021	3.69090909091	5.89230769231	-10.2777777778
554	0.277	-1.92371134021	-4.92727272727	4.47948717949	-0.0888888888889
555	0.2775	-4.7587628866	-9.23636363636	7.30512820513	-7.36666666667
556	0.278	-0.50618556701	-10.6727272727	4.47948717949	-8.82222222222
557	0.2785	0.911340206186	-9.23636363636	4.47948717949	2.82222222222
558	0.279	0.911340206186	-6.36363636364	4.47948717949	-7.36666666667
559	0.2795	2.32886597938	-2.05454545455	0.241025641026	7.18888888889
560	0.28	-0.50618556701	-0.618181818182	4.47948717949	-3.0
561	0.2805	-1.92371134021	-0.618181818182	-8.2358974359	2.82222222222
562	0.281	-1.92371134021	-2.05454545455	-1.17179487179	4.27777777778
563	0.2815	-0.50618556701	-2.05454545455	0.241025641026	-10.2777777778
564	0.282	-0.50618556701	-3.49090909091	-11.0615384615	15.9222222222
565	0.2825	-0.50618556701	-2.05454545455	-3.99743589744	2.82222222222
566	0.283	-3.3412371134	-2.05454545455	-16.7128205128	4.27777777778
567	0.2835	0.911340206186	-0.618181818182	-5.41025641026	-3.0
568	0.284	3.74639175258	-0.618181818182	5.89230769231	4.27777777778
569	0.2845	0.911340206186	-0.618181818182	-1.17179487179	2.82222222222
570	0.285	5.16391752577	-0.618181818182	5.89230769231	-0.0888888888889
571	0.2855	3.74639175258	2.25454545455	-9.64871794872	-8.82222222222
572	0.286	7.99896907216	-2.05454545455	-18.1256410256	1.36666666667
573	0.2865	10.8340206186	-0.618181818182	-36.4923076923	-3.0
574	0.287	10.8340206186	0.818181818182	-13.8871794872	-0.0888888888889
575	0.2875	3.74639175258	-0.618181818182	-18.1256410256	20.2888888889
576	0.288	-0.50618556701	-2.05454545455	-1.17179487179	-3.0
577	0.2885	-0.50618556701	-3.49090909091	8.71794871795	1.36666666667
578	0.289	0.911340206186	0.818181818182	20.0205128205	1.36666666667
579	0.2895	2.32886597938	0.818181818182	21.4333333333	1.36666666667
580	0.29	3.74639175258	2.25454545455	28.4974358974	-0.0888888888889
581	0.2905	0.911340206186	-9.23636363636	22.8461538462	2.82222222222
582	0.291	3.74639175258	-2.05454545455	31.3230769231	-3.0
583	0.2915	3.74639175258	0.818181818182	21.4333333333	1.36666666667
584	0.292	2.32886597938	-0.618181818182	17.1948717949	-0.0888888888889
585	0.2925	5.16391752577	8.0	5.89230769231	-1.54444444444
586	0.293	-1.92371134021	-10.6727272727	-3.99743589744	1.36666666667
587	0.2935	0.911340206186	-0.618181818182	-13.8871794872	-0.0888888888889
588	0.294	-0.50618556701	0.818181818182	-9.64871794872	-1.54444444444
589	0.2945	2.32886597938	13.7454545455	-9.64871794872	-0.0888888888889
590	0.295	3.74639175258	-14.9818181818	-8.2358974359	-1.54444444444
591	0.2955	7.99896907216	-7.8	-8.2358974359	-0.0888888888889
592	0.296	5.16391752577	3.69090909091	-11.0615384615	1.36666666667
593	0.2965	2.32886597938	-3.49090909091	-11.0615384615	-0.0888888888889
594	0.297	2.32886597938	22.3636363636	-9.64871794872	-0.0888888888889
595	0.2975	0.911340206186	8.0	-11.0615384615	2.82222222222
596	0.298	0.911340206186	6.56363636364	-39.3179487179	1.36666666667
597	0.2985	-1.92371134021	-6.36363636364	-63.3358974359	1.36666666667
598	0.299	0.911340206186	0.818181818182	-56.2717948718	1.36666666667
599	0.2995	2.32886597938	22.3636363636	-35.0794871795	2.82222222222
600	0.3	0.911340206186	3.69090909091	-16.7128205128	2.82222222222
601	0.3005	3.74639175258	10.8727272727	-1.17179487179	1.36666666667
602	0.301	0.911340206186	-10.6727272727	20.0205128205	-0.0888888888889
603	0.3015	3.74639175258	16.6181818182	34.1487179487	1.36666666667
604	0.302	3.74639175258	-6.36363636364	42.6256410256	1.36666666667
605	0.3025	2.32886597938	-10.6727272727	51.1025641026	4.27777777778
606	0.303	-6.17628865979	-13.5454545455	49.6897435897	-0.0888888888889
607	0.3035	-6.17628865979	-9.23636363636	44.0384615385	1.36666666667
608	0.304	-13.2639175258	-0.618181818182	29.9102564103	4.27777777778
609	0.3045	-1.92371134021	-0.618181818182	18.6076923077	-0.0888888888889
610	0.305	-4.7587628866	-6.36363636364	14.3692307692	-0.0888888888889
611	0.3055	-9.01134020619	-0.618181818182	15.7820512821	-0.0888888888889
612	0.306	-14.681443299	-0.618181818182	7.30512820513	1.36666666667
613	0.3065	-3.3412371134	-2.05454545455	5.89230769231	-0.0888888888889
614	0.307	-1.92371134021	-4.92727272727	11.5435897436	-1.54444444444
615	0.3075	-16.0989690722	-2.05454545455	11.5435897436	-0.0888888888889
616	0.308	-3.3412371134	-2.05454545455	11.5435897436	-0.0888888888889
617	0.3085	-14.681443299	0.818181818182	8.71794871795	1.36666666667
618	0.309	-16.0989690722	-3.49090909091	4.47948717949	-0.0888888888889
619	0.3095	10.8340206186	-4.92727272727	5.89230769231	1.36666666667
620	0.31	3.74639175258	-6.36363636364	4.47948717949	-1.54444444444
621	0.3105	-13.2639175258	-2.05454545455	4.47948717949	-0.0888888888889
622	0.311	12.2515463918	-2.05454545455	4.47948717949	1.36666666667
623	0.3115	-0.50618556701	-0.618181818182	-3.99743589744	2.82222222222
624	0.312	17.9216494845	-0.618181818182	-12.4743589744	-0.0888888888889
625	0.3125	-10.4288659794	-2.05454545455	-13.8871794872	-0.0888888888889
626	0.313	-1.92371134021	2.25454545455	-11.0615384615	1.36666666667
627	0.3135	-9.01134020619	-2.05454545455	-11.0615384615	-4.45555555556
628	0.314	3.74639175258	-0.618181818182	-9.64871794872	2.82222222222
629	0.3145	-7.59381443299	0.818181818182	-8.2358974359	1.36666666667
630	0.315	-0.50618556701	0.818181818182	-6.82307692308	4.27777777778
631	0.3155	-6.17628865979	-0.618181818182	-5.41025641026	15.9222222222
632	0.316	-4.7587628866	-2.05454545455	1.65384615385	-3.0
633	0.3165	-3.3412371134	-4.92727272727	4.47948717949	4.27777777778
634	0.317	-4.7587628866	-2.05454545455	11.5435897436	-10.2777777778
635	0.3175	-1.92371134021	-4.92727272727	8.71794871795	-7.36666666667
636	0.318	-1.92371134021	-2.05454545455	7.30512820513	15.9222222222
637	0.3185	-1.92371134021	-2.05454545455	5.89230769231	7.18888888889
638	0.319	-0.50618556701	-2.05454545455	7.30512820513	4.27777777778
639	0.3195	0.911340206186	-2.05454545455	7.30512820513	1.36666666667
640	0.32	-3.3412371134	-2.05454545455	3.06666666667	13.0111111111
641	0.3205	-1.92371134021	-3.49090909091	0.241025641026	1.36666666667
642	0.321	0.911340206186	-3.49090909091	3.06666666667	-7.36666666667
643	0.3215	-3.3412371134	-6.36363636364	-6.82307692308	-3.0
644	0.322	-1.92371134021	-2.05454545455	-6.82307692308	1.36666666667
645	0.3225	-3.3412371134	-2.05454545455	-6.82307692308	-5.91111111111
646	0.323	-0.50618556701	-0.618181818182	-9.64871794872	17.3777777778
647	0.3235	-0.50618556701	2.25454545455	-6.82307692308	1.36666666667
648	0.324	2.32886597938	-0.618181818182	-15.3	-0.0888888888889
649	0.3245	0.911340206186	-2.05454545455	-15.3	1.36666666667
650	0.325	0.911340206186	2.25454545455	-2.58461538462	-5.91111111111
651	0.3255	0.911340206186	0.818181818182	-1.17179487179	4.27777777778
652	0.326	-0.50618556701	6.56363636364	11.5435897436	1.36666666667
653	0.3265	-1.92371134021	12.3090909091	-6.82307692308	14.4666666667
654	0.327	-3.3412371134	8.0	-3.99743589744	-0.0888888888889
655	0.3275	-1.92371134021	-0.618181818182	3.06666666667	-4.45555555556
656	0.328	-1.92371134021	-4.92727272727	11.5435897436	-5.91111111111
657	0.3285	-1.92371134021	-3.49090909091	4.47948717949	-0.0888888888889
658	0.329	-3.3412371134	-2.05454545455	5.89230769231	1.36666666667
659	0.3295	-6.17628865979	-3.49090909091	-1.17179487179	-0.0888888888889
660	0.33	-4.7587628866	-4.92727272727	-6.82307692308	-0.0888888888889
661	0.3305	-7.59381443299	-4.92727272727	8.71794871795	-0.0888888888889
662	0.331	-1.92371134021	-6.36363636364	-3.99743589744	-0.0888888888889
663	0.3315	0.911340206186	0.818181818182	-13.8871794872	-3.0
664	0.332	0.911340206186	-6.36363636364	-15.3	-1.54444444444
665	0.3325	-1.92371134021	-2.05454545455	-15.3	1.36666666667
666	0.333	-6.17628865979	-3.49090909091	-9.64871794872	-0.0888888888889
667	0.3335	-6.17628865979	-2.05454545455	-16.7128205128	-1.54444444444
668	0.334	-3.3412371134	2.25454545455	-8.2358974359	-0.0888888888889
669	0.3345	-3.3412371134	5.12727272727	0.241025641026	2.82222222222
670	0.335	-1.92371134021	10.8727272727	-5.41025641026	2.82222222222
671	0.3355	-0.50618556701	0.818181818182	-11.0615384615	18.8333333333
672	0.336	2.32886597938	-4.92727272727	-1.17179487179	1.36666666667
673	0.3365	3.74639175258	-9.23636363636	0.241025641026	-0.0888888888889
674	0.337	9.41649484536	5.12727272727	-1.17179487179	1.36666666667
675	0.3375	10.8340206186	2.25454545455	-6.82307692308	1.36666666667
676	0.338	7.99896907216	-9.23636363636	-2.58461538462	2.82222222222
677	0.3385	9.41649484536	2.25454545455	-3.99743589744	-0.0888888888889
678	0.339	5.16391752577	-6.36363636364	0.241025641026	1.36666666667
679	0.3395	5.16391752577	-4.92727272727	5.89230769231	1.36666666667
680	0.34	5.16391752577	-7.8	1.65384615385	-0.0888888888889
681	0.3405	5.16391752577	-10.6727272727	-2.58461538462	-0.0888888888889
682	0.341	3.74639175258	18.0545454545	-8.2358974359	1.36666666667
683	0.3415	3.74639175258	10.8727272727	-12.4743589744	2.82222222222
684	0.342	3.74639175258	3.69090909091	-25.1897435897	-0.0888888888889
685	0.3425	2.32886597938	13.7454545455	-35.0794871795	1.36666666667
686	0.343	0.911340206186	-12.1090909091	-29.4282051282	-0.0888888888889
687	0.3435	2.32886597938	-0.618181818182	-9.64871794872	-5.91111111111
688	0.344	2.32886597938	5.12727272727	-9.64871794872	-0.0888888888889
689	0.3445	0.911340206186	10.8727272727	3.06666666667	-0.0888888888889
690	0.345	-4.7587628866	-12.1090909091	15.7820512821	-0.0888888888889
691	0.3455	-1.92371134021	-10.6727272727	25.6717948718	-1.54444444444
692	0.346	-4.7587628866	-12.1090909091	31.3230769231	-1.54444444444
693	0.3465	-4.7587628866	-10.6727272727	36.9743589744	-3.0
694	0.347	-3.3412371134	3.69090909091	34.1487179487	-1.54444444444
695	0.3475	-6.17628865979	-7.8	32.7358974359	-0.0888888888889
696	0.348	-4.7587628866	0.818181818182	28.4974358974	1.36666666667
697	0.3485	-4.7587628866	0.818181818182	24.258974359	-0.0888888888889
698	0.349	-6.17628865979	-6.36363636364	24.258974359	4.27777777778
699	0.3495	-0.50618556701	-4.92727272727	21.4333333333	-0.0888888888889
700	0.35	-14.681443299	6.56363636364	20.0205128205	1.36666666667
701	0.3505	-3.3412371134	25.2363636364	12.9564102564	-3.0
702	0.351	-0.50618556701	6.56363636364	5.89230769231	-0.0888888888889
703	0.3515	-11.8463917526	-0.618181818182	3.06666666667	-0.0888888888889
704	0.352	-14.681443299	-13.5454545455	0.241025641026	-0.0888888888889
705	0.3525	-16.0989690722	-12.1090909091	3.06666666667	-0.0888888888889
706	0.353	10.8340206186	-9.23636363636	1.65384615385	4.27777777778
707	0.3535	23.5917525773	-4.92727272727	3.06666666667	1.36666666667
708	0.354	0.911340206186	-6.36363636364	1.65384615385	-0.0888888888889
709	0.3545	3.74639175258	0.818181818182	0.241025641026	5.73333333333
710	0.355	20.7567010309	-0.618181818182	-1.17179487179	2.82222222222
711	0.3555	7.99896907216	-0.618181818182	-3.99743589744	-0.0888888888889
712	0.356	-9.01134020619	2.25454545455	-2.58461538462	1.36666666667
713	0.3565	7.99896907216	-2.05454545455	-1.17179487179	1.36666666667
714	0.357	-1.92371134021	0.818181818182	-1.17179487179	-8.82222222222
715	0.3575	-9.01134020619	-0.618181818182	-2.58461538462	1.36666666667
716	0.358	-6.17628865979	-0.618181818182	-5.41025641026	-8.82222222222
717	0.3585	-13.2639175258	-0.618181818182	-5.41025641026	-3.0
718	0.359	-7.59381443299	-3.49090909091	-3.99743589744	14.4666666667
719	0.3595	-4.7587628866	-2.05454545455	-9.64871794872	15.9222222222
720	0.36	-4.7587628866	-2.05454545455	-5.41025641026	-0.0888888888889
721	0.3605	0.911340206186	-2.05454545455	-2.58461538462	-0.0888888888889
722	0.361	-3.3412371134	-0.618181818182	1.65384615385	8.64444444444
723	0.3615	2.32886597938	-2.05454545455	3.06666666667	-3.0
724	0.362	0.911340206186	-0.618181818182	-2.58461538462	17.3777777778
725	0.3625	-1.92371134021	-0.618181818182	0.241025641026	1.36666666667
726	0.363	2.32886597938	-0.618181818182	3.06666666667	-4.45555555556
727	0.3635	0.911340206186	-2.05454545455	-1.17179487179	-3.0
728	0.364	3.74639175258	-3.49090909091	-9.64871794872	18.8333333333
729	0.3645	3.74639175258	-2.05454545455	3.06666666667	10.1
730	0.365	7.99896907216	-2.05454545455	-8.2358974359	1.36666666667
731	0.3655	7.99896907216	-2.05454545455	1.65384615385	-1.54444444444
732	0.366	0.911340206186	-2.05454545455	17.1948717949	-4.45555555556
733	0.3665	-4.7587628866	-2.05454545455	3.06666666667	8.64444444444
734	0.367	-3.3412371134	-2.05454545455	0.241025641026	1.36666666667
735	0.3675	-3.3412371134	0.818181818182	-1.17179487179	1.36666666667
736	0.368	-1.92371134021	-2.05454545455	-1.17179487179	-1.54444444444
737	0.3685	-4.7587628866	2.25454545455	-6.82307692308	-0.0888888888889
738	0.369	-6.17628865979	2.25454545455	-3.99743589744	-0.0888888888889
739	0.3695	-3.3412371134	5.12727272727	-6.82307692308	-0.0888888888889
740	0.37	-0.50618556701	-2.05454545455	-1.17179487179	2.82222222222
741	0.3705	2.32886597938	-9.23636363636	-1.17179487179	-0.0888888888889
742	0.371	5.16391752577	-10.6727272727	0.241025641026	-0.0888888888889
743	0.3715	3.74639175258	-17.8545454545	-1.17179487179	1.36666666667
744	0.372	2.32886597938	-9.23636363636	-2.58461538462	-0.0888888888889
745	0.3725	2.32886597938	-10.6727272727	-1.17179487179	1.36666666667
746	0.373	-1.92371134021	5.12727272727	-1.17179487179	-0.0888888888889
747	0.3735	-7.59381443299	-9.23636363636	-1.17179487179	1.36666666667
748	0.374	-10.4288659794	8.0	-1.17179487179	-1.54444444444
749	0.3745	-10.4288659794	-4.92727272727	-3.99743589744	1.36666666667
750	0.375	-7.59381443299	16.6181818182	-20.9512820513	-1.54444444444
751	0.3755	-0.50618556701	0.818181818182	-36.4923076923	2.82222222222
752	0.376	5.16391752577	-2.05454545455	-35.0794871795	1.36666666667
753	0.3765	0.911340206186	-0.618181818182	-25.1897435897	2.82222222222
754	0.377	9.41649484536	-2.05454545455	-12.4743589744	-1.54444444444
755	0.3775	-3.3412371134	0.818181818182	-2.58461538462	-0.0888888888889
756	0.378	0.911340206186	-0.618181818182	11.5435897436	-1.54444444444
757	0.3785	-1.92371134021	-0.618181818182	20.0205128205	-0.0888888888889
758	0.379	-1.92371134021	-0.618181818182	24.258974359	-0.0888888888889
759	0.3795	13.6690721649	-3.49090909091	27.0846153846	-1.54444444444
760	0.38	-9.01134020619	0.818181818182	27.0846153846	1.36666666667
761	0.3805	10.8340206186	-2.05454545455	22.8461538462	-4.45555555556
762	0.381	-16.0989690722	-3.49090909091	14.3692307692	-0.0888888888889
763	0.3815	7.99896907216	-2.05454545455	-15.3	-1.54444444444
764	0.382	5.16391752577	-0.618181818182	-35.0794871795	-1.54444444444
765	0.3825	-13.2639175258	0.818181818182	-29.4282051282	-4.45555555556
766	0.383	-10.4288659794	-0.618181818182	-22.3641025641	-4.45555555556
767	0.3835	5.16391752577	0.818181818182	-22.3641025641	2.82222222222
768	0.384	17.9216494845	-0.618181818182	-15.3	2.82222222222
769	0.3845	-0.50618556701	-0.618181818182	-2.58461538462	-0.0888888888889
770	0.385	-1.92371134021	0.818181818182	18.6076923077	-10.2777777778
771	0.3855	2.32886597938	0.818181818182	22.8461538462	-7.36666666667
772	0.386	-3.3412371134	0.818181818182	29.9102564103	-3.0
773	0.3865	3.74639175258	-4.92727272727	31.3230769231	-7.36666666667
774	0.387	2.32886597938	-2.05454545455	35.5615384615	-1.54444444444
775	0.3875	2.32886597938	-0.618181818182	34.1487179487	-5.91111111111
776	0.388	-6.17628865979	-0.618181818182	28.4974358974	-0.0888888888889
777	0.3885	-1.92371134021	2.25454545455	21.4333333333	-8.82222222222
778	0.389	0.911340206186	2.25454545455	8.71794871795	10.1
779	0.3895	2.32886597938	-0.618181818182	-5.41025641026	1.36666666667
780	0.39	5.16391752577	-4.92727272727	-12.4743589744	18.8333333333
781	0.3905	6.58144329897	-6.36363636364	-15.3	-5.91111111111
782	0.391	7.99896907216	-2.05454545455	-16.7128205128	-0.0888888888889
783	0.3915	5.16391752577	-2.05454545455	-6.82307692308	-7.36666666667
784	0.392	2.32886597938	-6.36363636364	1.65384615385	-3.0
785	0.3925	0.911340206186	-7.8	-2.58461538462	-1.54444444444
786	0.393	-3.3412371134	-3.49090909091	12.9564102564	-0.0888888888889
787	0.3935	-1.92371134021	0.818181818182	-2.58461538462	-0.0888888888889
788	0.394	-4.7587628866	-2.05454545455	7.30512820513	1.36666666667
789	0.3945	-0.50618556701	0.818181818182	-3.99743589744	-1.54444444444
790	0.395	-0.50618556701	0.818181818182	1.65384615385	-0.0888888888889
791	0.3955	3.74639175258	-4.92727272727	-1.17179487179	-0.0888888888889
792	0.396	3.74639175258	-2.05454545455	-11.0615384615	-5.91111111111
793	0.3965	0.911340206186	-4.92727272727	-1.17179487179	-0.0888888888889
794	0.397	0.911340206186	-2.05454545455	1.65384615385	-1.54444444444
795	0.3975	3.74639175258	-3.49090909091	-11.0615384615	1.36666666667
796	0.398	7.99896907216	2.25454545455	11.5435897436	2.82222222222
797	0.3985	0.911340206186	0.818181818182	-2.58461538462	-0.0888888888889
798	0.399	-3.3412371134	-3.49090909091	8.71794871795	-0.0888888888889
799	0.3995	-4.7587628866	-4.92727272727	-11.0615384615	1.36666666667
800	0.4	-3.3412371134	0.818181818182	-8.2358974359	-0.0888888888889
801	0.4005	2.32886597938	8.0	-13.8871794872	-0.0888888888889
802	0.401	3.74639175258	6.56363636364	-8.2358974359	1.36666666667
803	0.4015	7.99896907216	5.12727272727	-6.82307692308	1.36666666667
804	0.402	3.74639175258	-0.618181818182	-3.99743589744	-1.54444444444
805	0.4025	2.32886597938	-16.4181818182	-3.99743589744	1.36666666667
806	0.403	3.74639175258	-3.49090909091	-13.8871794872	1.36666666667
807	0.4035	5.16391752577	-4.92727272727	-2.58461538462	13.0111111111
808	0.404	3.74639175258	-16.4181818182	0.241025641026	1.36666666667
809	0.4045	2.32886597938	-0.618181818182	1.65384615385	-5.91111111111
810	0.405	2.32886597938	5.12727272727	0.241025641026	-0.0888888888889
811	0.4055	0.911340206186	-12.1090909091	-3.99743589744	-0.0888888888889
812	0.406	3.74639175258	0.818181818182	22.8461538462	-5.91111111111
813	0.4065	5.16391752577	2.25454545455	7.30512820513	-0.0888888888889
814	0.407	0.911340206186	10.8727272727	8.71794871795	-0.0888888888889
815	0.4075	-0.50618556701	-7.8	4.47948717949	1.36666666667
816	0.408	0.911340206186	6.56363636364	3.06666666667	1.36666666667
817	0.4085	-3.3412371134	-7.8	1.65384615385	1.36666666667
818	0.409	-0.50618556701	-0.618181818182	3.06666666667	-0.0888888888889
819	0.4095	0.911340206186	16.6181818182	0.241025641026	1.36666666667
820	0.41	-1.92371134021	-6.36363636364	0.241025641026	1.36666666667
821	0.4105	0.911340206186	-3.49090909091	5.89230769231	2.82222222222
822	0.411	-4.7587628866	-12.1090909091	8.71794871795	2.82222222222
823	0.4115	-3.3412371134	9.43636363636	4.47948717949	2.82222222222
824	0.412	2.32886597938	26.6727272727	3.06666666667	-0.0888888888889
825	0.4125	-0.50618556701	0.818181818182	3.06666666667	1.36666666667
826	0.413	2.32886597938	0.818181818182	-1.17179487179	-0.0888888888889
827	0.4135	-11.8463917526	-2.05454545455	3.06666666667	-1.54444444444
828	0.414	-3.3412371134	-2.05454545455	0.241025641026	-1.54444444444
829	0.4145	10.8340206186	-6.36363636364	-3.99743589744	-0.0888888888889
830	0.415	-4.7587628866	-2.05454545455	-12.4743589744	-0.0888888888889
831	0.4155	3.74639175258	-4.92727272727	-12.4743589744	-0.0888888888889
832	0.416	-14.681443299	-6.36363636364	-8.2358974359	1.36666666667
833	0.4165	-17.5164948454	-0.618181818182	-6.82307692308	1.36666666667
834	0.417	-7.59381443299	-0.618181818182	-1.17179487179	1.36666666667
835	0.4175	12.2515463918	-0.618181818182	-1.17179487179	2.82222222222
836	0.418	-10.4288659794	-3.49090909091	0.241025641026	-0.0888888888889
837	0.4185	-13.2639175258	-6.36363636364	0.241025641026	-0.0888888888889
838	0.419	17.9216494845	0.818181818182	0.241025641026	-1.54444444444
839	0.4195	2.32886597938	13.7454545455	1.65384615385	-0.0888888888889
840	0.42	16.5041237113	20.9272727273	3.06666666667	-1.54444444444
841	0.4205	-1.92371134021	3.69090909091	4.47948717949	-8.82222222222
842	0.421	0.911340206186	-4.92727272727	4.47948717949	1.36666666667
843	0.4215	22.1742268041	-9.23636363636	8.71794871795	5.73333333333
844	0.422	-6.17628865979	-3.49090909091	14.3692307692	-0.0888888888889
845	0.4225	-6.17628865979	-0.618181818182	12.9564102564	1.36666666667
846	0.423	16.5041237113	0.818181818182	4.47948717949	2.82222222222
847	0.4235	-4.7587628866	2.25454545455	0.241025641026	4.27777777778
848	0.424	-1.92371134021	5.12727272727	0.241025641026	-5.91111111111
849	0.4245	-9.01134020619	3.69090909091	-1.17179487179	-0.0888888888889
850	0.425	-1.92371134021	0.818181818182	1.65384615385	11.5555555556
851	0.4255	-3.3412371134	-6.36363636364	-11.0615384615	21.7444444444
852	0.426	-4.7587628866	-9.23636363636	-23.7769230769	1.36666666667
853	0.4265	-1.92371134021	-4.92727272727	-22.3641025641	10.1
854	0.427	-4.7587628866	-0.618181818182	-9.64871794872	-5.91111111111
855	0.4275	-4.7587628866	0.818181818182	-2.58461538462	8.64444444444
856	0.428	-4.7587628866	0.818181818182	4.47948717949	-10.2777777778
857	0.4285	-1.92371134021	-0.618181818182	8.71794871795	4.27777777778
858	0.429	-0.50618556701	-0.618181818182	12.9564102564	-7.36666666667
859	0.4295	3.74639175258	0.818181818182	8.71794871795	-3.0
860	0.43	2.32886597938	-2.05454545455	0.241025641026	13.0111111111
861	0.4305	7.99896907216	0.818181818182	8.71794871795	8.64444444444
862	0.431	10.8340206186	-2.05454545455	-3.99743589744	-1.54444444444
863	0.4315	9.41649484536	2.25454545455	22.8461538462	-0.0888888888889
864	0.432	9.41649484536	-0.618181818182	10.1307692308	-8.82222222222
865	0.4325	2.32886597938	-2.05454545455	-2.58461538462	17.3777777778
866	0.433	-3.3412371134	-0.618181818182	-2.58461538462	1.36666666667
867	0.4335	-1.92371134021	2.25454545455	17.1948717949	-4.45555555556
868	0.434	-0.50618556701	-2.05454545455	4.47948717949	-0.0888888888889
869	0.4345	-0.50618556701	2.25454545455	-2.58461538462	2.82222222222
870	0.435	-1.92371134021	0.818181818182	-1.17179487179	18.8333333333
871	0.4355	-1.92371134021	-0.618181818182	5.89230769231	2.82222222222
872	0.436	-0.50618556701	-12.1090909091	1.65384615385	-0.0888888888889
873	0.4365	-0.50618556701	-2.05454545455	3.06666666667	2.82222222222
874	0.437	-6.17628865979	-4.92727272727	0.241025641026	2.82222222222
875	0.4375	-10.4288659794	0.818181818182	-1.17179487179	1.36666666667
876	0.438	-7.59381443299	-0.618181818182	0.241025641026	1.36666666667
877	0.4385	-6.17628865979	2.25454545455	-1.17179487179	-0.0888888888889
878	0.439	0.911340206186	-10.6727272727	0.241025641026	-0.0888888888889
879	0.4395	-1.92371134021	-3.49090909091	-6.82307692308	2.82222222222
880	0.44	0.911340206186	-0.618181818182	7.30512820513	4.27777777778
881	0.4405	-0.50618556701	-10.6727272727	-1.17179487179	-1.54444444444
882	0.441	-0.50618556701	-3.49090909091	-1.17179487179	-1.54444444444
883	0.4415	-0.50618556701	-10.6727272727	1.65384615385	-0.0888888888889
884	0.442	-3.3412371134	-2.05454545455	4.47948717949	-7.36666666667
885	0.4425	-1.92371134021	0.818181818182	0.241025641026	-1.54444444444
886	0.443	-3.3412371134	-12.1090909091	1.65384615385	-1.54444444444
887	0.4435	-0.50618556701	13.7454545455	-1.17179487179	-1.54444444444
888	0.444	-0.50618556701	-0.618181818182	11.5435897436	-1.54444444444
889	0.4445	-0.50618556701	-12.1090909091	1.65384615385	-1.54444444444
890	0.445	-1.92371134021	3.69090909091	-1.17179487179	-3.0
891	0.4455	2.32886597938	10.8727272727	-8.2358974359	-0.0888888888889
892	0.446	3.74639175258	-9.23636363636	-18.1256410256	-1.54444444444
893	0.4465	3.74639175258	-4.92727272727	-35.0794871795	-0.0888888888889
894	0.447	-1.92371134021	-10.6727272727	-33.6666666667	-0.0888888888889
895	0.4475	2.32886597938	-7.8	-28.0153846154	-1.54444444444
896	0.448	-1.92371134021	-12.1090909091	-18.1256410256	2.82222222222
897	0.4485	-0.50618556701	-3.49090909091	-9.64871794872	1.36666666667
898	0.449	-13.2639175258	2.25454545455	3.06666666667	2.82222222222
899	0.4495	-3.3412371134	2.25454545455	21.4333333333	-0.0888888888889
900	0.45	-0.50618556701	-0.618181818182	27.0846153846	-0.0888888888889
901	0.4505	-13.2639175258	-2.05454545455	28.4974358974	-0.0888888888889
902	0.451	-9.01134020619	-7.8	25.6717948718	-0.0888888888889
903	0.4515	-18.9340206186	-2.05454545455	21.4333333333	-0.0888888888889
904	0.452	-0.50618556701	-0.618181818182	18.6076923077	-0.0888888888889
905	0.4525	5.16391752577	-2.05454545455	12.9564102564	2.82222222222
906	0.453	17.9216494845	0.818181818182	7.30512820513	-0.0888888888889
907	0.4535	12.2515463918	-0.618181818182	8.71794871795	7.18888888889
908	0.454	12.2515463918	-2.05454545455	5.89230769231	2.82222222222
909	0.4545	16.5041237113	-3.49090909091	7.30512820513	1.36666666667
910	0.455	-9.01134020619	-6.36363636364	7.30512820513	-5.91111111111
911	0.4555	-13.2639175258	-4.92727272727	5.89230769231	-1.54444444444
912	0.456	-9.01134020619	-2.05454545455	8.71794871795	-4.45555555556
913	0.4565	-10.4288659794	-4.92727272727	4.47948717949	4.27777777778
914	0.457	-4.7587628866	-2.05454545455	3.06666666667	4.27777777778
915	0.4575	-7.59381443299	-2.05454545455	3.06666666667	1.36666666667
916	0.458	-11.8463917526	0.818181818182	3.06666666667	1.36666666667
917	0.4585	-1.92371134021	0.818181818182	-1.17179487179	4.27777777778
918	0.459	-4.7587628866	0.818181818182	1.65384615385	14.4666666667
919	0.4595	-4.7587628866	0.818181818182	1.65384615385	-7.36666666667
920	0.46	-6.17628865979	0.818181818182	-1.17179487179	5.73333333333
921	0.4605	-10.4288659794	0.818181818182	0.241025641026	-11.7333333333
922	0.461	-3.3412371134	-2.05454545455	0.241025641026	-0.0888888888889
923	0.4615	-3.3412371134	-0.618181818182	3.06666666667	7.18888888889
924	0.462	-0.50618556701	-3.49090909091	1.65384615385	17.3777777778
925	0.4625	-4.7587628866	-3.49090909091	-3.99743589744	-5.91111111111
926	0.463	-1.92371134021	-2.05454545455	-1.17179487179	-0.0888888888889
927	0.4635	-0.50618556701	-2.05454545455	3.06666666667	10.1
928	0.464	-1.92371134021	-0.618181818182	10.1307692308	-5.91111111111
929	0.4645	0.911340206186	-2.05454545455	-2.58461538462	-3.0
930	0.465	0.911340206186	-2.05454545455	5.89230769231	-3.0
931	0.4655	-4.7587628866	-6.36363636364	-6.82307692308	-3.0
932	0.466	0.911340206186	-6.36363636364	3.06666666667	-0.0888888888889
933	0.4665	-0.50618556701	-6.36363636364	-9.64871794872	-1.54444444444
934	0.467	0.911340206186	-2.05454545455	-8.2358974359	-0.0888888888889
935	0.4675	7.99896907216	-2.05454545455	1.65384615385	2.82222222222
936	0.468	5.16391752577	-3.49090909091	-9.64871794872	1.36666666667
937	0.4685	3.74639175258	-3.49090909091	4.47948717949	-0.0888888888889
938	0.469	0.911340206186	-3.49090909091	-32.2538461538	-0.0888888888889
939	0.4695	-0.50618556701	2.25454545455	-36.4923076923	1.36666666667
940	0.47	2.32886597938	9.43636363636	-44.9692307692	-1.54444444444
941	0.4705	5.16391752577	16.6181818182	-40.7307692308	1.36666666667
942	0.471	2.32886597938	2.25454545455	-20.9512820513	17.3777777778
943	0.4715	0.911340206186	-6.36363636364	-2.58461538462	1.36666666667
944	0.472	-0.50618556701	-6.36363636364	-3.99743589744	-3.0
945	0.4725	-1.92371134021	-6.36363636364	14.3692307692	-0.0888888888889
946	0.473	-0.50618556701	6.56363636364	24.258974359	-1.54444444444
947	0.4735	0.911340206186	-6.36363636364	35.5615384615	-0.0888888888889
948	0.474	10.8340206186	-0.618181818182	29.9102564103	-5.91111111111
949	0.4745	12.2515463918	0.818181818182	31.3230769231	-1.54444444444
950	0.475	12.2515463918	-2.05454545455	21.4333333333	17.3777777778
951	0.4755	9.41649484536	-10.6727272727	21.4333333333	-0.0888888888889
952	0.476	5.16391752577	-16.4181818182	15.7820512821	-0.0888888888889
953	0.4765	3.74639175258	10.8727272727	7.30512820513	1.36666666667
954	0.477	5.16391752577	6.56363636364	-2.58461538462	1.36666666667
955	0.4775	0.911340206186	-10.6727272727	-1.17179487179	-0.0888888888889
956	0.478	2.32886597938	16.6181818182	-1.17179487179	1.36666666667
957	0.4785	-1.92371134021	15.1818181818	-1.17179487179	1.36666666667
958	0.479	-1.92371134021	-0.618181818182	-12.4743589744	15.9222222222
959	0.4795	-6.17628865979	-4.92727272727	-9.64871794872	-0.0888888888889
960	0.48	-3.3412371134	0.818181818182	-19.5384615385	-1.54444444444
961	0.4805	-1.92371134021	-7.8	-26.6025641026	-0.0888888888889
962	0.481	-4.7587628866	-12.1090909091	-35.0794871795	-0.0888888888889
963	0.4815	-3.3412371134	0.818181818182	-23.7769230769	1.36666666667
964	0.482	-9.01134020619	-2.05454545455	-12.4743589744	1.36666666667
965	0.4825	2.32886597938	-0.618181818182	0.241025641026	4.27777777778
966	0.483	0.911340206186	10.8727272727	8.71794871795	2.82222222222
967	0.4835	-13.2639175258	-2.05454545455	24.258974359	-0.0888888888889
968	0.484	-6.17628865979	0.818181818182	34.1487179487	-0.0888888888889
969	0.4845	17.9216494845	-0.618181818182	32.7358974359	-0.0888888888889
970	0.485	-11.8463917526	5.12727272727	29.9102564103	2.82222222222
971	0.4855	-21.7690721649	0.818181818182	24.258974359	-0.0888888888889
972	0.486	7.99896907216	-4.92727272727	22.8461538462	1.36666666667
973	0.4865	0.911340206186	-3.49090909091	18.6076923077	2.82222222222
974	0.487	10.8340206186	-3.49090909091	8.71794871795	-3.0
975	0.4875	20.7567010309	-2.05454545455	4.47948717949	1.36666666667
976	0.488	3.74639175258	-2.05454545455	4.47948717949	-10.2777777778
977	0.4885	-3.3412371134	-0.618181818182	-1.17179487179	1.36666666667
978	0.489	-3.3412371134	-2.05454545455	-2.58461538462	-4.45555555556
979	0.4895	5.16391752577	0.818181818182	-5.41025641026	2.82222222222
980	0.49	-4.7587628866	-0.618181818182	-5.41025641026	2.82222222222
981	0.4905	3.74639175258	-2.05454545455	-2.58461538462	4.27777777778
982	0.491	0.911340206186	0.818181818182	-8.2358974359	1.36666666667
983	0.4915	-7.59381443299	-3.49090909091	-3.99743589744	-0.0888888888889
984	0.492	0.911340206186	-6.36363636364	-3.99743589744	17.3777777778
985	0.4925	-6.17628865979	-3.49090909091	0.241025641026	17.3777777778
986	0.493	-4.7587628866	-2.05454545455	3.06666666667	10.1
987	0.4935	-1.92371134021	-0.618181818182	-1.17179487179	17.3777777778
988	0.494	-4.7587628866	-4.92727272727	0.241025641026	5.73333333333
989	0.4945	-4.7587628866	-4.92727272727	4.47948717949	-1.54444444444
990	0.495	-3.3412371134	-2.05454545455	3.06666666667	-5.91111111111
991	0.4955	-6.17628865979	-4.92727272727	3.06666666667	1.36666666667
992	0.496	-1.92371134021	-3.49090909091	-6.82307692308	-8.82222222222
993	0.4965	-1.92371134021	0.818181818182	-6.82307692308	-7.36666666667
994	0.497	2.32886597938	-0.618181818182	5.89230769231	-11.7333333333
995	0.4975	-1.92371134021	3.69090909091	-1.17179487179	8.64444444444
996	0.498	-0.50618556701	8.0	0.241025641026	2.82222222222
997	0.4985	-3.3412371134	16.6181818182	1.65384615385	-11.7333333333
998	0.499	0.911340206186	10.8727272727	-1.17179487179	-1.54444444444
999	0.4995	5.16391752577	-2.05454545455	12.9564102564	-1.54444444444
1000	0.5	9.41649484536	-9.23636363636	-5.41025641026	-4.45555555556
1001	0.5005	7.99896907216	-4.92727272727	7.30512820513	-3.0
1002	0.501	2.32886597938	-7.8	-11.0615384615	-3.0
1003	0.5015	5.16391752577	-7.8	-3.99743589744	-1.54444444444
1004	0.502	0.911340206186	-0.618181818182	11.5435897436	-3.0
1005	0.5025	0.911340206186	-0.618181818182	-8.2358974359	8.64444444444
1006	0.503	2.32886597938	-2.05454545455	-12.4743589744	-1.54444444444
1007	0.5035	-0.50618556701	0.818181818182	-15.3	-10.2777777778
1008	0.504	-3.3412371134	5.12727272727	-12.4743589744	-1.54444444444
1009	0.5045	-3.3412371134	5.12727272727	-13.8871794872	-1.54444444444
1010	0.505	-0.50618556701	-2.05454545455	-18.1256410256	-3.0
1011	0.5055	-0.50618556701	-3.49090909091	-13.8871794872	-0.0888888888889
1012	0.506	-1.92371134021	-2.05454545455	-6.82307692308	-0.0888888888889
1013	0.5065	-0.50618556701	-0.618181818182	-5.41025641026	-3.0
1014	0.507	2.32886597938	3.69090909091	11.5435897436	-0.0888888888889
1015	0.5075	2.32886597938	5.12727272727	22.8461538462	-1.54444444444
1016	0.508	0.911340206186	-6.36363636364	1.65384615385	-1.54444444444
1017	0.5085	-1.92371134021	-4.92727272727	-1.17179487179	-1.54444444444
1018	0.509	-9.01134020619	-14.9818181818	-11.0615384615	-0.0888888888889
1019	0.5095	-6.17628865979	-0.618181818182	-3.99743589744	1.36666666667
1020	0.51	-1.92371134021	-2.05454545455	0.241025641026	-0.0888888888889
1021	0.5105	-1.92371134021	0.818181818182	3.06666666667	-0.0888888888889
1022	0.511	-1.92371134021	2.25454545455	5.89230769231	-4.45555555556
1023	0.5115	-0.50618556701	-7.8	11.5435897436	-3.0
1024	0.512	-0.50618556701	5.12727272727	7.30512820513	-3.0
1025	0.5125	2.32886597938	-6.36363636364	14.3692307692	-3.0
1026	0.513	2.32886597938	-2.05454545455	7.30512820513	-0.0888888888889
1027	0.5135	0.911340206186	-2.05454545455	14.3692307692	1.36666666667
1028	0.514	0.911340206186	3.69090909091	14.3692307692	-3.0
1029	0.5145	-4.7587628866	-13.5454545455	12.9564102564	-0.0888888888889
1030	0.515	-0.50618556701	-7.8	7.30512820513	-3.0
1031	0.5155	-0.50618556701	-9.23636363636	7.30512820513	-1.54444444444
1032	0.516	3.74639175258	0.818181818182	14.3692307692	-10.2777777778
1033	0.5165	2.32886597938	-3.49090909091	-6.82307692308	-0.0888888888889
1034	0.517	2.32886597938	10.8727272727	-11.0615384615	1.36666666667
1035	0.5175	-1.92371134021	-9.23636363636	-12.4743589744	2.82222222222
1036	0.518	0.911340206186	6.56363636364	-8.2358974359	4.27777777778
1037	0.5185	-1.92371134021	-6.36363636364	-19.5384615385	-0.0888888888889
1038	0.519	0.911340206186	10.8727272727	-26.6025641026	2.82222222222
1039	0.5195	-0.50618556701	-3.49090909091	-18.1256410256	2.82222222222
1040	0.52	-1.92371134021	-3.49090909091	-8.2358974359	1.36666666667
1041	0.5205	-9.01134020619	-10.6727272727	0.241025641026	-1.54444444444
1042	0.521	-9.01134020619	-0.618181818182	4.47948717949	-1.54444444444
1043	0.5215	0.911340206186	-3.49090909091	11.5435897436	-3.0
1044	0.522	-4.7587628866	-0.618181818182	14.3692307692	-0.0888888888889
1045	0.5225	5.16391752577	-3.49090909091	18.6076923077	-1.54444444444
1046	0.523	-0.50618556701	-0.618181818182	21.4333333333	-0.0888888888889
1047	0.5235	-3.3412371134	-7.8	20.0205128205	1.36666666667
1048	0.524	-3.3412371134	-6.36363636364	20.0205128205	-0.0888888888889
1049	0.5245	-16.0989690722	-2.05454545455	12.9564102564	-1.54444444444
1050	0.525	-11.8463917526	-0.618181818182	14.3692307692	-1.54444444444
1051	0.5255	-10.4288659794	0.818181818182	14.3692307692	-0.0888888888889
1052	0.526	-11.8463917526	-3.49090909091	8.71794871795	-3.0
1053	0.5265	2.32886597938	-0.618181818182	7.30512820513	-0.0888888888889
1054	0.527	0.911340206186	-0.618181818182	4.47948717949	2.82222222222
1055	0.5275	17.9216494845	0.818181818182	3.06666666667	-3.0
1056	0.528	-7.59381443299	-9.23636363636	-2.58461538462	-1.54444444444
1057	0.5285	0.911340206186	2.25454545455	-30.841025641	1.36666666667
1058	0.529	19.3391752577	-2.05454545455	-36.4923076923	-3.0
1059	0.5295	-11.8463917526	-2.05454545455	-30.841025641	-0.0888888888889
1060	0.53	-4.7587628866	3.69090909091	-22.3641025641	1.36666666667
1061	0.5305	19.3391752577	-2.05454545455	-12.4743589744	-0.0888888888889
1062	0.531	-0.50618556701	-2.05454545455	-3.99743589744	-1.54444444444
1063	0.5315	-4.7587628866	-4.92727272727	8.71794871795	2.82222222222
1064	0.532	-7.59381443299	-4.92727272727	14.3692307692	-4.45555555556
1065	0.5325	0.911340206186	-4.92727272727	17.1948717949	-0.0888888888889
1066	0.533	-11.8463917526	-9.23636363636	20.0205128205	-3.0
1067	0.5335	12.2515463918	-4.92727272727	18.6076923077	-0.0888888888889
1068	0.534	2.32886597938	-2.05454545455	12.9564102564	-0.0888888888889
1069	0.5345	-6.17628865979	0.818181818182	4.47948717949	2.82222222222
1070	0.535	10.8340206186	6.56363636364	0.241025641026	1.36666666667
1071	0.5355	-0.50618556701	5.12727272727	-1.17179487179	-8.82222222222
1072	0.536	-13.2639175258	8.0	-1.17179487179	1.36666666667
1073	0.5365	-1.92371134021	15.1818181818	-2.58461538462	13.0111111111
1074	0.537	-0.50618556701	13.7454545455	-1.17179487179	17.3777777778
1075	0.5375	-4.7587628866	2.25454545455	1.65384615385	-3.0
1076	0.538	-6.17628865979	-6.36363636364	3.06666666667	14.4666666667
1077	0.5385	-7.59381443299	-7.8	4.47948717949	-8.82222222222
1078	0.539	-6.17628865979	-6.36363636364	0.241025641026	-1.54444444444
1079	0.5395	-6.17628865979	-9.23636363636	1.65384615385	13.0111111111
1080	0.54	-4.7587628866	-2.05454545455	1.65384615385	17.3777777778
1081	0.5405	-1.92371134021	-0.618181818182	4.47948717949	-10.2777777778
1082	0.541	-3.3412371134	-0.618181818182	5.89230769231	-10.2777777778
1083	0.5415	-3.3412371134	-0.618181818182	0.241025641026	-5.91111111111
1084	0.542	-1.92371134021	0.818181818182	7.30512820513	-3.0
1085	0.5425	-3.3412371134	-2.05454545455	-3.99743589744	-10.2777777778
1086	0.543	-0.50618556701	-4.92727272727	-12.4743589744	1.36666666667
1087	0.5435	-0.50618556701	5.12727272727	-18.1256410256	-3.0
1088	0.544	3.74639175258	3.69090909091	-18.1256410256	2.82222222222
1089	0.5445	5.16391752577	0.818181818182	-1.17179487179	-4.45555555556
1090	0.545	2.32886597938	0.818181818182	7.30512820513	-7.36666666667
1091	0.5455	0.911340206186	-4.92727272727	21.4333333333	-4.45555555556
1092	0.546	-1.92371134021	-4.92727272727	-3.99743589744	-3.0
1093	0.5465	0.911340206186	-2.05454545455	1.65384615385	-3.0
1094	0.547	-6.17628865979	-4.92727272727	4.47948717949	-13.1888888889
1095	0.5475	-9.01134020619	-0.618181818182	7.30512820513	-0.0888888888889
1096	0.548	-10.4288659794	-0.618181818182	4.47948717949	2.82222222222
1097	0.5485	-10.4288659794	-2.05454545455	20.0205128205	1.36666666667
1098	0.549	-9.01134020619	-2.05454545455	11.5435897436	-0.0888888888889
1099	0.5495	-10.4288659794	3.69090909091	3.06666666667	2.82222222222
1100	0.55	-9.01134020619	3.69090909091	1.65384615385	2.82222222222
1101	0.5505	-7.59381443299	2.25454545455	-5.41025641026	-0.0888888888889
1102	0.551	-1.92371134021	-3.49090909091	7.30512820513	-0.0888888888889
1103	0.5515	-1.92371134021	-13.5454545455	3.06666666667	1.36666666667
1104	0.552	-1.92371134021	-3.49090909091	3.06666666667	-0.0888888888889
1105	0.5525	-1.92371134021	-3.49090909091	0.241025641026	1.36666666667
1106	0.553	0.911340206186	3.69090909091	18.6076923077	-3.0
1107	0.5535	2.32886597938	-6.36363636364	4.47948717949	-0.0888888888889
1108	0.554	5.16391752577	3.69090909091	-1.17179487179	-0.0888888888889
1109	0.5545	5.16391752577	-12.1090909091	-2.58461538462	-0.0888888888889
1110	0.555	3.74639175258	-13.5454545455	-1.17179487179	-1.54444444444
1111	0.5555	0.911340206186	-4.92727272727	0.241025641026	2.82222222222
1112	0.556	2.32886597938	-14.9818181818	4.47948717949	-1.54444444444
1113	0.5565	9.41649484536	19.4909090909	7.30512820513	-0.0888888888889
1114	0.557	5.16391752577	-2.05454545455	1.65384615385	-0.0888888888889
1115	0.5575	-0.50618556701	-4.92727272727	7.30512820513	1.36666666667
1116	0.558	-0.50618556701	-10.6727272727	5.89230769231	-0.0888888888889
1117	0.5585	5.16391752577	2.25454545455	1.65384615385	-0.0888888888889
1118	0.559	0.911340206186	-7.8	3.06666666667	-0.0888888888889
1119	0.5595	3.74639175258	10.8727272727	-1.17179487179	-0.0888888888889
1120	0.56	0.911340206186	-10.6727272727	-1.17179487179	-3.0
1121	0.5605	-0.50618556701	6.56363636364	0.241025641026	1.36666666667
1122	0.561	3.74639175258	0.818181818182	-1.17179487179	-0.0888888888889
1123	0.5615	7.99896907216	0.818181818182	-1.17179487179	2.82222222222
1124	0.562	9.41649484536	-10.6727272727	-2.58461538462	4.27777777778
1125	0.5625	5.16391752577	5.12727272727	-1.17179487179	1.36666666667
1126	0.563	-3.3412371134	13.7454545455	0.241025641026	4.27777777778
1127	0.5635	9.41649484536	16.6181818182	-1.17179487179	1.36666666667
1128	0.564	2.32886597938	10.8727272727	-1.17179487179	1.36666666667
1129	0.5645	9.41649484536	-4.92727272727	-2.58461538462	1.36666666667
1130	0.565	-7.59381443299	-9.23636363636	-3.99743589744	-0.0888888888889
1131	0.5655	-3.3412371134	-12.1090909091	-1.17179487179	4.27777777778
1132	0.566	-14.681443299	-10.6727272727	-2.58461538462	2.82222222222
1133	0.5665	-20.3515463918	-7.8	-1.17179487179	-0.0888888888889
1134	0.567	-11.8463917526	-3.49090909091	-1.17179487179	-0.0888888888889
1135	0.5675	-0.50618556701	-2.05454545455	-1.17179487179	-1.54444444444
1136	0.568	-18.9340206186	0.818181818182	1.65384615385	-1.54444444444
1137	0.5685	-7.59381443299	2.25454545455	3.06666666667	-1.54444444444
1138	0.569	-6.17628865979	-0.618181818182	1.65384615385	2.82222222222
1139	0.5695	12.2515463918	-0.618181818182	-8.2358974359	-1.54444444444
1140	0.57	-13.2639175258	-2.05454545455	-32.2538461538	-0.0888888888889
1141	0.5705	-10.4288659794	-0.618181818182	-36.4923076923	2.82222222222
1142	0.571	10.8340206186	-2.05454545455	-26.6025641026	1.36666666667
1143	0.5715	-7.59381443299	-2.05454545455	-19.5384615385	-1.54444444444
1144	0.572	3.74639175258	-2.05454545455	-9.64871794872	-10.2777777778
1145	0.5725	-3.3412371134	-2.05454545455	0.241025641026	2.82222222222
1146	0.573	-6.17628865979	-2.05454545455	14.3692307692	-3.0
1147	0.5735	10.8340206186	0.818181818182	20.0205128205	-1.54444444444
1148	0.574	-4.7587628866	-2.05454545455	27.0846153846	2.82222222222
1149	0.5745	-0.50618556701	-0.618181818182	27.0846153846	-0.0888888888889
1150	0.575	-0.50618556701	2.25454545455	25.6717948718	5.73333333333
1151	0.5755	-1.92371134021	0.818181818182	25.6717948718	-11.7333333333
1152	0.576	-0.50618556701	0.818181818182	18.6076923077	-7.36666666667
1153	0.5765	-1.92371134021	-2.05454545455	12.9564102564	-8.82222222222
1154	0.577	9.41649484536	-2.05454545455	4.47948717949	-1.54444444444
1155	0.5775	7.99896907216	-0.618181818182	1.65384615385	-1.54444444444
1156	0.578	2.32886597938	-0.618181818182	0.241025641026	5.73333333333
1157	0.5785	2.32886597938	-0.618181818182	1.65384615385	-11.7333333333
1158	0.579	2.32886597938	-3.49090909091	1.65384615385	-4.45555555556
1159	0.5795	3.74639175258	0.818181818182	-1.17179487179	2.82222222222
1160	0.58	10.8340206186	-2.05454545455	-5.41025641026	-1.54444444444
1161	0.5805	12.2515463918	-3.49090909091	-11.0615384615	-0.0888888888889
1162	0.581	3.74639175258	-0.618181818182	-1.17179487179	-8.82222222222
1163	0.5815	3.74639175258	-3.49090909091	-12.4743589744	1.36666666667
1164	0.582	-3.3412371134	-4.92727272727	-6.82307692308	-4.45555555556
1165	0.5825	-9.01134020619	2.25454545455	-11.0615384615	1.36666666667
1166	0.583	-13.2639175258	-2.05454545455	3.06666666667	-0.0888888888889
1167	0.5835	-10.4288659794	0.818181818182	14.3692307692	-1.54444444444
1168	0.584	-4.7587628866	-0.618181818182	1.65384615385	-1.54444444444
1169	0.5845	-4.7587628866	0.818181818182	14.3692307692	-1.54444444444
1170	0.585	-4.7587628866	-2.05454545455	7.30512820513	1.36666666667
1171	0.5855	-4.7587628866	-0.618181818182	7.30512820513	-0.0888888888889
1172	0.586	-3.3412371134	-6.36363636364	-8.2358974359	1.36666666667
1173	0.5865	-4.7587628866	-2.05454545455	-2.58461538462	1.36666666667
1174	0.587	-3.3412371134	0.818181818182	-12.4743589744	1.36666666667
1175	0.5875	-3.3412371134	-2.05454545455	-19.5384615385	-1.54444444444
1176	0.588	-6.17628865979	-2.05454545455	-1.17179487179	-0.0888888888889
1177	0.5885	-3.3412371134	0.818181818182	-3.99743589744	1.36666666667
1178	0.589	-0.50618556701	-2.05454545455	0.241025641026	2.82222222222
1179	0.5895	-3.3412371134	2.25454545455	-1.17179487179	1.36666666667
1180	0.59	-1.92371134021	5.12727272727	1.65384615385	1.36666666667
1181	0.5905	-1.92371134021	-4.92727272727	-2.58461538462	-1.54444444444
1182	0.591	-1.92371134021	-12.1090909091	3.06666666667	-3.0
1183	0.5915	-3.3412371134	-7.8	5.89230769231	-0.0888888888889
1184	0.592	-0.50618556701	0.818181818182	8.71794871795	-0.0888888888889
1185	0.5925	-0.50618556701	-6.36363636364	7.30512820513	-1.54444444444
1186	0.593	0.911340206186	0.818181818182	12.9564102564	-0.0888888888889
1187	0.5935	-0.50618556701	6.56363636364	8.71794871795	1.36666666667
1188	0.594	2.32886597938	-13.5454545455	12.9564102564	-0.0888888888889
1189	0.5945	9.41649484536	-0.618181818182	8.71794871795	-3.0
1190	0.595	12.2515463918	20.9272727273	3.06666666667	-0.0888888888889
1191	0.5955	5.16391752577	8.0	17.1948717949	-0.0888888888889
1192	0.596	0.911340206186	16.6181818182	-1.17179487179	-0.0888888888889
1193	0.5965	0.911340206186	-4.92727272727	-1.17179487179	-1.54444444444
1194	0.597	2.32886597938	-0.618181818182	-2.58461538462	-1.54444444444
1195	0.5975	-0.50618556701	-10.6727272727	-5.41025641026	-3.0
1196	0.598	0.911340206186	5.12727272727	-5.41025641026	-0.0888888888889
1197	0.5985	-3.3412371134	-4.92727272727	-6.82307692308	-1.54444444444
1198	0.599	-7.59381443299	-10.6727272727	-6.82307692308	-0.0888888888889
1199	0.5995	-3.3412371134	-4.92727272727	-6.82307692308	-0.0888888888889
1200	0.6	-14.681443299	-0.618181818182	-1.17179487179	1.36666666667
1201	0.6005	-3.3412371134	-2.05454545455	1.65384615385	-0.0888888888889
1202	0.601	2.32886597938	13.7454545455	5.89230769231	1.36666666667
1203	0.6015	-6.17628865979	-3.49090909091	12.9564102564	1.36666666667
1204	0.602	-9.01134020619	-0.618181818182	14.3692307692	-0.0888888888889
1205	0.6025	5.16391752577	13.7454545455	15.7820512821	-0.0888888888889
1206	0.603	12.2515463918	-9.23636363636	15.7820512821	-0.0888888888889
1207	0.6035	-10.4288659794	-6.36363636364	12.9564102564	-0.0888888888889
1208	0.604	2.32886597938	-4.92727272727	8.71794871795	-1.54444444444
1209	0.6045	-10.4288659794	-4.92727272727	3.06666666667	2.82222222222
1210	0.605	19.3391752577	-2.05454545455	-1.17179487179	-0.0888888888889
1211	0.6055	9.41649484536	-4.92727272727	-2.58461538462	-1.54444444444
1212	0.606	-7.59381443299	0.818181818182	-1.17179487179	-0.0888888888889
1213	0.6065	15.0865979381	0.818181818182	0.241025641026	4.27777777778
1214	0.607	-1.92371134021	5.12727272727	0.241025641026	5.73333333333
1215	0.6075	22.1742268041	0.818181818182	0.241025641026	1.36666666667
1216	0.608	-4.7587628866	0.818181818182	-1.17179487179	-0.0888888888889
1217	0.6085	0.911340206186	6.56363636364	1.65384615385	4.27777777778
1218	0.609	12.2515463918	-0.618181818182	0.241025641026	1.36666666667
1219	0.6095	-13.2639175258	-0.618181818182	-13.8871794872	-0.0888888888889
1220	0.61	0.911340206186	-4.92727272727	-35.0794871795	1.36666666667
1221	0.6105	-4.7587628866	-4.92727272727	-35.0794871795	-7.36666666667
1222	0.611	-7.59381443299	-4.92727272727	-23.7769230769	-3.0
1223	0.6115	-6.17628865979	-4.92727272727	-13.8871794872	2.82222222222
1224	0.612	-0.50618556701	-2.05454545455	-5.41025641026	-3.0
1225	0.6125	0.911340206186	-2.05454545455	4.47948717949	7.18888888889
1226	0.613	-1.92371134021	-0.618181818182	15.7820512821	-10.2777777778
1227	0.6135	0.911340206186	-0.618181818182	20.0205128205	-5.91111111111
1228	0.614	-10.4288659794	-3.49090909091	22.8461538462	-4.45555555556
1229	0.6145	-4.7587628866	-2.05454545455	20.0205128205	-11.7333333333
1230	0.615	-3.3412371134	-2.05454545455	20.0205128205	13.0111111111
1231	0.6155	0.911340206186	-3.49090909091	11.5435897436	8.64444444444
1232	0.616	2.32886597938	-0.618181818182	4.47948717949	15.9222222222
1233	0.6165	-1.92371134021	2.25454545455	4.47948717949	-1.54444444444
1234	0.617	0.911340206186	2.25454545455	1.65384615385	-5.91111111111
1235	0.6175	-0.50618556701	0.818181818182	-1.17179487179	1.36666666667
1236	0.618	-1.92371134021	-3.49090909091	0.241025641026	-11.7333333333
1237	0.6185	-6.17628865979	-4.92727272727	4.47948717949	-5.91111111111
1238	0.619	-7.59381443299	-2.05454545455	3.06666666667	4.27777777778
1239	0.6195	-3.3412371134	0.818181818182	0.241025641026	-8.82222222222
1240	0.62	-3.3412371134	0.818181818182	4.47948717949	-3.0
1241	0.6205	-3.3412371134	-0.618181818182	-1.17179487179	-3.0
1242	0.621	-1.92371134021	-2.05454545455	-15.3	-7.36666666667
1243	0.6215	-1.92371134021	-2.05454545455	-12.4743589744	-0.0888888888889
1244	0.622	0.911340206186	-0.618181818182	-9.64871794872	2.82222222222
1245	0.6225	0.911340206186	-2.05454545455	-3.99743589744	-5.91111111111
1246	0.623	-1.92371134021	-0.618181818182	4.47948717949	-3.0
1247	0.6235	-3.3412371134	0.818181818182	18.6076923077	-1.54444444444
1248	0.624	0.911340206186	2.25454545455	11.5435897436	-0.0888888888889
1249	0.6245	0.911340206186	2.25454545455	21.4333333333	-1.54444444444
1250	0.625	3.74639175258	0.818181818182	-5.41025641026	-1.54444444444
1251	0.6255	2.32886597938	5.12727272727	-9.64871794872	-0.0888888888889
1252	0.626	0.911340206186	-2.05454545455	-16.7128205128	-0.0888888888889
1253	0.6265	2.32886597938	0.818181818182	3.06666666667	-0.0888888888889
1254	0.627	-3.3412371134	-0.618181818182	-9.64871794872	1.36666666667
1255	0.6275	-4.7587628866	0.818181818182	17.1948717949	-0.0888888888889
1256	0.628	-3.3412371134	-2.05454545455	0.241025641026	5.73333333333
1257	0.6285	-4.7587628866	-0.618181818182	0.241025641026	1.36666666667
1258	0.629	-4.7587628866	-2.05454545455	-2.58461538462	-1.54444444444
1259	0.6295	-6.17628865979	-2.05454545455	17.1948717949	-3.0
1260	0.63	-3.3412371134	-4.92727272727	-5.41025641026	-1.54444444444
1261	0.6305	-4.7587628866	-6.36363636364	-1.17179487179	-1.54444444444
1262	0.631	-0.50618556701	0.818181818182	-8.2358974359	-1.54444444444
1263	0.6315	0.911340206186	-0.618181818182	-12.4743589744	-0.0888888888889
1264	0.632	2.32886597938	-0.618181818182	4.47948717949	-0.0888888888889
1265	0.6325	0.911340206186	3.69090909091	4.47948717949	1.36666666667
1266	0.633	2.32886597938	-2.05454545455	5.89230769231	-0.0888888888889
1267	0.6335	2.32886597938	2.25454545455	18.6076923077	-0.0888888888889
1268	0.634	2.32886597938	-14.9818181818	28.4974358974	-4.45555555556
1269	0.6345	3.74639175258	0.818181818182	39.8	-8.82222222222
1270	0.635	0.911340206186	-0.618181818182	18.6076923077	-1.54444444444
1271	0.6355	-1.92371134021	-12.1090909091	24.258974359	-3.0
1272	0.636	-1.92371134021	-3.49090909091	8.71794871795	4.27777777778
1273	0.6365	0.911340206186	-3.49090909091	21.4333333333	1.36666666667
1274	0.637	0.911340206186	0.818181818182	18.6076923077	1.36666666667
1275	0.6375	-1.92371134021	-12.1090909091	17.1948717949	1.36666666667
1276	0.638	-1.92371134021	0.818181818182	4.47948717949	-5.91111111111
1277	0.6385	-1.92371134021	9.43636363636	5.89230769231	-0.0888888888889
1278	0.639	-4.7587628866	-19.2909090909	-6.82307692308	-1.54444444444
1279	0.6395	0.911340206186	-7.8	-2.58461538462	1.36666666667
1280	0.64	5.16391752577	10.8727272727	-2.58461538462	2.82222222222
1281	0.6405	10.8340206186	20.9272727273	-3.99743589744	1.36666666667
1282	0.641	7.99896907216	-7.8	-8.2358974359	-1.54444444444
1283	0.6415	5.16391752577	-6.36363636364	-13.8871794872	2.82222222222
1284	0.642	3.74639175258	-3.49090909091	5.89230769231	-3.0
1285	0.6425	0.911340206186	-13.5454545455	-6.82307692308	-0.0888888888889
1286	0.643	-3.3412371134	0.818181818182	-1.17179487179	1.36666666667
1287	0.6435	-6.17628865979	-0.618181818182	3.06666666667	1.36666666667
1288	0.644	-4.7587628866	29.5454545455	3.06666666667	2.82222222222
1289	0.6445	-1.92371134021	18.0545454545	12.9564102564	2.82222222222
1290	0.645	-4.7587628866	-4.92727272727	3.06666666667	1.36666666667
1291	0.6455	-4.7587628866	2.25454545455	3.06666666667	-1.54444444444
1292	0.646	-1.92371134021	-9.23636363636	1.65384615385	-0.0888888888889
1293	0.6465	-1.92371134021	-3.49090909091	-2.58461538462	1.36666666667
1294	0.647	0.911340206186	-7.8	4.47948717949	1.36666666667
1295	0.6475	-1.92371134021	-10.6727272727	1.65384615385	1.36666666667
1296	0.648	-4.7587628866	-2.05454545455	-1.17179487179	-1.54444444444
1297	0.6485	-1.92371134021	8.0	-3.99743589744	-1.54444444444
1298	0.649	-16.0989690722	-2.05454545455	-3.99743589744	-1.54444444444
1299	0.6495	-10.4288659794	-2.05454545455	-1.17179487179	-1.54444444444
1300	0.65	0.911340206186	15.1818181818	0.241025641026	-1.54444444444
1301	0.6505	2.32886597938	-3.49090909091	-2.58461538462	-1.54444444444
1302	0.651	-16.0989690722	-0.618181818182	-1.17179487179	-0.0888888888889
1303	0.6515	-4.7587628866	10.8727272727	-2.58461538462	-0.0888888888889
1304	0.652	17.9216494845	-0.618181818182	0.241025641026	-1.54444444444
1305	0.6525	16.5041237113	-2.05454545455	-1.17179487179	-0.0888888888889
1306	0.653	10.8340206186	-0.618181818182	-1.17179487179	-3.0
1307	0.6535	-14.681443299	-10.6727272727	-1.17179487179	-0.0888888888889
1308	0.654	9.41649484536	-2.05454545455	-5.41025641026	1.36666666667
1309	0.6545	13.6690721649	-2.05454545455	-2.58461538462	-1.54444444444
1310	0.655	-7.59381443299	-2.05454545455	-3.99743589744	1.36666666667
1311	0.6555	7.99896907216	-0.618181818182	-1.17179487179	-0.0888888888889
1312	0.656	-3.3412371134	-2.05454545455	0.241025641026	4.27777777778
1313	0.6565	2.32886597938	-3.49090909091	1.65384615385	-5.91111111111
1314	0.657	-1.92371134021	-2.05454545455	-1.17179487179	1.36666666667
1315	0.6575	-0.50618556701	0.818181818182	-1.17179487179	2.82222222222
1316	0.658	7.99896907216	2.25454545455	0.241025641026	-1.54444444444
1317	0.6585	-4.7587628866	-0.618181818182	-1.17179487179	-0.0888888888889
1318	0.659	-3.3412371134	0.818181818182	0.241025641026	1.36666666667
1319	0.6595	-6.17628865979	0.818181818182	-1.17179487179	-3.0
1320	0.66	-3.3412371134	-3.49090909091	-1.17179487179	8.64444444444
1321	0.6605	-7.59381443299	-2.05454545455	-1.17179487179	-10.2777777778
1322	0.661	-4.7587628866	-2.05454545455	1.65384615385	-8.82222222222
1323	0.6615	-0.50618556701	-0.618181818182	3.06666666667	5.73333333333
1324	0.662	-1.92371134021	-4.92727272727	4.47948717949	-5.91111111111
1325	0.6625	-1.92371134021	-4.92727272727	0.241025641026	15.9222222222
1326	0.663	-0.50618556701	-2.05454545455	0.241025641026	5.73333333333
1327	0.6635	0.911340206186	-4.92727272727	-2.58461538462	15.9222222222
1328	0.664	5.16391752577	-0.618181818182	1.65384615385	5.73333333333
1329	0.6645	5.16391752577	-2.05454545455	-12.4743589744	1.36666666667
1330	0.665	-0.50618556701	-2.05454545455	0.241025641026	-0.0888888888889
1331	0.6655	-4.7587628866	-2.05454545455	4.47948717949	-10.2777777778
1332	0.666	-4.7587628866	-0.618181818182	-5.41025641026	-0.0888888888889
1333	0.6665	-6.17628865979	0.818181818182	14.3692307692	-1.54444444444
1334	0.667	-9.01134020619	3.69090909091	-12.4743589744	-0.0888888888889
1335	0.6675	-3.3412371134	15.1818181818	-23.7769230769	1.36666666667
1336	0.668	-0.50618556701	15.1818181818	-47.7948717949	4.27777777778
1337	0.6685	0.911340206186	-0.618181818182	-25.1897435897	-0.0888888888889
1338	0.669	-6.17628865979	-6.36363636364	-26.6025641026	-0.0888888888889
1339	0.6695	-9.01134020619	-7.8	-13.8871794872	-0.0888888888889
1340	0.67	-7.59381443299	-6.36363636364	-1.17179487179	1.36666666667
1341	0.6705	-3.3412371134	-4.92727272727	3.06666666667	-0.0888888888889
1342	0.671	-0.50618556701	-0.618181818182	28.4974358974	-1.54444444444
1343	0.6715	-3.3412371134	-3.49090909091	21.4333333333	-1.54444444444
1344	0.672	-3.3412371134	-0.618181818182	27.0846153846	-0.0888888888889
1345	0.6725	-4.7587628866	-6.36363636364	27.0846153846	-1.54444444444
1346	0.673	-9.01134020619	2.25454545455	27.0846153846	-0.0888888888889
1347	0.6735	-7.59381443299	0.818181818182	22.8461538462	-0.0888888888889
1348	0.674	-1.92371134021	-0.618181818182	14.3692307692	1.36666666667
1349	0.6745	2.32886597938	12.3090909091	14.3692307692	1.36666666667
1350	0.675	7.99896907216	-10.6727272727	14.3692307692	1.36666666667
1351	0.6755	7.99896907216	3.69090909091	8.71794871795	-0.0888888888889
1352	0.676	7.99896907216	-14.9818181818	0.241025641026	1.36666666667
1353	0.6765	5.16391752577	-0.618181818182	-2.58461538462	-3.0
1354	0.677	7.99896907216	10.8727272727	-3.99743589744	-0.0888888888889
1355	0.6775	7.99896907216	-6.36363636364	-6.82307692308	1.36666666667
1356	0.678	2.32886597938	-9.23636363636	-3.99743589744	-0.0888888888889
1357	0.6785	2.32886597938	0.818181818182	5.89230769231	-11.7333333333
1358	0.679	2.32886597938	-4.92727272727	-8.2358974359	1.36666666667
1359	0.6795	-3.3412371134	-12.1090909091	-5.41025641026	1.36666666667
1360	0.68	2.32886597938	-6.36363636364	-3.99743589744	1.36666666667
1361	0.6805	-4.7587628866	-12.1090909091	-3.99743589744	-0.0888888888889
1362	0.681	-3.3412371134	-6.36363636364	-9.64871794872	-0.0888888888889
1363	0.6815	-1.92371134021	-9.23636363636	-18.1256410256	-0.0888888888889
1364	0.682	-11.8463917526	0.818181818182	-18.1256410256	-1.54444444444
1365	0.6825	-10.4288659794	3.69090909091	-12.4743589744	-0.0888888888889
1366	0.683	-11.8463917526	5.12727272727	-8.2358974359	-0.0888888888889
1367	0.6835	-0.50618556701	20.9272727273	-6.82307692308	-0.0888888888889
1368	0.684	0.911340206186	-4.92727272727	-1.17179487179	-0.0888888888889
1369	0.6845	-13.2639175258	-4.92727272727	-2.58461538462	-0.0888888888889
1370	0.685	9.41649484536	-2.05454545455	-15.3	-0.0888888888889
1371	0.6855	-3.3412371134	2.25454545455	-26.6025641026	2.82222222222
1372	0.686	22.1742268041	2.25454545455	-23.7769230769	1.36666666667
1373	0.6865	9.41649484536	3.69090909091	-13.8871794872	-1.54444444444
1374	0.687	-13.2639175258	-0.618181818182	-6.82307692308	-1.54444444444
1375	0.6875	-4.7587628866	-0.618181818182	4.47948717949	-4.45555555556
1376	0.688	5.16391752577	-4.92727272727	20.0205128205	1.36666666667
1377	0.6885	-6.17628865979	-4.92727272727	31.3230769231	1.36666666667
1378	0.689	13.6690721649	0.818181818182	38.3871794872	1.36666666667
1379	0.6895	-0.50618556701	3.69090909091	38.3871794872	4.27777777778
1380	0.69	2.32886597938	0.818181818182	36.9743589744	-7.36666666667
1381	0.6905	-1.92371134021	-2.05454545455	31.3230769231	-0.0888888888889
1382	0.691	-3.3412371134	-4.92727272727	27.0846153846	5.73333333333
1383	0.6915	-0.50618556701	-6.36363636364	22.8461538462	-0.0888888888889
1384	0.692	-0.50618556701	-4.92727272727	21.4333333333	14.4666666667
1385	0.6925	-1.92371134021	-0.618181818182	20.0205128205	-7.36666666667
1386	0.693	-3.3412371134	3.69090909091	7.30512820513	5.73333333333
1387	0.6935	-10.4288659794	2.25454545455	4.47948717949	-11.7333333333
1388	0.694	-11.8463917526	-2.05454545455	1.65384615385	-3.0
1389	0.6945	-6.17628865979	-2.05454545455	8.71794871795	-3.0
1390	0.695	-1.92371134021	-2.05454545455	3.06666666667	1.36666666667
1391	0.6955	-1.92371134021	-0.618181818182	-1.17179487179	-1.54444444444
1392	0.696	-1.92371134021	0.818181818182	1.65384615385	-8.82222222222
1393	0.6965	-0.50618556701	-2.05454545455	-2.58461538462	-1.54444444444
1394	0.697	0.911340206186	-0.618181818182	-9.64871794872	-3.0
1395	0.6975	0.911340206186	-0.618181818182	-1.17179487179	-10.2777777778
1396	0.698	3.74639175258	-3.49090909091	-6.82307692308	-5.91111111111
1397	0.6985	3.74639175258	-0.618181818182	-23.7769230769	-4.45555555556
1398	0.699	3.74639175258	0.818181818182	-9.64871794872	-0.0888888888889
1399	0.6995	5.16391752577	-2.05454545455	-20.9512820513	1.36666666667
1400	0.7	0.911340206186	0.818181818182	-2.58461538462	1.36666666667
1401	0.7005	2.32886597938	-0.618181818182	-15.3	2.82222222222
1402	0.701	0.911340206186	-3.49090909091	-1.17179487179	4.27777777778
1403	0.7015	0.911340206186	-3.49090909091	22.8461538462	1.36666666667
1404	0.702	-0.50618556701	-0.618181818182	8.71794871795	-1.54444444444
1405	0.7025	-0.50618556701	-2.05454545455	3.06666666667	-1.54444444444
1406	0.703	-3.3412371134	-2.05454545455	-1.17179487179	-0.0888888888889
1407	0.7035	-0.50618556701	-3.49090909091	15.7820512821	-0.0888888888889
1408	0.704	0.911340206186	-4.92727272727	7.30512820513	-3.0
1409	0.7045	7.99896907216	-9.23636363636	-5.41025641026	-0.0888888888889
1410	0.705	7.99896907216	-7.8	8.71794871795	-1.54444444444
1411	0.7055	2.32886597938	-4.92727272727	-3.99743589744	1.36666666667
1412	0.706	-0.50618556701	-2.05454545455	15.7820512821	-0.0888888888889
1413	0.7065	-0.50618556701	2.25454545455	0.241025641026	-0.0888888888889
1414	0.707	-3.3412371134	-2.05454545455	0.241025641026	2.82222222222
1415	0.7075	-0.50618556701	-12.1090909091	1.65384615385	1.36666666667
1416	0.708	0.911340206186	3.69090909091	20.0205128205	-4.45555555556
1417	0.7085	-1.92371134021	8.0	-6.82307692308	5.73333333333
1418	0.709	-3.3412371134	8.0	-1.17179487179	2.82222222222
1419	0.7095	2.32886597938	-2.05454545455	-1.17179487179	1.36666666667
1420	0.71	3.74639175258	-6.36363636364	0.241025641026	-0.0888888888889
1421	0.7105	0.911340206186	-14.9818181818	0.241025641026	1.36666666667
1422	0.711	-0.50618556701	-0.618181818182	-1.17179487179	1.36666666667
1423	0.7115	-3.3412371134	-6.36363636364	-8.2358974359	20.2888888889
1424	0.712	2.32886597938	-3.49090909091	0.241025641026	1.36666666667
1425	0.7125	0.911340206186	-7.8	0.241025641026	1.36666666667
1426	0.713	3.74639175258	6.56363636364	0.241025641026	-0.0888888888889
1427	0.7135	2.32886597938	16.6181818182	-1.17179487179	-0.0888888888889
1428	0.714	0.911340206186	-9.23636363636	-1.17179487179	-0.0888888888889
1429	0.7145	0.911340206186	-0.618181818182	0.241025641026	-0.0888888888889
1430	0.715	0.911340206186	-13.5454545455	3.06666666667	-1.54444444444
1431	0.7155	2.32886597938	-7.8	1.65384615385	2.82222222222
1432	0.716	5.16391752577	-0.618181818182	0.241025641026	1.36666666667
1433	0.7165	2.32886597938	18.0545454545	3.06666666667	-0.0888888888889
1434	0.717	-3.3412371134	0.818181818182	0.241025641026	-0.0888888888889
1435	0.7175	-6.17628865979	13.7454545455	0.241025641026	1.36666666667
1436	0.718	-13.2639175258	5.12727272727	1.65384615385	-0.0888888888889
1437	0.7185	-9.01134020619	9.43636363636	0.241025641026	-1.54444444444
1438	0.719	-11.8463917526	-7.8	0.241025641026	-0.0888888888889
1439	0.7195	-0.50618556701	-3.49090909091	1.65384615385	-0.0888888888889
1440	0.72	7.99896907216	2.25454545455	15.7820512821	-5.91111111111
1441	0.7205	12.2515463918	-7.8	-3.99743589744	-0.0888888888889
1442	0.721	5.16391752577	-9.23636363636	-5.41025641026	1.36666666667
1443	0.7215	0.911340206186	-0.618181818182	-5.41025641026	-1.54444444444
1444	0.722	12.2515463918	15.1818181818	-3.99743589744	-0.0888888888889
1445	0.7225	-1.92371134021	0.818181818182	-1.17179487179	-0.0888888888889
1446	0.723	-13.2639175258	-2.05454545455	0.241025641026	4.27777777778
1447	0.7235	0.911340206186	0.818181818182	0.241025641026	1.36666666667
1448	0.724	-10.4288659794	-2.05454545455	0.241025641026	4.27777777778
1449	0.7245	-4.7587628866	-4.92727272727	-2.58461538462	-0.0888888888889
1450	0.725	-10.4288659794	-2.05454545455	-2.58461538462	1.36666666667
1451	0.7255	7.99896907216	-0.618181818182	-3.99743589744	5.73333333333
1452	0.726	-10.4288659794	-0.618181818182	-6.82307692308	-0.0888888888889
1453	0.7265	5.16391752577	-0.618181818182	-3.99743589744	7.18888888889
1454	0.727	-7.59381443299	2.25454545455	-2.58461538462	5.73333333333
1455	0.7275	15.0865979381	0.818181818182	0.241025641026	2.82222222222
1456	0.728	17.9216494845	-4.92727272727	1.65384615385	-1.54444444444
1457	0.7285	-7.59381443299	-3.49090909091	1.65384615385	-3.0
1458	0.729	-0.50618556701	-2.05454545455	-1.17179487179	4.27777777778
1459	0.7295	-1.92371134021	-3.49090909091	4.47948717949	1.36666666667
1460	0.73	-3.3412371134	-4.92727272727	4.47948717949	-0.0888888888889
1461	0.7305	5.16391752577	-4.92727272727	-11.0615384615	-3.0
1462	0.731	3.74639175258	-2.05454545455	-12.4743589744	-10.2777777778
1463	0.7315	7.99896907216	0.818181818182	-9.64871794872	-0.0888888888889
1464	0.732	2.32886597938	2.25454545455	-2.58461538462	-1.54444444444
1465	0.7325	0.911340206186	10.8727272727	-2.58461538462	-5.91111111111
1466	0.733	2.32886597938	16.6181818182	-1.17179487179	2.82222222222
1467	0.7335	-1.92371134021	6.56363636364	4.47948717949	-5.91111111111
1468	0.734	-0.50618556701	0.818181818182	3.06666666667	4.27777777778
1469	0.7345	0.911340206186	-4.92727272727	-1.17179487179	-5.91111111111
1470	0.735	0.911340206186	-3.49090909091	-5.41025641026	8.64444444444
1471	0.7355	-1.92371134021	-4.92727272727	7.30512820513	-3.0
1472	0.736	-4.7587628866	-3.49090909091	-15.3	-0.0888888888889
1473	0.7365	-1.92371134021	-4.92727272727	-19.5384615385	14.4666666667
1474	0.737	0.911340206186	-3.49090909091	-11.0615384615	-0.0888888888889
1475	0.7375	9.41649484536	-0.618181818182	0.241025641026	-0.0888888888889
1476	0.738	5.16391752577	-2.05454545455	-16.7128205128	1.36666666667
1477	0.7385	0.911340206186	0.818181818182	-11.0615384615	-0.0888888888889
1478	0.739	0.911340206186	0.818181818182	-6.82307692308	-0.0888888888889
1479	0.7395	5.16391752577	-2.05454545455	1.65384615385	-0.0888888888889
1480	0.74	5.16391752577	-3.49090909091	-6.82307692308	18.8333333333
1481	0.7405	0.911340206186	-2.05454545455	8.71794871795	-0.0888888888889
1482	0.741	-0.50618556701	-0.618181818182	12.9564102564	-0.0888888888889
1483	0.7415	2.32886597938	-2.05454545455	27.0846153846	1.36666666667
1484	0.742	0.911340206186	2.25454545455	27.0846153846	1.36666666667
1485	0.7425	2.32886597938	-2.05454545455	25.6717948718	1.36666666667
1486	0.743	0.911340206186	-12.1090909091	20.0205128205	1.36666666667
1487	0.7435	-1.92371134021	-0.618181818182	5.89230769231	-0.0888888888889
1488	0.744	2.32886597938	-3.49090909091	17.1948717949	1.36666666667
1489	0.7445	2.32886597938	2.25454545455	21.4333333333	-0.0888888888889
1490	0.745	2.32886597938	5.12727272727	15.7820512821	-3.0
1491	0.7455	3.74639175258	-12.1090909091	17.1948717949	-0.0888888888889
1492	0.746	7.99896907216	2.25454545455	-3.99743589744	-0.0888888888889
1493	0.7465	9.41649484536	-12.1090909091	-15.3	1.36666666667
1494	0.747	12.2515463918	-7.8	-13.8871794872	1.36666666667
1495	0.7475	12.2515463918	-3.49090909091	-9.64871794872	-0.0888888888889
1496	0.748	2.32886597938	-10.6727272727	-6.82307692308	-0.0888888888889
1497	0.7485	-0.50618556701	6.56363636364	-1.17179487179	-0.0888888888889
1498	0.749	-1.92371134021	-4.92727272727	-1.17179487179	-3.0
1499	0.7495	0.911340206186	16.6181818182	5.89230769231	1.36666666667
1500	0.75	5.16391752577	-4.92727272727	5.89230769231	-0.0888888888889
1501	0.7505	-3.3412371134	-12.1090909091	8.71794871795	-1.54444444444
1502	0.751	-10.4288659794	-2.05454545455	14.3692307692	1.36666666667
1503	0.7515	-1.92371134021	15.1818181818	12.9564102564	-1.54444444444
1504	0.752	-6.17628865979	0.818181818182	12.9564102564	-1.54444444444
1505	0.7525	-11.8463917526	-0.618181818182	8.71794871795	1.36666666667
1506	0.753	-1.92371134021	-4.92727272727	7.30512820513	4.27777777778
1507	0.7535	-13.2639175258	0.818181818182	7.30512820513	4.27777777778
1508	0.754	5.16391752577	0.818181818182	5.89230769231	5.73333333333
1509	0.7545	13.6690721649	2.25454545455	5.89230769231	1.36666666667
1510	0.755	-11.8463917526	0.818181818182	3.06666666667	-0.0888888888889
1511	0.7555	-4.7587628866	2.25454545455	5.89230769231	5.73333333333
1512	0.756	-11.8463917526	2.25454545455	7.30512820513	-3.0
1513	0.7565	-0.50618556701	3.69090909091	4.47948717949	1.36666666667
1514	0.757	-10.4288659794	2.25454545455	4.47948717949	-1.54444444444
1515	0.7575	2.32886597938	-2.05454545455	4.47948717949	5.73333333333
1516	0.758	0.911340206186	-3.49090909091	4.47948717949	1.36666666667
1517	0.7585	-1.92371134021	-3.49090909091	3.06666666667	-0.0888888888889
1518	0.759	-10.4288659794	-0.618181818182	-1.17179487179	1.36666666667
1519	0.7595	-3.3412371134	0.818181818182	-3.99743589744	15.9222222222
1520	0.76	-4.7587628866	-2.05454545455	-5.41025641026	17.3777777778
1521	0.7605	-4.7587628866	-2.05454545455	-8.2358974359	10.1
1522	0.761	-4.7587628866	-4.92727272727	-6.82307692308	-11.7333333333
1523	0.7615	-1.92371134021	-6.36363636364	-2.58461538462	1.36666666667
1524	0.762	-1.92371134021	-2.05454545455	-1.17179487179	-8.82222222222
1525	0.7625	0.911340206186	0.818181818182	-5.41025641026	5.73333333333
1526	0.763	0.911340206186	0.818181818182	-1.17179487179	-4.45555555556
1527	0.7635	0.911340206186	-2.05454545455	-13.8871794872	-0.0888888888889
1528	0.764	2.32886597938	-0.618181818182	-39.3179487179	8.64444444444
1529	0.7645	0.911340206186	-0.618181818182	-39.3179487179	18.8333333333
1530	0.765	0.911340206186	-2.05454545455	-18.1256410256	2.82222222222
1531	0.7655	-0.50618556701	0.818181818182	-5.41025641026	4.27777777778
1532	0.766	0.911340206186	5.12727272727	8.71794871795	1.36666666667
1533	0.7665	-1.92371134021	2.25454545455	7.30512820513	-0.0888888888889
1534	0.767	2.32886597938	0.818181818182	27.0846153846	-0.0888888888889
1535	0.7675	-0.50618556701	-7.8	17.1948717949	-3.0
1536	0.768	-1.92371134021	-0.618181818182	27.0846153846	-0.0888888888889
1537	0.7685	-0.50618556701	-3.49090909091	22.8461538462	2.82222222222
1538	0.769	-1.92371134021	-0.618181818182	25.6717948718	-0.0888888888889
1539	0.7695	-1.92371134021	5.12727272727	22.8461538462	-3.0
1540	0.77	0.911340206186	-2.05454545455	20.0205128205	1.36666666667
1541	0.7705	0.911340206186	-2.05454545455	5.89230769231	-0.0888888888889
1542	0.771	-0.50618556701	-0.618181818182	0.241025641026	-0.0888888888889
1543	0.7715	5.16391752577	-0.618181818182	-6.82307692308	1.36666666667
1544	0.772	7.99896907216	0.818181818182	-23.7769230769	-8.82222222222
1545	0.7725	9.41649484536	-10.6727272727	-35.0794871795	-3.0
1546	0.773	5.16391752577	-10.6727272727	-30.841025641	-1.54444444444
1547	0.7735	3.74639175258	-9.23636363636	-22.3641025641	-1.54444444444
1548	0.774	2.32886597938	-4.92727272727	-12.4743589744	1.36666666667
1549	0.7745	0.911340206186	5.12727272727	14.3692307692	-7.36666666667
1550	0.775	0.911340206186	-0.618181818182	11.5435897436	1.36666666667
1551	0.7755	-4.7587628866	-2.05454545455	7.30512820513	17.3777777778
1552	0.776	-3.3412371134	9.43636363636	21.4333333333	-3.0
1553	0.7765	-3.3412371134	3.69090909091	20.0205128205	-0.0888888888889
1554	0.777	3.74639175258	10.8727272727	24.258974359	2.82222222222
1555	0.7775	2.32886597938	-14.9818181818	18.6076923077	1.36666666667
1556	0.778	3.74639175258	-12.1090909091	11.5435897436	-0.0888888888889
1557	0.7785	5.16391752577	0.818181818182	17.1948717949	1.36666666667
1558	0.779	13.6690721649	15.1818181818	8.71794871795	-0.0888888888889
1559	0.7795	12.2515463918	-7.8	7.30512820513	-0.0888888888889
1560	0.78	10.8340206186	-6.36363636364	4.47948717949	-0.0888888888889
1561	0.7805	0.911340206186	-7.8	3.06666666667	-0.0888888888889
1562	0.781	5.16391752577	-6.36363636364	-11.0615384615	-0.0888888888889
1563	0.7815	5.16391752577	15.1818181818	-26.6025641026	-0.0888888888889
1564	0.782	5.16391752577	6.56363636364	-26.6025641026	2.82222222222
1565	0.7825	3.74639175258	8.0	-19.5384615385	4.27777777778
1566	0.783	3.74639175258	3.69090909091	-11.0615384615	4.27777777778
1567	0.7835	-1.92371134021	23.8	-3.99743589744	4.27777777778
1568	0.784	-6.17628865979	0.818181818182	-1.17179487179	-0.0888888888889
1569	0.7845	3.74639175258	-10.6727272727	-5.41025641026	-0.0888888888889
1570	0.785	-3.3412371134	-7.8	-6.82307692308	-0.0888888888889
1571	0.7855	9.41649484536	-6.36363636364	-2.58461538462	-1.54444444444
1572	0.786	3.74639175258	-3.49090909091	-3.99743589744	-0.0888888888889
1573	0.7865	-7.59381443299	-3.49090909091	4.47948717949	-0.0888888888889
1574	0.787	3.74639175258	-0.618181818182	7.30512820513	-0.0888888888889
1575	0.7875	2.32886597938	-3.49090909091	3.06666666667	-0.0888888888889
1576	0.788	-14.681443299	-3.49090909091	7.30512820513	-0.0888888888889
1577	0.7885	-7.59381443299	-2.05454545455	8.71794871795	1.36666666667
1578	0.789	10.8340206186	0.818181818182	7.30512820513	1.36666666667
1579	0.7895	5.16391752577	3.69090909091	8.71794871795	1.36666666667
1580	0.79	-0.50618556701	2.25454545455	8.71794871795	-0.0888888888889
1581	0.7905	-16.0989690722	-4.92727272727	5.89230769231	-0.0888888888889
1582	0.791	15.0865979381	-2.05454545455	3.06666666667	1.36666666667
1583	0.7915	2.32886597938	-7.8	1.65384615385	-1.54444444444
1584	0.792	-6.17628865979	-2.05454545455	1.65384615385	5.73333333333
1585	0.7925	19.3391752577	-0.618181818182	8.71794871795	1.36666666667
1586	0.793	-0.50618556701	-2.05454545455	14.3692307692	-1.54444444444
1587	0.7935	2.32886597938	0.818181818182	15.7820512821	1.36666666667
1588	0.794	16.5041237113	-2.05454545455	12.9564102564	-0.0888888888889
1589	0.7945	-13.2639175258	-2.05454545455	4.47948717949	4.27777777778
1590	0.795	-0.50618556701	-2.05454545455	3.06666666667	4.27777777778
1591	0.7955	-16.0989690722	-0.618181818182	0.241025641026	-0.0888888888889
1592	0.796	12.2515463918	-2.05454545455	-1.17179487179	-1.54444444444
1593	0.7965	-4.7587628866	-7.8	-1.17179487179	-1.54444444444
1594	0.797	-9.01134020619	-9.23636363636	-1.17179487179	-0.0888888888889
1595	0.7975	0.911340206186	-9.23636363636	-1.17179487179	-0.0888888888889
1596	0.798	-1.92371134021	-3.49090909091	-1.17179487179	15.9222222222
1597	0.7985	-3.3412371134	-4.92727272727	3.06666666667	-7.36666666667
1598	0.799	2.32886597938	-2.05454545455	-1.17179487179	5.73333333333
1599	0.7995	-0.50618556701	0.818181818182	-1.17179487179	-8.82222222222
1600	0.8	0.911340206186	5.12727272727	-2.58461538462	2.82222222222
1601	0.8005	-3.3412371134	3.69090909091	3.06666666667	7.18888888889
1602	0.801	-0.50618556701	2.25454545455	1.65384615385	17.3777777778
1603	0.8015	-3.3412371134	8.0	-5.41025641026	-4.45555555556
1604	0.802	-3.3412371134	16.6181818182	1.65384615385	-13.1888888889
1605	0.8025	-3.3412371134	6.56363636364	0.241025641026	-7.36666666667
1606	0.803	-1.92371134021	-6.36363636364	0.241025641026	5.73333333333
1607	0.8035	2.32886597938	-7.8	0.241025641026	-4.45555555556
1608	0.804	9.41649484536	-4.92727272727	-13.8871794872	2.82222222222
1609	0.8045	5.16391752577	-2.05454545455	-3.99743589744	-5.91111111111
1610	0.805	3.74639175258	-2.05454545455	-9.64871794872	1.36666666667
1611	0.8055	5.16391752577	-3.49090909091	0.241025641026	15.9222222222
1612	0.806	3.74639175258	-2.05454545455	-3.99743589744	-13.1888888889
1613	0.8065	0.911340206186	-3.49090909091	-5.41025641026	-0.0888888888889
1614	0.807	-6.17628865979	-2.05454545455	0.241025641026	1.36666666667
1615	0.8075	-10.4288659794	0.818181818182	4.47948717949	4.27777777778
1616	0.808	-16.0989690722	-3.49090909091	8.71794871795	-7.36666666667
1617	0.8085	-13.2639175258	-0.618181818182	18.6076923077	1.36666666667
1618	0.809	-9.01134020619	0.818181818182	11.5435897436	-0.0888888888889
1619	0.8095	-4.7587628866	-0.618181818182	-8.2358974359	-1.54444444444
1620	0.81	-0.50618556701	0.818181818182	-5.41025641026	-1.54444444444
1621	0.8105	-0.50618556701	-0.618181818182	8.71794871795	-1.54444444444
1622	0.811	-0.50618556701	-3.49090909091	0.241025641026	-7.36666666667
1623	0.8115	-3.3412371134	0.818181818182	-8.2358974359	-0.0888888888889
1624	0.812	-1.92371134021	0.818181818182	3.06666666667	-5.91111111111
1625	0.8125	-1.92371134021	3.69090909091	11.5435897436	-0.0888888888889
1626	0.813	5.16391752577	0.818181818182	14.3692307692	-0.0888888888889
1627	0.8135	7.99896907216	-0.618181818182	-5.41025641026	-1.54444444444
1628	0.814	3.74639175258	-2.05454545455	-2.58461538462	-1.54444444444
1629	0.8145	2.32886597938	-4.92727272727	4.47948717949	-3.0
1630	0.815	0.911340206186	-0.618181818182	-2.58461538462	-1.54444444444
1631	0.8155	2.32886597938	-0.618181818182	20.0205128205	-7.36666666667
1632	0.816	0.911340206186	2.25454545455	1.65384615385	1.36666666667
1633	0.8165	0.911340206186	2.25454545455	-2.58461538462	-0.0888888888889
1634	0.817	-0.50618556701	-2.05454545455	-11.0615384615	-1.54444444444
1635	0.8175	3.74639175258	-2.05454545455	-9.64871794872	-0.0888888888889
1636	0.818	-0.50618556701	-0.618181818182	-6.82307692308	-0.0888888888889
1637	0.8185	-4.7587628866	-2.05454545455	3.06666666667	-10.2777777778
1638	0.819	-1.92371134021	-2.05454545455	-3.99743589744	-0.0888888888889
1639	0.8195	0.911340206186	0.818181818182	-2.58461538462	-1.54444444444
1640	0.82	2.32886597938	-7.8	-6.82307692308	-0.0888888888889
1641	0.8205	2.32886597938	0.818181818182	-9.64871794872	1.36666666667
1642	0.821	2.32886597938	-12.1090909091	-2.58461538462	-1.54444444444
1643	0.8215	0.911340206186	-0.618181818182	-3.99743589744	-0.0888888888889
1644	0.822	-1.92371134021	3.69090909091	-3.99743589744	-0.0888888888889
1645	0.8225	0.911340206186	-12.1090909091	-8.2358974359	1.36666666667
1646	0.823	9.41649484536	-3.49090909091	-13.8871794872	2.82222222222
1647	0.8235	10.8340206186	-12.1090909091	-5.41025641026	-0.0888888888889
1648	0.824	3.74639175258	16.6181818182	-2.58461538462	-0.0888888888889
1649	0.8245	0.911340206186	-3.49090909091	-1.17179487179	-1.54444444444
1650	0.825	-0.50618556701	-4.92727272727	0.241025641026	-0.0888888888889
1651	0.8255	-1.92371134021	-12.1090909091	4.47948717949	-0.0888888888889
1652	0.826	0.911340206186	5.12727272727	4.47948717949	1.36666666667
1653	0.8265	-3.3412371134	0.818181818182	7.30512820513	2.82222222222
1654	0.827	0.911340206186	18.0545454545	8.71794871795	-0.0888888888889
1655	0.8275	-1.92371134021	-9.23636363636	11.5435897436	-1.54444444444
1656	0.828	-1.92371134021	9.43636363636	11.5435897436	-1.54444444444
1657	0.8285	-0.50618556701	-3.49090909091	8.71794871795	2.82222222222
1658	0.829	5.16391752577	-0.618181818182	8.71794871795	1.36666666667
1659	0.8295	0.911340206186	-9.23636363636	5.89230769231	-0.0888888888889
1660	0.83	5.16391752577	-2.05454545455	4.47948717949	1.36666666667
1661	0.8305	-6.17628865979	3.69090909091	4.47948717949	2.82222222222
1662	0.831	-0.50618556701	13.7454545455	4.47948717949	-0.0888888888889
1663	0.8315	3.74639175258	-3.49090909091	1.65384615385	-0.0888888888889
1664	0.832	-13.2639175258	-4.92727272727	-1.17179487179	1.36666666667
1665	0.8325	-10.4288659794	-4.92727272727	-1.17179487179	-0.0888888888889
1666	0.833	3.74639175258	-2.05454545455	0.241025641026	-3.0
1667	0.8335	-14.681443299	0.818181818182	0.241025641026	-0.0888888888889
1668	0.834	-7.59381443299	0.818181818182	0.241025641026	-0.0888888888889
1669	0.8345	-7.59381443299	-2.05454545455	1.65384615385	-3.0
1670	0.835	12.2515463918	-3.49090909091	0.241025641026	-0.0888888888889
1671	0.8355	17.9216494845	2.25454545455	3.06666666667	-1.54444444444
1672	0.836	3.74639175258	0.818181818182	3.06666666667	1.36666666667
1673	0.8365	-1.92371134021	3.69090909091	1.65384615385	4.27777777778
1674	0.837	-6.17628865979	2.25454545455	-3.99743589744	-0.0888888888889
1675	0.8375	10.8340206186	0.818181818182	-3.99743589744	2.82222222222
1676	0.838	-3.3412371134	-2.05454545455	-6.82307692308	4.27777777778
1677	0.8385	26.4268041237	-2.05454545455	-9.64871794872	-0.0888888888889
1678	0.839	-4.7587628866	0.818181818182	-8.2358974359	-4.45555555556
1679	0.8395	-4.7587628866	0.818181818182	-20.9512820513	-11.7333333333
1680	0.84	-14.681443299	-3.49090909091	-23.7769230769	1.36666666667
1681	0.8405	-10.4288659794	0.818181818182	-15.3	-5.91111111111
1682	0.841	-6.17628865979	-0.618181818182	-12.4743589744	17.3777777778
1683	0.8415	-4.7587628866	-3.49090909091	-9.64871794872	14.4666666667
1684	0.842	0.911340206186	-2.05454545455	-3.99743589744	2.82222222222
1685	0.8425	0.911340206186	-2.05454545455	4.47948717949	2.82222222222
1686	0.843	6.58144329897	-0.618181818182	11.5435897436	8.64444444444
1687	0.8435	9.41649484536	-0.618181818182	17.1948717949	-0.0888888888889
1688	0.844	10.8340206186	-0.618181818182	20.0205128205	-8.82222222222
1689	0.8445	7.99896907216	0.818181818182	17.1948717949	-5.91111111111
1690	0.845	6.58144329897	-0.618181818182	22.8461538462	-4.45555555556
1691	0.8455	0.911340206186	0.818181818182	17.1948717949	-4.45555555556
1692	0.846	-0.50618556701	2.25454545455	18.6076923077	-3.0
1693	0.8465	-4.7587628866	0.818181818182	8.71794871795	2.82222222222
1694	0.847	-4.7587628866	-0.618181818182	15.7820512821	-11.7333333333
1695	0.8475	-3.3412371134	-3.49090909091	12.9564102564	-3.0
1696	0.848	-1.92371134021	0.818181818182	21.4333333333	-3.0
1697	0.8485	3.74639175258	0.818181818182	-2.58461538462	1.36666666667
1698	0.849	2.32886597938	2.25454545455	12.9564102564	2.82222222222
1699	0.8495	3.74639175258	-0.618181818182	-18.1256410256	-0.0888888888889
1700	0.85	3.74639175258	-0.618181818182	-35.0794871795	1.36666666667
1701	0.8505	6.58144329897	-0.618181818182	-40.7307692308	1.36666666667
1702	0.851	5.16391752577	-4.92727272727	-53.4461538462	-0.0888888888889
1703	0.8515	2.32886597938	-4.92727272727	-39.3179487179	-1.54444444444
1704	0.852	3.74639175258	-6.36363636364	-42.1435897436	1.36666666667
1705	0.8525	7.99896907216	0.818181818182	-8.2358974359	-5.91111111111
1706	0.853	3.74639175258	-2.05454545455	-2.58461538462	-1.54444444444
1707	0.8535	3.74639175258	-6.36363636364	14.3692307692	-1.54444444444
1708	0.854	2.32886597938	-9.23636363636	21.4333333333	-1.54444444444
1709	0.8545	3.74639175258	-9.23636363636	31.3230769231	1.36666666667
1710	0.855	-0.50618556701	-4.92727272727	44.0384615385	4.27777777778
1711	0.8555	0.911340206186	-0.618181818182	32.7358974359	1.36666666667
1712	0.856	2.32886597938	8.0	34.1487179487	2.82222222222
1713	0.8565	0.911340206186	23.8	25.6717948718	2.82222222222
1714	0.857	-1.92371134021	10.8727272727	34.1487179487	1.36666666667
1715	0.8575	-0.50618556701	-6.36363636364	4.47948717949	-1.54444444444
1716	0.858	-0.50618556701	-13.5454545455	-3.99743589744	-0.0888888888889
1717	0.8585	-3.3412371134	-14.9818181818	-3.99743589744	-3.0
1718	0.859	0.911340206186	2.25454545455	-1.17179487179	-0.0888888888889
1719	0.8595	-0.50618556701	-4.92727272727	0.241025641026	-1.54444444444
1720	0.86	2.32886597938	9.43636363636	1.65384615385	-0.0888888888889
1721	0.8605	3.74639175258	15.1818181818	3.06666666667	-1.54444444444
1722	0.861	0.911340206186	-6.36363636364	1.65384615385	-0.0888888888889
1723	0.8615	0.911340206186	-10.6727272727	12.9564102564	2.82222222222
1724	0.862	5.16391752577	-7.8	12.9564102564	1.36666666667
1725	0.8625	2.32886597938	16.6181818182	8.71794871795	2.82222222222
1726	0.863	3.74639175258	15.1818181818	4.47948717949	-0.0888888888889
1727	0.8635	0.911340206186	-3.49090909091	3.06666666667	-0.0888888888889
1728	0.864	-3.3412371134	-2.05454545455	3.06666666667	-0.0888888888889
1729	0.8645	0.911340206186	16.6181818182	3.06666666667	-0.0888888888889
1730	0.865	-4.7587628866	-12.1090909091	7.30512820513	-0.0888888888889
1731	0.8655	-4.7587628866	-12.1090909091	5.89230769231	-0.0888888888889
1732	0.866	-4.7587628866	-4.92727272727	4.47948717949	-0.0888888888889
1733	0.8665	-4.7587628866	-10.6727272727	1.65384615385	1.36666666667
1734	0.867	0.911340206186	16.6181818182	-1.17179487179	-1.54444444444
1735	0.8675	3.74639175258	-4.92727272727	-3.99743589744	-0.0888888888889
1736	0.868	0.911340206186	-4.92727272727	-3.99743589744	-0.0888888888889
1737	0.8685	10.8340206186	0.818181818182	-2.58461538462	2.82222222222
1738	0.869	2.32886597938	2.25454545455	-3.99743589744	2.82222222222
1739	0.8695	7.99896907216	-0.618181818182	-3.99743589744	-0.0888888888889
1740	0.87	-10.4288659794	2.25454545455	-1.17179487179	2.82222222222
1741	0.8705	-3.3412371134	2.25454545455	0.241025641026	1.36666666667
1742	0.871	-7.59381443299	2.25454545455	3.06666666667	2.82222222222
