	Time	Channel 1	Channel 2	Channel 3	Channel 4
0	0.0	2.0724137931	2.48292682927	-1.248	-5.975
1	0.0005	0.620689655172	22.2991869919	3.048	-1.71704545455
2	0.001	-0.831034482759	2.48292682927	0.184	-3.13636363636
3	0.0015	0.620689655172	6.72926829268	4.48	-4.55568181818
4	0.002	0.620689655172	-6.00975609756	5.912	-5.975
5	0.0025	-5.18620689655	5.31382113821	-5.544	-4.55568181818
6	0.003	2.0724137931	2.48292682927	-1.248	-4.55568181818
7	0.0035	-9.54137931034	-3.17886178862	1.616	3.96022727273
8	0.004	-5.18620689655	-93.7674796748	1.616	8.21818181818
9	0.0045	-2.28275862069	-76.7821138211	1.616	5.37954545455
10	0.005	9.33103448276	-13.0869918699	0.184	-1.71704545455
11	0.0055	-0.831034482759	6.72926829268	4.48	-3.13636363636
12	0.006	0.620689655172	9.56016260163	5.912	-7.39431818182
13	0.0065	0.620689655172	9.56016260163	-6.976	-7.39431818182
14	0.007	-2.28275862069	6.72926829268	-4.112	-4.55568181818
15	0.0075	-2.28275862069	-0.347967479675	0.184	-4.55568181818
16	0.008	2.0724137931	15.2219512195	-1.248	-1.71704545455
17	0.0085	-0.831034482759	-48.4731707317	0.184	8.21818181818
18	0.009	19.4931034483	-116.414634146	-1.248	5.37954545455
19	0.0095	-10.9931034483	-32.9032520325	1.616	13.8954545455
20	0.01	-0.831034482759	6.72926829268	4.48	-13.0715909091
21	0.0105	2.0724137931	10.9756097561	-8.408	-3.13636363636
22	0.011	-0.831034482759	6.72926829268	5.912	-5.975
23	0.0115	-2.28275862069	1.0674796748	-4.112	-3.13636363636
24	0.012	-0.831034482759	25.1300813008	1.616	-4.55568181818
25	0.0125	-0.831034482759	1.0674796748	0.184	-3.13636363636
26	0.013	3.52413793103	-13.0869918699	-1.248	2.54090909091
27	0.0135	3.52413793103	-117.830081301	1.616	6.79886363636
28	0.014	2.0724137931	-55.5504065041	0.184	13.8954545455
29	0.0145	0.620689655172	2.48292682927	4.48	12.4761363636
30	0.015	-0.831034482759	10.9756097561	20.232	-4.55568181818
31	0.0155	-0.831034482759	8.14471544715	-5.544	-4.55568181818
32	0.016	0.620689655172	8.14471544715	-2.68	-3.13636363636
33	0.0165	-0.831034482759	9.56016260163	0.184	-4.55568181818
34	0.017	0.620689655172	-1.76341463415	-1.248	-0.297727272727
35	0.0175	15.1379310345	1.0674796748	1.616	1.12159090909
36	0.018	-8.08965517241	-106.506504065	1.616	1.12159090909
37	0.0185	0.620689655172	-72.5357723577	-1.248	-5.975
38	0.019	-2.28275862069	-6.00975609756	-12.704	-7.39431818182
39	0.0195	-0.831034482759	15.2219512195	-4.112	-3.13636363636
40	0.02	0.620689655172	-3.17886178862	0.184	-5.975
41	0.0205	0.620689655172	19.4682926829	-1.248	-5.975
42	0.021	-3.73448275862	-0.347967479675	1.616	-4.55568181818
43	0.0215	7.87931034483	5.31382113821	0.184	-3.13636363636
44	0.022	3.52413793103	9.56016260163	1.616	-1.71704545455
45	0.0225	-5.18620689655	6.72926829268	0.184	-1.71704545455
46	0.023	-2.28275862069	8.14471544715	4.48	-3.13636363636
47	0.0235	-2.28275862069	6.72926829268	11.64	-4.55568181818
48	0.024	0.620689655172	6.72926829268	1.616	-3.13636363636
49	0.0245	-2.28275862069	9.56016260163	-9.84	-3.13636363636
50	0.025	-3.73448275862	-4.59430894309	0.184	-3.13636363636
51	0.0255	0.620689655172	6.72926829268	0.184	-5.975
52	0.026	15.1379310345	8.14471544715	-1.248	-3.13636363636
53	0.0265	0.620689655172	6.72926829268	1.616	-3.13636363636
54	0.027	-5.18620689655	8.14471544715	1.616	8.21818181818
55	0.0275	0.620689655172	6.72926829268	7.344	-13.0715909091
56	0.028	0.620689655172	5.31382113821	-4.112	-4.55568181818
57	0.0285	0.620689655172	6.72926829268	0.184	-4.55568181818
58	0.029	0.620689655172	22.2991869919	0.184	-3.13636363636
59	0.0295	0.620689655172	5.31382113821	1.616	-4.55568181818
60	0.03	-12.4448275862	5.31382113821	1.616	-3.13636363636
61	0.0305	-10.9931034483	5.31382113821	1.616	-15.9102272727
62	0.031	0.620689655172	5.31382113821	-1.248	-11.6522727273
63	0.0315	0.620689655172	3.89837398374	-12.704	-7.39431818182
64	0.032	-0.831034482759	1.0674796748	11.64	-4.55568181818
65	0.0325	-0.831034482759	-7.42520325203	1.616	-3.13636363636
66	0.033	0.620689655172	16.637398374	-1.248	-7.39431818182
67	0.0335	-0.831034482759	-1.76341463415	-1.248	-4.55568181818
68	0.034	-5.18620689655	5.31382113821	-1.248	-4.55568181818
69	0.0345	-5.18620689655	5.31382113821	0.184	-5.975
70	0.035	2.0724137931	5.31382113821	-1.248	-13.0715909091
71	0.0355	0.620689655172	6.72926829268	-11.272	-5.975
72	0.036	-0.831034482759	6.72926829268	1.616	-7.39431818182
73	0.0365	2.0724137931	10.9756097561	1.616	-5.975
74	0.037	-0.831034482759	25.1300813008	0.184	-3.13636363636
75	0.0375	-3.73448275862	1.0674796748	-1.248	-4.55568181818
76	0.038	2.0724137931	5.31382113821	1.616	-4.55568181818
77	0.0385	-10.9931034483	5.31382113821	-1.248	-5.975
78	0.039	-0.831034482759	6.72926829268	0.184	8.21818181818
79	0.0395	-2.28275862069	6.72926829268	3.048	-5.975
80	0.04	-0.831034482759	5.31382113821	-8.408	-4.55568181818
81	0.0405	-0.831034482759	6.72926829268	13.072	-5.975
82	0.041	-2.28275862069	-3.17886178862	3.048	-4.55568181818
83	0.0415	2.0724137931	18.0528455285	0.184	-3.13636363636
84	0.042	-5.18620689655	2.48292682927	0.184	-1.71704545455
85	0.0425	10.7827586207	6.72926829268	0.184	-3.13636363636
86	0.043	4.97586206897	5.31382113821	3.048	-1.71704545455
87	0.0435	-2.28275862069	5.31382113821	4.48	-0.297727272727
88	0.044	2.0724137931	9.56016260163	-6.976	-5.975
89	0.0445	-0.831034482759	2.48292682927	18.8	-4.55568181818
90	0.045	-0.831034482759	-7.42520325203	3.048	-3.13636363636
91	0.0455	0.620689655172	20.8837398374	3.048	-4.55568181818
92	0.046	-2.28275862069	2.48292682927	3.048	-4.55568181818
93	0.0465	16.5896551724	5.31382113821	4.48	-1.71704545455
94	0.047	-5.18620689655	6.72926829268	1.616	-5.975
95	0.0475	-2.28275862069	2.48292682927	1.616	12.4761363636
96	0.048	-0.831034482759	3.89837398374	4.48	-10.2329545455
97	0.0485	-0.831034482759	2.48292682927	-2.68	-3.13636363636
98	0.049	0.620689655172	8.14471544715	1.616	-1.71704545455
99	0.0495	3.52413793103	-7.42520325203	5.912	-4.55568181818
100	0.05	-2.28275862069	23.7146341463	4.48	-1.71704545455
101	0.0505	2.0724137931	3.89837398374	1.616	-3.13636363636
102	0.051	-6.63793103448	5.31382113821	3.048	13.8954545455
103	0.0515	0.620689655172	6.72926829268	4.48	-10.2329545455
104	0.052	-0.831034482759	6.72926829268	-9.84	-1.71704545455
105	0.0525	0.620689655172	8.14471544715	20.232	-5.975
106	0.053	0.620689655172	3.89837398374	-4.112	-5.975
107	0.0535	-2.28275862069	23.7146341463	1.616	-3.13636363636
108	0.054	3.52413793103	-7.42520325203	4.48	-3.13636363636
109	0.0545	-10.9931034483	6.72926829268	4.48	-3.13636363636
110	0.055	16.5896551724	6.72926829268	3.048	-0.297727272727
111	0.0555	0.620689655172	6.72926829268	4.48	-8.81363636364
112	0.056	0.620689655172	6.72926829268	7.344	-3.13636363636
113	0.0565	2.0724137931	5.31382113821	3.048	-4.55568181818
114	0.057	-0.831034482759	-0.347967479675	-2.68	-3.13636363636
115	0.0575	0.620689655172	5.31382113821	3.048	-1.71704545455
116	0.058	3.52413793103	2.48292682927	3.048	-3.13636363636
117	0.0585	-10.9931034483	6.72926829268	1.616	-3.13636363636
118	0.059	-6.63793103448	2.48292682927	3.048	-0.297727272727
119	0.0595	-0.831034482759	5.31382113821	5.912	-1.71704545455
120	0.06	-0.831034482759	3.89837398374	-9.84	-3.13636363636
121	0.0605	-2.28275862069	5.31382113821	4.48	-4.55568181818
122	0.061	0.620689655172	-4.59430894309	-6.976	-3.13636363636
123	0.0615	0.620689655172	13.806504065	1.616	-5.975
124	0.062	0.620689655172	-6.00975609756	0.184	-3.13636363636
125	0.0625	3.52413793103	1.0674796748	1.616	-3.13636363636
126	0.063	-10.9931034483	1.0674796748	0.184	-13.0715909091
127	0.0635	0.620689655172	1.0674796748	-4.112	-10.2329545455
128	0.064	-0.831034482759	1.0674796748	-12.704	-1.71704545455
129	0.0645	0.620689655172	5.31382113821	15.936	-1.71704545455
130	0.065	-0.831034482759	-10.256097561	0.184	-4.55568181818
131	0.0655	0.620689655172	18.0528455285	0.184	-1.71704545455
132	0.066	-3.73448275862	-4.59430894309	0.184	-3.13636363636
133	0.0665	3.52413793103	3.89837398374	-1.248	-3.13636363636
134	0.067	-6.63793103448	2.48292682927	0.184	-4.55568181818
135	0.0675	0.620689655172	2.48292682927	0.184	-7.39431818182
136	0.068	-2.28275862069	3.89837398374	-9.84	-5.975
137	0.0685	-2.28275862069	3.89837398374	8.776	-3.13636363636
138	0.069	-0.831034482759	2.48292682927	-1.248	-4.55568181818
139	0.0695	0.620689655172	6.72926829268	0.184	-5.975
140	0.07	-2.28275862069	-1.76341463415	3.048	-4.55568181818
141	0.0705	-3.73448275862	5.31382113821	3.048	-3.13636363636
142	0.071	-0.831034482759	2.48292682927	1.616	-5.975
143	0.0715	-8.08965517241	2.48292682927	1.616	-11.6522727273
144	0.072	0.620689655172	3.89837398374	3.048	15.3147727273
145	0.0725	0.620689655172	3.89837398374	20.232	-3.13636363636
146	0.073	-0.831034482759	1.0674796748	1.616	-3.13636363636
147	0.0735	-0.831034482759	-6.00975609756	3.048	-3.13636363636
148	0.074	0.620689655172	9.56016260163	3.048	-3.13636363636
149	0.0745	-10.9931034483	3.89837398374	0.184	-4.55568181818
150	0.075	2.0724137931	3.89837398374	3.048	-7.39431818182
151	0.0755	-9.54137931034	3.89837398374	1.616	-7.39431818182
152	0.076	-0.831034482759	3.89837398374	-1.248	-3.13636363636
153	0.0765	-0.831034482759	2.48292682927	-1.248	-10.2329545455
154	0.077	-2.28275862069	2.48292682927	-5.544	-3.13636363636
155	0.0775	2.0724137931	2.48292682927	3.048	-4.55568181818
156	0.078	-2.28275862069	18.0528455285	0.184	-4.55568181818
157	0.0785	-0.831034482759	2.48292682927	4.48	-4.55568181818
158	0.079	-10.9931034483	2.48292682927	0.184	-7.39431818182
159	0.0795	19.4931034483	1.0674796748	1.616	-10.2329545455
160	0.08	-0.831034482759	1.0674796748	3.048	8.21818181818
161	0.0805	-2.28275862069	3.89837398374	8.776	-1.71704545455
162	0.081	-0.831034482759	2.48292682927	-4.112	-1.71704545455
163	0.0815	-0.831034482759	-4.59430894309	1.616	-3.13636363636
164	0.082	3.52413793103	9.56016260163	4.48	-1.71704545455
165	0.0825	-3.73448275862	-4.59430894309	1.616	-4.55568181818
166	0.083	-2.28275862069	3.89837398374	4.48	-1.71704545455
167	0.0835	13.6862068966	2.48292682927	1.616	-7.39431818182
168	0.084	-10.9931034483	3.89837398374	-1.248	-1.71704545455
169	0.0845	0.620689655172	1.0674796748	-8.408	-4.55568181818
170	0.085	-0.831034482759	2.48292682927	-5.544	-1.71704545455
171	0.0855	0.620689655172	6.72926829268	1.616	-1.71704545455
172	0.086	-2.28275862069	-10.256097561	0.184	-3.13636363636
173	0.0865	3.52413793103	3.89837398374	0.184	-4.55568181818
174	0.087	-15.3482758621	5.31382113821	0.184	-0.297727272727
175	0.0875	-12.4448275862	3.89837398374	1.616	-13.0715909091
176	0.088	0.620689655172	3.89837398374	3.048	-1.71704545455
177	0.0885	0.620689655172	2.48292682927	4.48	-14.4909090909
178	0.089	0.620689655172	6.72926829268	-12.704	-7.39431818182
179	0.0895	-2.28275862069	8.14471544715	0.184	-3.13636363636
180	0.09	-0.831034482759	-8.8406504065	0.184	-1.71704545455
181	0.0905	-3.73448275862	1.0674796748	-1.248	-3.13636363636
182	0.091	2.0724137931	-0.347967479675	0.184	-1.71704545455
183	0.0915	-12.4448275862	2.48292682927	3.048	-3.13636363636
184	0.092	-2.28275862069	5.31382113821	1.616	-14.4909090909
185	0.0925	0.620689655172	3.89837398374	3.048	-0.297727272727
186	0.093	0.620689655172	1.0674796748	-9.84	-3.13636363636
187	0.0935	-0.831034482759	8.14471544715	3.048	-3.13636363636
188	0.094	0.620689655172	-4.59430894309	-2.68	-4.55568181818
189	0.0945	0.620689655172	5.31382113821	3.048	-5.975
190	0.095	3.52413793103	-3.17886178862	1.616	-1.71704545455
191	0.0955	-0.831034482759	2.48292682927	4.48	-4.55568181818
192	0.096	-9.54137931034	5.31382113821	3.048	-5.975
193	0.0965	-3.73448275862	2.48292682927	1.616	13.8954545455
194	0.097	-2.28275862069	1.0674796748	3.048	3.96022727273
195	0.0975	-0.831034482759	-0.347967479675	0.184	-7.39431818182
196	0.098	0.620689655172	2.48292682927	5.912	-3.13636363636
197	0.0985	-0.831034482759	-1.76341463415	0.184	-5.975
198	0.099	-0.831034482759	2.48292682927	-1.248	-1.71704545455
199	0.0995	-9.54137931034	5.31382113821	1.616	-5.975
200	0.1	22.3965517241	5.31382113821	1.616	-15.9102272727
201	0.1005	-3.73448275862	3.89837398374	-1.248	1.12159090909
202	0.101	-0.831034482759	5.31382113821	0.184	-8.81363636364
203	0.1015	-0.831034482759	2.48292682927	-1.248	-4.55568181818
204	0.102	0.620689655172	6.72926829268	-2.68	-5.975
205	0.1025	0.620689655172	-6.00975609756	0.184	-3.13636363636
206	0.103	-0.831034482759	-0.347967479675	0.184	-4.55568181818
207	0.1035	3.52413793103	1.0674796748	1.616	-1.71704545455
208	0.104	-3.73448275862	3.89837398374	0.184	-3.13636363636
209	0.1045	-9.54137931034	2.48292682927	0.184	-1.71704545455
210	0.105	-2.28275862069	5.31382113821	1.616	-1.71704545455
211	0.1055	0.620689655172	5.31382113821	1.616	-3.13636363636
212	0.106	0.620689655172	2.48292682927	-6.976	-0.297727272727
213	0.1065	-3.73448275862	2.48292682927	-1.248	-0.297727272727
214	0.107	-0.831034482759	-10.256097561	0.184	-0.297727272727
215	0.1075	2.0724137931	1.0674796748	-2.68	-3.13636363636
216	0.108	-8.08965517241	-7.42520325203	1.616	-3.13636363636
217	0.1085	15.1379310345	-0.347967479675	0.184	-0.297727272727
218	0.109	-8.08965517241	2.48292682927	0.184	15.3147727273
219	0.1095	0.620689655172	1.0674796748	3.048	-5.975
220	0.11	0.620689655172	1.0674796748	-5.544	-3.13636363636
221	0.1105	-0.831034482759	2.48292682927	0.184	-4.55568181818
222	0.111	-2.28275862069	-1.76341463415	1.616	-3.13636363636
223	0.1115	-3.73448275862	20.8837398374	-1.248	-3.13636363636
224	0.112	-2.28275862069	-1.76341463415	-1.248	-1.71704545455
225	0.1125	-13.8965517241	1.0674796748	0.184	-1.71704545455
226	0.113	16.5896551724	-0.347967479675	0.184	-10.2329545455
227	0.1135	2.0724137931	-0.347967479675	-1.248	-3.13636363636
228	0.114	2.0724137931	-0.347967479675	-9.84	-3.13636363636
229	0.1145	2.0724137931	1.0674796748	1.616	-1.71704545455
230	0.115	0.620689655172	2.48292682927	-5.544	-1.71704545455
231	0.1155	3.52413793103	1.0674796748	1.616	-1.71704545455
232	0.116	0.620689655172	-4.59430894309	0.184	-1.71704545455
233	0.1165	-0.831034482759	2.48292682927	1.616	-1.71704545455
234	0.117	13.6862068966	2.48292682927	-1.248	-7.39431818182
235	0.1175	-9.54137931034	3.89837398374	3.048	-3.13636363636
236	0.118	-0.831034482759	3.89837398374	7.344	-10.2329545455
237	0.1185	0.620689655172	3.89837398374	-9.84	-3.13636363636
238	0.119	2.0724137931	6.72926829268	18.8	-5.975
239	0.1195	0.620689655172	-7.42520325203	1.616	-1.71704545455
240	0.12	2.0724137931	23.7146341463	0.184	-1.71704545455
241	0.1205	-3.73448275862	3.89837398374	1.616	-1.71704545455
242	0.121	19.4931034483	5.31382113821	1.616	-3.13636363636
243	0.1215	-5.18620689655	2.48292682927	1.616	3.96022727273
244	0.122	-0.831034482759	1.0674796748	4.48	3.96022727273
245	0.1225	-2.28275862069	1.0674796748	-6.976	-3.13636363636
246	0.123	0.620689655172	5.31382113821	-4.112	-3.13636363636
247	0.1235	-0.831034482759	2.48292682927	7.344	-1.71704545455
248	0.124	0.620689655172	5.31382113821	1.616	-4.55568181818
249	0.1245	0.620689655172	2.48292682927	1.616	-1.71704545455
250	0.125	4.97586206897	3.89837398374	-1.248	-0.297727272727
251	0.1255	7.87931034483	2.48292682927	1.616	-7.39431818182
252	0.126	-5.18620689655	3.89837398374	0.184	5.37954545455
253	0.1265	0.620689655172	2.48292682927	1.616	-5.975
254	0.127	0.620689655172	1.0674796748	14.504	-1.71704545455
255	0.1275	-0.831034482759	3.89837398374	1.616	-4.55568181818
256	0.128	0.620689655172	-4.59430894309	1.616	-3.13636363636
257	0.1285	-0.831034482759	-3.17886178862	0.184	-1.71704545455
258	0.129	2.0724137931	1.0674796748	0.184	-4.55568181818
259	0.1295	18.0413793103	1.0674796748	0.184	-0.297727272727
260	0.13	-9.54137931034	3.89837398374	1.616	8.21818181818
261	0.1305	-2.28275862069	1.0674796748	-2.68	-8.81363636364
262	0.131	0.620689655172	1.0674796748	5.912	-4.55568181818
263	0.1315	2.0724137931	1.0674796748	-5.544	-4.55568181818
264	0.132	-0.831034482759	-1.76341463415	-1.248	-4.55568181818
265	0.1325	2.0724137931	-4.59430894309	3.048	-3.13636363636
266	0.133	0.620689655172	15.2219512195	0.184	-4.55568181818
267	0.1335	0.620689655172	-7.42520325203	1.616	-4.55568181818
268	0.134	-9.54137931034	1.0674796748	0.184	-4.55568181818
269	0.1345	-0.831034482759	1.0674796748	-1.248	13.8954545455
270	0.135	0.620689655172	2.48292682927	4.48	-10.2329545455
271	0.1355	0.620689655172	1.0674796748	-8.408	-1.71704545455
272	0.136	2.0724137931	6.72926829268	-2.68	-3.13636363636
273	0.1365	0.620689655172	-8.8406504065	0.184	-1.71704545455
274	0.137	0.620689655172	-3.17886178862	0.184	-1.71704545455
275	0.1375	-3.73448275862	3.89837398374	-1.248	-1.71704545455
276	0.138	-5.18620689655	1.0674796748	-1.248	-3.13636363636
277	0.1385	-3.73448275862	2.48292682927	-1.248	11.0568181818
278	0.139	0.620689655172	3.89837398374	-1.248	-4.55568181818
279	0.1395	0.620689655172	3.89837398374	17.368	-3.13636363636
280	0.14	0.620689655172	1.0674796748	-8.408	-4.55568181818
281	0.1405	-2.28275862069	8.14471544715	-1.248	-4.55568181818
282	0.141	-5.18620689655	-1.76341463415	1.616	-4.55568181818
283	0.1415	3.52413793103	1.0674796748	-1.248	-4.55568181818
284	0.142	-10.9931034483	2.48292682927	0.184	-5.975
285	0.1425	-0.831034482759	-0.347967479675	0.184	-1.71704545455
286	0.143	0.620689655172	1.0674796748	0.184	-8.81363636364
287	0.1435	0.620689655172	1.0674796748	7.344	-4.55568181818
288	0.144	0.620689655172	-1.76341463415	-2.68	-8.81363636364
289	0.1445	-0.831034482759	-4.59430894309	-4.112	-5.975
290	0.145	0.620689655172	-0.347967479675	4.48	-5.975
291	0.1455	0.620689655172	-6.00975609756	3.048	-3.13636363636
292	0.146	-5.18620689655	-1.76341463415	0.184	-3.13636363636
293	0.1465	16.5896551724	-1.76341463415	1.616	-10.2329545455
294	0.147	2.0724137931	-1.76341463415	-1.248	13.8954545455
295	0.1475	-3.73448275862	1.0674796748	1.616	-13.0715909091
296	0.148	-2.28275862069	1.0674796748	-5.544	-4.55568181818
297	0.1485	0.620689655172	-1.76341463415	1.616	-5.975
298	0.149	2.0724137931	-10.256097561	0.184	-3.13636363636
299	0.1495	4.97586206897	-8.8406504065	0.184	-4.55568181818
300	0.15	2.0724137931	-1.76341463415	0.184	-3.13636363636
301	0.1505	-10.9931034483	-0.347967479675	0.184	-4.55568181818
302	0.151	-5.18620689655	-0.347967479675	3.048	-3.13636363636
303	0.1515	0.620689655172	-0.347967479675	1.616	-10.2329545455
304	0.152	-0.831034482759	2.48292682927	-9.84	-10.2329545455
305	0.1525	-0.831034482759	2.48292682927	-6.976	-3.13636363636
306	0.153	0.620689655172	-10.256097561	-4.112	-3.13636363636
307	0.1535	0.620689655172	2.48292682927	1.616	-3.13636363636
308	0.154	0.620689655172	-4.59430894309	3.048	-3.13636363636
309	0.1545	-3.73448275862	1.0674796748	3.048	-1.71704545455
310	0.155	-9.54137931034	5.31382113821	3.048	-7.39431818182
311	0.1555	0.620689655172	3.89837398374	1.616	-10.2329545455
312	0.156	-0.831034482759	5.31382113821	-8.408	-5.975
313	0.1565	-0.831034482759	8.14471544715	13.072	-1.71704545455
314	0.157	-0.831034482759	2.48292682927	-5.544	-3.13636363636
315	0.1575	2.0724137931	1.0674796748	-1.248	-3.13636363636
316	0.158	0.620689655172	-6.00975609756	0.184	-4.55568181818
317	0.1585	-0.831034482759	5.31382113821	1.616	-0.297727272727
318	0.159	-10.9931034483	3.89837398374	0.184	-3.13636363636
319	0.1595	-5.18620689655	2.48292682927	3.048	-14.4909090909
320	0.16	-0.831034482759	3.89837398374	-1.248	-4.55568181818
321	0.1605	0.620689655172	3.89837398374	8.776	-13.0715909091
322	0.161	2.0724137931	1.0674796748	4.48	-3.13636363636
323	0.1615	2.0724137931	1.0674796748	3.048	-1.71704545455
324	0.162	0.620689655172	-10.256097561	4.48	-3.13636363636
325	0.1625	-2.28275862069	20.8837398374	4.48	-4.55568181818
326	0.163	0.620689655172	1.0674796748	4.48	-7.39431818182
327	0.1635	20.9448275862	1.0674796748	1.616	-0.297727272727
328	0.164	-5.18620689655	1.0674796748	4.48	-0.297727272727
329	0.1645	0.620689655172	1.0674796748	1.616	-7.39431818182
330	0.165	0.620689655172	1.0674796748	0.184	-4.55568181818
331	0.1655	2.0724137931	1.0674796748	-6.976	-3.13636363636
332	0.166	0.620689655172	1.0674796748	4.48	-5.975
333	0.1665	0.620689655172	-10.256097561	4.48	-4.55568181818
334	0.167	-3.73448275862	-1.76341463415	4.48	-4.55568181818
335	0.1675	3.52413793103	-0.347967479675	1.616	-5.975
336	0.168	0.620689655172	-0.347967479675	4.48	-1.71704545455
337	0.1685	-5.18620689655	1.0674796748	0.184	3.96022727273
338	0.169	-0.831034482759	1.0674796748	-1.248	-13.0715909091
339	0.1695	-0.831034482759	2.48292682927	-2.68	-3.13636363636
340	0.17	0.620689655172	1.0674796748	1.616	-3.13636363636
341	0.1705	0.620689655172	-6.00975609756	3.048	-7.39431818182
342	0.171	0.620689655172	20.8837398374	4.48	-1.71704545455
343	0.1715	-3.73448275862	1.0674796748	4.48	-0.297727272727
344	0.172	15.1379310345	3.89837398374	4.48	-1.71704545455
345	0.1725	12.2344827586	3.89837398374	4.48	-1.71704545455
346	0.173	0.620689655172	2.48292682927	3.048	13.8954545455
347	0.1735	0.620689655172	5.31382113821	17.368	-3.13636363636
348	0.174	0.620689655172	5.31382113821	-4.112	-4.55568181818
349	0.1745	0.620689655172	2.48292682927	3.048	-1.71704545455
350	0.175	-0.831034482759	-0.347967479675	3.048	-3.13636363636
351	0.1755	0.620689655172	16.637398374	3.048	-5.975
352	0.176	-3.73448275862	1.0674796748	3.048	-3.13636363636
353	0.1765	18.0413793103	1.0674796748	0.184	-1.71704545455
354	0.177	-8.08965517241	5.31382113821	0.184	13.8954545455
355	0.1775	3.52413793103	1.0674796748	-9.84	-8.81363636364
356	0.178	2.0724137931	2.48292682927	1.616	8.21818181818
357	0.1785	3.52413793103	1.0674796748	-4.112	-4.55568181818
358	0.179	0.620689655172	16.637398374	0.184	-3.13636363636
359	0.1795	2.0724137931	-10.256097561	1.616	-3.13636363636
360	0.18	-0.831034482759	-0.347967479675	4.48	-1.71704545455
361	0.1805	16.5896551724	2.48292682927	-1.248	-5.975
362	0.181	-3.73448275862	5.31382113821	1.616	-1.71704545455
363	0.1815	-5.18620689655	-0.347967479675	1.616	-4.55568181818
364	0.182	-0.831034482759	2.48292682927	-1.248	-1.71704545455
365	0.1825	0.620689655172	2.48292682927	-5.544	-3.13636363636
366	0.183	0.620689655172	1.0674796748	1.616	-3.13636363636
367	0.1835	-0.831034482759	-7.42520325203	3.048	-1.71704545455
368	0.184	3.52413793103	22.2991869919	0.184	-1.71704545455
369	0.1845	-10.9931034483	2.48292682927	1.616	-1.71704545455
370	0.185	19.4931034483	1.0674796748	0.184	1.12159090909
371	0.1855	-8.08965517241	1.0674796748	3.048	13.8954545455
372	0.186	-0.831034482759	1.0674796748	-1.248	-7.39431818182
373	0.1865	0.620689655172	2.48292682927	4.48	-1.71704545455
374	0.187	-2.28275862069	1.0674796748	-4.112	-4.55568181818
375	0.1875	0.620689655172	3.89837398374	7.344	-1.71704545455
376	0.188	0.620689655172	10.9756097561	-1.248	-4.55568181818
377	0.1885	2.0724137931	-3.17886178862	-1.248	-3.13636363636
378	0.189	-8.08965517241	5.31382113821	-1.248	-1.71704545455
379	0.1895	-6.63793103448	3.89837398374	-1.248	1.12159090909
380	0.19	-0.831034482759	3.89837398374	1.616	-5.975
381	0.1905	-0.831034482759	2.48292682927	-1.248	-11.6522727273
382	0.191	-0.831034482759	6.72926829268	-4.112	-5.975
383	0.1915	0.620689655172	1.0674796748	1.616	-1.71704545455
384	0.192	0.620689655172	-1.76341463415	1.616	-1.71704545455
385	0.1925	2.0724137931	-7.42520325203	1.616	-4.55568181818
386	0.193	-6.63793103448	2.48292682927	4.48	-4.55568181818
387	0.1935	18.0413793103	2.48292682927	1.616	-14.4909090909
388	0.194	0.620689655172	2.48292682927	4.48	13.8954545455
389	0.1945	0.620689655172	1.0674796748	7.344	-3.13636363636
390	0.195	-0.831034482759	1.0674796748	-5.544	-5.975
391	0.1955	0.620689655172	5.31382113821	1.616	-4.55568181818
392	0.196	-0.831034482759	-7.42520325203	3.048	-5.975
393	0.1965	2.0724137931	1.0674796748	3.048	-4.55568181818
394	0.197	-10.9931034483	-1.76341463415	4.48	-3.13636363636
395	0.1975	2.0724137931	2.48292682927	5.912	-10.2329545455
396	0.198	-3.73448275862	1.0674796748	3.048	-1.71704545455
397	0.1985	3.52413793103	2.48292682927	1.616	-10.2329545455
398	0.199	2.0724137931	2.48292682927	4.48	-3.13636363636
399	0.1995	-0.831034482759	1.0674796748	15.936	-5.975
400	0.2	0.620689655172	-4.59430894309	1.616	-4.55568181818
401	0.2005	3.52413793103	20.8837398374	4.48	-4.55568181818
402	0.201	-2.28275862069	1.0674796748	3.048	-1.71704545455
403	0.2015	18.0413793103	3.89837398374	3.048	-4.55568181818
404	0.202	2.0724137931	2.48292682927	3.048	-3.13636363636
405	0.2025	-5.18620689655	1.0674796748	4.48	-1.71704545455
406	0.203	-0.831034482759	1.0674796748	0.184	-4.55568181818
407	0.2035	-0.831034482759	5.31382113821	21.664	-4.55568181818
408	0.204	0.620689655172	1.0674796748	5.912	-1.71704545455
409	0.2045	2.0724137931	22.2991869919	5.912	-1.71704545455
410	0.205	-2.28275862069	2.48292682927	5.912	-0.297727272727
411	0.2055	-12.4448275862	3.89837398374	5.912	-4.55568181818
412	0.206	15.1379310345	3.89837398374	1.616	-13.0715909091
413	0.2065	-2.28275862069	3.89837398374	3.048	-1.71704545455
414	0.207	0.620689655172	3.89837398374	3.048	8.21818181818
415	0.2075	0.620689655172	1.0674796748	0.184	-10.2329545455
416	0.208	-0.831034482759	2.48292682927	-2.68	-1.71704545455
417	0.2085	-0.831034482759	8.14471544715	4.48	-3.13636363636
418	0.209	0.620689655172	19.4682926829	0.184	-1.71704545455
419	0.2095	3.52413793103	3.89837398374	1.616	-3.13636363636
420	0.21	-8.08965517241	5.31382113821	3.048	-3.13636363636
421	0.2105	15.1379310345	5.31382113821	0.184	-0.297727272727
422	0.211	0.620689655172	2.48292682927	5.912	-13.0715909091
423	0.2115	0.620689655172	1.0674796748	-9.84	-3.13636363636
424	0.212	2.0724137931	3.89837398374	18.8	-3.13636363636
425	0.2125	0.620689655172	1.0674796748	-2.68	-3.13636363636
426	0.213	3.52413793103	10.9756097561	3.048	-1.71704545455
427	0.2135	0.620689655172	-3.17886178862	1.616	-4.55568181818
428	0.214	-0.831034482759	3.89837398374	1.616	-4.55568181818
429	0.2145	-5.18620689655	3.89837398374	0.184	-1.71704545455
430	0.215	-6.63793103448	3.89837398374	4.48	-14.4909090909
431	0.2155	3.52413793103	2.48292682927	-1.248	6.79886363636
432	0.216	0.620689655172	2.48292682927	17.368	-3.13636363636
433	0.2165	0.620689655172	1.0674796748	-1.248	-1.71704545455
434	0.217	2.0724137931	-3.17886178862	1.616	-1.71704545455
435	0.2175	0.620689655172	6.72926829268	1.616	-1.71704545455
436	0.218	3.52413793103	2.48292682927	3.048	-0.297727272727
437	0.2185	-5.18620689655	5.31382113821	4.48	-4.55568181818
438	0.219	20.9448275862	2.48292682927	3.048	-0.297727272727
439	0.2195	-0.831034482759	1.0674796748	5.912	-13.0715909091
440	0.22	-0.831034482759	5.31382113821	-8.408	-4.55568181818
441	0.2205	-2.28275862069	3.89837398374	1.616	-3.13636363636
442	0.221	-0.831034482759	6.72926829268	-1.248	-1.71704545455
443	0.2215	2.0724137931	-1.76341463415	1.616	-4.55568181818
444	0.222	-0.831034482759	-3.17886178862	0.184	-3.13636363636
445	0.2225	-2.28275862069	1.0674796748	0.184	-4.55568181818
446	0.223	18.0413793103	3.89837398374	3.048	1.12159090909
447	0.2235	-5.18620689655	1.0674796748	4.48	2.54090909091
448	0.224	0.620689655172	1.0674796748	1.616	11.0568181818
449	0.2245	0.620689655172	1.0674796748	3.048	-8.81363636364
450	0.225	0.620689655172	-0.347967479675	-5.544	-4.55568181818
451	0.2255	-0.831034482759	6.72926829268	3.048	-3.13636363636
452	0.226	2.0724137931	-4.59430894309	4.48	-3.13636363636
453	0.2265	-0.831034482759	13.806504065	3.048	-0.297727272727
454	0.227	0.620689655172	3.89837398374	3.048	-0.297727272727
455	0.2275	13.6862068966	3.89837398374	5.912	-3.13636363636
456	0.228	-8.08965517241	-0.347967479675	3.048	-0.297727272727
457	0.2285	0.620689655172	1.0674796748	8.776	-10.2329545455
458	0.229	-2.28275862069	-0.347967479675	-1.248	-0.297727272727
459	0.2295	0.620689655172	2.48292682927	0.184	-1.71704545455
460	0.23	2.0724137931	1.0674796748	11.64	-1.71704545455
461	0.2305	-0.831034482759	-4.59430894309	0.184	-3.13636363636
462	0.231	-0.831034482759	1.0674796748	3.048	-1.71704545455
463	0.2315	-6.63793103448	1.0674796748	1.616	-0.297727272727
464	0.232	-8.08965517241	2.48292682927	4.48	-13.0715909091
465	0.2325	-2.28275862069	-3.17886178862	1.616	12.4761363636
466	0.233	-0.831034482759	3.89837398374	20.232	-3.13636363636
467	0.2335	2.0724137931	1.0674796748	3.048	-1.71704545455
468	0.234	-2.28275862069	-7.42520325203	1.616	-1.71704545455
469	0.2345	0.620689655172	13.806504065	0.184	-3.13636363636
470	0.235	3.52413793103	9.56016260163	-1.248	-4.55568181818
471	0.2355	-3.73448275862	2.48292682927	4.48	-5.975
472	0.236	12.2344827586	1.0674796748	3.048	-3.13636363636
473	0.2365	-6.63793103448	-0.347967479675	1.616	-4.55568181818
474	0.237	0.620689655172	1.0674796748	0.184	13.8954545455
475	0.2375	0.620689655172	2.48292682927	1.616	-11.6522727273
476	0.238	0.620689655172	2.48292682927	-6.976	-3.13636363636
477	0.2385	2.0724137931	-7.42520325203	0.184	-4.55568181818
478	0.239	2.0724137931	-8.8406504065	-1.248	-0.297727272727
479	0.2395	4.97586206897	-89.5211382114	-1.248	8.21818181818
480	0.24	-12.4448275862	-78.1975609756	-1.248	1.12159090909
481	0.2405	-2.28275862069	-14.5024390244	-1.248	-0.297727272727
482	0.241	0.620689655172	6.72926829268	0.184	-0.297727272727
483	0.2415	2.0724137931	3.89837398374	-4.112	-3.13636363636
484	0.242	0.620689655172	1.0674796748	13.072	-3.13636363636
485	0.2425	0.620689655172	1.0674796748	-9.84	-3.13636363636
486	0.243	0.620689655172	18.0528455285	-1.248	-1.71704545455
487	0.2435	0.620689655172	-10.256097561	-1.248	-0.297727272727
488	0.244	4.97586206897	-68.2894308943	0.184	3.96022727273
489	0.2445	-3.73448275862	-99.4292682927	3.048	-7.39431818182
490	0.245	-5.18620689655	-27.2414634146	3.048	1.12159090909
491	0.2455	-0.831034482759	-0.347967479675	-1.248	-11.6522727273
492	0.246	-2.28275862069	-0.347967479675	-2.68	-5.975
493	0.2465	-2.28275862069	-0.347967479675	-6.976	-5.975
494	0.247	-0.831034482759	-3.17886178862	4.48	-4.55568181818
495	0.2475	2.0724137931	-13.0869918699	4.48	-7.39431818182
496	0.248	-2.28275862069	-3.17886178862	3.048	-8.81363636364
497	0.2485	-12.4448275862	-42.8113821138	5.912	-7.39431818182
498	0.249	19.4931034483	-114.999186992	4.48	-14.4909090909
499	0.2495	-0.831034482759	-47.0577235772	13.072	3.96022727273
500	0.25	-0.831034482759	-8.8406504065	8.776	-10.2329545455
501	0.2505	0.620689655172	-1.76341463415	5.912	-8.81363636364
502	0.251	-0.831034482759	-11.6715447154	3.048	-11.6522727273
503	0.2515	-0.831034482759	-14.5024390244	8.776	-8.81363636364
504	0.252	0.620689655172	-13.0869918699	7.344	-10.2329545455
505	0.2525	-0.831034482759	-1.76341463415	7.344	-13.0715909091
506	0.253	7.87931034483	-30.0723577236	7.344	-10.2329545455
507	0.2535	-5.18620689655	-123.491869919	11.64	8.21818181818
508	0.254	0.620689655172	-65.4585365854	10.208	-18.7488636364
509	0.2545	-0.831034482759	-17.3333333333	-2.68	-18.7488636364
510	0.255	0.620689655172	-6.00975609756	7.344	-14.4909090909
511	0.2555	-0.831034482759	-18.7487804878	8.776	-14.4909090909
512	0.256	-2.28275862069	-8.8406504065	5.912	-14.4909090909
513	0.2565	-5.18620689655	-13.0869918699	11.64	-14.4909090909
514	0.257	-5.18620689655	-14.5024390244	7.344	-14.4909090909
515	0.2575	-6.63793103448	-14.5024390244	5.912	-27.2647727273
516	0.258	0.620689655172	-15.9178861789	5.912	-13.0715909091
517	0.2585	0.620689655172	-17.3333333333	7.344	-20.1681818182
518	0.259	-0.831034482759	-18.7487804878	4.48	-15.9102272727
519	0.2595	-0.831034482759	-15.9178861789	5.912	-20.1681818182
520	0.26	0.620689655172	-27.2414634146	5.912	-18.7488636364
521	0.2605	2.0724137931	-1.76341463415	4.48	-23.0068181818
522	0.261	-15.3482758621	-22.9951219512	5.912	-20.1681818182
523	0.2615	12.2344827586	-21.5796747967	5.912	-21.5875
524	0.262	-8.08965517241	-20.1642276423	7.344	-28.6840909091
525	0.2625	0.620689655172	-21.5796747967	1.616	-24.4261363636
526	0.263	0.620689655172	-18.7487804878	-4.112	-18.7488636364
527	0.2635	-0.831034482759	-17.3333333333	17.368	-14.4909090909
528	0.264	-3.73448275862	-21.5796747967	7.344	-15.9102272727
529	0.2645	-3.73448275862	-17.3333333333	8.776	-13.0715909091
530	0.265	-0.831034482759	-22.9951219512	8.776	-13.0715909091
531	0.2655	2.0724137931	-10.256097561	11.64	-11.6522727273
532	0.266	-8.08965517241	-10.256097561	11.64	-13.0715909091
533	0.2665	-5.18620689655	-6.00975609756	13.072	-10.2329545455
534	0.267	-0.831034482759	-6.00975609756	5.912	-17.3295454545
535	0.2675	-3.73448275862	-1.76341463415	8.776	-10.2329545455
536	0.268	-2.28275862069	-4.59430894309	3.048	-10.2329545455
537	0.2685	-3.73448275862	-10.256097561	15.936	-11.6522727273
538	0.269	0.620689655172	-11.6715447154	15.936	-10.2329545455
539	0.2695	0.620689655172	-0.347967479675	15.936	-8.81363636364
540	0.27	-15.3482758621	1.0674796748	14.504	-8.81363636364
541	0.2705	-3.73448275862	-0.347967479675	18.8	-13.0715909091
542	0.271	-10.9931034483	3.89837398374	20.232	2.54090909091
543	0.2715	-2.28275862069	2.48292682927	33.12	-8.81363636364
544	0.272	-3.73448275862	3.89837398374	5.912	-8.81363636364
545	0.2725	-5.18620689655	5.31382113821	15.936	-11.6522727273
546	0.273	-5.18620689655	-8.8406504065	20.232	-8.81363636364
547	0.2735	-2.28275862069	3.89837398374	17.368	-11.6522727273
548	0.274	-13.8965517241	5.31382113821	18.8	-11.6522727273
549	0.2745	-6.63793103448	5.31382113821	17.368	-10.2329545455
550	0.275	-12.4448275862	8.14471544715	18.8	-23.0068181818
551	0.2755	-3.73448275862	5.31382113821	15.936	-15.9102272727
552	0.276	-2.28275862069	6.72926829268	20.232	5.37954545455
553	0.2765	-0.831034482759	6.72926829268	7.344	-0.297727272727
554	0.277	-2.28275862069	20.8837398374	17.368	-7.39431818182
555	0.2775	0.620689655172	10.9756097561	15.936	-7.39431818182
556	0.278	-5.18620689655	-0.347967479675	20.232	-4.55568181818
557	0.2785	-8.08965517241	8.14471544715	20.232	-8.81363636364
558	0.279	12.2344827586	6.72926829268	20.232	-3.13636363636
559	0.2795	-2.28275862069	6.72926829268	24.528	-14.4909090909
560	0.28	-2.28275862069	6.72926829268	7.344	-4.55568181818
561	0.2805	-2.28275862069	8.14471544715	31.688	-4.55568181818
562	0.281	-2.28275862069	5.31382113821	15.936	-4.55568181818
563	0.2815	2.0724137931	23.7146341463	17.368	-4.55568181818
564	0.282	-3.73448275862	5.31382113821	15.936	-7.39431818182
565	0.2825	-12.4448275862	6.72926829268	15.936	-7.39431818182
566	0.283	9.33103448276	8.14471544715	14.504	-8.81363636364
567	0.2835	-5.18620689655	8.14471544715	15.936	-7.39431818182
568	0.284	-0.831034482759	9.56016260163	14.504	-13.0715909091
569	0.2845	0.620689655172	8.14471544715	17.368	11.0568181818
570	0.285	-0.831034482759	3.89837398374	7.344	-3.13636363636
571	0.2855	-2.28275862069	10.9756097561	15.936	-5.975
572	0.286	-2.28275862069	23.7146341463	13.072	-1.71704545455
573	0.2865	0.620689655172	8.14471544715	14.504	-1.71704545455
574	0.287	-12.4448275862	8.14471544715	13.072	1.12159090909
575	0.2875	-3.73448275862	9.56016260163	14.504	-8.81363636364
576	0.288	-5.18620689655	8.14471544715	10.208	3.96022727273
577	0.2885	0.620689655172	6.72926829268	14.504	-4.55568181818
578	0.289	0.620689655172	5.31382113821	21.664	-0.297727272727
579	0.2895	-2.28275862069	6.72926829268	1.616	-8.81363636364
580	0.29	-0.831034482759	20.8837398374	10.208	-1.71704545455
581	0.2905	-2.28275862069	-1.76341463415	11.64	-0.297727272727
582	0.291	2.0724137931	5.31382113821	8.776	-0.297727272727
583	0.2915	-6.63793103448	5.31382113821	11.64	-13.0715909091
584	0.292	-5.18620689655	3.89837398374	7.344	-0.297727272727
585	0.2925	-0.831034482759	5.31382113821	0.184	-4.55568181818
586	0.293	-0.831034482759	6.72926829268	7.344	-1.71704545455
587	0.2935	-2.28275862069	3.89837398374	-1.248	-1.71704545455
588	0.294	-0.831034482759	-1.76341463415	5.912	-0.297727272727
589	0.2945	2.0724137931	-3.17886178862	5.912	-1.71704545455
590	0.295	0.620689655172	5.31382113821	4.48	-0.297727272727
591	0.2955	-10.9931034483	2.48292682927	4.48	1.12159090909
592	0.296	-6.63793103448	2.48292682927	7.344	-11.6522727273
593	0.2965	-3.73448275862	-0.347967479675	4.48	-0.297727272727
594	0.297	-0.831034482759	3.89837398374	15.936	-4.55568181818
595	0.2975	-2.28275862069	2.48292682927	3.048	-0.297727272727
596	0.298	-3.73448275862	-3.17886178862	4.48	-1.71704545455
597	0.2985	0.620689655172	-1.76341463415	8.776	2.54090909091
598	0.299	-0.831034482759	22.2991869919	4.48	-1.71704545455
599	0.2995	2.0724137931	3.89837398374	4.48	-1.71704545455
600	0.3	-12.4448275862	5.31382113821	3.048	-0.297727272727
601	0.3005	-0.831034482759	3.89837398374	1.616	16.7340909091
602	0.301	0.620689655172	3.89837398374	7.344	-3.13636363636
603	0.3015	0.620689655172	2.48292682927	15.936	-0.297727272727
604	0.302	-2.28275862069	6.72926829268	7.344	1.12159090909
605	0.3025	0.620689655172	16.637398374	5.912	-3.13636363636
606	0.303	0.620689655172	8.14471544715	1.616	-0.297727272727
607	0.3035	0.620689655172	1.0674796748	0.184	-0.297727272727
608	0.304	12.2344827586	5.31382113821	0.184	1.12159090909
609	0.3045	-6.63793103448	6.72926829268	1.616	18.1534090909
610	0.305	0.620689655172	6.72926829268	0.184	-8.81363636364
611	0.3055	2.0724137931	6.72926829268	-6.976	-1.71704545455
612	0.306	0.620689655172	9.56016260163	18.8	1.12159090909
613	0.3065	0.620689655172	12.3910569106	-8.408	1.12159090909
614	0.307	0.620689655172	-6.00975609756	-1.248	-0.297727272727
615	0.3075	2.0724137931	5.31382113821	1.616	1.12159090909
616	0.308	-10.9931034483	5.31382113821	3.048	3.96022727273
617	0.3085	-2.28275862069	6.72926829268	0.184	-7.39431818182
618	0.309	-0.831034482759	8.14471544715	-1.248	2.54090909091
619	0.3095	-0.831034482759	3.89837398374	1.616	2.54090909091
620	0.31	2.0724137931	6.72926829268	-8.408	-3.13636363636
621	0.3105	0.620689655172	6.72926829268	-4.112	2.54090909091
622	0.311	-0.831034482759	-0.347967479675	-1.248	-1.71704545455
623	0.3115	0.620689655172	-0.347967479675	-1.248	-0.297727272727
624	0.312	0.620689655172	6.72926829268	-2.68	1.12159090909
625	0.3125	-12.4448275862	3.89837398374	-2.68	3.96022727273
626	0.313	-3.73448275862	6.72926829268	-1.248	-11.6522727273
627	0.3135	-0.831034482759	5.31382113821	-6.976	-0.297727272727
628	0.314	0.620689655172	2.48292682927	-1.248	3.96022727273
629	0.3145	2.0724137931	5.31382113821	-9.84	6.79886363636
630	0.315	3.52413793103	13.806504065	-5.544	1.12159090909
631	0.3155	2.0724137931	13.806504065	-4.112	-1.71704545455
632	0.316	0.620689655172	5.31382113821	-4.112	1.12159090909
633	0.3165	-2.28275862069	3.89837398374	-4.112	2.54090909091
634	0.317	15.1379310345	6.72926829268	-2.68	5.37954545455
635	0.3175	2.0724137931	6.72926829268	1.616	-4.55568181818
636	0.318	0.620689655172	2.48292682927	-12.704	-0.297727272727
637	0.3185	2.0724137931	8.14471544715	3.048	-1.71704545455
638	0.319	-0.831034482759	3.89837398374	-8.408	-1.71704545455
639	0.3195	-2.28275862069	9.56016260163	-4.112	2.54090909091
640	0.32	-0.831034482759	-1.76341463415	-2.68	2.54090909091
641	0.3205	-8.08965517241	5.31382113821	-4.112	2.54090909091
642	0.321	4.97586206897	6.72926829268	-1.248	1.12159090909
643	0.3215	-8.08965517241	5.31382113821	-1.248	3.96022727273
644	0.322	0.620689655172	8.14471544715	-1.248	-3.13636363636
645	0.3225	-0.831034482759	6.72926829268	-11.272	2.54090909091
646	0.323	2.0724137931	6.72926829268	4.48	1.12159090909
647	0.3235	-0.831034482759	5.31382113821	-2.68	2.54090909091
648	0.324	0.620689655172	25.1300813008	-4.112	1.12159090909
649	0.3245	-3.73448275862	1.0674796748	-5.544	1.12159090909
650	0.325	19.4931034483	3.89837398374	-4.112	2.54090909091
651	0.3255	0.620689655172	5.31382113821	-4.112	-0.297727272727
652	0.326	-5.18620689655	5.31382113821	-4.112	13.8954545455
653	0.3265	-0.831034482759	6.72926829268	-2.68	-8.81363636364
654	0.327	2.0724137931	5.31382113821	-11.272	-0.297727272727
655	0.3275	0.620689655172	6.72926829268	-4.112	-1.71704545455
656	0.328	0.620689655172	-6.00975609756	-1.248	-0.297727272727
657	0.3285	3.52413793103	5.31382113821	-1.248	2.54090909091
658	0.329	-10.9931034483	5.31382113821	-2.68	1.12159090909
659	0.3295	3.52413793103	2.48292682927	0.184	-1.71704545455
660	0.33	-3.73448275862	3.89837398374	-1.248	13.8954545455
661	0.3305	-0.831034482759	1.0674796748	0.184	-7.39431818182
662	0.331	-0.831034482759	3.89837398374	-8.408	-0.297727272727
663	0.3315	-0.831034482759	8.14471544715	-4.112	-0.297727272727
664	0.332	0.620689655172	-7.42520325203	0.184	-0.297727272727
665	0.3325	2.0724137931	8.14471544715	0.184	3.96022727273
666	0.333	2.0724137931	-1.76341463415	-2.68	2.54090909091
667	0.3335	12.2344827586	6.72926829268	0.184	2.54090909091
668	0.334	-9.54137931034	5.31382113821	0.184	16.7340909091
669	0.3345	2.0724137931	3.89837398374	1.616	-8.81363636364
670	0.335	0.620689655172	3.89837398374	-9.84	-0.297727272727
671	0.3355	0.620689655172	6.72926829268	0.184	-1.71704545455
672	0.336	-0.831034482759	-6.00975609756	-1.248	-0.297727272727
673	0.3365	0.620689655172	10.9756097561	-1.248	1.12159090909
674	0.337	-0.831034482759	1.0674796748	0.184	1.12159090909
675	0.3375	12.2344827586	5.31382113821	-1.248	1.12159090909
676	0.338	4.97586206897	5.31382113821	-2.68	-3.13636363636
677	0.3385	2.0724137931	3.89837398374	0.184	15.3147727273
678	0.339	-0.831034482759	3.89837398374	1.616	2.54090909091
679	0.3395	0.620689655172	6.72926829268	18.8	-0.297727272727
680	0.34	-0.831034482759	9.56016260163	0.184	-1.71704545455
681	0.3405	2.0724137931	20.8837398374	-2.68	1.12159090909
682	0.341	2.0724137931	2.48292682927	0.184	-1.71704545455
683	0.3415	3.52413793103	2.48292682927	-2.68	2.54090909091
684	0.342	16.5896551724	5.31382113821	0.184	-0.297727272727
685	0.3425	3.52413793103	3.89837398374	-1.248	-0.297727272727
686	0.343	0.620689655172	5.31382113821	-4.112	-7.39431818182
687	0.3435	0.620689655172	5.31382113821	-8.408	1.12159090909
688	0.344	0.620689655172	6.72926829268	-9.84	-1.71704545455
689	0.3445	-0.831034482759	8.14471544715	-2.68	-0.297727272727
690	0.345	0.620689655172	-7.42520325203	1.616	-0.297727272727
691	0.3455	-0.831034482759	-1.76341463415	1.616	-0.297727272727
692	0.346	-6.63793103448	1.0674796748	1.616	2.54090909091
693	0.3465	-6.63793103448	1.0674796748	0.184	-1.71704545455
694	0.347	0.620689655172	2.48292682927	1.616	12.4761363636
695	0.3475	0.620689655172	2.48292682927	0.184	-0.297727272727
696	0.348	0.620689655172	3.89837398374	8.776	-0.297727272727
697	0.3485	2.0724137931	2.48292682927	-1.248	-1.71704545455
698	0.349	3.52413793103	18.0528455285	-1.248	-0.297727272727
699	0.3495	-0.831034482759	-4.59430894309	-1.248	-0.297727272727
700	0.35	0.620689655172	1.0674796748	1.616	-1.71704545455
701	0.3505	15.1379310345	2.48292682927	-1.248	2.54090909091
702	0.351	-0.831034482759	3.89837398374	0.184	-10.2329545455
703	0.3515	0.620689655172	2.48292682927	-12.704	1.12159090909
704	0.352	-0.831034482759	3.89837398374	14.504	-3.13636363636
705	0.3525	-0.831034482759	3.89837398374	-2.68	-1.71704545455
706	0.353	3.52413793103	3.89837398374	-1.248	1.12159090909
707	0.3535	-2.28275862069	1.0674796748	0.184	-0.297727272727
708	0.354	-8.08965517241	3.89837398374	-1.248	-0.297727272727
709	0.3545	-2.28275862069	5.31382113821	0.184	3.96022727273
710	0.355	-6.63793103448	3.89837398374	3.048	-11.6522727273
711	0.3555	0.620689655172	6.72926829268	-12.704	-1.71704545455
712	0.356	0.620689655172	5.31382113821	14.504	-1.71704545455
713	0.3565	-0.831034482759	2.48292682927	-1.248	-0.297727272727
714	0.357	2.0724137931	-0.347967479675	-1.248	-0.297727272727
715	0.3575	2.0724137931	-0.347967479675	-1.248	1.12159090909
716	0.358	3.52413793103	3.89837398374	3.048	-0.297727272727
717	0.3585	-12.4448275862	1.0674796748	1.616	-1.71704545455
718	0.359	16.5896551724	2.48292682927	0.184	-7.39431818182
719	0.3595	-0.831034482759	5.31382113821	4.48	-1.71704545455
720	0.36	0.620689655172	5.31382113821	-1.248	12.4761363636
721	0.3605	0.620689655172	1.0674796748	3.048	-10.2329545455
722	0.361	3.52413793103	3.89837398374	-8.408	-1.71704545455
723	0.3615	0.620689655172	-10.256097561	-1.248	1.12159090909
724	0.362	3.52413793103	-4.59430894309	-2.68	-1.71704545455
725	0.3625	3.52413793103	-0.347967479675	0.184	1.12159090909
726	0.363	-3.73448275862	-0.347967479675	1.616	-8.81363636364
727	0.3635	-3.73448275862	2.48292682927	-2.68	3.96022727273
728	0.364	0.620689655172	2.48292682927	-8.408	-5.975
729	0.3645	-0.831034482759	6.72926829268	-5.544	-1.71704545455
730	0.365	0.620689655172	5.31382113821	-9.84	-0.297727272727
731	0.3655	0.620689655172	-3.17886178862	-4.112	-0.297727272727
732	0.366	2.0724137931	20.8837398374	-2.68	-1.71704545455
733	0.3665	0.620689655172	1.0674796748	-2.68	-1.71704545455
734	0.367	20.9448275862	3.89837398374	-5.544	-0.297727272727
735	0.3675	-8.08965517241	2.48292682927	-1.248	-7.39431818182
736	0.368	-0.831034482759	1.0674796748	-1.248	-7.39431818182
737	0.3685	0.620689655172	3.89837398374	-1.248	1.12159090909
738	0.369	2.0724137931	3.89837398374	-8.408	-0.297727272727
739	0.3695	0.620689655172	1.0674796748	-2.68	-1.71704545455
740	0.37	-0.831034482759	3.89837398374	-8.408	-1.71704545455
741	0.3705	0.620689655172	5.31382113821	-1.248	1.12159090909
742	0.371	-5.18620689655	6.72926829268	-1.248	-3.13636363636
743	0.3715	22.3965517241	5.31382113821	-1.248	2.54090909091
744	0.372	-0.831034482759	5.31382113821	1.616	-3.13636363636
745	0.3725	0.620689655172	6.72926829268	-12.704	-0.297727272727
746	0.373	0.620689655172	6.72926829268	-5.544	-0.297727272727
747	0.3735	0.620689655172	5.31382113821	-1.248	1.12159090909
748	0.374	0.620689655172	-4.59430894309	0.184	-1.71704545455
749	0.3745	4.97586206897	2.48292682927	0.184	-0.297727272727
750	0.375	-9.54137931034	3.89837398374	3.048	1.12159090909
751	0.3755	7.87931034483	1.0674796748	3.048	-4.55568181818
752	0.376	-5.18620689655	3.89837398374	0.184	-1.71704545455
753	0.3765	0.620689655172	5.31382113821	-1.248	8.21818181818
754	0.377	0.620689655172	5.31382113821	4.48	3.96022727273
755	0.3775	0.620689655172	6.72926829268	-5.544	-1.71704545455
756	0.378	-0.831034482759	-1.76341463415	1.616	1.12159090909
757	0.3785	-0.831034482759	-6.00975609756	-1.248	1.12159090909
758	0.379	2.0724137931	-0.347967479675	-1.248	-1.71704545455
759	0.3795	19.4931034483	3.89837398374	0.184	3.96022727273
760	0.38	-8.08965517241	5.31382113821	1.616	-3.13636363636
761	0.3805	0.620689655172	3.89837398374	0.184	18.1534090909
762	0.381	2.0724137931	5.31382113821	13.072	-1.71704545455
763	0.3815	2.0724137931	2.48292682927	-4.112	-0.297727272727
764	0.382	3.52413793103	-4.59430894309	1.616	-1.71704545455
765	0.3825	2.0724137931	10.9756097561	0.184	-0.297727272727
766	0.383	3.52413793103	3.89837398374	1.616	1.12159090909
767	0.3835	0.620689655172	3.89837398374	-1.248	-1.71704545455
768	0.384	18.0413793103	2.48292682927	1.616	3.96022727273
769	0.3845	3.52413793103	3.89837398374	3.048	-7.39431818182
770	0.385	2.0724137931	3.89837398374	-12.704	1.12159090909
771	0.3855	0.620689655172	8.14471544715	-2.68	2.54090909091
772	0.386	2.0724137931	9.56016260163	-4.112	1.12159090909
773	0.3865	0.620689655172	-0.347967479675	-1.248	2.54090909091
774	0.387	2.0724137931	-42.8113821138	-1.248	1.12159090909
775	0.3875	-5.18620689655	-106.506504065	-1.248	1.12159090909
776	0.388	15.1379310345	-31.487804878	0.184	-0.297727272727
777	0.3885	-12.4448275862	6.72926829268	1.616	-10.2329545455
778	0.389	0.620689655172	8.14471544715	-14.136	2.54090909091
779	0.3895	0.620689655172	9.56016260163	14.504	1.12159090909
780	0.39	0.620689655172	5.31382113821	-1.248	-0.297727272727
781	0.3905	0.620689655172	-4.59430894309	-1.248	-1.71704545455
782	0.391	0.620689655172	22.2991869919	-1.248	-0.297727272727
783	0.3915	-13.8965517241	-15.9178861789	-1.248	2.54090909091
784	0.392	18.0413793103	-103.675609756	-1.248	8.21818181818
785	0.3925	-5.18620689655	-39.9804878049	1.616	11.0568181818
786	0.393	0.620689655172	-0.347967479675	1.616	-3.13636363636
787	0.3935	0.620689655172	8.14471544715	-6.976	-4.55568181818
788	0.394	-0.831034482759	10.9756097561	-1.248	-1.71704545455
789	0.3945	-0.831034482759	-7.42520325203	-1.248	-0.297727272727
790	0.395	2.0724137931	-0.347967479675	-2.68	-0.297727272727
791	0.3955	-9.54137931034	3.89837398374	0.184	-1.71704545455
792	0.396	19.4931034483	-0.347967479675	-1.248	2.54090909091
793	0.3965	-2.28275862069	-103.675609756	0.184	5.37954545455
794	0.397	-0.831034482759	-69.7048780488	0.184	6.79886363636
795	0.3975	2.0724137931	-6.00975609756	0.184	-8.81363636364
796	0.398	0.620689655172	8.14471544715	-9.84	-0.297727272727
797	0.3985	3.52413793103	8.14471544715	0.184	-3.13636363636
798	0.399	3.52413793103	-6.00975609756	-1.248	-1.71704545455
799	0.3995	3.52413793103	3.89837398374	-1.248	-1.71704545455
800	0.4	-12.4448275862	6.72926829268	-1.248	-3.13636363636
801	0.4005	13.6862068966	2.48292682927	-2.68	-5.975
802	0.401	-0.831034482759	-73.9512195122	-4.112	8.21818181818
803	0.4015	-2.28275862069	-78.1975609756	-1.248	13.8954545455
804	0.402	0.620689655172	-11.6715447154	8.776	-0.297727272727
805	0.4025	2.0724137931	6.72926829268	1.616	-1.71704545455
806	0.403	-0.831034482759	2.48292682927	3.048	-0.297727272727
807	0.4035	0.620689655172	6.72926829268	0.184	-3.13636363636
808	0.404	3.52413793103	6.72926829268	-1.248	-0.297727272727
809	0.4045	20.9448275862	6.72926829268	-1.248	1.12159090909
810	0.405	3.52413793103	10.9756097561	0.184	-1.71704545455
811	0.4055	2.0724137931	8.14471544715	-1.248	15.3147727273
812	0.406	0.620689655172	13.806504065	15.936	-1.71704545455
813	0.4065	-0.831034482759	8.14471544715	-2.68	-0.297727272727
814	0.407	2.0724137931	1.0674796748	0.184	-0.297727272727
815	0.4075	0.620689655172	2.48292682927	1.616	-0.297727272727
816	0.408	0.620689655172	-3.17886178862	1.616	-1.71704545455
817	0.4085	7.87931034483	6.72926829268	0.184	1.12159090909
818	0.409	-5.18620689655	8.14471544715	0.184	-1.71704545455
819	0.4095	-5.18620689655	8.14471544715	0.184	13.8954545455
820	0.41	-0.831034482759	6.72926829268	0.184	-5.975
821	0.4105	-0.831034482759	9.56016260163	-11.272	-1.71704545455
822	0.411	0.620689655172	6.72926829268	-2.68	-0.297727272727
823	0.4115	2.0724137931	18.0528455285	0.184	-1.71704545455
824	0.412	0.620689655172	10.9756097561	-1.248	1.12159090909
825	0.4125	0.620689655172	-0.347967479675	-4.112	-1.71704545455
826	0.413	2.0724137931	5.31382113821	-2.68	-1.71704545455
827	0.4135	20.9448275862	5.31382113821	-1.248	3.96022727273
828	0.414	0.620689655172	2.48292682927	1.616	-10.2329545455
829	0.4145	2.0724137931	6.72926829268	-6.976	-1.71704545455
830	0.415	0.620689655172	8.14471544715	4.48	-1.71704545455
831	0.4155	3.52413793103	8.14471544715	-5.544	-3.13636363636
832	0.416	-0.831034482759	6.72926829268	-1.248	-1.71704545455
833	0.4165	0.620689655172	-0.347967479675	0.184	-1.71704545455
834	0.417	-2.28275862069	5.31382113821	1.616	-0.297727272727
835	0.4175	-10.9931034483	3.89837398374	4.48	-1.71704545455
836	0.418	-0.831034482759	3.89837398374	-1.248	-7.39431818182
837	0.4185	0.620689655172	5.31382113821	-11.272	-3.13636363636
838	0.419	2.0724137931	6.72926829268	13.072	-1.71704545455
839	0.4195	-0.831034482759	5.31382113821	1.616	-1.71704545455
840	0.42	0.620689655172	8.14471544715	0.184	-1.71704545455
841	0.4205	-3.73448275862	16.637398374	0.184	-0.297727272727
842	0.421	-0.831034482759	-3.17886178862	0.184	1.12159090909
843	0.4215	2.0724137931	5.31382113821	-1.248	-1.71704545455
844	0.422	-8.08965517241	5.31382113821	0.184	-0.297727272727
845	0.4225	2.0724137931	6.72926829268	-2.68	-0.297727272727
846	0.423	0.620689655172	3.89837398374	3.048	-1.71704545455
847	0.4235	2.0724137931	6.72926829268	-14.136	-4.55568181818
848	0.424	2.0724137931	13.806504065	-2.68	-3.13636363636
849	0.4245	0.620689655172	-6.00975609756	-2.68	-1.71704545455
850	0.425	0.620689655172	-3.17886178862	0.184	-1.71704545455
851	0.4255	-12.4448275862	6.72926829268	0.184	-0.297727272727
852	0.426	16.5896551724	6.72926829268	-1.248	1.12159090909
853	0.4265	-5.18620689655	3.89837398374	-1.248	12.4761363636
854	0.427	-0.831034482759	3.89837398374	-4.112	-7.39431818182
855	0.4275	0.620689655172	6.72926829268	3.048	-1.71704545455
856	0.428	0.620689655172	2.48292682927	-6.976	-1.71704545455
857	0.4285	3.52413793103	-3.17886178862	0.184	-1.71704545455
858	0.429	-2.28275862069	-0.347967479675	-1.248	-1.71704545455
859	0.4295	3.52413793103	10.9756097561	-1.248	-0.297727272727
860	0.43	-6.63793103448	6.72926829268	-1.248	-0.297727272727
861	0.4305	-0.831034482759	5.31382113821	0.184	-1.71704545455
862	0.431	4.97586206897	3.89837398374	-1.248	-8.81363636364
863	0.4315	2.0724137931	5.31382113821	-1.248	-1.71704545455
864	0.432	0.620689655172	3.89837398374	7.344	-1.71704545455
865	0.4325	2.0724137931	2.48292682927	-1.248	-1.71704545455
866	0.433	-0.831034482759	16.637398374	0.184	-0.297727272727
867	0.4335	0.620689655172	-7.42520325203	-1.248	-0.297727272727
868	0.434	2.0724137931	1.0674796748	-1.248	-0.297727272727
869	0.4345	-6.63793103448	2.48292682927	-4.112	-0.297727272727
870	0.435	-0.831034482759	3.89837398374	-1.248	15.3147727273
871	0.4355	2.0724137931	2.48292682927	1.616	-4.55568181818
872	0.436	2.0724137931	5.31382113821	-12.704	-0.297727272727
873	0.4365	0.620689655172	6.72926829268	-2.68	1.12159090909
874	0.437	-0.831034482759	-8.8406504065	-2.68	-1.71704545455
875	0.4375	3.52413793103	6.72926829268	-4.112	1.12159090909
876	0.438	-5.18620689655	1.0674796748	-1.248	-1.71704545455
877	0.4385	-3.73448275862	8.14471544715	-2.68	-0.297727272727
878	0.439	-2.28275862069	6.72926829268	0.184	-7.39431818182
879	0.4395	2.0724137931	6.72926829268	-12.704	-1.71704545455
880	0.44	-0.831034482759	8.14471544715	15.936	-1.71704545455
881	0.4405	-0.831034482759	3.89837398374	-2.68	1.12159090909
882	0.441	-0.831034482759	-7.42520325203	-1.248	-0.297727272727
883	0.4415	-0.831034482759	2.48292682927	0.184	1.12159090909
884	0.442	3.52413793103	6.72926829268	0.184	-0.297727272727
885	0.4425	0.620689655172	5.31382113821	3.048	-3.13636363636
886	0.443	19.4931034483	3.89837398374	3.048	-1.71704545455
887	0.4435	-0.831034482759	5.31382113821	4.48	13.8954545455
888	0.444	0.620689655172	3.89837398374	11.64	-0.297727272727
889	0.4445	0.620689655172	5.31382113821	14.504	-0.297727272727
890	0.445	0.620689655172	3.89837398374	1.616	-1.71704545455
891	0.4455	-0.831034482759	-6.00975609756	0.184	-1.71704545455
892	0.446	-0.831034482759	20.8837398374	1.616	2.54090909091
893	0.4465	3.52413793103	6.72926829268	1.616	-1.71704545455
894	0.447	7.87931034483	2.48292682927	0.184	-1.71704545455
895	0.4475	2.0724137931	1.0674796748	0.184	11.0568181818
896	0.448	0.620689655172	5.31382113821	3.048	-1.71704545455
897	0.4485	0.620689655172	3.89837398374	14.504	-3.13636363636
898	0.449	0.620689655172	2.48292682927	-8.408	-3.13636363636
899	0.4495	2.0724137931	3.89837398374	0.184	-3.13636363636
900	0.45	0.620689655172	-6.00975609756	-1.248	-1.71704545455
901	0.4505	0.620689655172	18.0528455285	0.184	-0.297727272727
902	0.451	20.9448275862	2.48292682927	0.184	-11.6522727273
903	0.4515	2.0724137931	1.0674796748	-4.112	15.3147727273
904	0.452	0.620689655172	2.48292682927	0.184	12.4761363636
905	0.4525	-0.831034482759	1.0674796748	-4.112	-0.297727272727
906	0.453	2.0724137931	3.89837398374	3.048	-0.297727272727
907	0.4535	2.0724137931	-0.347967479675	0.184	-0.297727272727
908	0.454	0.620689655172	18.0528455285	0.184	-1.71704545455
909	0.4545	-0.831034482759	-3.17886178862	0.184	-1.71704545455
910	0.455	16.5896551724	3.89837398374	-1.248	1.12159090909
911	0.4555	-10.9931034483	3.89837398374	1.616	13.8954545455
912	0.456	-2.28275862069	3.89837398374	1.616	-10.2329545455
913	0.4565	0.620689655172	2.48292682927	-9.84	-1.71704545455
914	0.457	-2.28275862069	-1.76341463415	18.8	-1.71704545455
915	0.4575	-0.831034482759	-8.8406504065	0.184	-0.297727272727
916	0.458	2.0724137931	22.2991869919	0.184	-3.13636363636
917	0.4585	-3.73448275862	1.0674796748	-1.248	2.54090909091
918	0.459	12.2344827586	1.0674796748	-1.248	-1.71704545455
919	0.4595	2.0724137931	1.0674796748	3.048	-1.71704545455
920	0.46	-0.831034482759	1.0674796748	1.616	5.37954545455
921	0.4605	-0.831034482759	-1.76341463415	-4.112	-1.71704545455
922	0.461	0.620689655172	2.48292682927	1.616	-8.81363636364
923	0.4615	0.620689655172	-1.76341463415	0.184	-1.71704545455
924	0.462	0.620689655172	-1.76341463415	-1.248	-0.297727272727
925	0.4625	-2.28275862069	1.0674796748	0.184	-0.297727272727
926	0.463	0.620689655172	1.0674796748	1.616	-1.71704545455
927	0.4635	-5.18620689655	1.0674796748	3.048	-7.39431818182
928	0.464	2.0724137931	1.0674796748	0.184	-10.2329545455
929	0.4645	3.52413793103	1.0674796748	0.184	-0.297727272727
930	0.465	3.52413793103	1.0674796748	-2.68	-0.297727272727
931	0.4655	2.0724137931	-6.00975609756	1.616	-3.13636363636
932	0.466	2.0724137931	3.89837398374	3.048	-0.297727272727
933	0.4665	2.0724137931	-4.59430894309	1.616	-0.297727272727
934	0.467	9.33103448276	1.0674796748	0.184	-1.71704545455
935	0.4675	0.620689655172	1.0674796748	0.184	3.96022727273
936	0.468	2.0724137931	-0.347967479675	1.616	1.12159090909
937	0.4685	-0.831034482759	2.48292682927	-1.248	-1.71704545455
938	0.469	0.620689655172	1.0674796748	4.48	-0.297727272727
939	0.4695	2.0724137931	-6.00975609756	3.048	-0.297727272727
940	0.47	0.620689655172	8.14471544715	1.616	2.54090909091
941	0.4705	3.52413793103	5.31382113821	0.184	-1.71704545455
942	0.471	-9.54137931034	5.31382113821	1.616	1.12159090909
943	0.4715	-0.831034482759	3.89837398374	4.48	-8.81363636364
944	0.472	0.620689655172	1.0674796748	-1.248	-0.297727272727
945	0.4725	-0.831034482759	5.31382113821	17.368	-5.975
946	0.473	0.620689655172	2.48292682927	-8.408	2.54090909091
947	0.4735	-0.831034482759	5.31382113821	-2.68	-1.71704545455
948	0.474	2.0724137931	-8.8406504065	-2.68	-1.71704545455
949	0.4745	-3.73448275862	-11.6715447154	0.184	1.12159090909
950	0.475	-10.9931034483	-106.506504065	0.184	-4.55568181818
951	0.4755	18.0413793103	-59.7967479675	-1.248	1.12159090909
952	0.476	0.620689655172	-4.59430894309	3.048	-13.0715909091
953	0.4765	0.620689655172	3.89837398374	-8.408	-7.39431818182
954	0.477	0.620689655172	5.31382113821	14.504	-1.71704545455
955	0.4775	2.0724137931	-6.00975609756	4.48	-1.71704545455
956	0.478	0.620689655172	8.14471544715	0.184	-1.71704545455
957	0.4785	0.620689655172	6.72926829268	1.616	-3.13636363636
958	0.479	2.0724137931	1.0674796748	0.184	-1.71704545455
959	0.4795	10.7827586207	-88.1056910569	0.184	-3.13636363636
960	0.48	-3.73448275862	-83.8593495935	0.184	8.21818181818
961	0.4805	4.97586206897	-14.5024390244	0.184	-10.2329545455
962	0.481	0.620689655172	5.31382113821	-8.408	-1.71704545455
963	0.4815	3.52413793103	3.89837398374	15.936	-3.13636363636
964	0.482	3.52413793103	-6.00975609756	0.184	-3.13636363636
965	0.4825	0.620689655172	2.48292682927	4.48	-1.71704545455
966	0.483	3.52413793103	-7.42520325203	0.184	-3.13636363636
967	0.4835	-8.08965517241	1.0674796748	0.184	-1.71704545455
968	0.484	0.620689655172	-61.212195122	-2.68	-11.6522727273
969	0.4845	0.620689655172	-100.844715447	-11.272	-4.55568181818
970	0.485	0.620689655172	-20.1642276423	17.368	-1.71704545455
971	0.4855	2.0724137931	3.89837398374	-6.976	2.54090909091
972	0.486	0.620689655172	10.9756097561	1.616	-0.297727272727
973	0.4865	-0.831034482759	9.56016260163	0.184	-3.13636363636
974	0.487	2.0724137931	3.89837398374	0.184	-1.71704545455
975	0.4875	-5.18620689655	2.48292682927	0.184	-1.71704545455
976	0.488	-6.63793103448	3.89837398374	1.616	-7.39431818182
977	0.4885	0.620689655172	-31.487804878	4.48	-1.71704545455
978	0.489	-0.831034482759	-107.92195122	-9.84	-1.71704545455
979	0.4895	0.620689655172	-30.0723577236	15.936	-5.975
980	0.49	-0.831034482759	-7.42520325203	-1.248	-3.13636363636
981	0.4905	2.0724137931	27.9609756098	0.184	-3.13636363636
982	0.491	-5.18620689655	5.31382113821	0.184	-3.13636363636
983	0.4915	19.4931034483	2.48292682927	3.048	-0.297727272727
984	0.492	-10.9931034483	5.31382113821	0.184	-4.55568181818
985	0.4925	3.52413793103	3.89837398374	3.048	-1.71704545455
986	0.493	0.620689655172	5.31382113821	14.504	-1.71704545455
987	0.4935	-0.831034482759	2.48292682927	-5.544	-3.13636363636
988	0.494	0.620689655172	3.89837398374	1.616	-1.71704545455
989	0.4945	-2.28275862069	16.637398374	0.184	-1.71704545455
990	0.495	-2.28275862069	1.0674796748	0.184	-4.55568181818
991	0.4955	-5.18620689655	2.48292682927	-1.248	-4.55568181818
992	0.496	16.5896551724	3.89837398374	-1.248	-13.0715909091
993	0.4965	-2.28275862069	8.14471544715	-5.544	15.3147727273
994	0.497	-2.28275862069	3.89837398374	15.936	-4.55568181818
995	0.4975	0.620689655172	3.89837398374	-8.408	-5.975
996	0.498	0.620689655172	9.56016260163	-1.248	-1.71704545455
997	0.4985	0.620689655172	18.0528455285	-1.248	-4.55568181818
998	0.499	0.620689655172	2.48292682927	1.616	-1.71704545455
999	0.4995	-6.63793103448	-1.76341463415	-1.248	-4.55568181818
1000	0.5	-5.18620689655	3.89837398374	-1.248	-1.71704545455
1001	0.5005	0.620689655172	3.89837398374	-2.68	13.8954545455
1002	0.501	-0.831034482759	2.48292682927	3.048	-4.55568181818
1003	0.5015	-0.831034482759	2.48292682927	11.64	-1.71704545455
1004	0.502	0.620689655172	2.48292682927	4.48	-3.13636363636
1005	0.5025	0.620689655172	10.9756097561	0.184	-3.13636363636
1006	0.503	0.620689655172	8.14471544715	-1.248	-4.55568181818
1007	0.5035	-0.831034482759	-1.76341463415	0.184	-3.13636363636
1008	0.504	0.620689655172	5.31382113821	1.616	-3.13636363636
1009	0.5045	-8.08965517241	6.72926829268	1.616	-3.13636363636
1010	0.505	-0.831034482759	8.14471544715	-1.248	-15.9102272727
1011	0.5055	-0.831034482759	6.72926829268	0.184	8.21818181818
1012	0.506	-0.831034482759	5.31382113821	-8.408	-7.39431818182
1013	0.5065	-0.831034482759	9.56016260163	18.8	-7.39431818182
1014	0.507	0.620689655172	1.0674796748	1.616	-1.71704545455
1015	0.5075	-0.831034482759	3.89837398374	-1.248	-1.71704545455
1016	0.508	-13.8965517241	8.14471544715	0.184	-4.55568181818
1017	0.5085	3.52413793103	5.31382113821	1.616	-1.71704545455
1018	0.509	-2.28275862069	3.89837398374	0.184	-13.0715909091
1019	0.5095	-2.28275862069	6.72926829268	0.184	2.54090909091
1020	0.51	-2.28275862069	9.56016260163	14.504	-4.55568181818
1021	0.5105	0.620689655172	9.56016260163	1.616	-1.71704545455
1022	0.511	-0.831034482759	-7.42520325203	0.184	-1.71704545455
1023	0.5115	0.620689655172	-0.347967479675	0.184	-1.71704545455
1024	0.512	-15.3482758621	2.48292682927	0.184	-5.975
1025	0.5125	18.0413793103	6.72926829268	1.616	-10.2329545455
1026	0.513	0.620689655172	2.48292682927	3.048	12.4761363636
1027	0.5135	2.0724137931	2.48292682927	1.616	-8.81363636364
1028	0.514	-0.831034482759	3.89837398374	-4.112	-4.55568181818
1029	0.5145	0.620689655172	-1.76341463415	3.048	-4.55568181818
1030	0.515	0.620689655172	8.14471544715	3.048	-3.13636363636
1031	0.5155	-0.831034482759	18.0528455285	4.48	-5.975
1032	0.516	-0.831034482759	2.48292682927	3.048	-1.71704545455
1033	0.5165	10.7827586207	5.31382113821	3.048	-1.71704545455
1034	0.517	-10.9931034483	5.31382113821	1.616	-13.0715909091
1035	0.5175	-0.831034482759	3.89837398374	3.048	-8.81363636364
1036	0.518	2.0724137931	3.89837398374	5.912	15.3147727273
1037	0.5185	0.620689655172	5.31382113821	-8.408	-4.55568181818
1038	0.519	-3.73448275862	5.31382113821	0.184	-1.71704545455
1039	0.5195	-0.831034482759	1.0674796748	0.184	-3.13636363636
1040	0.52	-5.18620689655	5.31382113821	0.184	-3.13636363636
1041	0.5205	-2.28275862069	5.31382113821	-1.248	-1.71704545455
1042	0.521	3.52413793103	5.31382113821	-1.248	-7.39431818182
1043	0.5215	-2.28275862069	6.72926829268	1.616	-0.297727272727
1044	0.522	0.620689655172	5.31382113821	7.344	2.54090909091
1045	0.5225	-0.831034482759	6.72926829268	-1.248	-3.13636363636
1046	0.523	-3.73448275862	-3.17886178862	3.048	-3.13636363636
1047	0.5235	-0.831034482759	1.0674796748	3.048	-3.13636363636
1048	0.524	-2.28275862069	8.14471544715	4.48	-1.71704545455
1049	0.5245	16.5896551724	6.72926829268	3.048	-0.297727272727
1050	0.525	-8.08965517241	6.72926829268	4.48	-5.975
1051	0.5255	-0.831034482759	9.56016260163	1.616	8.21818181818
1052	0.526	-0.831034482759	6.72926829268	3.048	-8.81363636364
1053	0.5265	2.0724137931	8.14471544715	-2.68	-1.71704545455
1054	0.527	-0.831034482759	1.0674796748	4.48	-1.71704545455
1055	0.5275	-0.831034482759	13.806504065	3.048	-3.13636363636
1056	0.528	0.620689655172	3.89837398374	3.048	-4.55568181818
1057	0.5285	-10.9931034483	3.89837398374	1.616	-1.71704545455
1058	0.529	-0.831034482759	6.72926829268	3.048	-8.81363636364
1059	0.5295	0.620689655172	6.72926829268	3.048	-7.39431818182
1060	0.53	-2.28275862069	5.31382113821	-4.112	-1.71704545455
1061	0.5305	-2.28275862069	6.72926829268	-5.544	-4.55568181818
1062	0.531	-0.831034482759	9.56016260163	3.048	-4.55568181818
1063	0.5315	0.620689655172	-4.59430894309	1.616	-1.71704545455
1064	0.532	3.52413793103	2.48292682927	0.184	-1.71704545455
1065	0.5325	-5.18620689655	3.89837398374	1.616	-4.55568181818
1066	0.533	15.1379310345	5.31382113821	4.48	-4.55568181818
1067	0.5335	-6.63793103448	3.89837398374	1.616	12.4761363636
1068	0.534	-0.831034482759	5.31382113821	4.48	-8.81363636364
1069	0.5345	-3.73448275862	3.89837398374	-4.112	-4.55568181818
1070	0.535	-2.28275862069	8.14471544715	1.616	-3.13636363636
1071	0.5355	-0.831034482759	-6.00975609756	1.616	-3.13636363636
1072	0.536	0.620689655172	1.0674796748	3.048	-1.71704545455
1073	0.5365	-10.9931034483	6.72926829268	3.048	-5.975
1074	0.537	19.4931034483	5.31382113821	1.616	-14.4909090909
1075	0.5375	-3.73448275862	5.31382113821	0.184	5.37954545455
1076	0.538	-2.28275862069	5.31382113821	3.048	-5.975
1077	0.5385	-0.831034482759	3.89837398374	11.64	-1.71704545455
1078	0.539	-0.831034482759	6.72926829268	7.344	-3.13636363636
1079	0.5395	-2.28275862069	6.72926829268	3.048	-4.55568181818
1080	0.54	-0.831034482759	19.4682926829	4.48	-4.55568181818
1081	0.5405	-0.831034482759	-3.17886178862	1.616	-3.13636363636
1082	0.541	16.5896551724	3.89837398374	4.48	-3.13636363636
1083	0.5415	-10.9931034483	2.48292682927	8.776	13.8954545455
1084	0.542	-0.831034482759	3.89837398374	5.912	-10.2329545455
1085	0.5425	-2.28275862069	5.31382113821	-4.112	-4.55568181818
1086	0.543	-2.28275862069	2.48292682927	20.232	-4.55568181818
1087	0.5435	-3.73448275862	1.0674796748	-2.68	-5.975
1088	0.544	-3.73448275862	22.2991869919	1.616	-3.13636363636
1089	0.5445	-3.73448275862	-1.76341463415	3.048	-3.13636363636
1090	0.545	6.4275862069	-1.76341463415	4.48	-3.13636363636
1091	0.5455	-6.63793103448	5.31382113821	4.48	-11.6522727273
1092	0.546	-5.18620689655	3.89837398374	3.048	-5.975
1093	0.5465	0.620689655172	3.89837398374	-5.544	-4.55568181818
1094	0.547	2.0724137931	1.0674796748	7.344	-0.297727272727
1095	0.5475	-0.831034482759	6.72926829268	3.048	-3.13636363636
1096	0.548	0.620689655172	8.14471544715	1.616	-3.13636363636
1097	0.5485	0.620689655172	10.9756097561	1.616	-4.55568181818
1098	0.549	0.620689655172	2.48292682927	1.616	-3.13636363636
1099	0.5495	-3.73448275862	3.89837398374	3.048	-4.55568181818
1100	0.55	-12.4448275862	3.89837398374	3.048	-4.55568181818
1101	0.5505	-0.831034482759	5.31382113821	1.616	-13.0715909091
1102	0.551	-2.28275862069	2.48292682927	-8.408	-4.55568181818
1103	0.5515	-2.28275862069	3.89837398374	21.664	-3.13636363636
1104	0.552	-2.28275862069	-4.59430894309	4.48	-4.55568181818
1105	0.5525	-3.73448275862	8.14471544715	1.616	-3.13636363636
1106	0.553	-3.73448275862	5.31382113821	4.48	-3.13636363636
1107	0.5535	-8.08965517241	2.48292682927	4.48	-3.13636363636
1108	0.554	7.87931034483	3.89837398374	3.048	-3.13636363636
1109	0.5545	-9.54137931034	3.89837398374	4.48	12.4761363636
1110	0.555	0.620689655172	5.31382113821	3.048	-13.0715909091
1111	0.5555	-0.831034482759	5.31382113821	-4.112	-4.55568181818
1112	0.556	0.620689655172	3.89837398374	21.664	-4.55568181818
1113	0.5565	0.620689655172	-1.76341463415	4.48	-3.13636363636
1114	0.557	2.0724137931	22.2991869919	3.048	-3.13636363636
1115	0.5575	-2.28275862069	3.89837398374	4.48	-0.297727272727
1116	0.558	18.0413793103	5.31382113821	4.48	-5.975
1117	0.5585	-5.18620689655	3.89837398374	5.912	-0.297727272727
1118	0.559	-0.831034482759	2.48292682927	7.344	-13.0715909091
1119	0.5595	-2.28275862069	5.31382113821	7.344	8.21818181818
1120	0.56	0.620689655172	2.48292682927	-1.248	-4.55568181818
1121	0.5605	-0.831034482759	20.8837398374	3.048	-3.13636363636
1122	0.561	0.620689655172	-3.17886178862	3.048	-3.13636363636
1123	0.5615	2.0724137931	2.48292682927	3.048	-3.13636363636
1124	0.562	10.7827586207	5.31382113821	4.48	-1.71704545455
1125	0.5625	12.2344827586	1.0674796748	4.48	-4.55568181818
1126	0.563	0.620689655172	3.89837398374	0.184	12.4761363636
1127	0.5635	-2.28275862069	5.31382113821	4.48	-8.81363636364
1128	0.564	-3.73448275862	3.89837398374	-4.112	-3.13636363636
1129	0.5645	-2.28275862069	8.14471544715	0.184	-1.71704545455
1130	0.565	-2.28275862069	-4.59430894309	1.616	-3.13636363636
1131	0.5655	3.52413793103	5.31382113821	3.048	-3.13636363636
1132	0.566	-10.9931034483	5.31382113821	1.616	-0.297727272727
1133	0.5665	-8.08965517241	5.31382113821	4.48	-14.4909090909
1134	0.567	-0.831034482759	5.31382113821	-1.248	8.21818181818
1135	0.5675	0.620689655172	3.89837398374	4.48	-5.975
1136	0.568	0.620689655172	5.31382113821	-9.84	-5.975
1137	0.5685	0.620689655172	12.3910569106	0.184	-4.55568181818
1138	0.569	-0.831034482759	-3.17886178862	1.616	-4.55568181818
1139	0.5695	0.620689655172	8.14471544715	3.048	-3.13636363636
1140	0.57	-6.63793103448	1.0674796748	1.616	-4.55568181818
1141	0.5705	0.620689655172	6.72926829268	1.616	-8.81363636364
1142	0.571	-6.63793103448	6.72926829268	3.048	-7.39431818182
1143	0.5715	0.620689655172	6.72926829268	1.616	-11.6522727273
1144	0.572	0.620689655172	3.89837398374	17.368	-4.55568181818
1145	0.5725	2.0724137931	6.72926829268	-6.976	-11.6522727273
1146	0.573	2.0724137931	6.72926829268	4.48	-1.71704545455
1147	0.5735	-0.831034482759	1.0674796748	3.048	-1.71704545455
1148	0.574	-2.28275862069	6.72926829268	3.048	-3.13636363636
1149	0.5745	-9.54137931034	5.31382113821	1.616	-1.71704545455
1150	0.575	-9.54137931034	6.72926829268	1.616	-11.6522727273
1151	0.5755	0.620689655172	6.72926829268	1.616	-0.297727272727
1152	0.576	0.620689655172	5.31382113821	1.616	-8.81363636364
1153	0.5765	2.0724137931	3.89837398374	-5.544	-3.13636363636
1154	0.577	0.620689655172	9.56016260163	0.184	-4.55568181818
1155	0.5775	3.52413793103	-7.42520325203	0.184	-4.55568181818
1156	0.578	-3.73448275862	2.48292682927	1.616	-4.55568181818
1157	0.5785	-10.9931034483	6.72926829268	-1.248	-5.975
1158	0.579	2.0724137931	5.31382113821	0.184	-5.975
1159	0.5795	0.620689655172	8.14471544715	1.616	-11.6522727273
1160	0.58	3.52413793103	6.72926829268	0.184	13.8954545455
1161	0.5805	0.620689655172	3.89837398374	17.368	-3.13636363636
1162	0.581	-2.28275862069	3.89837398374	-2.68	-5.975
1163	0.5815	0.620689655172	6.72926829268	-1.248	-4.55568181818
1164	0.582	2.0724137931	9.56016260163	3.048	-3.13636363636
1165	0.5825	-0.831034482759	3.89837398374	3.048	-3.13636363636
1166	0.583	0.620689655172	1.0674796748	3.048	-3.13636363636
1167	0.5835	10.7827586207	2.48292682927	3.048	-4.55568181818
1168	0.584	0.620689655172	8.14471544715	3.048	5.37954545455
1169	0.5845	0.620689655172	5.31382113821	4.48	-3.13636363636
1170	0.585	0.620689655172	5.31382113821	-2.68	-3.13636363636
1171	0.5855	2.0724137931	-0.347967479675	4.48	-4.55568181818
1172	0.586	-0.831034482759	9.56016260163	3.048	-0.297727272727
1173	0.5865	0.620689655172	1.0674796748	4.48	-0.297727272727
1174	0.587	-3.73448275862	8.14471544715	4.48	1.12159090909
1175	0.5875	-8.08965517241	6.72926829268	4.48	-4.55568181818
1176	0.588	-0.831034482759	6.72926829268	3.048	11.0568181818
1177	0.5885	0.620689655172	6.72926829268	3.048	-1.71704545455
1178	0.589	-3.73448275862	5.31382113821	-2.68	-13.0715909091
1179	0.5895	-0.831034482759	3.89837398374	4.48	-1.71704545455
1180	0.59	-3.73448275862	2.48292682927	-4.112	-1.71704545455
1181	0.5905	-3.73448275862	8.14471544715	3.048	-1.71704545455
1182	0.591	-9.54137931034	3.89837398374	3.048	-3.13636363636
1183	0.5915	18.0413793103	2.48292682927	4.48	-13.0715909091
1184	0.592	-2.28275862069	5.31382113821	3.048	13.8954545455
1185	0.5925	-2.28275862069	3.89837398374	7.344	-8.81363636364
1186	0.593	-2.28275862069	1.0674796748	-1.248	-4.55568181818
1187	0.5935	-0.831034482759	8.14471544715	4.48	-3.13636363636
1188	0.594	0.620689655172	-7.42520325203	4.48	-3.13636363636
1189	0.5945	0.620689655172	-1.76341463415	5.912	-3.13636363636
1190	0.595	-8.08965517241	5.31382113821	4.48	-3.13636363636
1191	0.5955	7.87931034483	5.31382113821	3.048	-4.55568181818
1192	0.596	-8.08965517241	3.89837398374	3.048	-10.2329545455
1193	0.5965	0.620689655172	5.31382113821	0.184	13.8954545455
1194	0.597	0.620689655172	5.31382113821	15.936	-5.975
1195	0.5975	0.620689655172	1.0674796748	-6.976	-1.71704545455
1196	0.598	2.0724137931	5.31382113821	3.048	-3.13636363636
1197	0.5985	-2.28275862069	-6.00975609756	1.616	-5.975
1198	0.599	3.52413793103	3.89837398374	3.048	-1.71704545455
1199	0.5995	-13.8965517241	6.72926829268	3.048	-3.13636363636
1200	0.6	-6.63793103448	2.48292682927	4.48	-13.0715909091
1201	0.6005	3.52413793103	5.31382113821	-6.976	-5.975
1202	0.601	0.620689655172	5.31382113821	15.936	-1.71704545455
1203	0.6015	-0.831034482759	2.48292682927	0.184	-3.13636363636
1204	0.602	0.620689655172	-0.347967479675	5.912	-4.55568181818
1205	0.6025	-2.28275862069	2.48292682927	4.48	-3.13636363636
1206	0.603	-2.28275862069	20.8837398374	4.48	-3.13636363636
1207	0.6035	-9.54137931034	6.72926829268	4.48	-3.13636363636
1208	0.604	18.0413793103	6.72926829268	4.48	-3.13636363636
1209	0.6045	-12.4448275862	6.72926829268	7.344	12.4761363636
1210	0.605	-0.831034482759	6.72926829268	1.616	-13.0715909091
1211	0.6055	0.620689655172	6.72926829268	7.344	-3.13636363636
1212	0.606	-2.28275862069	-0.347967479675	4.48	-3.13636363636
1213	0.6065	0.620689655172	5.31382113821	3.048	-0.297727272727
1214	0.607	0.620689655172	20.8837398374	1.616	-1.71704545455
1215	0.6075	-0.831034482759	9.56016260163	3.048	-0.297727272727
1216	0.608	-13.8965517241	8.14471544715	3.048	-5.975
1217	0.6085	-5.18620689655	5.31382113821	3.048	-1.71704545455
1218	0.609	0.620689655172	6.72926829268	4.48	-8.81363636364
1219	0.6095	-0.831034482759	2.48292682927	-1.248	-4.55568181818
1220	0.61	-0.831034482759	6.72926829268	23.096	-4.55568181818
1221	0.6105	-0.831034482759	1.0674796748	0.184	-3.13636363636
1222	0.611	0.620689655172	19.4682926829	1.616	-3.13636363636
1223	0.6115	-0.831034482759	1.0674796748	3.048	-3.13636363636
1224	0.612	2.0724137931	15.2219512195	1.616	-4.55568181818
1225	0.6125	15.1379310345	1.0674796748	0.184	-11.6522727273
1226	0.613	0.620689655172	1.0674796748	0.184	15.3147727273
1227	0.6135	2.0724137931	1.0674796748	7.344	-10.2329545455
1228	0.614	0.620689655172	1.0674796748	-9.84	-1.71704545455
1229	0.6145	-0.831034482759	3.89837398374	-5.544	-4.55568181818
1230	0.615	-3.73448275862	-8.8406504065	1.616	-4.55568181818
1231	0.6155	0.620689655172	-3.17886178862	-1.248	-1.71704545455
1232	0.616	-2.28275862069	1.0674796748	3.048	-7.39431818182
1233	0.6165	15.1379310345	1.0674796748	4.48	-3.13636363636
1234	0.617	-8.08965517241	3.89837398374	3.048	5.37954545455
1235	0.6175	-0.831034482759	2.48292682927	4.48	2.54090909091
1236	0.618	-0.831034482759	6.72926829268	-1.248	-4.55568181818
1237	0.6185	-0.831034482759	3.89837398374	11.64	-3.13636363636
1238	0.619	-2.28275862069	-1.76341463415	-4.112	-4.55568181818
1239	0.6195	2.0724137931	13.806504065	0.184	-4.55568181818
1240	0.62	-3.73448275862	-1.76341463415	3.048	-4.55568181818
1241	0.6205	-2.28275862069	5.31382113821	0.184	-4.55568181818
1242	0.621	-10.9931034483	3.89837398374	3.048	-4.55568181818
1243	0.6215	0.620689655172	6.72926829268	-1.248	-11.6522727273
1244	0.622	0.620689655172	5.31382113821	-6.976	-3.13636363636
1245	0.6225	-5.18620689655	6.72926829268	17.368	-4.55568181818
1246	0.623	-2.28275862069	-6.00975609756	3.048	-4.55568181818
1247	0.6235	-3.73448275862	23.7146341463	3.048	-1.71704545455
1248	0.624	-3.73448275862	-6.00975609756	1.616	-4.55568181818
1249	0.6245	6.4275862069	3.89837398374	1.616	-4.55568181818
1250	0.625	12.2344827586	2.48292682927	1.616	-1.71704545455
1251	0.6255	0.620689655172	2.48292682927	4.48	3.96022727273
1252	0.626	0.620689655172	1.0674796748	0.184	-1.71704545455
1253	0.6265	-2.28275862069	2.48292682927	11.64	-1.71704545455
1254	0.627	-2.28275862069	1.0674796748	-6.976	-3.13636363636
1255	0.6275	0.620689655172	13.806504065	3.048	-3.13636363636
1256	0.628	2.0724137931	-7.42520325203	1.616	-1.71704545455
1257	0.6285	0.620689655172	1.0674796748	1.616	-1.71704545455
1258	0.629	-12.4448275862	2.48292682927	1.616	-0.297727272727
1259	0.6295	-8.08965517241	1.0674796748	1.616	-14.4909090909
1260	0.63	0.620689655172	3.89837398374	0.184	3.96022727273
1261	0.6305	3.52413793103	5.31382113821	13.072	-4.55568181818
1262	0.631	-2.28275862069	-0.347967479675	7.344	-4.55568181818
1263	0.6315	0.620689655172	2.48292682927	1.616	-3.13636363636
1264	0.632	0.620689655172	13.806504065	1.616	-1.71704545455
1265	0.6325	0.620689655172	2.48292682927	1.616	-3.13636363636
1266	0.633	-6.63793103448	3.89837398374	3.048	-1.71704545455
1267	0.6335	19.4931034483	1.0674796748	0.184	-3.13636363636
1268	0.634	0.620689655172	2.48292682927	-1.248	-11.6522727273
1269	0.6345	-0.831034482759	1.0674796748	-8.408	-4.55568181818
1270	0.635	-0.831034482759	5.31382113821	-6.976	-1.71704545455
1271	0.6355	0.620689655172	5.31382113821	0.184	-5.975
1272	0.636	-0.831034482759	-8.8406504065	3.048	-1.71704545455
1273	0.6365	4.97586206897	-1.76341463415	0.184	-1.71704545455
1274	0.637	-10.9931034483	3.89837398374	1.616	-0.297727272727
1275	0.6375	7.87931034483	5.31382113821	3.048	-3.13636363636
1276	0.638	-6.63793103448	5.31382113821	3.048	12.4761363636
1277	0.6385	-2.28275862069	5.31382113821	1.616	-10.2329545455
1278	0.639	-0.831034482759	3.89837398374	-2.68	-3.13636363636
1279	0.6395	-3.73448275862	3.89837398374	23.096	-3.13636363636
1280	0.64	2.0724137931	6.72926829268	0.184	-3.13636363636
1281	0.6405	-2.28275862069	1.0674796748	4.48	-3.13636363636
1282	0.641	2.0724137931	6.72926829268	7.344	-4.55568181818
1283	0.6415	10.7827586207	5.31382113821	4.48	-3.13636363636
1284	0.642	7.87931034483	5.31382113821	7.344	-8.81363636364
1285	0.6425	-2.28275862069	3.89837398374	1.616	-11.6522727273
1286	0.643	-2.28275862069	3.89837398374	-1.248	-4.55568181818
1287	0.6435	0.620689655172	3.89837398374	-4.112	-1.71704545455
1288	0.644	0.620689655172	3.89837398374	5.912	-1.71704545455
1289	0.6445	4.97586206897	22.2991869919	4.48	-3.13636363636
1290	0.645	-2.28275862069	1.0674796748	5.912	-3.13636363636
1291	0.6455	-8.08965517241	2.48292682927	1.616	-3.13636363636
1292	0.646	2.0724137931	1.0674796748	4.48	-3.13636363636
1293	0.6465	-6.63793103448	2.48292682927	5.912	-10.2329545455
1294	0.647	0.620689655172	2.48292682927	0.184	-1.71704545455
1295	0.6475	-2.28275862069	-0.347967479675	21.664	-1.71704545455
1296	0.648	0.620689655172	-4.59430894309	3.048	-3.13636363636
1297	0.6485	-0.831034482759	-11.6715447154	4.48	-3.13636363636
1298	0.649	-0.831034482759	16.637398374	4.48	-4.55568181818
1299	0.6495	2.0724137931	-6.00975609756	8.776	-3.13636363636
1300	0.65	-12.4448275862	1.0674796748	4.48	-3.13636363636
1301	0.6505	18.0413793103	-0.347967479675	4.48	-3.13636363636
1302	0.651	0.620689655172	1.0674796748	7.344	-7.39431818182
1303	0.6515	-0.831034482759	1.0674796748	4.48	-4.55568181818
1304	0.652	-0.831034482759	2.48292682927	8.776	-1.71704545455
1305	0.6525	0.620689655172	1.0674796748	1.616	-1.71704545455
1306	0.653	-0.831034482759	9.56016260163	1.616	-1.71704545455
1307	0.6535	3.52413793103	-1.76341463415	0.184	-1.71704545455
1308	0.654	-9.54137931034	2.48292682927	4.48	-1.71704545455
1309	0.6545	-2.28275862069	1.0674796748	4.48	-3.13636363636
1310	0.655	0.620689655172	1.0674796748	4.48	-4.55568181818
1311	0.6555	-2.28275862069	1.0674796748	4.48	-1.71704545455
1312	0.656	-2.28275862069	2.48292682927	11.64	-1.71704545455
1313	0.6565	-0.831034482759	5.31382113821	4.48	-3.13636363636
1314	0.657	-0.831034482759	16.637398374	3.048	-1.71704545455
1315	0.6575	-2.28275862069	1.0674796748	1.616	-1.71704545455
1316	0.658	-12.4448275862	3.89837398374	3.048	-4.55568181818
1317	0.6585	18.0413793103	1.0674796748	3.048	-13.0715909091
1318	0.659	-2.28275862069	1.0674796748	1.616	5.37954545455
1319	0.6595	-2.28275862069	-0.347967479675	7.344	2.54090909091
1320	0.66	-0.831034482759	2.48292682927	13.072	-5.975
1321	0.6605	-0.831034482759	-1.76341463415	4.48	-1.71704545455
1322	0.661	2.0724137931	-8.8406504065	1.616	-1.71704545455
1323	0.6615	4.97586206897	20.8837398374	3.048	-4.55568181818
1324	0.662	-13.8965517241	-0.347967479675	4.48	-4.55568181818
1325	0.6625	15.1379310345	1.0674796748	3.048	-11.6522727273
1326	0.663	-3.73448275862	1.0674796748	3.048	1.12159090909
1327	0.6635	0.620689655172	1.0674796748	7.344	-8.81363636364
1328	0.664	0.620689655172	-0.347967479675	7.344	-1.71704545455
1329	0.6645	0.620689655172	-0.347967479675	13.072	-5.975
1330	0.665	-0.831034482759	6.72926829268	3.048	-3.13636363636
1331	0.6655	0.620689655172	5.31382113821	4.48	-3.13636363636
1332	0.666	0.620689655172	1.0674796748	4.48	-1.71704545455
1333	0.6665	-3.73448275862	2.48292682927	3.048	-4.55568181818
1334	0.667	-2.28275862069	1.0674796748	4.48	-0.297727272727
1335	0.6675	0.620689655172	1.0674796748	4.48	-4.55568181818
1336	0.668	-0.831034482759	-0.347967479675	18.8	-3.13636363636
1337	0.6685	-0.831034482759	-1.76341463415	-5.544	-1.71704545455
1338	0.669	0.620689655172	-7.42520325203	1.616	-4.55568181818
1339	0.6695	0.620689655172	-7.42520325203	4.48	-3.13636363636
1340	0.67	-3.73448275862	1.0674796748	4.48	-4.55568181818
1341	0.6705	18.0413793103	1.0674796748	4.48	-1.71704545455
1342	0.671	-10.9931034483	-0.347967479675	4.48	15.3147727273
1343	0.6715	-2.28275862069	2.48292682927	7.344	-10.2329545455
1344	0.672	0.620689655172	1.0674796748	-6.976	-1.71704545455
1345	0.6725	-2.28275862069	6.72926829268	3.048	-3.13636363636
1346	0.673	0.620689655172	-7.42520325203	4.48	-3.13636363636
1347	0.6735	0.620689655172	6.72926829268	1.616	-4.55568181818
1348	0.674	0.620689655172	-1.76341463415	4.48	-1.71704545455
1349	0.6745	-3.73448275862	2.48292682927	3.048	-3.13636363636
1350	0.675	-5.18620689655	1.0674796748	1.616	-4.55568181818
1351	0.6755	0.620689655172	1.0674796748	1.616	-10.2329545455
1352	0.676	0.620689655172	2.48292682927	-4.112	-4.55568181818
1353	0.6765	0.620689655172	5.31382113821	18.8	-5.975
1354	0.677	-0.831034482759	1.0674796748	-6.976	-1.71704545455
1355	0.6775	0.620689655172	16.637398374	4.48	-4.55568181818
1356	0.678	3.52413793103	-7.42520325203	1.616	-5.975
1357	0.6785	-8.08965517241	2.48292682927	1.616	-4.55568181818
1358	0.679	20.9448275862	1.0674796748	0.184	-0.297727272727
1359	0.6795	-6.63793103448	1.0674796748	1.616	15.3147727273
1360	0.68	0.620689655172	-0.347967479675	4.48	-8.81363636364
1361	0.6805	-2.28275862069	3.89837398374	-8.408	-4.55568181818
1362	0.681	0.620689655172	3.89837398374	-1.248	-3.13636363636
1363	0.6815	-0.831034482759	-11.6715447154	0.184	-4.55568181818
1364	0.682	2.0724137931	19.4682926829	-1.248	-4.55568181818
1365	0.6825	7.87931034483	2.48292682927	3.048	-3.13636363636
1366	0.683	-13.8965517241	1.0674796748	3.048	-4.55568181818
1367	0.6835	22.3965517241	1.0674796748	3.048	-14.4909090909
1368	0.684	-0.831034482759	-1.76341463415	1.616	-1.71704545455
1369	0.6845	-0.831034482759	1.0674796748	-1.248	-7.39431818182
1370	0.685	-0.831034482759	-3.17886178862	5.912	2.54090909091
1371	0.6855	-0.831034482759	-10.256097561	1.616	-3.13636363636
1372	0.686	0.620689655172	19.4682926829	3.048	-3.13636363636
1373	0.6865	0.620689655172	-6.00975609756	3.048	-3.13636363636
1374	0.687	19.4931034483	1.0674796748	4.48	-0.297727272727
1375	0.6875	-9.54137931034	1.0674796748	4.48	-14.4909090909
1376	0.688	-0.831034482759	1.0674796748	3.048	-10.2329545455
1377	0.6885	-0.831034482759	2.48292682927	-5.544	-4.55568181818
1378	0.689	-0.831034482759	1.0674796748	1.616	-1.71704545455
1379	0.6895	-0.831034482759	-7.42520325203	3.048	-1.71704545455
1380	0.69	0.620689655172	18.0528455285	0.184	-4.55568181818
1381	0.6905	0.620689655172	-8.8406504065	1.616	-3.13636363636
1382	0.691	-6.63793103448	-1.76341463415	3.048	-3.13636363636
1383	0.6915	12.2344827586	-3.17886178862	5.912	-7.39431818182
1384	0.692	0.620689655172	1.0674796748	5.912	6.79886363636
1385	0.6925	-0.831034482759	2.48292682927	3.048	-11.6522727273
1386	0.693	0.620689655172	-0.347967479675	-2.68	-4.55568181818
1387	0.6935	-0.831034482759	-3.17886178862	4.48	-3.13636363636
1388	0.694	2.0724137931	-0.347967479675	1.616	-3.13636363636
1389	0.6945	2.0724137931	10.9756097561	4.48	-4.55568181818
1390	0.695	-3.73448275862	-0.347967479675	3.048	-7.39431818182
1391	0.6955	12.2344827586	-1.76341463415	4.48	-3.13636363636
1392	0.696	-8.08965517241	-0.347967479675	4.48	11.0568181818
1393	0.6965	2.0724137931	1.0674796748	0.184	-10.2329545455
1394	0.697	0.620689655172	-0.347967479675	3.048	11.0568181818
1395	0.6975	2.0724137931	-0.347967479675	-4.112	-4.55568181818
1396	0.698	3.52413793103	-1.76341463415	1.616	-4.55568181818
1397	0.6985	0.620689655172	-4.59430894309	1.616	-0.297727272727
1398	0.699	-2.28275862069	1.0674796748	1.616	-4.55568181818
1399	0.6995	-3.73448275862	-3.17886178862	0.184	-3.13636363636
1400	0.7	0.620689655172	1.0674796748	0.184	-0.297727272727
1401	0.7005	0.620689655172	-1.76341463415	0.184	-4.55568181818
1402	0.701	3.52413793103	-1.76341463415	18.8	-3.13636363636
1403	0.7015	0.620689655172	-0.347967479675	-6.976	-3.13636363636
1404	0.702	2.0724137931	18.0528455285	-1.248	-4.55568181818
1405	0.7025	3.52413793103	-11.6715447154	3.048	-1.71704545455
1406	0.703	-5.18620689655	-0.347967479675	3.048	-4.55568181818
1407	0.7035	18.0413793103	1.0674796748	0.184	-11.6522727273
1408	0.704	0.620689655172	-0.347967479675	-1.248	6.79886363636
1409	0.7045	0.620689655172	5.31382113821	3.048	-3.13636363636
1410	0.705	2.0724137931	2.48292682927	17.368	-1.71704545455
1411	0.7055	0.620689655172	2.48292682927	0.184	-3.13636363636
1412	0.706	0.620689655172	3.89837398374	-5.544	-1.71704545455
1413	0.7065	0.620689655172	2.48292682927	3.048	-1.71704545455
1414	0.707	0.620689655172	-3.17886178862	3.048	-1.71704545455
1415	0.7075	-5.18620689655	1.0674796748	0.184	-4.55568181818
1416	0.708	-2.28275862069	2.48292682927	0.184	-1.71704545455
1417	0.7085	0.620689655172	1.0674796748	4.48	-3.13636363636
1418	0.709	0.620689655172	1.0674796748	3.048	6.79886363636
1419	0.7095	-0.831034482759	2.48292682927	-1.248	-5.975
1420	0.71	-0.831034482759	-32.9032520325	4.48	-7.39431818182
1421	0.7105	-0.831034482759	-109.337398374	1.616	-8.81363636364
1422	0.711	0.620689655172	-55.5504065041	1.616	-3.13636363636
1423	0.7115	-2.28275862069	-1.76341463415	1.616	-4.55568181818
1424	0.712	-8.08965517241	5.31382113821	0.184	-0.297727272727
1425	0.7125	2.0724137931	2.48292682927	3.048	-13.0715909091
1426	0.713	-0.831034482759	2.48292682927	3.048	-1.71704545455
1427	0.7135	0.620689655172	1.0674796748	-5.544	-3.13636363636
1428	0.714	0.620689655172	-0.347967479675	1.616	-1.71704545455
1429	0.7145	3.52413793103	-14.5024390244	1.616	-4.55568181818
1430	0.715	-0.831034482759	-88.1056910569	3.048	-7.39431818182
1431	0.7155	4.97586206897	-62.6276422764	3.048	-7.39431818182
1432	0.716	18.0413793103	-10.256097561	3.048	-3.13636363636
1433	0.7165	-6.63793103448	5.31382113821	3.048	9.6375
1434	0.717	-0.831034482759	3.89837398374	-6.976	-4.55568181818
1435	0.7175	0.620689655172	1.0674796748	4.48	2.54090909091
1436	0.718	2.0724137931	-0.347967479675	3.048	-4.55568181818
1437	0.7185	-0.831034482759	15.2219512195	3.048	-4.55568181818
1438	0.719	0.620689655172	6.72926829268	4.48	-3.13636363636
1439	0.7195	0.620689655172	-79.6130081301	3.048	-5.975
1440	0.72	-5.18620689655	-79.6130081301	0.184	-4.55568181818
1441	0.7205	-8.08965517241	-11.6715447154	3.048	-0.297727272727
1442	0.721	0.620689655172	6.72926829268	-1.248	-10.2329545455
1443	0.7215	0.620689655172	6.72926829268	-8.408	-4.55568181818
1444	0.722	-2.28275862069	6.72926829268	18.8	-3.13636363636
1445	0.7225	0.620689655172	8.14471544715	-5.544	-3.13636363636
1446	0.723	0.620689655172	22.2991869919	3.048	-3.13636363636
1447	0.7235	3.52413793103	-4.59430894309	4.48	-1.71704545455
1448	0.724	-9.54137931034	-55.5504065041	3.048	-4.55568181818
1449	0.7245	22.3965517241	-92.3520325203	4.48	-5.975
1450	0.725	-12.4448275862	-24.4105691057	5.912	-1.71704545455
1451	0.7255	-3.73448275862	6.72926829268	-6.976	-1.71704545455
1452	0.726	-0.831034482759	6.72926829268	-1.248	-4.55568181818
1453	0.7265	-0.831034482759	5.31382113821	1.616	-1.71704545455
1454	0.727	0.620689655172	-10.256097561	4.48	-1.71704545455
1455	0.7275	-0.831034482759	-1.76341463415	3.048	-4.55568181818
1456	0.728	4.97586206897	6.72926829268	3.048	-1.71704545455
1457	0.7285	-12.4448275862	2.48292682927	3.048	-3.13636363636
1458	0.729	-2.28275862069	2.48292682927	4.48	-5.975
1459	0.7295	0.620689655172	3.89837398374	3.048	-7.39431818182
1460	0.73	0.620689655172	5.31382113821	4.48	-1.71704545455
1461	0.7305	2.0724137931	3.89837398374	18.8	-1.71704545455
1462	0.731	2.0724137931	5.31382113821	-6.976	-1.71704545455
1463	0.7315	-0.831034482759	-4.59430894309	4.48	-3.13636363636
1464	0.732	4.97586206897	-6.00975609756	4.48	-1.71704545455
1465	0.7325	-8.08965517241	3.89837398374	-1.248	-3.13636363636
1466	0.733	20.9448275862	1.0674796748	3.048	-1.71704545455
1467	0.7335	-8.08965517241	2.48292682927	4.48	-14.4909090909
1468	0.734	-0.831034482759	3.89837398374	-1.248	13.8954545455
1469	0.7345	-0.831034482759	2.48292682927	5.912	-7.39431818182
1470	0.735	-0.831034482759	1.0674796748	-6.976	-3.13636363636
1471	0.7355	0.620689655172	-6.00975609756	-1.248	-3.13636363636
1472	0.736	0.620689655172	22.2991869919	1.616	-0.297727272727
1473	0.7365	-3.73448275862	2.48292682927	1.616	-1.71704545455
1474	0.737	23.8482758621	6.72926829268	0.184	-0.297727272727
1475	0.7375	-10.9931034483	3.89837398374	3.048	-7.39431818182
1476	0.738	-0.831034482759	3.89837398374	4.48	-1.71704545455
1477	0.7385	-0.831034482759	5.31382113821	15.936	-1.71704545455
1478	0.739	-2.28275862069	3.89837398374	-5.544	-0.297727272727
1479	0.7395	0.620689655172	5.31382113821	4.48	-1.71704545455
1480	0.74	-0.831034482759	2.48292682927	3.048	-3.13636363636
1481	0.7405	-6.63793103448	3.89837398374	3.048	-1.71704545455
1482	0.741	3.52413793103	6.72926829268	1.616	-7.39431818182
1483	0.7415	-3.73448275862	5.31382113821	1.616	2.54090909091
1484	0.742	-2.28275862069	9.56016260163	3.048	-1.71704545455
1485	0.7425	-0.831034482759	5.31382113821	-6.976	-0.297727272727
1486	0.743	-0.831034482759	9.56016260163	0.184	-4.55568181818
1487	0.7435	0.620689655172	-7.42520325203	4.48	-3.13636363636
1488	0.744	0.620689655172	-3.17886178862	3.048	-1.71704545455
1489	0.7445	0.620689655172	2.48292682927	1.616	-1.71704545455
1490	0.745	-6.63793103448	3.89837398374	1.616	-4.55568181818
1491	0.7455	-0.831034482759	2.48292682927	-1.248	12.4761363636
1492	0.746	0.620689655172	3.89837398374	4.48	-4.55568181818
1493	0.7465	0.620689655172	2.48292682927	18.8	-4.55568181818
1494	0.747	0.620689655172	1.0674796748	0.184	-3.13636363636
1495	0.7475	0.620689655172	8.14471544715	3.048	-3.13636363636
1496	0.748	0.620689655172	-7.42520325203	-1.248	-1.71704545455
1497	0.7485	3.52413793103	2.48292682927	3.048	-3.13636363636
1498	0.749	-10.9931034483	2.48292682927	4.48	-3.13636363636
1499	0.7495	0.620689655172	2.48292682927	3.048	-11.6522727273
1500	0.75	-5.18620689655	3.89837398374	1.616	-3.13636363636
1501	0.7505	0.620689655172	3.89837398374	3.048	2.54090909091
1502	0.751	0.620689655172	2.48292682927	4.48	-4.55568181818
1503	0.7515	-0.831034482759	1.0674796748	-4.112	-3.13636363636
1504	0.752	2.0724137931	2.48292682927	1.616	-3.13636363636
1505	0.7525	-0.831034482759	-3.17886178862	3.048	-3.13636363636
1506	0.753	9.33103448276	3.89837398374	0.184	-1.71704545455
1507	0.7535	-12.4448275862	1.0674796748	3.048	-1.71704545455
1508	0.754	-0.831034482759	2.48292682927	3.048	1.12159090909
1509	0.7545	0.620689655172	3.89837398374	3.048	-7.39431818182
1510	0.755	-0.831034482759	5.31382113821	0.184	-3.13636363636
1511	0.7555	0.620689655172	9.56016260163	20.232	-4.55568181818
1512	0.756	0.620689655172	1.0674796748	1.616	-3.13636363636
1513	0.7565	-2.28275862069	18.0528455285	4.48	-1.71704545455
1514	0.757	-2.28275862069	2.48292682927	4.48	-4.55568181818
1515	0.7575	2.0724137931	3.89837398374	0.184	-1.71704545455
1516	0.758	0.620689655172	3.89837398374	4.48	-4.55568181818
1517	0.7585	-0.831034482759	6.72926829268	4.48	13.8954545455
1518	0.759	-2.28275862069	2.48292682927	10.208	-7.39431818182
1519	0.7595	0.620689655172	3.89837398374	23.096	-5.975
1520	0.76	-0.831034482759	1.0674796748	3.048	-4.55568181818
1521	0.7605	0.620689655172	5.31382113821	1.616	-0.297727272727
1522	0.761	-2.28275862069	2.48292682927	3.048	-4.55568181818
1523	0.7615	7.87931034483	-0.347967479675	4.48	-1.71704545455
1524	0.762	-5.18620689655	3.89837398374	3.048	-3.13636363636
1525	0.7625	9.33103448276	3.89837398374	0.184	-4.55568181818
1526	0.763	-0.831034482759	2.48292682927	3.048	-13.0715909091
1527	0.7635	0.620689655172	2.48292682927	-4.112	-3.13636363636
1528	0.764	2.0724137931	6.72926829268	-5.544	-3.13636363636
1529	0.7645	2.0724137931	6.72926829268	3.048	-4.55568181818
1530	0.765	3.52413793103	-7.42520325203	3.048	-3.13636363636
1531	0.7655	4.97586206897	1.0674796748	3.048	-4.55568181818
1532	0.766	-12.4448275862	3.89837398374	-1.248	-0.297727272727
1533	0.7665	-3.73448275862	6.72926829268	3.048	-13.0715909091
1534	0.767	-0.831034482759	5.31382113821	1.616	-0.297727272727
1535	0.7675	0.620689655172	3.89837398374	7.344	-4.55568181818
1536	0.768	0.620689655172	3.89837398374	13.072	-4.55568181818
1537	0.7685	0.620689655172	5.31382113821	3.048	-1.71704545455
1538	0.769	-3.73448275862	1.0674796748	1.616	-4.55568181818
1539	0.7695	0.620689655172	16.637398374	3.048	-4.55568181818
1540	0.77	-0.831034482759	2.48292682927	1.616	-3.13636363636
1541	0.7705	18.0413793103	5.31382113821	1.616	-13.0715909091
1542	0.771	0.620689655172	3.89837398374	1.616	13.8954545455
1543	0.7715	0.620689655172	6.72926829268	4.48	-3.13636363636
1544	0.772	-0.831034482759	6.72926829268	23.096	-4.55568181818
1545	0.7725	0.620689655172	6.72926829268	4.48	-4.55568181818
1546	0.773	-0.831034482759	20.8837398374	4.48	-7.39431818182
1547	0.7735	0.620689655172	-0.347967479675	3.048	-5.975
1548	0.774	6.4275862069	6.72926829268	4.48	-1.71704545455
1549	0.7745	16.5896551724	5.31382113821	5.912	1.12159090909
1550	0.775	-0.831034482759	5.31382113821	4.48	6.79886363636
1551	0.7755	2.0724137931	5.31382113821	5.912	-3.13636363636
1552	0.776	0.620689655172	5.31382113821	5.912	-10.2329545455
1553	0.7765	-0.831034482759	1.0674796748	3.048	-5.975
1554	0.777	0.620689655172	-6.00975609756	7.344	-3.13636363636
1555	0.7775	2.0724137931	23.7146341463	3.048	-3.13636363636
1556	0.778	-2.28275862069	3.89837398374	7.344	-5.975
1557	0.7785	-13.8965517241	2.48292682927	4.48	-5.975
1558	0.779	-0.831034482759	6.72926829268	5.912	1.12159090909
1559	0.7795	0.620689655172	3.89837398374	7.344	-4.55568181818
1560	0.78	-3.73448275862	1.0674796748	-4.112	-4.55568181818
1561	0.7805	-2.28275862069	5.31382113821	0.184	-3.13636363636
1562	0.781	0.620689655172	-10.256097561	7.344	-3.13636363636
1563	0.7815	4.97586206897	-1.76341463415	5.912	-4.55568181818
1564	0.782	4.97586206897	-0.347967479675	5.912	-3.13636363636
1565	0.7825	-10.9931034483	-0.347967479675	5.912	1.12159090909
1566	0.783	-0.831034482759	2.48292682927	5.912	-5.975
1567	0.7835	-5.18620689655	1.0674796748	5.912	-4.55568181818
1568	0.784	0.620689655172	1.0674796748	4.48	-1.71704545455
1569	0.7845	3.52413793103	3.89837398374	20.232	-3.13636363636
1570	0.785	2.0724137931	2.48292682927	4.48	-3.13636363636
1571	0.7855	-0.831034482759	-4.59430894309	5.912	-3.13636363636
1572	0.786	-5.18620689655	22.2991869919	3.048	-1.71704545455
1573	0.7865	3.52413793103	5.31382113821	4.48	-7.39431818182
1574	0.787	16.5896551724	5.31382113821	3.048	-1.71704545455
1575	0.7875	2.0724137931	2.48292682927	3.048	-3.13636363636
1576	0.788	0.620689655172	1.0674796748	3.048	-4.55568181818
1577	0.7885	-2.28275862069	5.31382113821	-2.68	-3.13636363636
1578	0.789	0.620689655172	5.31382113821	-4.112	-4.55568181818
1579	0.7895	-0.831034482759	6.72926829268	3.048	-4.55568181818
1580	0.79	-0.831034482759	-7.42520325203	0.184	-3.13636363636
1581	0.7905	-3.73448275862	2.48292682927	3.048	-4.55568181818
1582	0.791	2.0724137931	2.48292682927	3.048	-3.13636363636
1583	0.7915	-2.28275862069	2.48292682927	1.616	-3.13636363636
1584	0.792	-5.18620689655	2.48292682927	1.616	-3.13636363636
1585	0.7925	-0.831034482759	3.89837398374	4.48	-7.39431818182
1586	0.793	0.620689655172	2.48292682927	-1.248	11.0568181818
1587	0.7935	0.620689655172	3.89837398374	-4.112	-4.55568181818
1588	0.794	2.0724137931	-3.17886178862	0.184	-3.13636363636
1589	0.7945	2.0724137931	-3.17886178862	0.184	-3.13636363636
1590	0.795	-0.831034482759	16.637398374	1.616	-3.13636363636
1591	0.7955	10.7827586207	2.48292682927	0.184	-7.39431818182
1592	0.796	3.52413793103	2.48292682927	3.048	8.21818181818
1593	0.7965	-0.831034482759	1.0674796748	3.048	-11.6522727273
1594	0.797	-0.831034482759	3.89837398374	-6.976	-1.71704545455
1595	0.7975	0.620689655172	-0.347967479675	3.048	-4.55568181818
1596	0.798	2.0724137931	-7.42520325203	3.048	-4.55568181818
1597	0.7985	2.0724137931	-6.00975609756	4.48	-4.55568181818
1598	0.799	0.620689655172	5.31382113821	4.48	-1.71704545455
1599	0.7995	19.4931034483	1.0674796748	3.048	-4.55568181818
1600	0.8	-9.54137931034	5.31382113821	0.184	-1.71704545455
1601	0.8005	-0.831034482759	3.89837398374	1.616	-14.4909090909
1602	0.801	2.0724137931	6.72926829268	20.232	-3.13636363636
1603	0.8015	0.620689655172	1.0674796748	3.048	-3.13636363636
1604	0.802	0.620689655172	-8.8406504065	0.184	-3.13636363636
1605	0.8025	0.620689655172	23.7146341463	-1.248	-1.71704545455
1606	0.803	6.4275862069	-6.00975609756	1.616	-0.297727272727
1607	0.8035	-12.4448275862	5.31382113821	1.616	-1.71704545455
1608	0.804	22.3965517241	2.48292682927	-2.68	-1.71704545455
1609	0.8045	0.620689655172	2.48292682927	1.616	-11.6522727273
1610	0.805	0.620689655172	5.31382113821	-8.408	-4.55568181818
1611	0.8055	2.0724137931	6.72926829268	-9.84	-3.13636363636
1612	0.806	2.0724137931	-0.347967479675	-1.248	-3.13636363636
1613	0.8065	0.620689655172	-4.59430894309	1.616	-3.13636363636
1614	0.807	-3.73448275862	3.89837398374	0.184	-0.297727272727
1615	0.8075	0.620689655172	2.48292682927	-1.248	-5.975
1616	0.808	13.6862068966	2.48292682927	-1.248	-1.71704545455
1617	0.8085	-0.831034482759	1.0674796748	-5.544	-8.81363636364
1618	0.809	2.0724137931	2.48292682927	1.616	-3.13636363636
1619	0.8095	0.620689655172	2.48292682927	-8.408	-4.55568181818
1620	0.81	-0.831034482759	-0.347967479675	-1.248	-1.71704545455
1621	0.8105	2.0724137931	16.637398374	0.184	-4.55568181818
1622	0.811	-2.28275862069	1.0674796748	-1.248	-4.55568181818
1623	0.8115	0.620689655172	1.0674796748	1.616	-3.13636363636
1624	0.812	18.0413793103	-0.347967479675	0.184	-1.71704545455
1625	0.8125	2.0724137931	1.0674796748	3.048	-10.2329545455
1626	0.813	2.0724137931	1.0674796748	-8.408	-3.13636363636
1627	0.8135	0.620689655172	1.0674796748	-8.408	-1.71704545455
1628	0.814	4.97586206897	-0.347967479675	20.232	-1.71704545455
1629	0.8145	2.0724137931	-6.00975609756	3.048	-4.55568181818
1630	0.815	-0.831034482759	-7.42520325203	1.616	-3.13636363636
1631	0.8155	3.52413793103	1.0674796748	4.48	-3.13636363636
1632	0.816	-13.8965517241	-0.347967479675	1.616	-3.13636363636
1633	0.8165	2.0724137931	2.48292682927	1.616	-10.2329545455
1634	0.817	2.0724137931	5.31382113821	1.616	-1.71704545455
1635	0.8175	-0.831034482759	1.0674796748	-11.272	-1.71704545455
1636	0.818	0.620689655172	2.48292682927	7.344	-5.975
1637	0.8185	0.620689655172	-6.00975609756	-1.248	-1.71704545455
1638	0.819	2.0724137931	8.14471544715	-1.248	-5.975
1639	0.8195	0.620689655172	-0.347967479675	-1.248	-1.71704545455
1640	0.82	9.33103448276	2.48292682927	0.184	-3.13636363636
1641	0.8205	4.97586206897	2.48292682927	4.48	-7.39431818182
1642	0.821	-6.63793103448	2.48292682927	1.616	8.21818181818
1643	0.8215	0.620689655172	3.89837398374	3.048	-7.39431818182
1644	0.822	2.0724137931	5.31382113821	13.072	-1.71704545455
1645	0.8225	-0.831034482759	2.48292682927	1.616	-4.55568181818
1646	0.823	0.620689655172	-4.59430894309	0.184	-1.71704545455
1647	0.8235	0.620689655172	3.89837398374	1.616	-1.71704545455
1648	0.824	3.52413793103	-4.59430894309	0.184	-1.71704545455
1649	0.8245	-9.54137931034	1.0674796748	0.184	-0.297727272727
1650	0.825	-2.28275862069	2.48292682927	0.184	-4.55568181818
1651	0.8255	2.0724137931	1.0674796748	4.48	-4.55568181818
1652	0.826	2.0724137931	1.0674796748	18.8	-1.71704545455
1653	0.8265	2.0724137931	1.0674796748	-6.976	-3.13636363636
1654	0.827	0.620689655172	-8.8406504065	1.616	-5.975
1655	0.8275	0.620689655172	19.4682926829	0.184	-3.13636363636
1656	0.828	-2.28275862069	1.0674796748	3.048	-5.975
1657	0.8285	20.9448275862	-0.347967479675	1.616	-1.71704545455
1658	0.829	-6.63793103448	-0.347967479675	3.048	-14.4909090909
1659	0.8295	0.620689655172	-0.347967479675	4.48	-8.81363636364
1660	0.83	2.0724137931	1.0674796748	13.072	-4.55568181818
1661	0.8305	0.620689655172	-1.76341463415	-8.408	-1.71704545455
1662	0.831	0.620689655172	3.89837398374	-1.248	-5.975
1663	0.8315	3.52413793103	-4.59430894309	-1.248	-4.55568181818
1664	0.832	2.0724137931	-4.59430894309	0.184	-0.297727272727
1665	0.8325	-9.54137931034	1.0674796748	0.184	-1.71704545455
1666	0.833	18.0413793103	1.0674796748	3.048	-13.0715909091
1667	0.8335	0.620689655172	1.0674796748	3.048	8.21818181818
1668	0.834	0.620689655172	3.89837398374	-1.248	-13.0715909091
1669	0.8345	-0.831034482759	1.0674796748	13.072	-1.71704545455
1670	0.835	0.620689655172	1.0674796748	3.048	-4.55568181818
1671	0.8355	2.0724137931	18.0528455285	1.616	-1.71704545455
1672	0.836	-0.831034482759	-0.347967479675	0.184	-1.71704545455
1673	0.8365	4.97586206897	1.0674796748	0.184	-0.297727272727
1674	0.837	-0.831034482759	1.0674796748	1.616	-1.71704545455
1675	0.8375	-0.831034482759	2.48292682927	1.616	-1.71704545455
1676	0.838	0.620689655172	2.48292682927	0.184	-11.6522727273
1677	0.8385	0.620689655172	3.89837398374	3.048	13.8954545455
1678	0.839	0.620689655172	1.0674796748	-6.976	-1.71704545455
1679	0.8395	3.52413793103	3.89837398374	18.8	-5.975
1680	0.84	3.52413793103	-4.59430894309	3.048	-1.71704545455
1681	0.8405	-0.831034482759	1.0674796748	0.184	-1.71704545455
1682	0.841	-10.9931034483	-0.347967479675	0.184	-3.13636363636
1683	0.8415	-5.18620689655	2.48292682927	3.048	-4.55568181818
1684	0.842	0.620689655172	-0.347967479675	1.616	11.0568181818
1685	0.8425	0.620689655172	2.48292682927	-1.248	-3.13636363636
1686	0.843	-2.28275862069	-1.76341463415	14.504	-4.55568181818
1687	0.8435	-0.831034482759	-0.347967479675	3.048	-3.13636363636
1688	0.844	0.620689655172	18.0528455285	4.48	-4.55568181818
1689	0.8445	-2.28275862069	-7.42520325203	3.048	-3.13636363636
1690	0.845	4.97586206897	-4.59430894309	0.184	-4.55568181818
1691	0.8455	15.1379310345	-0.347967479675	3.048	-1.71704545455
1692	0.846	-0.831034482759	-1.76341463415	4.48	-10.2329545455
1693	0.8465	0.620689655172	-1.76341463415	4.48	-1.71704545455
1694	0.847	-0.831034482759	-1.76341463415	3.048	-3.13636363636
1695	0.8475	-0.831034482759	-0.347967479675	-4.112	-0.297727272727
1696	0.848	-2.28275862069	-0.347967479675	3.048	-1.71704545455
1697	0.8485	0.620689655172	16.637398374	0.184	-4.55568181818
1698	0.849	-0.831034482759	1.0674796748	3.048	-1.71704545455
1699	0.8495	-9.54137931034	-1.76341463415	1.616	-4.55568181818
1700	0.85	22.3965517241	-1.76341463415	0.184	-3.13636363636
1701	0.8505	0.620689655172	1.0674796748	7.344	-11.6522727273
1702	0.851	0.620689655172	1.0674796748	-8.408	-1.71704545455
1703	0.8515	-0.831034482759	2.48292682927	-2.68	-3.13636363636
1704	0.852	2.0724137931	6.72926829268	1.616	-3.13636363636
1705	0.8525	-0.831034482759	-8.8406504065	4.48	-4.55568181818
1706	0.853	3.52413793103	-3.17886178862	3.048	-4.55568181818
1707	0.8535	-0.831034482759	2.48292682927	4.48	-7.39431818182
1708	0.854	22.3965517241	2.48292682927	4.48	-0.297727272727
1709	0.8545	-6.63793103448	3.89837398374	3.048	8.21818181818
1710	0.855	-0.831034482759	2.48292682927	4.48	3.96022727273
1711	0.8555	-0.831034482759	5.31382113821	4.48	-10.2329545455
1712	0.856	-0.831034482759	5.31382113821	-6.976	-3.13636363636
1713	0.8565	2.0724137931	3.89837398374	3.048	-1.71704545455
1714	0.857	-2.28275862069	20.8837398374	0.184	-1.71704545455
1715	0.8575	7.87931034483	2.48292682927	1.616	-1.71704545455
1716	0.858	-12.4448275862	-92.3520325203	0.184	-1.71704545455
1717	0.8585	0.620689655172	-73.9512195122	4.48	-10.2329545455
1718	0.859	-5.18620689655	-11.6715447154	1.616	5.37954545455
1719	0.8595	0.620689655172	5.31382113821	-1.248	-7.39431818182
1720	0.86	0.620689655172	6.72926829268	-2.68	-1.71704545455
1721	0.8605	0.620689655172	3.89837398374	3.048	-1.71704545455
1722	0.861	0.620689655172	-7.42520325203	4.48	-3.13636363636
1723	0.8615	3.52413793103	-6.00975609756	4.48	-1.71704545455
1724	0.862	4.97586206897	-1.76341463415	1.616	-1.71704545455
1725	0.8625	-10.9931034483	-68.2894308943	1.616	-3.13636363636
1726	0.863	-2.28275862069	-95.1829268293	-1.248	-1.71704545455
1727	0.8635	2.0724137931	-22.9951219512	3.048	-10.2329545455
1728	0.864	-2.28275862069	1.0674796748	-4.112	-7.39431818182
1729	0.8645	-0.831034482759	5.31382113821	-2.68	-1.71704545455
1730	0.865	-0.831034482759	-0.347967479675	-1.248	-3.13636363636
1731	0.8655	2.0724137931	-0.347967479675	3.048	-3.13636363636
1732	0.866	0.620689655172	19.4682926829	-2.68	-1.71704545455
1733	0.8665	0.620689655172	1.0674796748	-1.248	-5.975
1734	0.867	19.4931034483	-39.9804878049	-2.68	-3.13636363636
1735	0.8675	-10.9931034483	-107.92195122	-1.248	-7.39431818182
1736	0.868	-0.831034482759	-32.9032520325	-1.248	15.3147727273
1737	0.8685	0.620689655172	2.48292682927	3.048	-4.55568181818
1738	0.869	-0.831034482759	6.72926829268	0.184	-4.55568181818
1739	0.8695	-2.28275862069	-7.42520325203	0.184	-1.71704545455
1740	0.87	0.620689655172	1.0674796748	0.184	-4.55568181818
1741	0.8705	-2.28275862069	2.48292682927	1.616	-4.55568181818
1742	0.871	18.0413793103	5.31382113821	0.184	-3.13636363636
1743	0.8715	-9.54137931034	-15.9178861789	-1.248	-8.81363636364
1744	0.872	0.620689655172	-119.245528455	-1.248	6.79886363636
1745	0.8725	3.52413793103	-54.1349593496	3.048	-11.6522727273
1746	0.873	-0.831034482759	-0.347967479675	-8.408	-4.55568181818
1747	0.8735	0.620689655172	15.2219512195	0.184	-4.55568181818
1748	0.874	2.0724137931	-0.347967479675	0.184	-7.39431818182
1749	0.8745	3.52413793103	6.72926829268	-1.248	-1.71704545455
1750	0.875	-12.4448275862	6.72926829268	0.184	-7.39431818182
1751	0.8755	16.5896551724	6.72926829268	0.184	-4.55568181818
1752	0.876	-2.28275862069	5.31382113821	0.184	-10.2329545455
1753	0.8765	2.0724137931	6.72926829268	-4.112	-4.55568181818
1754	0.877	0.620689655172	10.9756097561	15.936	-1.71704545455
1755	0.8775	-2.28275862069	3.89837398374	-2.68	-3.13636363636
1756	0.878	2.0724137931	23.7146341463	-1.248	-3.13636363636
1757	0.8785	-3.73448275862	2.48292682927	-2.68	-4.55568181818
1758	0.879	4.97586206897	3.89837398374	-2.68	-1.71704545455
1759	0.8795	-6.63793103448	3.89837398374	-1.248	-3.13636363636
1760	0.88	-0.831034482759	2.48292682927	-1.248	11.0568181818
1761	0.8805	0.620689655172	2.48292682927	3.048	-1.71704545455
1762	0.881	0.620689655172	5.31382113821	15.936	-1.71704545455
1763	0.8815	-0.831034482759	6.72926829268	-4.112	-3.13636363636
1764	0.882	-0.831034482759	19.4682926829	-1.248	-3.13636363636
1765	0.8825	0.620689655172	-0.347967479675	0.184	-1.71704545455
1766	0.883	7.87931034483	-0.347967479675	1.616	-3.13636363636
1767	0.8835	2.0724137931	2.48292682927	1.616	-1.71704545455
1768	0.884	-5.18620689655	5.31382113821	0.184	-4.55568181818
1769	0.8845	0.620689655172	5.31382113821	-1.248	-10.2329545455
1770	0.885	0.620689655172	2.48292682927	-4.112	-3.13636363636
1771	0.8855	-3.73448275862	2.48292682927	1.616	-3.13636363636
1772	0.886	-2.28275862069	-7.42520325203	0.184	-3.13636363636
1773	0.8865	0.620689655172	20.8837398374	0.184	-1.71704545455
1774	0.887	-2.28275862069	5.31382113821	1.616	-1.71704545455
1775	0.8875	-12.4448275862	5.31382113821	1.616	-5.975
1776	0.888	12.2344827586	5.31382113821	1.616	-0.297727272727
1777	0.8885	0.620689655172	3.89837398374	4.48	-10.2329545455
1778	0.889	-0.831034482759	3.89837398374	1.616	-8.81363636364
1779	0.8895	0.620689655172	5.31382113821	-4.112	-4.55568181818
1780	0.89	-2.28275862069	-1.76341463415	-1.248	-1.71704545455
1781	0.8905	0.620689655172	1.0674796748	0.184	-5.975
1782	0.891	0.620689655172	16.637398374	-1.248	-1.71704545455
1783	0.8915	-0.831034482759	3.89837398374	0.184	-1.71704545455
1784	0.892	16.5896551724	3.89837398374	-1.248	-0.297727272727
1785	0.8925	-8.08965517241	5.31382113821	1.616	-5.975
1786	0.893	-0.831034482759	3.89837398374	-9.84	-1.71704545455
1787	0.8935	-0.831034482759	2.48292682927	17.368	-3.13636363636
1788	0.894	-2.28275862069	2.48292682927	0.184	-3.13636363636
1789	0.8945	-0.831034482759	-10.256097561	1.616	-4.55568181818
1790	0.895	2.0724137931	12.3910569106	0.184	-1.71704545455
1791	0.8955	-0.831034482759	-0.347967479675	1.616	-3.13636363636
1792	0.896	7.87931034483	-0.347967479675	-1.248	-4.55568181818
1793	0.8965	16.5896551724	-0.347967479675	-1.248	-13.0715909091
1794	0.897	0.620689655172	1.0674796748	-2.68	12.4761363636
1795	0.8975	0.620689655172	1.0674796748	4.48	-7.39431818182
1796	0.898	0.620689655172	1.0674796748	-9.84	-0.297727272727
1797	0.8985	0.620689655172	3.89837398374	-1.248	-4.55568181818
1798	0.899	2.0724137931	-6.00975609756	1.616	-5.975
1799	0.8995	0.620689655172	8.14471544715	0.184	-4.55568181818
1800	0.9	-6.63793103448	1.0674796748	4.48	-1.71704545455
1801	0.9005	-3.73448275862	1.0674796748	1.616	-3.13636363636
1802	0.901	16.5896551724	3.89837398374	-1.248	-1.71704545455
1803	0.9015	0.620689655172	2.48292682927	1.616	-13.0715909091
1804	0.902	0.620689655172	1.0674796748	-1.248	15.3147727273
1805	0.9025	-0.831034482759	3.89837398374	18.8	-1.71704545455
1806	0.903	-2.28275862069	3.89837398374	-5.544	-1.71704545455
1807	0.9035	-0.831034482759	22.2991869919	3.048	-3.13636363636
1808	0.904	0.620689655172	-4.59430894309	3.048	-1.71704545455
1809	0.9045	-13.8965517241	2.48292682927	0.184	-1.71704545455
1810	0.905	13.6862068966	2.48292682927	4.48	-8.81363636364
1811	0.9055	-5.18620689655	3.89837398374	0.184	-3.13636363636
1812	0.906	-0.831034482759	1.0674796748	1.616	-5.975
1813	0.9065	0.620689655172	5.31382113821	14.504	-1.71704545455
1814	0.907	0.620689655172	5.31382113821	-1.248	-1.71704545455
1815	0.9075	0.620689655172	1.0674796748	1.616	-3.13636363636
1816	0.908	2.0724137931	1.0674796748	1.616	-3.13636363636
1817	0.9085	-3.73448275862	2.48292682927	1.616	-1.71704545455
1818	0.909	-3.73448275862	2.48292682927	-1.248	-1.71704545455
1819	0.9095	10.7827586207	3.89837398374	3.048	-4.55568181818
1820	0.91	2.0724137931	3.89837398374	3.048	11.0568181818
1821	0.9105	-0.831034482759	3.89837398374	3.048	-11.6522727273
1822	0.911	0.620689655172	5.31382113821	-6.976	-1.71704545455
1823	0.9115	-0.831034482759	6.72926829268	-1.248	-1.71704545455
1824	0.912	0.620689655172	-6.00975609756	1.616	-1.71704545455
1825	0.9125	-0.831034482759	2.48292682927	1.616	-3.13636363636
1826	0.913	2.0724137931	-6.00975609756	1.616	-3.13636363636
1827	0.9135	-12.4448275862	2.48292682927	3.048	2.54090909091
1828	0.914	-0.831034482759	2.48292682927	1.616	-5.975
1829	0.9145	-2.28275862069	3.89837398374	4.48	-5.975
1830	0.915	0.620689655172	2.48292682927	15.936	-1.71704545455
1831	0.9155	-2.28275862069	1.0674796748	1.616	-4.55568181818
1832	0.916	0.620689655172	-4.59430894309	-1.248	-3.13636363636
1833	0.9165	0.620689655172	8.14471544715	1.616	-4.55568181818
1834	0.917	-0.831034482759	-0.347967479675	1.616	-3.13636363636
1835	0.9175	0.620689655172	3.89837398374	0.184	-1.71704545455
1836	0.918	10.7827586207	1.0674796748	4.48	-3.13636363636
1837	0.9185	-6.63793103448	2.48292682927	0.184	-11.6522727273
1838	0.919	-0.831034482759	3.89837398374	-1.248	15.3147727273
1839	0.9195	0.620689655172	5.31382113821	3.048	-11.6522727273
1840	0.92	0.620689655172	6.72926829268	-8.408	-4.55568181818
1841	0.9205	0.620689655172	23.7146341463	3.048	-4.55568181818
1842	0.921	0.620689655172	-6.00975609756	-1.248	-3.13636363636
1843	0.9215	3.52413793103	3.89837398374	0.184	-1.71704545455
1844	0.922	-6.63793103448	5.31382113821	-1.248	-4.55568181818
1845	0.9225	-0.831034482759	5.31382113821	-4.112	8.21818181818
1846	0.923	0.620689655172	3.89837398374	4.48	-4.55568181818
1847	0.9235	-0.831034482759	5.31382113821	8.776	-4.55568181818
1848	0.924	0.620689655172	5.31382113821	5.912	-3.13636363636
1849	0.9245	0.620689655172	5.31382113821	-1.248	-1.71704545455
1850	0.925	2.0724137931	13.806504065	-1.248	-1.71704545455
1851	0.9255	-0.831034482759	-6.00975609756	-4.112	-4.55568181818
1852	0.926	16.5896551724	1.0674796748	1.616	-0.297727272727
1853	0.9265	-8.08965517241	2.48292682927	3.048	-13.0715909091
1854	0.927	-2.28275862069	-0.347967479675	-4.112	-13.0715909091
1855	0.9275	0.620689655172	3.89837398374	17.368	-7.39431818182
1856	0.928	2.0724137931	-0.347967479675	-2.68	-3.13636363636
1857	0.9285	2.0724137931	-8.8406504065	1.616	-4.55568181818
1858	0.929	2.0724137931	-4.59430894309	3.048	-3.13636363636
1859	0.9295	2.0724137931	-4.59430894309	-1.248	-5.975
1860	0.93	19.4931034483	-1.76341463415	-2.68	-1.71704545455
1861	0.9305	-5.18620689655	1.0674796748	3.048	8.21818181818
1862	0.931	0.620689655172	-0.347967479675	4.48	-5.975
1863	0.9315	0.620689655172	-1.76341463415	-8.408	-8.81363636364
1864	0.932	3.52413793103	2.48292682927	3.048	-4.55568181818
1865	0.9325	2.0724137931	-1.76341463415	14.504	-3.13636363636
1866	0.933	2.0724137931	-7.42520325203	-1.248	-4.55568181818
1867	0.9335	3.52413793103	1.0674796748	1.616	-3.13636363636
1868	0.934	0.620689655172	-1.76341463415	1.616	-3.13636363636
1869	0.9345	-9.54137931034	-1.76341463415	1.616	-3.13636363636
1870	0.935	-8.08965517241	-1.76341463415	1.616	-15.9102272727
1871	0.9355	0.620689655172	-3.17886178862	-4.112	13.8954545455
1872	0.936	-0.831034482759	1.0674796748	15.936	-3.13636363636
1873	0.9365	-2.28275862069	-3.17886178862	-1.248	-4.55568181818
1874	0.937	0.620689655172	-11.6715447154	-1.248	-5.975
1875	0.9375	0.620689655172	1.0674796748	0.184	-3.13636363636
1876	0.938	-3.73448275862	-6.00975609756	0.184	-3.13636363636
1877	0.9385	-6.63793103448	-1.76341463415	1.616	-5.975
1878	0.939	-10.9931034483	-4.59430894309	1.616	-15.9102272727
1879	0.9395	-0.831034482759	-3.17886178862	-1.248	-14.4909090909
1880	0.94	0.620689655172	-3.17886178862	-8.408	-8.81363636364
1881	0.9405	-0.831034482759	-4.59430894309	15.936	-8.81363636364
1882	0.941	2.0724137931	-15.9178861789	3.048	-10.2329545455
1883	0.9415	0.620689655172	2.48292682927	1.616	-8.81363636364
1884	0.942	-0.831034482759	-0.347967479675	0.184	-11.6522727273
1885	0.9425	-0.831034482759	-7.42520325203	3.048	-11.6522727273
1886	0.943	18.0413793103	-8.8406504065	4.48	-13.0715909091
1887	0.9435	-2.28275862069	-10.256097561	1.616	-4.55568181818
1888	0.944	0.620689655172	-13.0869918699	4.48	-17.3295454545
1889	0.9445	-0.831034482759	-13.0869918699	3.048	-15.9102272727
1890	0.945	-2.28275862069	-10.256097561	4.48	-14.4909090909
1891	0.9455	0.620689655172	-78.1975609756	7.344	-20.1681818182
1892	0.946	3.52413793103	-134.815447154	4.48	-17.3295454545
1893	0.9465	2.0724137931	-55.5504065041	4.48	-17.3295454545
1894	0.947	-5.18620689655	-14.5024390244	5.912	-18.7488636364
1895	0.9475	16.5896551724	-15.9178861789	4.48	-11.6522727273
1896	0.948	0.620689655172	-15.9178861789	7.344	-14.4909090909
1897	0.9485	-0.831034482759	-21.5796747967	0.184	-11.6522727273
1898	0.949	-0.831034482759	-20.1642276423	7.344	-28.6840909091
1899	0.9495	0.620689655172	-18.7487804878	4.48	-18.7488636364
1900	0.95	-0.831034482759	-51.3040650407	7.344	-18.7488636364
1901	0.9505	-2.28275862069	-130.569105691	7.344	-15.9102272727
1902	0.951	3.52413793103	-72.5357723577	10.208	-21.5875
1903	0.9515	13.6862068966	-21.5796747967	7.344	-15.9102272727
1904	0.952	-10.9931034483	-15.9178861789	13.072	-4.55568181818
1905	0.9525	-0.831034482759	-20.1642276423	14.504	-27.2647727273
1906	0.953	0.620689655172	-21.5796747967	-1.248	-21.5875
1907	0.9535	-0.831034482759	-22.9951219512	7.344	-20.1681818182
1908	0.954	0.620689655172	-27.2414634146	4.48	-21.5875
1909	0.9545	-2.28275862069	-22.9951219512	8.776	-17.3295454545
1910	0.955	-0.831034482759	-127.738211382	11.64	-13.0715909091
1911	0.9555	-5.18620689655	-79.6130081301	13.072	-15.9102272727
1912	0.956	18.0413793103	-20.1642276423	11.64	-8.81363636364
1913	0.9565	-0.831034482759	-4.59430894309	13.072	-18.7488636364
1914	0.957	-2.28275862069	-6.00975609756	14.504	-15.9102272727
1915	0.9575	-0.831034482759	-4.59430894309	8.776	-11.6522727273
1916	0.958	-3.73448275862	-6.00975609756	28.824	-13.0715909091
1917	0.9585	-3.73448275862	-3.17886178862	5.912	-11.6522727273
1918	0.959	-3.73448275862	10.9756097561	14.504	-13.0715909091
1919	0.9595	-2.28275862069	-83.8593495935	15.936	-5.975
1920	0.96	-16.8	-85.274796748	15.936	-7.39431818182
1921	0.9605	-8.08965517241	-18.7487804878	18.8	-18.7488636364
1922	0.961	-5.18620689655	2.48292682927	15.936	-8.81363636364
1923	0.9615	-3.73448275862	1.0674796748	18.8	-3.13636363636
1924	0.962	-5.18620689655	-0.347967479675	25.96	-11.6522727273
1925	0.9625	-5.18620689655	3.89837398374	13.072	-13.0715909091
1926	0.963	-3.73448275862	3.89837398374	18.8	-11.6522727273
1927	0.9635	0.620689655172	-6.00975609756	20.232	-10.2329545455
1928	0.964	-5.18620689655	20.8837398374	15.936	-10.2329545455
1929	0.9645	4.97586206897	6.72926829268	18.8	-13.0715909091
1930	0.965	-12.4448275862	8.14471544715	20.232	-18.7488636364
1931	0.9655	-0.831034482759	8.14471544715	15.936	-17.3295454545
1932	0.966	-5.18620689655	8.14471544715	7.344	-14.4909090909
1933	0.9665	-5.18620689655	10.9756097561	8.776	-11.6522727273
1934	0.967	-3.73448275862	8.14471544715	17.368	-11.6522727273
1935	0.9675	-3.73448275862	2.48292682927	14.504	-10.2329545455
1936	0.968	-3.73448275862	5.31382113821	15.936	-10.2329545455
1937	0.9685	0.620689655172	9.56016260163	17.368	-7.39431818182
1938	0.969	-2.28275862069	15.2219512195	18.8	-13.0715909091
1939	0.9695	-9.54137931034	13.806504065	15.936	5.37954545455
1940	0.97	-0.831034482759	13.806504065	14.504	-14.4909090909
1941	0.9705	-3.73448275862	13.806504065	4.48	-5.975
1942	0.971	-2.28275862069	16.637398374	8.776	-5.975
1943	0.9715	-3.73448275862	2.48292682927	15.936	-4.55568181818
1944	0.972	-0.831034482759	6.72926829268	15.936	-4.55568181818
1945	0.9725	-5.18620689655	9.56016260163	17.368	-1.71704545455
1946	0.973	0.620689655172	9.56016260163	17.368	-4.55568181818
1947	0.9735	3.52413793103	9.56016260163	15.936	-3.13636363636
1948	0.974	-8.08965517241	10.9756097561	15.936	-3.13636363636
1949	0.9745	-2.28275862069	16.637398374	5.912	-13.0715909091
1950	0.975	-0.831034482759	10.9756097561	21.664	5.37954545455
1951	0.9755	-2.28275862069	8.14471544715	4.48	-0.297727272727
1952	0.976	-0.831034482759	22.2991869919	11.64	-3.13636363636
1953	0.9765	-2.28275862069	20.8837398374	13.072	-7.39431818182
1954	0.977	0.620689655172	9.56016260163	13.072	-4.55568181818
1955	0.9775	12.2344827586	9.56016260163	11.64	-1.71704545455
1956	0.978	-10.9931034483	9.56016260163	14.504	13.8954545455
1957	0.9785	-0.831034482759	6.72926829268	15.936	-5.975
1958	0.979	-0.831034482759	6.72926829268	4.48	-8.81363636364
1959	0.9795	-2.28275862069	8.14471544715	15.936	-3.13636363636
1960	0.98	-0.831034482759	3.89837398374	7.344	-1.71704545455
1961	0.9805	0.620689655172	3.89837398374	8.776	-4.55568181818
1962	0.981	0.620689655172	23.7146341463	13.072	-1.71704545455
1963	0.9815	-6.63793103448	8.14471544715	11.64	-3.13636363636
1964	0.982	19.4931034483	8.14471544715	11.64	-13.0715909091
1965	0.9825	-2.28275862069	9.56016260163	7.344	8.21818181818
1966	0.983	0.620689655172	6.72926829268	13.072	-7.39431818182
1967	0.9835	-0.831034482759	9.56016260163	14.504	-0.297727272727
1968	0.984	-0.831034482759	6.72926829268	7.344	-3.13636363636
1969	0.9845	-2.28275862069	6.72926829268	13.072	-1.71704545455
1970	0.985	0.620689655172	9.56016260163	11.64	-0.297727272727
1971	0.9855	-2.28275862069	8.14471544715	7.344	1.12159090909
1972	0.986	-10.9931034483	10.9756097561	5.912	1.12159090909
1973	0.9865	-10.9931034483	9.56016260163	5.912	-8.81363636364
1974	0.987	-5.18620689655	12.3910569106	4.48	-0.297727272727
1975	0.9875	-0.831034482759	10.9756097561	-2.68	-5.975
1976	0.988	-0.831034482759	9.56016260163	-1.248	-3.13636363636
1977	0.9885	-3.73448275862	6.72926829268	4.48	-0.297727272727
1978	0.989	0.620689655172	-0.347967479675	4.48	-1.71704545455
1979	0.9895	0.620689655172	1.0674796748	1.616	2.54090909091
1980	0.99	3.52413793103	9.56016260163	3.048	1.12159090909
