	Time	Channel 1	Channel 2	Channel 3	Channel 4
0	0.0	11505.7	2.07179487179	-2.08936170213	-9.6
1	0.0005	11505.7	3.49358974359	-3.5085106383	-1.09090909091
2	0.001	11505.7	4.91538461538	12.1021276596	-9.6
3	0.0015	11505.7	4.91538461538	-4.92765957447	-9.6
4	0.002	11505.7	2.07179487179	-4.92765957447	-8.18181818182
5	0.0025	11505.7	-5.03717948718	-7.76595744681	-20.9454545455
6	0.003	11505.7	0.65	-6.34680851064	-8.18181818182
7	0.0035	11505.7	4.91538461538	-2.08936170213	-5.34545454545
8	0.004	11505.7	3.49358974359	-0.670212765957	-6.76363636364
9	0.0045	11505.7	2.07179487179	-3.5085106383	-9.6
10	0.005	11505.7	2.07179487179	-0.670212765957	-1.09090909091
11	0.0055	11505.7	2.07179487179	-7.76595744681	-15.2727272727
12	0.006	11505.7	3.49358974359	3.58723404255	-6.76363636364
13	0.0065	11505.7	4.91538461538	-2.08936170213	-6.76363636364
14	0.007	11505.7	7.75897435897	-3.5085106383	-8.18181818182
15	0.0075	11505.7	-0.771794871795	-0.670212765957	-5.34545454545
16	0.008	11505.7	0.65	-2.08936170213	-5.34545454545
17	0.0085	11505.7	0.65	0.748936170213	-15.2727272727
18	0.009	11505.7	3.49358974359	-13.4425531915	-11.0181818182
19	0.0095	11505.7	6.33717948718	-3.5085106383	-8.18181818182
20	0.01	11505.7	19.1333333333	-3.5085106383	-8.18181818182
21	0.0105	11505.7	0.65	-3.5085106383	-8.18181818182
22	0.011	11505.7	0.65	-6.34680851064	-6.76363636364
23	0.0115	11505.7	-2.19358974359	-3.5085106383	0.327272727273
24	0.012	11505.7	-0.771794871795	12.1021276596	-11.0181818182
25	0.0125	11505.7	-2.19358974359	13.5212765957	-9.6
26	0.013	11505.7	-7.88076923077	-4.92765957447	-9.6
27	0.0135	11505.7	0.65	-4.92765957447	-9.6
28	0.014	11505.7	3.49358974359	-3.5085106383	-6.76363636364
29	0.0145	11505.7	2.07179487179	3.58723404255	-9.6
30	0.015	11505.7	0.65	-7.76595744681	-9.6
31	0.0155	11505.7	-9.30256410256	-3.5085106383	-9.6
32	0.016	11505.7	-6.45897435897	-2.08936170213	-9.6
33	0.0165	11505.7	4.91538461538	-2.08936170213	-9.6
34	0.017	11505.7	0.65	-2.08936170213	-18.1090909091
35	0.0175	11505.7	0.65	-6.34680851064	-16.6909090909
36	0.018	11505.7	3.49358974359	-0.670212765957	-8.18181818182
37	0.0185	11505.7	3.49358974359	-9.18510638298	-9.6
38	0.019	11505.7	0.65	-3.5085106383	-11.0181818182
39	0.0195	11505.7	-2.19358974359	-0.670212765957	-8.18181818182
40	0.02	11505.7	-3.61538461538	-0.670212765957	-5.34545454545
41	0.0205	11505.7	-6.45897435897	13.5212765957	-9.6
42	0.021	11505.7	-6.45897435897	-3.5085106383	-8.18181818182
43	0.0215	11505.7	-2.19358974359	-3.5085106383	-9.6
44	0.022	11505.7	-0.771794871795	-4.92765957447	-11.0181818182
45	0.0225	11505.7	-0.771794871795	-3.5085106383	-9.6
46	0.023	11505.7	0.65	-3.5085106383	7.41818181818
47	0.0235	11505.7	0.65	-9.18510638298	-6.76363636364
48	0.024	11505.7	2.07179487179	-6.34680851064	-8.18181818182
49	0.0245	11505.7	-0.771794871795	-3.5085106383	-8.18181818182
50	0.025	11505.7	-0.771794871795	-2.08936170213	-8.18181818182
51	0.0255	11505.7	6.33717948718	-0.670212765957	-2.50909090909
52	0.026	11505.7	4.91538461538	-3.5085106383	-11.0181818182
53	0.0265	11505.7	6.33717948718	-2.08936170213	-5.34545454545
54	0.027	11505.7	6.33717948718	-3.5085106383	-8.18181818182
55	0.0275	11505.7	20.5551282051	-2.08936170213	-6.76363636364
56	0.028	11505.7	-0.771794871795	-3.5085106383	-6.76363636364
57	0.0285	11505.7	6.33717948718	-2.08936170213	-6.76363636364
58	0.029	11505.7	2.07179487179	-7.76595744681	-19.5272727273
59	0.0295	11505.7	3.49358974359	-13.4425531915	-6.76363636364
60	0.03	11505.7	2.07179487179	-6.34680851064	-6.76363636364
61	0.0305	11505.7	17.7115384615	-3.5085106383	-3.92727272727
62	0.031	11505.7	2.07179487179	-4.92765957447	-3.92727272727
63	0.0315	11505.7	0.65	-4.92765957447	-6.76363636364
64	0.032	11505.7	-0.771794871795	-3.5085106383	-11.0181818182
65	0.0325	11505.7	3.49358974359	-2.08936170213	-8.18181818182
66	0.033	11505.7	7.75897435897	-4.92765957447	-9.6
67	0.0335	11505.7	21.9769230769	-3.5085106383	-6.76363636364
68	0.034	11505.7	4.91538461538	-6.34680851064	-8.18181818182
69	0.0345	11505.7	4.91538461538	-6.34680851064	-9.6
70	0.035	11505.7	3.49358974359	-10.6042553191	-16.6909090909
71	0.0355	11505.7	3.49358974359	-13.4425531915	-5.34545454545
72	0.036	11505.7	6.33717948718	-7.76595744681	-6.76363636364
73	0.0365	11505.7	21.9769230769	-7.76595744681	-6.76363636364
74	0.037	11505.7	4.91538461538	-7.76595744681	-2.50909090909
75	0.0375	11505.7	3.49358974359	-7.76595744681	-3.92727272727
76	0.038	11505.7	4.91538461538	-9.18510638298	-5.34545454545
77	0.0385	11505.7	2.07179487179	-3.5085106383	-3.92727272727
78	0.039	11505.7	-6.45897435897	-6.34680851064	-3.92727272727
79	0.0395	11505.7	-2.19358974359	-7.76595744681	-6.76363636364
80	0.04	11505.7	4.91538461538	-7.76595744681	-6.76363636364
81	0.0405	11505.7	6.33717948718	-6.34680851064	-18.1090909091
82	0.041	11505.7	2.07179487179	-13.4425531915	-2.50909090909
83	0.0415	11505.7	7.75897435897	-12.0234042553	-5.34545454545
84	0.042	11505.7	6.33717948718	-14.8617021277	-3.92727272727
85	0.0425	11505.7	17.7115384615	-3.5085106383	-5.34545454545
86	0.043	11505.7	2.07179487179	-3.5085106383	-8.18181818182
87	0.0435	11505.7	4.91538461538	-3.5085106383	-5.34545454545
88	0.044	11505.7	2.07179487179	-12.0234042553	-11.0181818182
89	0.0445	11505.7	2.07179487179	-3.5085106383	-6.76363636364
90	0.045	11505.7	20.5551282051	-3.5085106383	-6.76363636364
91	0.0455	11505.7	-5.03717948718	-0.670212765957	-5.34545454545
92	0.046	11505.7	0.65	-0.670212765957	-6.76363636364
93	0.0465	11505.7	0.65	-2.08936170213	7.41818181818
94	0.047	11505.7	-2.19358974359	-2.08936170213	-5.34545454545
95	0.0475	11505.7	0.65	-4.92765957447	-6.76363636364
96	0.048	11505.7	2.07179487179	-0.670212765957	-6.76363636364
97	0.0485	11505.7	0.65	-2.08936170213	-8.18181818182
98	0.049	11505.7	2.07179487179	-0.670212765957	-8.18181818182
99	0.0495	11505.7	0.65	0.748936170213	-6.76363636364
100	0.05	11505.7	0.65	13.5212765957	-6.76363636364
101	0.0505	11505.7	0.65	-0.670212765957	-9.6
102	0.051	11505.7	-12.1461538462	-0.670212765957	-5.34545454545
103	0.0515	11505.7	-9.30256410256	3.58723404255	-6.76363636364
104	0.052	11505.7	-5.03717948718	2.16808510638	-6.76363636364
105	0.0525	11505.7	-3.61538461538	2.16808510638	-1.09090909091
106	0.053	11505.7	-2.19358974359	-10.6042553191	-6.76363636364
107	0.0535	11505.7	3.49358974359	-0.670212765957	-5.34545454545
108	0.054	11505.7	16.2897435897	-2.08936170213	-5.34545454545
109	0.0545	11505.7	-5.03717948718	-2.08936170213	-6.76363636364
110	0.055	11505.7	0.65	0.748936170213	4.58181818182
111	0.0555	11505.7	0.65	0.748936170213	8.83636363636
112	0.056	11505.7	0.65	0.748936170213	-8.18181818182
113	0.0565	11505.7	-9.30256410256	0.748936170213	-2.50909090909
114	0.057	11505.7	-9.30256410256	0.748936170213	-3.92727272727
115	0.0575	11505.7	2.07179487179	-0.670212765957	-3.92727272727
116	0.058	11505.7	2.07179487179	0.748936170213	-3.92727272727
117	0.0585	11505.7	4.91538461538	2.16808510638	-9.6
118	0.059	11505.7	3.49358974359	5.00638297872	-5.34545454545
119	0.0595	11505.7	-6.45897435897	-0.670212765957	-3.92727272727
120	0.06	11505.7	-2.19358974359	-0.670212765957	-5.34545454545
121	0.0605	11505.7	2.07179487179	-0.670212765957	-5.34545454545
122	0.061	11505.7	2.07179487179	-2.08936170213	-13.8545454545
123	0.0615	11505.7	0.65	-2.08936170213	14.5090909091
124	0.062	11505.7	0.65	14.9404255319	-6.76363636364
125	0.0625	11505.7	0.65	13.5212765957	-3.92727272727
126	0.063	11505.7	-3.61538461538	-2.08936170213	-2.50909090909
127	0.0635	11505.7	0.65	-0.670212765957	-3.92727272727
128	0.064	11505.7	0.65	-3.5085106383	-12.4363636364
129	0.0645	11505.7	2.07179487179	-7.76595744681	-6.76363636364
130	0.065	11505.7	0.65	-2.08936170213	-3.92727272727
131	0.0655	11505.7	-7.88076923077	0.748936170213	-8.18181818182
132	0.066	11505.7	-5.03717948718	-2.08936170213	-2.50909090909
133	0.0665	11505.7	2.07179487179	-2.08936170213	-1.09090909091
134	0.067	11505.7	3.49358974359	0.748936170213	-1.09090909091
135	0.0675	11505.7	2.07179487179	16.3595744681	-6.76363636364
136	0.068	11505.7	0.65	-0.670212765957	-3.92727272727
137	0.0685	11505.7	-5.03717948718	0.748936170213	-6.76363636364
138	0.069	11505.7	-3.61538461538	-0.670212765957	-1.09090909091
139	0.0695	11505.7	-0.771794871795	-0.670212765957	-13.8545454545
140	0.07	11505.7	0.65	2.16808510638	-9.6
141	0.0705	11505.7	2.07179487179	14.9404255319	-6.76363636364
142	0.071	11505.7	0.65	-10.6042553191	-6.76363636364
143	0.0715	11505.7	19.1333333333	0.748936170213	-5.34545454545
144	0.072	11505.7	14.8679487179	-2.08936170213	-6.76363636364
145	0.0725	11505.7	2.07179487179	-2.08936170213	-3.92727272727
146	0.073	11505.7	0.65	-4.92765957447	7.41818181818
147	0.0735	11505.7	3.49358974359	-6.34680851064	-5.34545454545
148	0.074	11505.7	7.75897435897	-2.08936170213	-5.34545454545
149	0.0745	11505.7	6.33717948718	-3.5085106383	-3.92727272727
150	0.075	11505.7	2.07179487179	-3.5085106383	-2.50909090909
151	0.0755	11505.7	3.49358974359	-0.670212765957	13.0909090909
152	0.076	11505.7	4.91538461538	-6.34680851064	-5.34545454545
153	0.0765	11505.7	2.07179487179	6.42553191489	-3.92727272727
154	0.077	11505.7	0.65	-2.08936170213	-3.92727272727
155	0.0775	11505.7	-0.771794871795	-3.5085106383	-8.18181818182
156	0.078	11505.7	-2.19358974359	-4.92765957447	-8.18181818182
157	0.0785	11505.7	7.75897435897	-3.5085106383	-5.34545454545
158	0.079	11505.7	3.49358974359	2.16808510638	-15.2727272727
159	0.0795	11505.7	6.33717948718	-7.76595744681	-11.0181818182
160	0.08	11505.7	7.75897435897	-9.18510638298	-3.92727272727
161	0.0805	11505.7	9.18076923077	-0.670212765957	-6.76363636364
162	0.081	11505.7	3.49358974359	-2.08936170213	-13.8545454545
163	0.0815	11505.7	0.65	0.748936170213	-8.18181818182
164	0.082	11505.7	-3.61538461538	14.9404255319	-6.76363636364
165	0.0825	11505.7	-5.03717948718	-2.08936170213	-5.34545454545
166	0.083	11505.7	-14.9897435897	-3.5085106383	-2.50909090909
167	0.0835	11505.7	-2.19358974359	-3.5085106383	-2.50909090909
168	0.084	11505.7	0.65	-3.5085106383	-2.50909090909
169	0.0845	11505.7	-0.771794871795	-0.670212765957	6.0
170	0.085	11505.7	-2.19358974359	0.748936170213	7.41818181818
171	0.0855	11505.7	-10.7243589744	-2.08936170213	-1.09090909091
172	0.086	11505.7	16.2897435897	-3.5085106383	0.327272727273
173	0.0865	11505.7	2.07179487179	-3.5085106383	4.58181818182
174	0.087	11505.7	3.49358974359	-0.670212765957	18.7636363636
175	0.0875	11505.7	6.33717948718	2.16808510638	14.5090909091
176	0.088	11505.7	6.33717948718	16.3595744681	-3.92727272727
177	0.0885	11505.7	-6.45897435897	-0.670212765957	-3.92727272727
178	0.089	11505.7	24.8205128205	0.748936170213	-3.92727272727
179	0.0895	11505.7	23.3987179487	0.748936170213	-2.50909090909
180	0.09	11505.7	3.49358974359	0.748936170213	13.0909090909
181	0.0905	11505.7	6.33717948718	-0.670212765957	-2.50909090909
182	0.091	11505.7	4.91538461538	14.9404255319	-5.34545454545
183	0.0915	11505.7	3.49358974359	0.748936170213	-2.50909090909
184	0.092	11505.7	14.8679487179	-2.08936170213	-1.09090909091
185	0.0925	11505.7	3.49358974359	-3.5085106383	-3.92727272727
186	0.093	11505.7	0.65	-0.670212765957	-3.92727272727
187	0.0935	11505.7	0.65	-6.34680851064	-8.18181818182
188	0.094	11505.7	2.07179487179	7.84468085106	-5.34545454545
189	0.0945	11505.7	2.07179487179	-0.670212765957	-3.92727272727
190	0.095	11505.7	-5.03717948718	-0.670212765957	-5.34545454545
191	0.0955	11505.7	3.49358974359	-2.08936170213	-5.34545454545
192	0.096	11505.7	4.91538461538	-2.08936170213	-6.76363636364
193	0.0965	11505.7	3.49358974359	-9.18510638298	-6.76363636364
194	0.097	11505.7	4.91538461538	-12.0234042553	-9.6
195	0.0975	11505.7	10.6025641026	-3.5085106383	-3.92727272727
196	0.098	11505.7	-2.19358974359	-3.5085106383	-5.34545454545
197	0.0985	11505.7	2.07179487179	0.748936170213	-2.50909090909
198	0.099	11505.7	3.49358974359	-0.670212765957	-5.34545454545
199	0.0995	11505.7	0.65	-0.670212765957	11.6727272727
200	0.1	11505.7	3.49358974359	-3.5085106383	-12.4363636364
201	0.1005	11505.7	9.18076923077	-0.670212765957	-6.76363636364
202	0.101	11505.7	4.91538461538	0.748936170213	-2.50909090909
203	0.1015	11505.7	3.49358974359	-0.670212765957	-3.92727272727
204	0.102	11505.7	4.91538461538	-0.670212765957	-2.50909090909
205	0.1025	11505.7	3.49358974359	5.00638297872	11.6727272727
206	0.103	11505.7	2.07179487179	-0.670212765957	-15.2727272727
207	0.1035	11505.7	-0.771794871795	-2.08936170213	-2.50909090909
208	0.104	11505.7	3.49358974359	0.748936170213	-3.92727272727
209	0.1045	11505.7	2.07179487179	2.16808510638	-3.92727272727
210	0.105	11505.7	3.49358974359	0.748936170213	-1.09090909091
211	0.1055	11505.7	3.49358974359	2.16808510638	11.6727272727
212	0.106	11505.7	4.91538461538	2.16808510638	-12.4363636364
213	0.1065	11505.7	-0.771794871795	-6.34680851064	-3.92727272727
214	0.107	11505.7	3.49358974359	-0.670212765957	-6.76363636364
215	0.1075	11505.7	0.65	0.748936170213	-3.92727272727
216	0.108	11505.7	-0.771794871795	0.748936170213	4.58181818182
217	0.1085	11505.7	-2.19358974359	-7.76595744681	-8.18181818182
218	0.109	11505.7	-0.771794871795	-2.08936170213	-2.50909090909
219	0.1095	11505.7	16.2897435897	2.16808510638	-5.34545454545
220	0.11	11505.7	-9.30256410256	-0.670212765957	-3.92727272727
221	0.1105	11505.7	-5.03717948718	0.748936170213	-5.34545454545
222	0.111	11505.7	-0.771794871795	3.58723404255	-16.6909090909
223	0.1115	11505.7	-2.19358974359	-6.34680851064	-8.18181818182
224	0.112	11505.7	0.65	0.748936170213	-2.50909090909
225	0.1125	11505.7	3.49358974359	3.58723404255	-5.34545454545
226	0.113	11505.7	-2.19358974359	-0.670212765957	-1.09090909091
227	0.1135	11505.7	0.65	-0.670212765957	-2.50909090909
228	0.114	11505.7	0.65	0.748936170213	4.58181818182
229	0.1145	11505.7	2.07179487179	5.00638297872	-5.34545454545
230	0.115	11505.7	3.49358974359	12.1021276596	-5.34545454545
231	0.1155	11505.7	-10.7243589744	3.58723404255	-3.92727272727
232	0.116	11505.7	-2.19358974359	2.16808510638	-3.92727272727
233	0.1165	11505.7	0.65	2.16808510638	-5.34545454545
234	0.117	11505.7	4.91538461538	5.00638297872	-6.76363636364
235	0.1175	11505.7	3.49358974359	-7.76595744681	-5.34545454545
236	0.118	11505.7	4.91538461538	-0.670212765957	-3.92727272727
237	0.1185	11505.7	6.33717948718	2.16808510638	-3.92727272727
238	0.119	11505.7	6.33717948718	3.58723404255	-3.92727272727
239	0.1195	11505.7	2.07179487179	0.748936170213	-2.50909090909
240	0.12	11505.7	0.65	3.58723404255	0.327272727273
241	0.1205	11505.7	0.65	2.16808510638	-15.2727272727
242	0.121	11505.7	2.07179487179	-9.18510638298	-3.92727272727
243	0.1215	11505.7	-6.45897435897	-2.08936170213	-3.92727272727
244	0.122	11505.7	-9.30256410256	-0.670212765957	-2.50909090909
245	0.1225	11505.7	-0.771794871795	2.16808510638	-3.92727272727
246	0.123	11505.7	-2.19358974359	-0.670212765957	-1.09090909091
247	0.1235	11505.7	-0.771794871795	-0.670212765957	0.327272727273
248	0.124	11505.7	-5.03717948718	-0.670212765957	-6.76363636364
249	0.1245	11505.7	-10.7243589744	-0.670212765957	-3.92727272727
250	0.125	11505.7	0.65	-2.08936170213	-1.09090909091
251	0.1255	11505.7	-2.19358974359	-2.08936170213	-2.50909090909
252	0.126	11505.7	2.07179487179	-2.08936170213	7.41818181818
253	0.1265	11505.7	-2.19358974359	-2.08936170213	-3.92727272727
254	0.127	11505.7	-2.19358974359	-6.34680851064	-2.50909090909
255	0.1275	11505.7	-7.88076923077	-0.670212765957	-1.09090909091
256	0.128	11505.7	-2.19358974359	-0.670212765957	-3.92727272727
257	0.1285	11505.7	-0.771794871795	0.748936170213	-12.4363636364
258	0.129	11505.7	-0.771794871795	-2.08936170213	-15.2727272727
259	0.1295	11505.7	0.65	-2.08936170213	-13.8545454545
260	0.13	11505.7	-2.19358974359	-0.670212765957	-2.50909090909
261	0.1305	11505.7	13.4461538462	0.748936170213	-3.92727272727
262	0.131	11505.7	13.4461538462	-2.08936170213	-3.92727272727
263	0.1315	11505.7	-0.771794871795	0.748936170213	-3.92727272727
264	0.132	11505.7	-2.19358974359	-7.76595744681	-8.18181818182
265	0.1325	11505.7	0.65	-2.08936170213	-3.92727272727
266	0.133	11505.7	-0.771794871795	-3.5085106383	-3.92727272727
267	0.1335	11505.7	13.4461538462	2.16808510638	-2.50909090909
268	0.134	11505.7	-2.19358974359	0.748936170213	0.327272727273
269	0.1345	11505.7	0.65	0.748936170213	13.0909090909
270	0.135	11505.7	-0.771794871795	-0.670212765957	-3.92727272727
271	0.1355	11505.7	2.07179487179	-3.5085106383	-3.92727272727
272	0.136	11505.7	0.65	-0.670212765957	-2.50909090909
273	0.1365	11505.7	-5.03717948718	-0.670212765957	-2.50909090909
274	0.137	11505.7	-3.61538461538	-0.670212765957	-3.92727272727
275	0.1375	11505.7	-6.45897435897	-0.670212765957	-11.0181818182
276	0.138	11505.7	-7.88076923077	-4.92765957447	-11.0181818182
277	0.1385	11505.7	-5.03717948718	-9.18510638298	-2.50909090909
278	0.139	11505.7	-2.19358974359	-12.0234042553	-2.50909090909
279	0.1395	11505.7	0.65	-0.670212765957	-5.34545454545
280	0.14	11505.7	-2.19358974359	0.748936170213	-3.92727272727
281	0.1405	11505.7	0.65	0.748936170213	8.83636363636
282	0.141	11505.7	0.65	-0.670212765957	-2.50909090909
283	0.1415	11505.7	2.07179487179	13.5212765957	-1.09090909091
284	0.142	11505.7	-0.771794871795	0.748936170213	-2.50909090909
285	0.1425	11505.7	-2.19358974359	3.58723404255	-3.92727272727
286	0.143	11505.7	2.07179487179	2.16808510638	-3.92727272727
287	0.1435	11505.7	4.91538461538	3.58723404255	-1.09090909091
288	0.144	11505.7	2.07179487179	5.00638297872	-8.18181818182
289	0.1445	11505.7	0.65	0.748936170213	-3.92727272727
290	0.145	11505.7	-7.88076923077	3.58723404255	-2.50909090909
291	0.1455	11505.7	17.7115384615	2.16808510638	-2.50909090909
292	0.146	11505.7	-0.771794871795	6.42553191489	-1.09090909091
293	0.1465	11505.7	0.65	3.58723404255	11.6727272727
294	0.147	11505.7	0.65	5.00638297872	7.41818181818
295	0.1475	11505.7	3.49358974359	17.7787234043	-3.92727272727
296	0.148	11505.7	-10.7243589744	0.748936170213	-3.92727272727
297	0.1485	11505.7	-6.45897435897	-0.670212765957	-3.92727272727
298	0.149	11505.7	0.65	0.748936170213	-1.09090909091
299	0.1495	11505.7	0.65	0.748936170213	0.327272727273
300	0.15	11505.7	2.07179487179	0.748936170213	-12.4363636364
301	0.1505	11505.7	-0.771794871795	-4.92765957447	-2.50909090909
302	0.151	11505.7	-0.771794871795	-2.08936170213	-5.34545454545
303	0.1515	11505.7	-6.45897435897	-2.08936170213	-5.34545454545
304	0.152	11505.7	0.65	-2.08936170213	-2.50909090909
305	0.1525	11505.7	0.65	2.16808510638	-2.50909090909
306	0.153	11505.7	0.65	3.58723404255	-9.6
307	0.1535	11505.7	0.65	12.1021276596	-2.50909090909
308	0.154	11505.7	-6.45897435897	-0.670212765957	-2.50909090909
309	0.1545	11505.7	17.7115384615	-0.670212765957	-1.09090909091
310	0.155	11505.7	0.65	-2.08936170213	-1.09090909091
311	0.1555	11505.7	0.65	-0.670212765957	13.0909090909
312	0.156	11505.7	-0.771794871795	-7.76595744681	-3.92727272727
313	0.1565	11505.7	2.07179487179	-7.76595744681	-3.92727272727
314	0.157	11505.7	0.65	-3.5085106383	-3.92727272727
315	0.1575	11505.7	2.07179487179	-3.5085106383	-3.92727272727
316	0.158	11505.7	0.65	-2.08936170213	-6.76363636364
317	0.1585	11505.7	0.65	-3.5085106383	6.0
318	0.159	11505.7	0.65	-3.5085106383	-3.92727272727
319	0.1595	11505.7	-0.771794871795	7.84468085106	-3.92727272727
320	0.16	11505.7	-2.19358974359	-0.670212765957	-3.92727272727
321	0.1605	11505.7	-3.61538461538	0.748936170213	-2.50909090909
322	0.161	11505.7	-3.61538461538	-0.670212765957	-2.50909090909
323	0.1615	11505.7	0.65	0.748936170213	-5.34545454545
324	0.162	11505.7	0.65	5.00638297872	-3.92727272727
325	0.1625	11505.7	0.65	-3.5085106383	-1.09090909091
326	0.163	11505.7	-7.88076923077	0.748936170213	-3.92727272727
327	0.1635	11505.7	-3.61538461538	2.16808510638	-5.34545454545
328	0.164	11505.7	0.65	-0.670212765957	-1.09090909091
329	0.1645	11505.7	3.49358974359	-0.670212765957	11.6727272727
330	0.165	11505.7	-0.771794871795	-3.5085106383	-5.34545454545
331	0.1655	11505.7	-0.771794871795	-4.92765957447	-2.50909090909
332	0.166	11505.7	-5.03717948718	0.748936170213	-3.92727272727
333	0.1665	11505.7	-2.19358974359	0.748936170213	-1.09090909091
334	0.167	11505.7	0.65	0.748936170213	-2.50909090909
335	0.1675	11505.7	-2.19358974359	2.16808510638	-1.09090909091
336	0.168	11505.7	-0.771794871795	13.5212765957	-3.92727272727
337	0.1685	11505.7	0.65	-3.5085106383	-6.76363636364
338	0.169	11505.7	0.65	-3.5085106383	-5.34545454545
339	0.1695	11505.7	2.07179487179	-3.5085106383	-6.76363636364
340	0.17	11505.7	0.65	0.748936170213	-15.2727272727
341	0.1705	11505.7	0.65	-7.76595744681	-12.4363636364
342	0.171	11505.7	2.07179487179	-14.8617021277	-3.92727272727
343	0.1715	11505.7	2.07179487179	-12.0234042553	-5.34545454545
344	0.172	11505.7	4.91538461538	-6.34680851064	-3.92727272727
345	0.1725	11505.7	2.07179487179	-4.92765957447	-2.50909090909
346	0.173	11505.7	2.07179487179	-4.92765957447	-2.50909090909
347	0.1735	11505.7	2.07179487179	-4.92765957447	-11.0181818182
348	0.174	11505.7	4.91538461538	-12.0234042553	-6.76363636364
349	0.1745	11505.7	3.49358974359	-2.08936170213	-2.50909090909
350	0.175	11505.7	2.07179487179	-3.5085106383	-6.76363636364
351	0.1755	11505.7	2.07179487179	-0.670212765957	-8.18181818182
352	0.176	11505.7	2.07179487179	-4.92765957447	-3.92727272727
353	0.1765	11505.7	0.65	-2.08936170213	0.327272727273
354	0.177	11505.7	0.65	13.5212765957	-6.76363636364
355	0.1775	11505.7	-12.1461538462	-4.92765957447	-6.76363636364
356	0.178	11505.7	-12.1461538462	-0.670212765957	-6.76363636364
357	0.1785	11505.7	0.65	0.748936170213	-5.34545454545
358	0.179	11505.7	0.65	-3.5085106383	4.58181818182
359	0.1795	11505.7	-0.771794871795	5.00638297872	-5.34545454545
360	0.18	11505.7	-0.771794871795	-2.08936170213	-3.92727272727
361	0.1805	11505.7	3.49358974359	-4.92765957447	-3.92727272727
362	0.181	11505.7	-2.19358974359	0.748936170213	-3.92727272727
363	0.1815	11505.7	0.65	0.748936170213	0.327272727273
364	0.182	11505.7	-0.771794871795	0.748936170213	-2.50909090909
365	0.1825	11505.7	0.65	5.00638297872	-2.50909090909
366	0.183	11505.7	-0.771794871795	-2.08936170213	-2.50909090909
367	0.1835	11505.7	4.91538461538	2.16808510638	-3.92727272727
368	0.184	11505.7	-0.771794871795	3.58723404255	-5.34545454545
369	0.1845	11505.7	0.65	-0.670212765957	-2.50909090909
370	0.185	11505.7	0.65	-3.5085106383	8.83636363636
371	0.1855	11505.7	2.07179487179	14.9404255319	-8.18181818182
372	0.186	11505.7	-2.19358974359	16.3595744681	-3.92727272727
373	0.1865	11505.7	-10.7243589744	2.16808510638	-3.92727272727
374	0.187	11505.7	0.65	3.58723404255	-3.92727272727
375	0.1875	11505.7	3.49358974359	2.16808510638	-2.50909090909
376	0.188	11505.7	2.07179487179	3.58723404255	0.327272727273
377	0.1885	11505.7	2.07179487179	19.1978723404	-1.09090909091
378	0.189	11505.7	2.07179487179	5.00638297872	-5.34545454545
379	0.1895	11505.7	9.18076923077	3.58723404255	-5.34545454545
380	0.19	11505.7	-2.19358974359	-0.670212765957	-2.50909090909
381	0.1905	11505.7	0.65	3.58723404255	11.6727272727
382	0.191	11505.7	0.65	-0.670212765957	-6.76363636364
383	0.1915	11505.7	2.07179487179	12.1021276596	-3.92727272727
384	0.192	11505.7	-5.03717948718	-0.670212765957	-3.92727272727
385	0.1925	11505.7	0.65	2.16808510638	-3.92727272727
386	0.193	11505.7	0.65	2.16808510638	-5.34545454545
387	0.1935	11505.7	0.65	-0.670212765957	-1.09090909091
388	0.194	11505.7	0.65	0.748936170213	14.5090909091
389	0.1945	11505.7	0.65	0.748936170213	-3.92727272727
390	0.195	11505.7	-5.03717948718	-0.670212765957	-2.50909090909
391	0.1955	11505.7	-5.03717948718	-2.08936170213	-3.92727272727
392	0.196	11505.7	2.07179487179	-0.670212765957	-3.92727272727
393	0.1965	11505.7	-0.771794871795	-2.08936170213	-5.34545454545
394	0.197	11505.7	-0.771794871795	-4.92765957447	-6.76363636364
395	0.1975	11505.7	-2.19358974359	-2.08936170213	-3.92727272727
396	0.198	11505.7	-0.771794871795	-7.76595744681	-2.50909090909
397	0.1985	11505.7	-5.03717948718	-3.5085106383	-3.92727272727
398	0.199	11505.7	0.65	-3.5085106383	-1.09090909091
399	0.1995	11505.7	2.07179487179	-4.92765957447	11.6727272727
400	0.2	11505.7	3.49358974359	14.9404255319	-2.50909090909
401	0.2005	11505.7	-3.61538461538	16.3595744681	-1.09090909091
402	0.201	11505.7	-9.30256410256	-4.92765957447	-2.50909090909
403	0.2015	11505.7	14.8679487179	-3.5085106383	-3.92727272727
404	0.202	11505.7	-0.771794871795	-2.08936170213	-6.76363636364
405	0.2025	11505.7	-0.771794871795	-0.670212765957	-6.76363636364
406	0.203	11505.7	0.65	0.748936170213	-3.92727272727
407	0.2035	11505.7	0.65	-2.08936170213	-5.34545454545
408	0.204	11505.7	10.6025641026	-4.92765957447	-2.50909090909
409	0.2045	11505.7	-3.61538461538	-2.08936170213	-3.92727272727
410	0.205	11505.7	-2.19358974359	-3.5085106383	-6.76363636364
411	0.2055	11505.7	-0.771794871795	-3.5085106383	-1.09090909091
412	0.206	11505.7	0.65	13.5212765957	-3.92727272727
413	0.2065	11505.7	0.65	14.9404255319	-5.34545454545
414	0.207	11505.7	-5.03717948718	-3.5085106383	-2.50909090909
415	0.2075	11505.7	-0.771794871795	-0.670212765957	-6.76363636364
416	0.208	11505.7	2.07179487179	-2.08936170213	-3.92727272727
417	0.2085	11505.7	3.49358974359	-0.670212765957	-12.4363636364
418	0.209	11505.7	6.33717948718	-7.76595744681	-2.50909090909
419	0.2095	11505.7	4.91538461538	-7.76595744681	-1.09090909091
420	0.21	11505.7	14.8679487179	-0.670212765957	-1.09090909091
421	0.2105	11505.7	10.6025641026	2.16808510638	0.327272727273
422	0.211	11505.7	-7.88076923077	2.16808510638	3.16363636364
423	0.2115	11505.7	-6.45897435897	5.00638297872	-6.76363636364
424	0.212	11505.7	-2.19358974359	20.6170212766	-3.92727272727
425	0.2125	11505.7	-0.771794871795	19.1978723404	-1.09090909091
426	0.213	11505.7	-10.7243589744	3.58723404255	-1.09090909091
427	0.2135	11505.7	-2.19358974359	3.58723404255	-6.76363636364
428	0.214	11505.7	-2.19358974359	5.00638297872	-9.6
429	0.2145	11505.7	-0.771794871795	6.42553191489	-8.18181818182
430	0.215	11505.7	2.07179487179	13.5212765957	-3.92727272727
431	0.2155	11505.7	-7.88076923077	5.00638297872	-3.92727272727
432	0.216	11505.7	-2.19358974359	7.84468085106	-2.50909090909
433	0.2165	11505.7	-5.03717948718	5.00638297872	-1.09090909091
434	0.217	11505.7	2.07179487179	3.58723404255	-6.76363636364
435	0.2175	11505.7	4.91538461538	-0.670212765957	-1.09090909091
436	0.218	11505.7	2.07179487179	-0.670212765957	-1.09090909091
437	0.2185	11505.7	-0.771794871795	7.84468085106	-3.92727272727
438	0.219	11505.7	-5.03717948718	3.58723404255	-3.92727272727
439	0.2195	11505.7	0.65	5.00638297872	-5.34545454545
440	0.22	11505.7	2.07179487179	5.00638297872	4.58181818182
441	0.2205	11505.7	0.65	6.42553191489	-5.34545454545
442	0.221	11505.7	0.65	-0.670212765957	-5.34545454545
443	0.2215	11505.7	-7.88076923077	2.16808510638	-2.50909090909
444	0.222	11505.7	-3.61538461538	2.16808510638	-3.92727272727
445	0.2225	11505.7	-0.771794871795	3.58723404255	-2.50909090909
446	0.223	11505.7	-0.771794871795	2.16808510638	-3.92727272727
447	0.2235	11505.7	-0.771794871795	0.748936170213	-2.50909090909
448	0.224	11505.7	-0.771794871795	3.58723404255	-2.50909090909
449	0.2245	11505.7	-6.45897435897	2.16808510638	-1.09090909091
450	0.225	11505.7	-0.771794871795	0.748936170213	0.327272727273
451	0.2255	11505.7	-0.771794871795	-0.670212765957	-1.09090909091
452	0.226	11505.7	-3.61538461538	-4.92765957447	-8.18181818182
453	0.2265	11505.7	-2.19358974359	-9.18510638298	0.327272727273
454	0.227	11505.7	-2.19358974359	-10.6042553191	-2.50909090909
455	0.2275	11505.7	-10.7243589744	-0.670212765957	-3.92727272727
456	0.228	11505.7	14.8679487179	-4.92765957447	-3.92727272727
457	0.2285	11505.7	-0.771794871795	-2.08936170213	-3.92727272727
458	0.229	11505.7	3.49358974359	-2.08936170213	11.6727272727
459	0.2295	11505.7	0.65	-4.92765957447	-1.09090909091
460	0.23	11505.7	2.07179487179	3.58723404255	-1.09090909091
461	0.2305	11505.7	7.75897435897	-3.5085106383	-1.09090909091
462	0.231	11505.7	-3.61538461538	-0.670212765957	-2.50909090909
463	0.2315	11505.7	0.65	-0.670212765957	-2.50909090909
464	0.232	11505.7	0.65	-3.5085106383	-5.34545454545
465	0.2325	11505.7	0.65	-10.6042553191	-3.92727272727
466	0.233	11505.7	2.07179487179	-7.76595744681	-1.09090909091
467	0.2335	11505.7	6.33717948718	-4.92765957447	-3.92727272727
468	0.234	11505.7	21.9769230769	-2.08936170213	-1.09090909091
469	0.2345	11505.7	0.65	0.748936170213	0.327272727273
470	0.235	11505.7	2.07179487179	3.58723404255	13.0909090909
471	0.2355	11505.7	-0.771794871795	0.748936170213	-3.92727272727
472	0.236	11505.7	-5.03717948718	14.9404255319	-3.92727272727
473	0.2365	11505.7	-5.03717948718	0.748936170213	-3.92727272727
474	0.237	11505.7	-13.5679487179	3.58723404255	-2.50909090909
475	0.2375	11505.7	-16.4115384615	2.16808510638	-3.92727272727
476	0.238	11505.7	-3.61538461538	0.748936170213	-12.4363636364
477	0.2385	11505.7	0.65	-3.5085106383	-12.4363636364
478	0.239	11505.7	3.49358974359	-6.34680851064	-1.09090909091
479	0.2395	11505.7	3.49358974359	5.00638297872	-1.09090909091
480	0.24	11505.7	2.07179487179	2.16808510638	-1.09090909091
481	0.2405	11505.7	2.07179487179	0.748936170213	-1.09090909091
482	0.241	11505.7	0.65	2.16808510638	-1.09090909091
483	0.2415	11505.7	0.65	20.6170212766	-1.09090909091
484	0.242	11505.7	-3.61538461538	0.748936170213	-2.50909090909
485	0.2425	11505.7	-2.19358974359	3.58723404255	-1.09090909091
486	0.243	11505.7	-10.7243589744	2.16808510638	-3.92727272727
487	0.2435	11505.7	0.65	2.16808510638	0.327272727273
488	0.244	11505.7	0.65	0.748936170213	13.0909090909
489	0.2445	11505.7	0.65	-0.670212765957	7.41818181818
490	0.245	11505.7	3.49358974359	-0.670212765957	-1.09090909091
491	0.2455	11505.7	-13.5679487179	-2.08936170213	-3.92727272727
492	0.246	11505.7	-2.19358974359	-0.670212765957	-2.50909090909
493	0.2465	11505.7	-3.61538461538	-0.670212765957	-9.6
494	0.247	11505.7	0.65	-3.5085106383	-8.18181818182
495	0.2475	11505.7	2.07179487179	-2.08936170213	-2.50909090909
496	0.248	11505.7	2.07179487179	-6.34680851064	-5.34545454545
497	0.2485	11505.7	-3.61538461538	-3.5085106383	-2.50909090909
498	0.249	11505.7	12.0243589744	-2.08936170213	-3.92727272727
499	0.2495	11505.7	0.65	0.748936170213	-1.09090909091
500	0.25	11505.7	0.65	-2.08936170213	-1.09090909091
501	0.2505	11505.7	2.07179487179	-2.08936170213	-12.4363636364
502	0.251	11505.7	3.49358974359	-9.18510638298	-5.34545454545
503	0.2515	11505.7	6.33717948718	-4.92765957447	-3.92727272727
504	0.252	11505.7	-3.61538461538	-3.5085106383	-3.92727272727
505	0.2525	11505.7	2.07179487179	-3.5085106383	-3.92727272727
506	0.253	11505.7	0.65	-4.92765957447	7.41818181818
507	0.2535	11505.7	2.07179487179	-6.34680851064	-3.92727272727
508	0.254	11505.7	-0.771794871795	-12.0234042553	-3.92727272727
509	0.2545	11505.7	2.07179487179	-2.08936170213	-1.09090909091
510	0.255	11505.7	-9.30256410256	-3.5085106383	-3.92727272727
511	0.2555	11505.7	-6.45897435897	-0.670212765957	-2.50909090909
512	0.256	11505.7	0.65	2.16808510638	-12.4363636364
513	0.2565	11505.7	0.65	-12.0234042553	-8.18181818182
514	0.257	11505.7	3.49358974359	-9.18510638298	-5.34545454545
515	0.2575	11505.7	3.49358974359	0.748936170213	-2.50909090909
516	0.258	11505.7	-12.1461538462	0.748936170213	-2.50909090909
517	0.2585	11505.7	0.65	3.58723404255	-2.50909090909
518	0.259	11505.7	2.07179487179	5.00638297872	-12.4363636364
519	0.2595	11505.7	0.65	6.42553191489	-6.76363636364
520	0.26	11505.7	0.65	-2.08936170213	-2.50909090909
521	0.2605	11505.7	3.49358974359	-4.92765957447	-3.92727272727
522	0.261	11505.7	13.4461538462	5.00638297872	-5.34545454545
523	0.2615	11505.7	-2.19358974359	5.00638297872	-1.09090909091
524	0.262	11505.7	3.49358974359	9.26382978723	-1.09090909091
525	0.2625	11505.7	0.65	6.42553191489	13.0909090909
526	0.263	11505.7	0.65	3.58723404255	-1.09090909091
527	0.2635	11505.7	-12.1461538462	5.00638297872	-2.50909090909
528	0.264	11505.7	-9.30256410256	2.16808510638	-2.50909090909
529	0.2645	11505.7	0.65	0.748936170213	-3.92727272727
530	0.265	11505.7	-2.19358974359	3.58723404255	1.74545454545
531	0.2655	11505.7	-0.771794871795	-9.18510638298	-2.50909090909
532	0.266	11505.7	-0.771794871795	-6.34680851064	-1.09090909091
533	0.2665	11505.7	17.7115384615	-0.670212765957	-1.09090909091
534	0.267	11505.7	-3.61538461538	5.00638297872	-1.09090909091
535	0.2675	11505.7	-0.771794871795	0.748936170213	-1.09090909091
536	0.268	11505.7	-2.19358974359	3.58723404255	-1.09090909091
537	0.2685	11505.7	0.65	2.16808510638	-5.34545454545
538	0.269	11505.7	3.49358974359	0.748936170213	-5.34545454545
539	0.2695	11505.7	-2.19358974359	2.16808510638	-3.92727272727
540	0.27	11505.7	13.4461538462	3.58723404255	-1.09090909091
541	0.2705	11505.7	2.07179487179	2.16808510638	-1.09090909091
542	0.271	11505.7	2.07179487179	6.42553191489	11.6727272727
543	0.2715	11505.7	0.65	5.00638297872	15.9272727273
544	0.272	11505.7	0.65	9.26382978723	-8.18181818182
545	0.2725	11505.7	-10.7243589744	6.42553191489	-1.09090909091
546	0.273	11505.7	-9.30256410256	3.58723404255	-2.50909090909
547	0.2735	11505.7	-0.771794871795	3.58723404255	-1.09090909091
548	0.274	11505.7	0.65	5.00638297872	7.41818181818
549	0.2745	11505.7	2.07179487179	12.1021276596	11.6727272727
550	0.275	11505.7	-0.771794871795	9.26382978723	-5.34545454545
551	0.2755	11505.7	-12.1461538462	5.00638297872	-2.50909090909
552	0.276	11505.7	-3.61538461538	5.00638297872	-5.34545454545
553	0.2765	11505.7	0.65	5.00638297872	-2.50909090909
554	0.277	11505.7	-0.771794871795	5.00638297872	-3.92727272727
555	0.2775	11505.7	-2.19358974359	-4.92765957447	-1.09090909091
556	0.278	11505.7	-3.61538461538	13.5212765957	-3.92727272727
557	0.2785	11505.7	-6.45897435897	2.16808510638	-1.09090909091
558	0.279	11505.7	9.18076923077	7.84468085106	-3.92727272727
559	0.2795	11505.7	2.07179487179	5.00638297872	-8.18181818182
560	0.28	11505.7	2.07179487179	6.42553191489	-8.18181818182
561	0.2805	11505.7	3.49358974359	-2.08936170213	-9.6
562	0.281	11505.7	-0.771794871795	0.748936170213	-11.0181818182
563	0.2815	11505.7	0.65	-2.08936170213	-3.92727272727
564	0.282	11505.7	10.6025641026	3.58723404255	-2.50909090909
565	0.2825	11505.7	-2.19358974359	3.58723404255	-2.50909090909
566	0.283	11505.7	3.49358974359	2.16808510638	-2.50909090909
567	0.2835	11505.7	0.65	-3.5085106383	14.5090909091
568	0.284	11505.7	0.65	20.6170212766	-3.92727272727
569	0.2845	11505.7	-2.19358974359	0.748936170213	-3.92727272727
570	0.285	11505.7	-10.7243589744	-0.670212765957	-3.92727272727
571	0.2855	11505.7	-7.88076923077	0.748936170213	-6.76363636364
572	0.286	11505.7	0.65	-0.670212765957	-9.6
573	0.2865	11505.7	-0.771794871795	0.748936170213	-1.09090909091
574	0.287	11505.7	-0.771794871795	3.58723404255	11.6727272727
575	0.2875	11505.7	0.65	19.1978723404	-8.18181818182
576	0.288	11505.7	-9.30256410256	2.16808510638	-6.76363636364
577	0.2885	11505.7	14.8679487179	3.58723404255	-3.92727272727
578	0.289	11505.7	-0.771794871795	0.748936170213	-5.34545454545
579	0.2895	11505.7	-0.771794871795	0.748936170213	11.6727272727
580	0.29	11505.7	-0.771794871795	2.16808510638	-5.34545454545
581	0.2905	11505.7	-2.19358974359	16.3595744681	-8.18181818182
582	0.291	11505.7	-10.7243589744	2.16808510638	-6.76363636364
583	0.2915	11505.7	-9.30256410256	2.16808510638	-6.76363636364
584	0.292	11505.7	0.65	5.00638297872	-6.76363636364
585	0.2925	11505.7	0.65	2.16808510638	4.58181818182
586	0.293	11505.7	-2.19358974359	-2.08936170213	-3.92727272727
587	0.2935	11505.7	-2.19358974359	9.26382978723	-5.34545454545
588	0.294	11505.7	-6.45897435897	0.748936170213	-3.92727272727
589	0.2945	11505.7	-9.30256410256	2.16808510638	-5.34545454545
590	0.295	11505.7	-3.61538461538	-0.670212765957	-2.50909090909
591	0.2955	11505.7	-6.45897435897	2.16808510638	-12.4363636364
592	0.296	11505.7	-5.03717948718	0.748936170213	13.0909090909
593	0.2965	11505.7	-2.19358974359	-9.18510638298	-2.50909090909
594	0.297	11505.7	2.07179487179	0.748936170213	-3.92727272727
595	0.2975	11505.7	19.1333333333	0.748936170213	-3.92727272727
596	0.298	11505.7	0.65	0.748936170213	-1.09090909091
597	0.2985	11505.7	2.07179487179	-0.670212765957	0.327272727273
598	0.299	11505.7	4.91538461538	2.16808510638	-13.8545454545
599	0.2995	11505.7	2.07179487179	-9.18510638298	-1.09090909091
600	0.3	11505.7	-9.30256410256	-0.670212765957	-5.34545454545
601	0.3005	11505.7	-7.88076923077	2.16808510638	-5.34545454545
602	0.301	11505.7	-2.19358974359	0.748936170213	-3.92727272727
603	0.3015	11505.7	-6.45897435897	0.748936170213	-1.09090909091
604	0.302	11505.7	-6.45897435897	5.00638297872	15.9272727273
605	0.3025	11505.7	-9.30256410256	17.7787234043	-2.50909090909
606	0.303	11505.7	-5.03717948718	-2.08936170213	-3.92727272727
607	0.3035	11505.7	-19.2551282051	-0.670212765957	-1.09090909091
608	0.304	11505.7	-7.88076923077	-2.08936170213	-3.92727272727
609	0.3045	11505.7	-6.45897435897	-0.670212765957	-12.4363636364
610	0.305	11505.7	-2.19358974359	-3.5085106383	14.5090909091
611	0.3055	11505.7	0.65	16.3595744681	-3.92727272727
612	0.306	11505.7	4.91538461538	-0.670212765957	-2.50909090909
613	0.3065	11505.7	-5.03717948718	-0.670212765957	-1.09090909091
614	0.307	11505.7	-2.19358974359	0.748936170213	-2.50909090909
615	0.3075	11505.7	4.91538461538	-0.670212765957	-12.4363636364
616	0.308	11505.7	6.33717948718	-2.08936170213	-9.6
617	0.3085	11505.7	4.91538461538	-10.6042553191	-1.09090909091
618	0.309	11505.7	9.18076923077	-2.08936170213	-3.92727272727
619	0.3095	11505.7	23.3987179487	-3.5085106383	-2.50909090909
620	0.31	11505.7	2.07179487179	-4.92765957447	-3.92727272727
621	0.3105	11505.7	3.49358974359	-0.670212765957	-13.8545454545
622	0.311	11505.7	3.49358974359	2.16808510638	-6.76363636364
623	0.3115	11505.7	2.07179487179	2.16808510638	-3.92727272727
624	0.312	11505.7	-10.7243589744	-0.670212765957	-2.50909090909
625	0.3125	11505.7	-2.19358974359	-0.670212765957	-2.50909090909
626	0.313	11505.7	3.49358974359	-4.92765957447	-5.34545454545
627	0.3135	11505.7	0.65	-2.08936170213	-13.8545454545
628	0.314	11505.7	0.65	-2.08936170213	-15.2727272727
629	0.3145	11505.7	2.07179487179	-9.18510638298	-2.50909090909
630	0.315	11505.7	0.65	-10.6042553191	-3.92727272727
631	0.3155	11505.7	16.2897435897	-2.08936170213	-5.34545454545
632	0.316	11505.7	3.49358974359	-0.670212765957	-5.34545454545
633	0.3165	11505.7	-2.19358974359	3.58723404255	-5.34545454545
634	0.317	11505.7	0.65	0.748936170213	-11.0181818182
635	0.3175	11505.7	4.91538461538	-7.76595744681	-1.09090909091
636	0.318	11505.7	0.65	2.16808510638	-1.09090909091
637	0.3185	11505.7	-3.61538461538	2.16808510638	-6.76363636364
638	0.319	11505.7	-6.45897435897	0.748936170213	-2.50909090909
639	0.3195	11505.7	2.07179487179	-0.670212765957	-1.09090909091
640	0.32	11505.7	3.49358974359	2.16808510638	-12.4363636364
641	0.3205	11505.7	0.65	-4.92765957447	-2.50909090909
642	0.321	11505.7	0.65	2.16808510638	-1.09090909091
643	0.3215	11505.7	20.5551282051	-0.670212765957	-2.50909090909
644	0.322	11505.7	2.07179487179	0.748936170213	-6.76363636364
645	0.3225	11505.7	3.49358974359	-0.670212765957	-6.76363636364
646	0.323	11505.7	0.65	-0.670212765957	-11.0181818182
647	0.3235	11505.7	0.65	-7.76595744681	-3.92727272727
648	0.324	11505.7	0.65	-2.08936170213	-3.92727272727
649	0.3245	11505.7	16.2897435897	-2.08936170213	-5.34545454545
650	0.325	11505.7	17.7115384615	-3.5085106383	-6.76363636364
651	0.3255	11505.7	0.65	-2.08936170213	-3.92727272727
652	0.326	11505.7	3.49358974359	2.16808510638	-15.2727272727
653	0.3265	11505.7	0.65	13.5212765957	-5.34545454545
654	0.327	11505.7	-0.771794871795	-3.5085106383	-3.92727272727
655	0.3275	11505.7	-6.45897435897	-0.670212765957	-2.50909090909
656	0.328	11505.7	-0.771794871795	-2.08936170213	-2.50909090909
657	0.3285	11505.7	0.65	-2.08936170213	0.327272727273
658	0.329	11505.7	2.07179487179	-2.08936170213	-6.76363636364
659	0.3295	11505.7	2.07179487179	7.84468085106	4.58181818182
660	0.33	11505.7	0.65	-3.5085106383	1.74545454545
661	0.3305	11505.7	-9.30256410256	-3.5085106383	1.74545454545
662	0.331	11505.7	-0.771794871795	-3.5085106383	-1.09090909091
663	0.3315	11505.7	-2.19358974359	-3.5085106383	-5.34545454545
664	0.332	11505.7	-2.19358974359	-0.670212765957	-9.6
665	0.3325	11505.7	2.07179487179	-0.670212765957	-3.92727272727
666	0.333	11505.7	-9.30256410256	-4.92765957447	-2.50909090909
667	0.3335	11505.7	-0.771794871795	0.748936170213	-1.09090909091
668	0.334	11505.7	4.91538461538	-0.670212765957	-1.09090909091
669	0.3345	11505.7	2.07179487179	-0.670212765957	-1.09090909091
670	0.335	11505.7	0.65	-10.6042553191	-3.92727272727
671	0.3355	11505.7	0.65	-7.76595744681	-1.09090909091
672	0.336	11505.7	-9.30256410256	-0.670212765957	-5.34545454545
673	0.3365	11505.7	-3.61538461538	-0.670212765957	-3.92727272727
674	0.337	11505.7	-0.771794871795	-0.670212765957	-3.92727272727
675	0.3375	11505.7	-5.03717948718	-4.92765957447	3.16363636364
676	0.338	11505.7	-6.45897435897	-3.5085106383	15.9272727273
677	0.3385	11505.7	-6.45897435897	-0.670212765957	-1.09090909091
678	0.339	11505.7	-6.45897435897	-2.08936170213	-2.50909090909
679	0.3395	11505.7	-10.7243589744	-3.5085106383	0.327272727273
680	0.34	11505.7	-3.61538461538	-2.08936170213	-2.50909090909
681	0.3405	11505.7	-2.19358974359	-0.670212765957	7.41818181818
682	0.341	11505.7	0.65	-6.34680851064	-3.92727272727
683	0.3415	11505.7	2.07179487179	5.00638297872	-2.50909090909
684	0.342	11505.7	-5.03717948718	-3.5085106383	-2.50909090909
685	0.3425	11505.7	2.07179487179	-2.08936170213	-1.09090909091
686	0.343	11505.7	0.65	-0.670212765957	0.327272727273
687	0.3435	11505.7	2.07179487179	0.748936170213	-1.09090909091
688	0.344	11505.7	0.65	13.5212765957	-3.92727272727
689	0.3445	11505.7	-2.19358974359	-3.5085106383	-3.92727272727
690	0.345	11505.7	0.65	-3.5085106383	-5.34545454545
691	0.3455	11505.7	-0.771794871795	-2.08936170213	-6.76363636364
692	0.346	11505.7	6.33717948718	-2.08936170213	0.327272727273
693	0.3465	11505.7	6.33717948718	-6.34680851064	-2.50909090909
694	0.347	11505.7	2.07179487179	-2.08936170213	7.41818181818
695	0.3475	11505.7	-0.771794871795	10.6829787234	-3.92727272727
696	0.348	11505.7	-7.88076923077	-6.34680851064	-5.34545454545
697	0.3485	11505.7	3.49358974359	-3.5085106383	-2.50909090909
698	0.349	11505.7	2.07179487179	-2.08936170213	-2.50909090909
699	0.3495	11505.7	2.07179487179	-3.5085106383	-1.09090909091
700	0.35	11505.7	2.07179487179	5.00638297872	-2.50909090909
701	0.3505	11505.7	2.07179487179	-4.92765957447	-3.92727272727
702	0.351	11505.7	0.65	-6.34680851064	-2.50909090909
703	0.3515	11505.7	-5.03717948718	-6.34680851064	-1.09090909091
704	0.352	11505.7	0.65	-4.92765957447	-1.09090909091
705	0.3525	11505.7	-0.771794871795	-3.5085106383	-1.09090909091
706	0.353	11505.7	2.07179487179	6.42553191489	-5.34545454545
707	0.3535	11505.7	-0.771794871795	12.1021276596	-1.09090909091
708	0.354	11505.7	-7.88076923077	-3.5085106383	-1.09090909091
709	0.3545	11505.7	0.65	-3.5085106383	0.327272727273
710	0.355	11505.7	0.65	-3.5085106383	-1.09090909091
711	0.3555	11505.7	0.65	-0.670212765957	-1.09090909091
712	0.356	11505.7	3.49358974359	-6.34680851064	14.5090909091
713	0.3565	11505.7	3.49358974359	-3.5085106383	-3.92727272727
714	0.357	11505.7	0.65	-4.92765957447	-2.50909090909
715	0.3575	11505.7	-6.45897435897	-4.92765957447	-2.50909090909
716	0.358	11505.7	-5.03717948718	-3.5085106383	-12.4363636364
717	0.3585	11505.7	-5.03717948718	-3.5085106383	-11.0181818182
718	0.359	11505.7	-5.03717948718	-14.8617021277	-6.76363636364
719	0.3595	11505.7	-2.19358974359	-4.92765957447	-5.34545454545
720	0.36	11505.7	10.6025641026	-2.08936170213	-2.50909090909
721	0.3605	11505.7	10.6025641026	-3.5085106383	-2.50909090909
722	0.361	11505.7	-2.19358974359	-3.5085106383	-8.18181818182
723	0.3615	11505.7	-3.61538461538	-12.0234042553	-8.18181818182
724	0.362	11505.7	-0.771794871795	-3.5085106383	-3.92727272727
725	0.3625	11505.7	4.91538461538	-6.34680851064	-2.50909090909
726	0.363	11505.7	0.65	-3.5085106383	-3.92727272727
727	0.3635	11505.7	2.07179487179	-2.08936170213	1.74545454545
728	0.364	11505.7	3.49358974359	-0.670212765957	15.9272727273
729	0.3645	11505.7	3.49358974359	3.58723404255	13.0909090909
730	0.365	11505.7	2.07179487179	-0.670212765957	-1.09090909091
731	0.3655	11505.7	-2.19358974359	-0.670212765957	-2.50909090909
732	0.366	11505.7	-2.19358974359	-0.670212765957	-2.50909090909
733	0.3665	11505.7	-0.771794871795	-0.670212765957	0.327272727273
734	0.367	11505.7	2.07179487179	-2.08936170213	-1.09090909091
735	0.3675	11505.7	3.49358974359	-0.670212765957	-2.50909090909
736	0.368	11505.7	4.91538461538	-0.670212765957	-2.50909090909
737	0.3685	11505.7	3.49358974359	-2.08936170213	0.327272727273
738	0.369	11505.7	0.65	-2.08936170213	-1.09090909091
739	0.3695	11505.7	-0.771794871795	-2.08936170213	-12.4363636364
740	0.37	11505.7	3.49358974359	0.748936170213	-6.76363636364
741	0.3705	11505.7	3.49358974359	-0.670212765957	-8.18181818182
742	0.371	11505.7	-5.03717948718	-0.670212765957	-1.09090909091
743	0.3715	11505.7	-6.45897435897	-0.670212765957	-2.50909090909
744	0.372	11505.7	0.65	-0.670212765957	-1.09090909091
745	0.3725	11505.7	-0.771794871795	-0.670212765957	-11.0181818182
746	0.373	11505.7	-0.771794871795	-0.670212765957	-5.34545454545
747	0.3735	11505.7	-0.771794871795	-12.0234042553	-2.50909090909
748	0.374	11505.7	2.07179487179	2.16808510638	0.327272727273
749	0.3745	11505.7	-9.30256410256	6.42553191489	-1.09090909091
750	0.375	11505.7	-0.771794871795	2.16808510638	-1.09090909091
751	0.3755	11505.7	-0.771794871795	3.58723404255	1.74545454545
752	0.376	11505.7	2.07179487179	3.58723404255	-2.50909090909
753	0.3765	11505.7	-2.19358974359	-0.670212765957	0.327272727273
754	0.377	11505.7	-10.7243589744	5.00638297872	0.327272727273
755	0.3775	11505.7	-7.88076923077	3.58723404255	0.327272727273
756	0.378	11505.7	-2.19358974359	5.00638297872	-2.50909090909
757	0.3785	11505.7	-2.19358974359	6.42553191489	-11.0181818182
758	0.379	11505.7	0.65	-0.670212765957	-8.18181818182
759	0.3795	11505.7	0.65	3.58723404255	0.327272727273
760	0.38	11505.7	-6.45897435897	5.00638297872	-1.09090909091
761	0.3805	11505.7	-2.19358974359	6.42553191489	-1.09090909091
762	0.381	11505.7	-3.61538461538	5.00638297872	-1.09090909091
763	0.3815	11505.7	-5.03717948718	5.00638297872	-1.09090909091
764	0.382	11505.7	-6.45897435897	22.0361702128	-5.34545454545
765	0.3825	11505.7	-10.7243589744	6.42553191489	-6.76363636364
766	0.383	11505.7	-20.6769230769	6.42553191489	-5.34545454545
767	0.3835	11505.7	-19.2551282051	5.00638297872	-5.34545454545
768	0.384	11505.7	-7.88076923077	6.42553191489	-8.18181818182
769	0.3845	11505.7	-9.30256410256	5.00638297872	-11.0181818182
770	0.385	11505.7	-7.88076923077	9.26382978723	-8.18181818182
771	0.3855	11505.7	-17.8333333333	0.748936170213	-8.18181818182
772	0.386	11505.7	-10.7243589744	2.16808510638	-12.4363636364
773	0.3865	11505.7	-0.771794871795	0.748936170213	-12.4363636364
774	0.387	11505.7	-0.771794871795	2.16808510638	-11.0181818182
775	0.3875	11505.7	-2.19358974359	3.58723404255	-12.4363636364
776	0.388	11505.7	-2.19358974359	19.1978723404	-18.1090909091
777	0.3885	11505.7	-0.771794871795	-2.08936170213	-20.9454545455
778	0.389	11505.7	14.8679487179	-3.5085106383	-22.3636363636
779	0.3895	11505.7	-3.61538461538	-2.08936170213	-23.7818181818
780	0.39	11505.7	-2.19358974359	-0.670212765957	-26.6181818182
781	0.3905	11505.7	-6.45897435897	-2.08936170213	-32.2909090909
782	0.391	11505.7	-5.03717948718	-3.5085106383	-35.1272727273
783	0.3915	11505.7	-13.5679487179	-4.92765957447	-33.7090909091
784	0.392	11505.7	-14.9897435897	-3.5085106383	-35.1272727273
785	0.3925	11505.7	-5.03717948718	-2.08936170213	-36.5454545455
786	0.393	11505.7	-3.61538461538	-2.08936170213	-35.1272727273
787	0.3935	11505.7	-5.03717948718	0.748936170213	-25.2
788	0.394	11505.7	0.65	12.1021276596	-42.2181818182
789	0.3945	11505.7	-7.88076923077	-4.92765957447	-47.8909090909
790	0.395	11505.7	-10.7243589744	-3.5085106383	-47.8909090909
791	0.3955	11505.7	-12.1461538462	-3.5085106383	-50.7272727273
792	0.396	11505.7	-5.03717948718	-4.92765957447	-50.7272727273
793	0.3965	11505.7	-7.88076923077	0.748936170213	-52.1454545455
794	0.397	11505.7	-6.45897435897	-0.670212765957	-53.5636363636
795	0.3975	11505.7	-10.7243589744	-0.670212765957	-54.9818181818
796	0.398	11505.7	-6.45897435897	0.748936170213	-54.9818181818
797	0.3985	11505.7	-7.88076923077	-0.670212765957	-52.1454545455
798	0.399	11505.7	-7.88076923077	-6.34680851064	-52.1454545455
799	0.3995	11505.7	-5.03717948718	5.00638297872	-60.6545454545
800	0.4	11505.7	-6.45897435897	5.00638297872	-60.6545454545
801	0.4005	11505.7	-17.8333333333	-10.6042553191	-62.0727272727
802	0.401	11505.7	-5.03717948718	-10.6042553191	-63.4909090909
803	0.4015	11505.7	-2.19358974359	-12.0234042553	-72.0
804	0.402	11505.7	-0.771794871795	-17.7	-70.5818181818
805	0.4025	11505.7	-2.19358974359	-19.1191489362	-60.6545454545
806	0.403	11505.7	-0.771794871795	-21.9574468085	-56.4
807	0.4035	11505.7	7.75897435897	-16.2808510638	-53.5636363636
808	0.404	11505.7	0.65	-20.5382978723	-50.7272727273
809	0.4045	11505.7	-0.771794871795	-20.5382978723	-50.7272727273
810	0.405	11505.7	0.65	-23.3765957447	-52.1454545455
811	0.4055	11505.7	3.49358974359	-31.8914893617	-39.3818181818
812	0.406	11505.7	6.33717948718	-26.214893617	-39.3818181818
813	0.4065	11505.7	19.1333333333	-30.4723404255	-37.9636363636
814	0.407	11505.7	3.49358974359	-33.3106382979	-36.5454545455
815	0.4075	11505.7	4.91538461538	-34.729787234	-35.1272727273
816	0.408	11505.7	0.65	-37.5680851064	-43.6363636364
817	0.4085	11505.7	3.49358974359	-44.6638297872	-36.5454545455
818	0.409	11505.7	-6.45897435897	-40.4063829787	-36.5454545455
819	0.4095	11505.7	-2.19358974359	-43.2446808511	-37.9636363636
820	0.41	11505.7	10.6025641026	-44.6638297872	-36.5454545455
821	0.4105	11505.7	7.75897435897	-44.6638297872	-36.5454545455
822	0.411	11505.7	10.6025641026	-48.9212765957	-42.2181818182
823	0.4115	11505.7	14.8679487179	-36.1489361702	-35.1272727273
824	0.412	11505.7	16.2897435897	-48.9212765957	-33.7090909091
825	0.4125	11505.7	23.3987179487	-47.5021276596	-36.5454545455
826	0.413	11505.7	21.9769230769	-48.9212765957	-37.9636363636
827	0.4135	11505.7	23.3987179487	-48.9212765957	-29.4545454545
828	0.414	11505.7	26.2423076923	-61.6936170213	-40.8
829	0.4145	11505.7	33.3512820513	-54.5978723404	-37.9636363636
830	0.415	11505.7	29.0858974359	-51.7595744681	-36.5454545455
831	0.4155	11505.7	20.5551282051	-48.9212765957	-32.2909090909
832	0.416	11505.7	30.5076923077	-51.7595744681	-30.8727272727
833	0.4165	11505.7	31.9294871795	-48.9212765957	-29.4545454545
834	0.417	11505.7	33.3512820513	-46.0829787234	-25.2
835	0.4175	11505.7	30.5076923077	-50.3404255319	-26.6181818182
836	0.418	11505.7	17.7115384615	-47.5021276596	-23.7818181818
837	0.4185	11505.7	20.5551282051	-51.7595744681	-22.3636363636
838	0.419	11505.7	27.6641025641	-54.5978723404	-25.2
839	0.4195	11505.7	24.8205128205	-50.3404255319	-28.0363636364
840	0.42	11505.7	24.8205128205	-54.5978723404	-18.1090909091
841	0.4205	11505.7	23.3987179487	-58.8553191489	-18.1090909091
842	0.421	11505.7	21.9769230769	-48.9212765957	-15.2727272727
843	0.4215	11505.7	13.4461538462	-47.5021276596	-13.8545454545
844	0.422	11505.7	24.8205128205	-46.0829787234	-12.4363636364
845	0.4225	11505.7	21.9769230769	-46.0829787234	-1.09090909091
846	0.423	11505.7	16.2897435897	-48.9212765957	3.16363636364
847	0.4235	11505.7	12.0243589744	-36.1489361702	-9.6
848	0.424	11505.7	9.18076923077	-41.8255319149	-11.0181818182
849	0.4245	11505.7	9.18076923077	-43.2446808511	-8.18181818182
850	0.425	11505.7	13.4461538462	-44.6638297872	-6.76363636364
851	0.4255	11505.7	14.8679487179	-41.8255319149	4.58181818182
852	0.426	11505.7	10.6025641026	-40.4063829787	7.41818181818
853	0.4265	11505.7	10.6025641026	-26.214893617	-6.76363636364
854	0.427	11505.7	2.07179487179	-36.1489361702	-3.92727272727
855	0.4275	11505.7	-0.771794871795	-37.5680851064	-3.92727272727
856	0.428	11505.7	10.6025641026	-37.5680851064	-5.34545454545
857	0.4285	11505.7	9.18076923077	-38.9872340426	13.0909090909
858	0.429	11505.7	10.6025641026	-38.9872340426	11.6727272727
859	0.4295	11505.7	13.4461538462	-38.9872340426	-1.09090909091
860	0.43	11505.7	16.2897435897	-36.1489361702	-2.50909090909
861	0.4305	11505.7	6.33717948718	-34.729787234	0.327272727273
862	0.431	11505.7	9.18076923077	-33.3106382979	3.16363636364
863	0.4315	11505.7	7.75897435897	-31.8914893617	-8.18181818182
864	0.432	11505.7	6.33717948718	-40.4063829787	-2.50909090909
865	0.4325	11505.7	4.91538461538	-34.729787234	1.74545454545
866	0.433	11505.7	-9.30256410256	-29.0531914894	1.74545454545
867	0.4335	11505.7	-0.771794871795	-29.0531914894	3.16363636364
868	0.434	11505.7	4.91538461538	-26.214893617	0.327272727273
869	0.4345	11505.7	6.33717948718	-29.0531914894	21.6
870	0.435	11505.7	6.33717948718	-29.0531914894	21.6
871	0.4355	11505.7	4.91538461538	-10.6042553191	1.74545454545
872	0.436	11505.7	-0.771794871795	-21.9574468085	1.74545454545
873	0.4365	11505.7	-7.88076923077	-21.9574468085	3.16363636364
874	0.437	11505.7	2.07179487179	-23.3765957447	1.74545454545
875	0.4375	11505.7	2.07179487179	-21.9574468085	4.58181818182
876	0.438	11505.7	0.65	-19.1191489362	4.58181818182
877	0.4385	11505.7	0.65	-23.3765957447	6.0
878	0.439	11505.7	-5.03717948718	-14.8617021277	7.41818181818
879	0.4395	11505.7	3.49358974359	-14.8617021277	7.41818181818
880	0.44	11505.7	2.07179487179	-16.2808510638	4.58181818182
881	0.4405	11505.7	0.65	-16.2808510638	0.327272727273
882	0.441	11505.7	4.91538461538	-24.7957446809	7.41818181818
883	0.4415	11505.7	0.65	-16.2808510638	8.83636363636
884	0.442	11505.7	6.33717948718	-14.8617021277	6.0
885	0.4425	11505.7	-2.19358974359	-12.0234042553	3.16363636364
886	0.443	11505.7	-3.61538461538	-12.0234042553	4.58181818182
887	0.4435	11505.7	3.49358974359	-9.18510638298	1.74545454545
888	0.444	11505.7	2.07179487179	-16.2808510638	8.83636363636
889	0.4445	11505.7	0.65	-19.1191489362	3.16363636364
890	0.445	11505.7	4.91538461538	-4.92765957447	7.41818181818
891	0.4455	11505.7	-6.45897435897	-3.5085106383	8.83636363636
892	0.446	11505.7	-0.771794871795	-3.5085106383	8.83636363636
893	0.4465	11505.7	-0.771794871795	-3.5085106383	7.41818181818
894	0.447	11505.7	-0.771794871795	-10.6042553191	4.58181818182
895	0.4475	11505.7	0.65	-0.670212765957	8.83636363636
896	0.448	11505.7	4.91538461538	-2.08936170213	11.6727272727
897	0.4485	11505.7	-3.61538461538	-0.670212765957	14.5090909091
898	0.449	11505.7	4.91538461538	-3.5085106383	14.5090909091
899	0.4495	11505.7	-0.771794871795	-2.08936170213	4.58181818182
900	0.45	11505.7	-0.771794871795	-10.6042553191	14.5090909091
901	0.4505	11505.7	0.65	-7.76595744681	6.0
902	0.451	11505.7	0.65	0.748936170213	11.6727272727
903	0.4515	11505.7	-6.45897435897	2.16808510638	13.0909090909
904	0.452	11505.7	0.65	3.58723404255	7.41818181818
905	0.4525	11505.7	-0.771794871795	6.42553191489	1.74545454545
906	0.453	11505.7	-0.771794871795	7.84468085106	-1.09090909091
907	0.4535	11505.7	-0.771794871795	-0.670212765957	13.0909090909
908	0.454	11505.7	-3.61538461538	-2.08936170213	13.0909090909
909	0.4545	11505.7	4.91538461538	6.42553191489	7.41818181818
910	0.455	11505.7	0.65	9.26382978723	13.0909090909
911	0.4555	11505.7	-0.771794871795	6.42553191489	15.9272727273
912	0.456	11505.7	2.07179487179	0.748936170213	8.83636363636
913	0.4565	11505.7	0.65	3.58723404255	13.0909090909
914	0.457	11505.7	13.4461538462	7.84468085106	13.0909090909
915	0.4575	11505.7	-0.771794871795	12.1021276596	11.6727272727
916	0.458	11505.7	3.49358974359	13.5212765957	11.6727272727
917	0.4585	11505.7	0.65	9.26382978723	31.5272727273
918	0.459	11505.7	0.65	0.748936170213	13.0909090909
919	0.4595	11505.7	-2.19358974359	0.748936170213	11.6727272727
920	0.46	11505.7	13.4461538462	14.9404255319	13.0909090909
921	0.4605	11505.7	-10.7243589744	14.9404255319	14.5090909091
922	0.461	11505.7	-5.03717948718	16.3595744681	13.0909090909
923	0.4615	11505.7	-5.03717948718	13.5212765957	14.5090909091
924	0.462	11505.7	-3.61538461538	24.8744680851	14.5090909091
925	0.4625	11505.7	-5.03717948718	24.8744680851	13.0909090909
926	0.463	11505.7	-13.5679487179	12.1021276596	13.0909090909
927	0.4635	11505.7	-10.7243589744	7.84468085106	15.9272727273
928	0.464	11505.7	-3.61538461538	9.26382978723	14.5090909091
929	0.4645	11505.7	-3.61538461538	7.84468085106	31.5272727273
930	0.465	11505.7	-2.19358974359	12.1021276596	25.8545454545
931	0.4655	11505.7	-9.30256410256	12.1021276596	8.83636363636
932	0.466	11505.7	3.49358974359	14.9404255319	7.41818181818
933	0.4665	11505.7	-2.19358974359	13.5212765957	11.6727272727
934	0.467	11505.7	-2.19358974359	12.1021276596	8.83636363636
935	0.4675	11505.7	-0.771794871795	7.84468085106	4.58181818182
936	0.468	11505.7	0.65	16.3595744681	7.41818181818
937	0.4685	11505.7	-2.19358974359	13.5212765957	7.41818181818
938	0.469	11505.7	9.18076923077	14.9404255319	7.41818181818
939	0.4695	11505.7	-6.45897435897	9.26382978723	7.41818181818
940	0.47	11505.7	-3.61538461538	10.6829787234	8.83636363636
941	0.4705	11505.7	-6.45897435897	17.7787234043	24.4363636364
942	0.471	11505.7	-5.03717948718	13.5212765957	6.0
943	0.4715	11505.7	-6.45897435897	30.5510638298	10.2545454545
944	0.472	11505.7	-13.5679487179	12.1021276596	11.6727272727
945	0.4725	11505.7	-5.03717948718	13.5212765957	6.0
946	0.473	11505.7	-3.61538461538	12.1021276596	8.83636363636
947	0.4735	11505.7	-3.61538461538	14.9404255319	7.41818181818
948	0.474	11505.7	-3.61538461538	19.1978723404	3.16363636364
949	0.4745	11505.7	-2.19358974359	17.7787234043	8.83636363636
950	0.475	11505.7	-2.19358974359	13.5212765957	8.83636363636
951	0.4755	11505.7	-0.771794871795	13.5212765957	8.83636363636
952	0.476	11505.7	-3.61538461538	14.9404255319	6.0
953	0.4765	11505.7	-5.03717948718	5.00638297872	4.58181818182
954	0.477	11505.7	-5.03717948718	6.42553191489	4.58181818182
955	0.4775	11505.7	-2.19358974359	5.00638297872	11.6727272727
956	0.478	11505.7	3.49358974359	9.26382978723	8.83636363636
957	0.4785	11505.7	4.91538461538	12.1021276596	11.6727272727
958	0.479	11505.7	-2.19358974359	9.26382978723	11.6727272727
959	0.4795	11505.7	-2.19358974359	12.1021276596	7.41818181818
960	0.48	11505.7	-0.771794871795	16.3595744681	1.74545454545
961	0.4805	11505.7	-5.03717948718	16.3595744681	8.83636363636
962	0.481	11505.7	-3.61538461538	13.5212765957	7.41818181818
963	0.4815	11505.7	0.65	14.9404255319	6.0
964	0.482	11505.7	0.65	12.1021276596	-3.92727272727
965	0.4825	11505.7	2.07179487179	7.84468085106	0.327272727273
966	0.483	11505.7	0.65	-0.670212765957	7.41818181818
967	0.4835	11505.7	-2.19358974359	-0.670212765957	6.0
968	0.484	11505.7	16.2897435897	10.6829787234	6.0
969	0.4845	11505.7	-2.19358974359	9.26382978723	7.41818181818
970	0.485	11505.7	0.65	5.00638297872	6.0
971	0.4855	11505.7	-6.45897435897	6.42553191489	1.74545454545
972	0.486	11505.7	-9.30256410256	3.58723404255	6.0
973	0.4865	11505.7	-17.8333333333	9.26382978723	7.41818181818
974	0.487	11505.7	-2.19358974359	9.26382978723	8.83636363636
975	0.4875	11505.7	-6.45897435897	7.84468085106	7.41818181818
976	0.488	11505.7	-3.61538461538	12.1021276596	0.327272727273
977	0.4885	11505.7	-6.45897435897	-2.08936170213	6.0
978	0.489	11505.7	-5.03717948718	-0.670212765957	13.0909090909
979	0.4895	11505.7	-0.771794871795	13.5212765957	11.6727272727
980	0.49	11505.7	0.65	9.26382978723	14.5090909091
981	0.4905	11505.7	-0.771794871795	9.26382978723	7.41818181818
982	0.491	11505.7	0.65	12.1021276596	18.7636363636
983	0.4915	11505.7	0.65	2.16808510638	11.6727272727
984	0.492	11505.7	-0.771794871795	5.00638297872	8.83636363636
985	0.4925	11505.7	-13.5679487179	12.1021276596	8.83636363636
986	0.493	11505.7	-3.61538461538	9.26382978723	8.83636363636
987	0.4935	11505.7	-3.61538461538	14.9404255319	8.83636363636
988	0.494	11505.7	-3.61538461538	9.26382978723	11.6727272727
989	0.4945	11505.7	-0.771794871795	26.2936170213	8.83636363636
990	0.495	11505.7	-3.61538461538	12.1021276596	10.2545454545
991	0.4955	11505.7	-2.19358974359	12.1021276596	7.41818181818
992	0.496	11505.7	-6.45897435897	14.9404255319	11.6727272727
993	0.4965	11505.7	-5.03717948718	14.9404255319	-1.09090909091
994	0.497	11505.7	-3.61538461538	12.1021276596	4.58181818182
995	0.4975	11505.7	-5.03717948718	22.0361702128	7.41818181818
996	0.498	11505.7	-0.771794871795	23.4553191489	6.0
997	0.4985	11505.7	-7.88076923077	12.1021276596	6.0
998	0.499	11505.7	0.65	9.26382978723	7.41818181818
999	0.4995	11505.7	0.65	14.9404255319	6.0
1000	0.5	11505.7	-2.19358974359	9.26382978723	11.6727272727
1001	0.5005	11505.7	-5.03717948718	22.0361702128	8.83636363636
1002	0.501	11505.7	-7.88076923077	12.1021276596	7.41818181818
1003	0.5015	11505.7	2.07179487179	12.1021276596	7.41818181818
1004	0.502	11505.7	-5.03717948718	7.84468085106	14.5090909091
1005	0.5025	11505.7	-2.19358974359	6.42553191489	8.83636363636
1006	0.503	11505.7	-2.19358974359	0.748936170213	11.6727272727
1007	0.5035	11505.7	-5.03717948718	6.42553191489	7.41818181818
1008	0.504	11505.7	-10.7243589744	13.5212765957	7.41818181818
1009	0.5045	11505.7	-10.7243589744	12.1021276596	7.41818181818
1010	0.505	11505.7	0.65	7.84468085106	6.0
1011	0.5055	11505.7	-0.771794871795	6.42553191489	0.327272727273
1012	0.506	11505.7	0.65	6.42553191489	7.41818181818
1013	0.5065	11505.7	3.49358974359	-0.670212765957	8.83636363636
1014	0.507	11505.7	6.33717948718	-0.670212765957	6.0
1015	0.5075	11505.7	3.49358974359	7.84468085106	13.0909090909
1016	0.508	11505.7	-2.19358974359	7.84468085106	11.6727272727
1017	0.5085	11505.7	-2.19358974359	12.1021276596	8.83636363636
1018	0.509	11505.7	-0.771794871795	2.16808510638	3.16363636364
1019	0.5095	11505.7	2.07179487179	6.42553191489	7.41818181818
1020	0.51	11505.7	7.75897435897	9.26382978723	7.41818181818
1021	0.5105	11505.7	-6.45897435897	5.00638297872	8.83636363636
1022	0.511	11505.7	0.65	7.84468085106	8.83636363636
1023	0.5115	11505.7	-2.19358974359	9.26382978723	18.7636363636
1024	0.512	11505.7	-0.771794871795	12.1021276596	17.3454545455
1025	0.5125	11505.7	-0.771794871795	12.1021276596	4.58181818182
1026	0.513	11505.7	0.65	7.84468085106	7.41818181818
1027	0.5135	11505.7	-0.771794871795	12.1021276596	4.58181818182
1028	0.514	11505.7	2.07179487179	9.26382978723	11.6727272727
1029	0.5145	11505.7	-0.771794871795	13.5212765957	0.327272727273
1030	0.515	11505.7	2.07179487179	-2.08936170213	4.58181818182
1031	0.5155	11505.7	-0.771794871795	6.42553191489	7.41818181818
1032	0.516	11505.7	14.8679487179	6.42553191489	6.0
1033	0.5165	11505.7	-3.61538461538	10.6829787234	11.6727272727
1034	0.517	11505.7	-2.19358974359	9.26382978723	14.5090909091
1035	0.5175	11505.7	-0.771794871795	5.00638297872	24.4363636364
1036	0.518	11505.7	0.65	26.2936170213	8.83636363636
1037	0.5185	11505.7	-0.771794871795	20.6170212766	6.0
1038	0.519	11505.7	-9.30256410256	5.00638297872	6.0
1039	0.5195	11505.7	-0.771794871795	7.84468085106	8.83636363636
1040	0.52	11505.7	-0.771794871795	7.84468085106	0.327272727273
1041	0.5205	11505.7	-2.19358974359	9.26382978723	0.327272727273
1042	0.521	11505.7	-0.771794871795	3.58723404255	-1.09090909091
1043	0.5215	11505.7	-6.45897435897	6.42553191489	7.41818181818
1044	0.522	11505.7	7.75897435897	6.42553191489	4.58181818182
1045	0.5225	11505.7	-2.19358974359	6.42553191489	11.6727272727
1046	0.523	11505.7	-0.771794871795	9.26382978723	7.41818181818
1047	0.5235	11505.7	-5.03717948718	3.58723404255	4.58181818182
1048	0.524	11505.7	-3.61538461538	20.6170212766	6.0
1049	0.5245	11505.7	-6.45897435897	12.1021276596	6.0
1050	0.525	11505.7	7.75897435897	9.26382978723	7.41818181818
1051	0.5255	11505.7	-0.771794871795	7.84468085106	7.41818181818
1052	0.526	11505.7	-0.771794871795	12.1021276596	7.41818181818
1053	0.5265	11505.7	-5.03717948718	-0.670212765957	4.58181818182
1054	0.527	11505.7	0.65	0.748936170213	7.41818181818
1055	0.5275	11505.7	0.65	12.1021276596	7.41818181818
1056	0.528	11505.7	16.2897435897	13.5212765957	7.41818181818
1057	0.5285	11505.7	-0.771794871795	13.5212765957	11.6727272727
1058	0.529	11505.7	-0.771794871795	14.9404255319	13.0909090909
1059	0.5295	11505.7	0.65	14.9404255319	-2.50909090909
1060	0.53	11505.7	-0.771794871795	5.00638297872	11.6727272727
1061	0.5305	11505.7	-9.30256410256	7.84468085106	11.6727272727
1062	0.531	11505.7	-0.771794871795	14.9404255319	11.6727272727
1063	0.5315	11505.7	0.65	13.5212765957	8.83636363636
1064	0.532	11505.7	-0.771794871795	12.1021276596	4.58181818182
1065	0.5325	11505.7	2.07179487179	0.748936170213	7.41818181818
1066	0.533	11505.7	-0.771794871795	3.58723404255	8.83636363636
1067	0.5335	11505.7	19.1333333333	12.1021276596	6.0
1068	0.534	11505.7	16.2897435897	7.84468085106	7.41818181818
1069	0.5345	11505.7	-5.03717948718	9.26382978723	11.6727272727
1070	0.535	11505.7	-7.88076923077	13.5212765957	-1.09090909091
1071	0.5355	11505.7	-7.88076923077	24.8744680851	7.41818181818
1072	0.536	11505.7	-10.7243589744	24.8744680851	6.0
1073	0.5365	11505.7	-17.8333333333	9.26382978723	6.0
1074	0.537	11505.7	-9.30256410256	10.6829787234	4.58181818182
1075	0.5375	11505.7	-7.88076923077	9.26382978723	7.41818181818
1076	0.538	11505.7	-5.03717948718	13.5212765957	-5.34545454545
1077	0.5385	11505.7	-0.771794871795	2.16808510638	8.83636363636
1078	0.539	11505.7	-0.771794871795	5.00638297872	6.0
1079	0.5395	11505.7	20.5551282051	14.9404255319	6.0
1080	0.54	11505.7	2.07179487179	14.9404255319	8.83636363636
1081	0.5405	11505.7	2.07179487179	13.5212765957	3.16363636364
1082	0.541	11505.7	2.07179487179	12.1021276596	-1.09090909091
1083	0.5415	11505.7	0.65	9.26382978723	11.6727272727
1084	0.542	11505.7	-7.88076923077	14.9404255319	7.41818181818
1085	0.5425	11505.7	0.65	13.5212765957	6.0
1086	0.543	11505.7	0.65	14.9404255319	4.58181818182
1087	0.5435	11505.7	-2.19358974359	13.5212765957	-1.09090909091
1088	0.544	11505.7	-2.19358974359	14.9404255319	-1.09090909091
1089	0.5445	11505.7	-2.19358974359	6.42553191489	7.41818181818
1090	0.545	11505.7	0.65	12.1021276596	4.58181818182
1091	0.5455	11505.7	-3.61538461538	14.9404255319	4.58181818182
1092	0.546	11505.7	-0.771794871795	12.1021276596	8.83636363636
1093	0.5465	11505.7	2.07179487179	13.5212765957	8.83636363636
1094	0.547	11505.7	2.07179487179	17.7787234043	-1.09090909091
1095	0.5475	11505.7	-2.19358974359	9.26382978723	7.41818181818
1096	0.548	11505.7	-5.03717948718	9.26382978723	4.58181818182
1097	0.5485	11505.7	-3.61538461538	7.84468085106	6.0
1098	0.549	11505.7	2.07179487179	13.5212765957	8.83636363636
1099	0.5495	11505.7	0.65	7.84468085106	-1.09090909091
1100	0.55	11505.7	-3.61538461538	-0.670212765957	4.58181818182
1101	0.5505	11505.7	-3.61538461538	5.00638297872	6.0
1102	0.551	11505.7	-6.45897435897	5.00638297872	4.58181818182
1103	0.5515	11505.7	-9.30256410256	5.00638297872	6.0
1104	0.552	11505.7	-3.61538461538	6.42553191489	3.16363636364
1105	0.5525	11505.7	-6.45897435897	7.84468085106	10.2545454545
1106	0.553	11505.7	-6.45897435897	13.5212765957	4.58181818182
1107	0.5535	11505.7	-16.4115384615	6.42553191489	7.41818181818
1108	0.554	11505.7	-16.4115384615	5.00638297872	8.83636363636
1109	0.5545	11505.7	-5.03717948718	6.42553191489	8.83636363636
1110	0.555	11505.7	-2.19358974359	9.26382978723	8.83636363636
1111	0.5555	11505.7	-5.03717948718	6.42553191489	25.8545454545
1112	0.556	11505.7	-2.19358974359	3.58723404255	0.327272727273
1113	0.5565	11505.7	10.6025641026	5.00638297872	11.6727272727
1114	0.557	11505.7	0.65	5.00638297872	13.0909090909
1115	0.5575	11505.7	0.65	5.00638297872	11.6727272727
1116	0.558	11505.7	0.65	6.42553191489	24.4363636364
1117	0.5585	11505.7	-0.771794871795	5.00638297872	7.41818181818
1118	0.559	11505.7	0.65	13.5212765957	7.41818181818
1119	0.5595	11505.7	9.18076923077	6.42553191489	8.83636363636
1120	0.56	11505.7	-5.03717948718	5.00638297872	11.6727272727
1121	0.5605	11505.7	0.65	9.26382978723	-2.50909090909
1122	0.561	11505.7	-0.771794871795	9.26382978723	-1.09090909091
1123	0.5615	11505.7	-3.61538461538	24.8744680851	11.6727272727
1124	0.562	11505.7	-3.61538461538	7.84468085106	7.41818181818
1125	0.5625	11505.7	-7.88076923077	9.26382978723	7.41818181818
1126	0.563	11505.7	-5.03717948718	7.84468085106	4.58181818182
1127	0.5635	11505.7	-0.771794871795	7.84468085106	1.74545454545
1128	0.564	11505.7	-2.19358974359	6.42553191489	0.327272727273
1129	0.5645	11505.7	-0.771794871795	5.00638297872	1.74545454545
1130	0.565	11505.7	-0.771794871795	7.84468085106	8.83636363636
1131	0.5655	11505.7	-7.88076923077	14.9404255319	8.83636363636
1132	0.566	11505.7	-5.03717948718	12.1021276596	6.0
1133	0.5665	11505.7	-5.03717948718	14.9404255319	7.41818181818
1134	0.567	11505.7	-3.61538461538	5.00638297872	7.41818181818
1135	0.5675	11505.7	-6.45897435897	7.84468085106	8.83636363636
1136	0.568	11505.7	-5.03717948718	17.7787234043	8.83636363636
1137	0.5685	11505.7	2.07179487179	16.3595744681	8.83636363636
1138	0.569	11505.7	-3.61538461538	17.7787234043	8.83636363636
1139	0.5695	11505.7	-2.19358974359	17.7787234043	3.16363636364
1140	0.57	11505.7	-5.03717948718	7.84468085106	8.83636363636
1141	0.5705	11505.7	-7.88076923077	14.9404255319	10.2545454545
1142	0.571	11505.7	16.2897435897	19.1978723404	8.83636363636
1143	0.5715	11505.7	-3.61538461538	20.6170212766	7.41818181818
1144	0.572	11505.7	-5.03717948718	19.1978723404	7.41818181818
1145	0.5725	11505.7	-5.03717948718	17.7787234043	8.83636363636
1146	0.573	11505.7	-5.03717948718	26.2936170213	6.0
1147	0.5735	11505.7	-13.5679487179	16.3595744681	11.6727272727
1148	0.574	11505.7	-9.30256410256	13.5212765957	11.6727272727
1149	0.5745	11505.7	-6.45897435897	14.9404255319	8.83636363636
1150	0.575	11505.7	-5.03717948718	14.9404255319	15.9272727273
1151	0.5755	11505.7	-6.45897435897	2.16808510638	7.41818181818
1152	0.576	11505.7	-6.45897435897	5.00638297872	6.0
1153	0.5765	11505.7	-2.19358974359	13.5212765957	8.83636363636
1154	0.577	11505.7	-9.30256410256	12.1021276596	7.41818181818
1155	0.5775	11505.7	-5.03717948718	13.5212765957	14.5090909091
1156	0.578	11505.7	-6.45897435897	16.3595744681	23.0181818182
1157	0.5785	11505.7	-5.03717948718	16.3595744681	8.83636363636
1158	0.579	11505.7	-2.19358974359	27.7127659574	7.41818181818
1159	0.5795	11505.7	-16.4115384615	12.1021276596	7.41818181818
1160	0.58	11505.7	-16.4115384615	12.1021276596	7.41818181818
1161	0.5805	11505.7	-13.5679487179	9.26382978723	13.0909090909
1162	0.581	11505.7	-3.61538461538	7.84468085106	3.16363636364
1163	0.5815	11505.7	-2.19358974359	14.9404255319	10.2545454545
1164	0.582	11505.7	-2.19358974359	7.84468085106	13.0909090909
1165	0.5825	11505.7	-13.5679487179	13.5212765957	8.83636363636
1166	0.583	11505.7	-3.61538461538	14.9404255319	8.83636363636
1167	0.5835	11505.7	-5.03717948718	16.3595744681	13.0909090909
1168	0.584	11505.7	-5.03717948718	13.5212765957	4.58181818182
1169	0.5845	11505.7	-5.03717948718	12.1021276596	8.83636363636
1170	0.585	11505.7	0.65	13.5212765957	14.5090909091
1171	0.5855	11505.7	-3.61538461538	14.9404255319	13.0909090909
1172	0.586	11505.7	-9.30256410256	16.3595744681	11.6727272727
1173	0.5865	11505.7	-6.45897435897	19.1978723404	-1.09090909091
1174	0.587	11505.7	-6.45897435897	17.7787234043	-1.09090909091
1175	0.5875	11505.7	-7.88076923077	19.1978723404	3.16363636364
1176	0.588	11505.7	-9.30256410256	16.3595744681	6.0
1177	0.5885	11505.7	-14.9897435897	19.1978723404	7.41818181818
1178	0.589	11505.7	-7.88076923077	19.1978723404	7.41818181818
1179	0.5895	11505.7	-9.30256410256	19.1978723404	-1.09090909091
1180	0.59	11505.7	-6.45897435897	16.3595744681	0.327272727273
1181	0.5905	11505.7	-7.88076923077	6.42553191489	11.6727272727
1182	0.591	11505.7	-7.88076923077	9.26382978723	8.83636363636
1183	0.5915	11505.7	-2.19358974359	16.3595744681	10.2545454545
1184	0.592	11505.7	-5.03717948718	17.7787234043	7.41818181818
1185	0.5925	11505.7	-9.30256410256	16.3595744681	-3.92727272727
1186	0.593	11505.7	-7.88076923077	9.26382978723	1.74545454545
1187	0.5935	11505.7	-5.03717948718	12.1021276596	1.74545454545
1188	0.594	11505.7	-3.61538461538	12.1021276596	7.41818181818
1189	0.5945	11505.7	6.33717948718	6.42553191489	6.0
1190	0.595	11505.7	-6.45897435897	9.26382978723	8.83636363636
1191	0.5955	11505.7	-6.45897435897	13.5212765957	3.16363636364
1192	0.596	11505.7	-7.88076923077	6.42553191489	6.0
1193	0.5965	11505.7	-5.03717948718	-0.670212765957	7.41818181818
1194	0.597	11505.7	-2.19358974359	13.5212765957	8.83636363636
1195	0.5975	11505.7	-16.4115384615	9.26382978723	11.6727272727
1196	0.598	11505.7	-3.61538461538	9.26382978723	7.41818181818
1197	0.5985	11505.7	-6.45897435897	7.84468085106	13.0909090909
1198	0.599	11505.7	-7.88076923077	9.26382978723	3.16363636364
1199	0.5995	11505.7	-9.30256410256	9.26382978723	11.6727272727
1200	0.6	11505.7	-17.8333333333	12.1021276596	7.41818181818
1201	0.6005	11505.7	7.75897435897	13.5212765957	8.83636363636
1202	0.601	11505.7	-9.30256410256	12.1021276596	13.0909090909
1203	0.6015	11505.7	-9.30256410256	13.5212765957	25.8545454545
1204	0.602	11505.7	-7.88076923077	14.9404255319	11.6727272727
1205	0.6025	11505.7	-6.45897435897	13.5212765957	4.58181818182
1206	0.603	11505.7	-12.1461538462	9.26382978723	4.58181818182
1207	0.6035	11505.7	-10.7243589744	9.26382978723	7.41818181818
1208	0.604	11505.7	-2.19358974359	12.1021276596	6.0
1209	0.6045	11505.7	-6.45897435897	13.5212765957	8.83636363636
1210	0.605	11505.7	-5.03717948718	5.00638297872	3.16363636364
1211	0.6055	11505.7	-6.45897435897	27.7127659574	4.58181818182
1212	0.606	11505.7	-16.4115384615	13.5212765957	6.0
1213	0.6065	11505.7	-16.4115384615	13.5212765957	7.41818181818
1214	0.607	11505.7	-10.7243589744	14.9404255319	4.58181818182
1215	0.6075	11505.7	-12.1461538462	16.3595744681	6.0
1216	0.608	11505.7	-14.9897435897	13.5212765957	4.58181818182
1217	0.6085	11505.7	-13.5679487179	9.26382978723	4.58181818182
1218	0.609	11505.7	-16.4115384615	14.9404255319	3.16363636364
1219	0.6095	11505.7	-6.45897435897	16.3595744681	6.0
1220	0.61	11505.7	-6.45897435897	16.3595744681	7.41818181818
1221	0.6105	11505.7	-6.45897435897	14.9404255319	23.0181818182
1222	0.611	11505.7	-9.30256410256	14.9404255319	21.6
1223	0.6115	11505.7	-9.30256410256	14.9404255319	4.58181818182
1224	0.612	11505.7	-6.45897435897	17.7787234043	4.58181818182
1225	0.6125	11505.7	-13.5679487179	14.9404255319	3.16363636364
1226	0.613	11505.7	-10.7243589744	16.3595744681	7.41818181818
1227	0.6135	11505.7	-10.7243589744	20.6170212766	8.83636363636
1228	0.614	11505.7	-9.30256410256	30.5510638298	3.16363636364
1229	0.6145	11505.7	-6.45897435897	30.5510638298	3.16363636364
1230	0.615	11505.7	-22.0987179487	17.7787234043	4.58181818182
1231	0.6155	11505.7	-7.88076923077	16.3595744681	6.0
1232	0.616	11505.7	-6.45897435897	19.1978723404	4.58181818182
1233	0.6165	11505.7	-3.61538461538	19.1978723404	7.41818181818
1234	0.617	11505.7	-0.771794871795	17.7787234043	-3.92727272727
1235	0.6175	11505.7	-3.61538461538	14.9404255319	4.58181818182
1236	0.618	11505.7	0.65	16.3595744681	1.74545454545
1237	0.6185	11505.7	-5.03717948718	17.7787234043	4.58181818182
1238	0.619	11505.7	-5.03717948718	14.9404255319	-8.18181818182
1239	0.6195	11505.7	-0.771794871795	14.9404255319	-2.50909090909
1240	0.62	11505.7	-3.61538461538	16.3595744681	-5.34545454545
1241	0.6205	11505.7	-5.03717948718	0.748936170213	4.58181818182
1242	0.621	11505.7	6.33717948718	9.26382978723	1.74545454545
1243	0.6215	11505.7	-5.03717948718	13.5212765957	1.74545454545
1244	0.622	11505.7	-3.61538461538	14.9404255319	0.327272727273
1245	0.6225	11505.7	-5.03717948718	16.3595744681	3.16363636364
1246	0.623	11505.7	-6.45897435897	7.84468085106	4.58181818182
1247	0.6235	11505.7	-0.771794871795	6.42553191489	3.16363636364
1248	0.624	11505.7	14.8679487179	14.9404255319	1.74545454545
1249	0.6245	11505.7	-2.19358974359	12.1021276596	1.74545454545
1250	0.625	11505.7	-0.771794871795	9.26382978723	6.0
1251	0.6255	11505.7	-6.45897435897	-0.670212765957	-1.09090909091
1252	0.626	11505.7	-2.19358974359	5.00638297872	-1.09090909091
1253	0.6265	11505.7	16.2897435897	13.5212765957	-1.09090909091
1254	0.627	11505.7	-5.03717948718	13.5212765957	0.327272727273
1255	0.6275	11505.7	-3.61538461538	13.5212765957	0.327272727273
1256	0.628	11505.7	-5.03717948718	13.5212765957	1.74545454545
1257	0.6285	11505.7	-6.45897435897	30.5510638298	-1.09090909091
1258	0.629	11505.7	-5.03717948718	23.4553191489	0.327272727273
1259	0.6295	11505.7	-2.19358974359	5.00638297872	-2.50909090909
1260	0.63	11505.7	-2.19358974359	6.42553191489	-2.50909090909
1261	0.6305	11505.7	-2.19358974359	12.1021276596	-12.4363636364
1262	0.631	11505.7	-3.61538461538	7.84468085106	-13.8545454545
1263	0.6315	11505.7	-5.03717948718	-2.08936170213	-1.09090909091
1264	0.632	11505.7	-10.7243589744	0.748936170213	-2.50909090909
1265	0.6325	11505.7	-5.03717948718	5.00638297872	-1.09090909091
1266	0.633	11505.7	-3.61538461538	7.84468085106	-1.09090909091
1267	0.6335	11505.7	-2.19358974359	6.42553191489	17.3454545455
1268	0.634	11505.7	-2.19358974359	6.42553191489	13.0909090909
1269	0.6345	11505.7	-2.19358974359	0.748936170213	0.327272727273
1270	0.635	11505.7	-7.88076923077	6.42553191489	-1.09090909091
1271	0.6355	11505.7	-2.19358974359	5.00638297872	-1.09090909091
1272	0.636	11505.7	-2.19358974359	3.58723404255	-3.92727272727
1273	0.6365	11505.7	-0.771794871795	2.16808510638	15.9272727273
1274	0.637	11505.7	-0.771794871795	24.8744680851	-3.92727272727
1275	0.6375	11505.7	-2.19358974359	5.00638297872	-2.50909090909
1276	0.638	11505.7	14.8679487179	5.00638297872	-1.09090909091
1277	0.6385	11505.7	-2.19358974359	5.00638297872	-2.50909090909
1278	0.639	11505.7	0.65	5.00638297872	-2.50909090909
1279	0.6395	11505.7	-0.771794871795	5.00638297872	-12.4363636364
1280	0.64	11505.7	-0.771794871795	0.748936170213	-9.6
1281	0.6405	11505.7	0.65	3.58723404255	-3.92727272727
1282	0.641	11505.7	-3.61538461538	7.84468085106	-6.76363636364
1283	0.6415	11505.7	-0.771794871795	12.1021276596	-3.92727272727
1284	0.642	11505.7	-3.61538461538	7.84468085106	11.6727272727
1285	0.6425	11505.7	-3.61538461538	7.84468085106	3.16363636364
1286	0.643	11505.7	-0.771794871795	2.16808510638	-2.50909090909
1287	0.6435	11505.7	6.33717948718	2.16808510638	-2.50909090909
1288	0.644	11505.7	0.65	7.84468085106	-2.50909090909
1289	0.6445	11505.7	2.07179487179	7.84468085106	-3.92727272727
1290	0.645	11505.7	3.49358974359	7.84468085106	-5.34545454545
1291	0.6455	11505.7	2.07179487179	-2.08936170213	-2.50909090909
1292	0.646	11505.7	3.49358974359	3.58723404255	-1.09090909091
1293	0.6465	11505.7	6.33717948718	3.58723404255	-3.92727272727
1294	0.647	11505.7	0.65	2.16808510638	-2.50909090909
1295	0.6475	11505.7	3.49358974359	0.748936170213	-6.76363636364
1296	0.648	11505.7	3.49358974359	-0.670212765957	-11.0181818182
1297	0.6485	11505.7	3.49358974359	-0.670212765957	-5.34545454545
1298	0.649	11505.7	4.91538461538	-2.08936170213	-6.76363636364
1299	0.6495	11505.7	-7.88076923077	0.748936170213	-3.92727272727
1300	0.65	11505.7	2.07179487179	-0.670212765957	-5.34545454545
1301	0.6505	11505.7	2.07179487179	-0.670212765957	-6.76363636364
1302	0.651	11505.7	2.07179487179	-6.34680851064	-8.18181818182
1303	0.6515	11505.7	2.07179487179	-0.670212765957	-2.50909090909
1304	0.652	11505.7	17.7115384615	-2.08936170213	-2.50909090909
1305	0.6525	11505.7	2.07179487179	2.16808510638	-3.92727272727
1306	0.653	11505.7	0.65	0.748936170213	-2.50909090909
1307	0.6535	11505.7	2.07179487179	5.00638297872	8.83636363636
1308	0.654	11505.7	4.91538461538	3.58723404255	-3.92727272727
1309	0.6545	11505.7	2.07179487179	12.1021276596	-3.92727272727
1310	0.655	11505.7	10.6025641026	5.00638297872	-6.76363636364
1311	0.6555	11505.7	0.65	5.00638297872	-3.92727272727
1312	0.656	11505.7	3.49358974359	3.58723404255	-2.50909090909
1313	0.6565	11505.7	3.49358974359	9.26382978723	8.83636363636
1314	0.657	11505.7	6.33717948718	20.6170212766	-3.92727272727
1315	0.6575	11505.7	-0.771794871795	23.4553191489	-3.92727272727
1316	0.658	11505.7	-0.771794871795	9.26382978723	-6.76363636364
1317	0.6585	11505.7	3.49358974359	6.42553191489	-6.76363636364
1318	0.659	11505.7	4.91538461538	9.26382978723	-6.76363636364
1319	0.6595	11505.7	2.07179487179	7.84468085106	0.327272727273
1320	0.66	11505.7	0.65	3.58723404255	-5.34545454545
1321	0.6605	11505.7	-6.45897435897	6.42553191489	-6.76363636364
1322	0.661	11505.7	-9.30256410256	7.84468085106	-6.76363636364
1323	0.6615	11505.7	2.07179487179	6.42553191489	-3.92727272727
1324	0.662	11505.7	0.65	2.16808510638	7.41818181818
1325	0.6625	11505.7	3.49358974359	0.748936170213	-6.76363636364
1326	0.663	11505.7	4.91538461538	5.00638297872	-8.18181818182
1327	0.6635	11505.7	-5.03717948718	0.748936170213	-8.18181818182
1328	0.664	11505.7	20.5551282051	0.748936170213	-6.76363636364
1329	0.6645	11505.7	4.91538461538	-2.08936170213	-8.18181818182
1330	0.665	11505.7	2.07179487179	-0.670212765957	-6.76363636364
1331	0.6655	11505.7	4.91538461538	-6.34680851064	-3.92727272727
1332	0.666	11505.7	4.91538461538	-6.34680851064	-5.34545454545
1333	0.6665	11505.7	-0.771794871795	-2.08936170213	-6.76363636364
1334	0.667	11505.7	-5.03717948718	-3.5085106383	-6.76363636364
1335	0.6675	11505.7	3.49358974359	-2.08936170213	-3.92727272727
1336	0.668	11505.7	3.49358974359	-2.08936170213	-5.34545454545
1337	0.6685	11505.7	0.65	-2.08936170213	11.6727272727
1338	0.669	11505.7	2.07179487179	0.748936170213	-5.34545454545
1339	0.6695	11505.7	2.07179487179	-2.08936170213	-8.18181818182
1340	0.67	11505.7	0.65	-0.670212765957	-6.76363636364
1341	0.6705	11505.7	4.91538461538	-0.670212765957	-8.18181818182
1342	0.671	11505.7	2.07179487179	-3.5085106383	-15.2727272727
1343	0.6715	11505.7	0.65	-10.6042553191	-5.34545454545
1344	0.672	11505.7	3.49358974359	-10.6042553191	-6.76363636364
1345	0.6725	11505.7	17.7115384615	-0.670212765957	-6.76363636364
1346	0.673	11505.7	3.49358974359	-0.670212765957	-2.50909090909
1347	0.6735	11505.7	3.49358974359	3.58723404255	-3.92727272727
1348	0.674	11505.7	4.91538461538	2.16808510638	-11.0181818182
1349	0.6745	11505.7	4.91538461538	-3.5085106383	-3.92727272727
1350	0.675	11505.7	-2.19358974359	0.748936170213	-8.18181818182
1351	0.6755	11505.7	13.4461538462	-0.670212765957	-9.6
1352	0.676	11505.7	2.07179487179	-0.670212765957	-6.76363636364
1353	0.6765	11505.7	0.65	-0.670212765957	-11.0181818182
1354	0.677	11505.7	2.07179487179	-2.08936170213	-2.50909090909
1355	0.6775	11505.7	4.91538461538	14.9404255319	-11.0181818182
1356	0.678	11505.7	-9.30256410256	-3.5085106383	-6.76363636364
1357	0.6785	11505.7	-5.03717948718	0.748936170213	-8.18181818182
1358	0.679	11505.7	3.49358974359	-0.670212765957	-8.18181818182
1359	0.6795	11505.7	2.07179487179	-2.08936170213	4.58181818182
1360	0.68	11505.7	3.49358974359	-2.08936170213	4.58181818182
1361	0.6805	11505.7	4.91538461538	-0.670212765957	-8.18181818182
1362	0.681	11505.7	20.5551282051	-4.92765957447	-8.18181818182
1363	0.6815	11505.7	3.49358974359	-4.92765957447	-3.92727272727
1364	0.682	11505.7	0.65	-0.670212765957	-5.34545454545
1365	0.6825	11505.7	-0.771794871795	-0.670212765957	1.74545454545
1366	0.683	11505.7	-3.61538461538	-4.92765957447	-6.76363636364
1367	0.6835	11505.7	-13.5679487179	-2.08936170213	-6.76363636364
1368	0.684	11505.7	17.7115384615	-3.5085106383	-8.18181818182
1369	0.6845	11505.7	0.65	-2.08936170213	-5.34545454545
1370	0.685	11505.7	0.65	-6.34680851064	-11.0181818182
1371	0.6855	11505.7	4.91538461538	-10.6042553191	-12.4363636364
1372	0.686	11505.7	6.33717948718	-4.92765957447	-5.34545454545
1373	0.6865	11505.7	10.6025641026	-2.08936170213	-6.76363636364
1374	0.687	11505.7	6.33717948718	-4.92765957447	-6.76363636364
1375	0.6875	11505.7	4.91538461538	-6.34680851064	-6.76363636364
1376	0.688	11505.7	6.33717948718	-2.08936170213	-1.09090909091
1377	0.6885	11505.7	4.91538461538	-10.6042553191	-6.76363636364
1378	0.689	11505.7	2.07179487179	-7.76595744681	-8.18181818182
1379	0.6895	11505.7	0.65	-9.18510638298	-9.6
1380	0.69	11505.7	-3.61538461538	-2.08936170213	-5.34545454545
1381	0.6905	11505.7	-0.771794871795	-0.670212765957	-16.6909090909
1382	0.691	11505.7	-2.19358974359	3.58723404255	-12.4363636364
1383	0.6915	11505.7	0.65	14.9404255319	-6.76363636364
1384	0.692	11505.7	0.65	-0.670212765957	-6.76363636364
1385	0.6925	11505.7	-2.19358974359	-2.08936170213	-5.34545454545
1386	0.693	11505.7	2.07179487179	-0.670212765957	-5.34545454545
1387	0.6935	11505.7	0.65	-0.670212765957	-8.18181818182
1388	0.694	11505.7	0.65	-7.76595744681	-5.34545454545
1389	0.6945	11505.7	4.91538461538	-7.76595744681	-6.76363636364
1390	0.695	11505.7	-2.19358974359	-2.08936170213	-5.34545454545
1391	0.6955	11505.7	0.65	-0.670212765957	-6.76363636364
1392	0.696	11505.7	3.49358974359	-2.08936170213	-16.6909090909
1393	0.6965	11505.7	4.91538461538	-7.76595744681	-12.4363636364
1394	0.697	11505.7	4.91538461538	-14.8617021277	-8.18181818182
1395	0.6975	11505.7	4.91538461538	-10.6042553191	-6.76363636364
1396	0.698	11505.7	12.0243589744	-4.92765957447	-5.34545454545
1397	0.6985	11505.7	6.33717948718	-3.5085106383	-8.18181818182
1398	0.699	11505.7	6.33717948718	-6.34680851064	-15.2727272727
1399	0.6995	11505.7	3.49358974359	-7.76595744681	-13.8545454545
1400	0.7	11505.7	6.33717948718	2.16808510638	-8.18181818182
1401	0.7005	11505.7	-9.30256410256	-9.18510638298	-3.92727272727
1402	0.701	11505.7	-5.03717948718	-9.18510638298	-1.09090909091
1403	0.7015	11505.7	3.49358974359	-4.92765957447	-5.34545454545
1404	0.702	11505.7	4.91538461538	-6.34680851064	-6.76363636364
1405	0.7025	11505.7	4.91538461538	-14.8617021277	-6.76363636364
1406	0.703	11505.7	9.18076923077	-7.76595744681	-5.34545454545
1407	0.7035	11505.7	20.5551282051	-7.76595744681	-3.92727272727
1408	0.704	11505.7	3.49358974359	-9.18510638298	-6.76363636364
1409	0.7045	11505.7	6.33717948718	-7.76595744681	-8.18181818182
1410	0.705	11505.7	3.49358974359	-9.18510638298	-2.50909090909
1411	0.7055	11505.7	6.33717948718	5.00638297872	-2.50909090909
1412	0.706	11505.7	9.18076923077	-7.76595744681	-3.92727272727
1413	0.7065	11505.7	26.2423076923	-9.18510638298	-5.34545454545
1414	0.707	11505.7	-2.19358974359	-7.76595744681	-5.34545454545
1415	0.7075	11505.7	2.07179487179	-6.34680851064	-1.09090909091
1416	0.708	11505.7	0.65	-13.4425531915	-3.92727272727
1417	0.7085	11505.7	0.65	-10.6042553191	-5.34545454545
1418	0.709	11505.7	0.65	-3.5085106383	-2.50909090909
1419	0.7095	11505.7	10.6025641026	-6.34680851064	-5.34545454545
1420	0.71	11505.7	-3.61538461538	-2.08936170213	-2.50909090909
1421	0.7105	11505.7	-2.19358974359	-4.92765957447	-5.34545454545
1422	0.711	11505.7	-0.771794871795	-14.8617021277	-8.18181818182
1423	0.7115	11505.7	2.07179487179	-13.4425531915	-2.50909090909
1424	0.712	11505.7	6.33717948718	-9.18510638298	-2.50909090909
1425	0.7125	11505.7	-6.45897435897	0.748936170213	-2.50909090909
1426	0.713	11505.7	-0.771794871795	-0.670212765957	-2.50909090909
1427	0.7135	11505.7	9.18076923077	3.58723404255	-3.92727272727
1428	0.714	11505.7	13.4461538462	3.58723404255	-3.92727272727
1429	0.7145	11505.7	9.18076923077	7.84468085106	-3.92727272727
1430	0.715	11505.7	-3.61538461538	0.748936170213	-2.50909090909
1431	0.7155	11505.7	7.75897435897	-2.08936170213	-2.50909090909
1432	0.716	11505.7	7.75897435897	-0.670212765957	-3.92727272727
1433	0.7165	11505.7	6.33717948718	-2.08936170213	-3.92727272727
1434	0.717	11505.7	7.75897435897	-0.670212765957	-16.6909090909
1435	0.7175	11505.7	9.18076923077	-0.670212765957	-6.76363636364
1436	0.718	11505.7	13.4461538462	-6.34680851064	-6.76363636364
1437	0.7185	11505.7	4.91538461538	-3.5085106383	-5.34545454545
1438	0.719	11505.7	6.33717948718	-4.92765957447	-2.50909090909
1439	0.7195	11505.7	9.18076923077	-0.670212765957	11.6727272727
1440	0.72	11505.7	6.33717948718	-2.08936170213	-12.4363636364
1441	0.7205	11505.7	-0.771794871795	-4.92765957447	-6.76363636364
1442	0.721	11505.7	23.3987179487	-3.5085106383	-6.76363636364
1443	0.7215	11505.7	6.33717948718	-3.5085106383	-5.34545454545
1444	0.722	11505.7	6.33717948718	-4.92765957447	3.16363636364
1445	0.7225	11505.7	6.33717948718	-6.34680851064	7.41818181818
1446	0.723	11505.7	6.33717948718	9.26382978723	-6.76363636364
1447	0.7235	11505.7	-5.03717948718	-2.08936170213	-2.50909090909
1448	0.724	11505.7	-3.61538461538	-4.92765957447	-3.92727272727
1449	0.7245	11505.7	4.91538461538	-3.5085106383	-1.09090909091
1450	0.725	11505.7	4.91538461538	-2.08936170213	-1.09090909091
1451	0.7255	11505.7	3.49358974359	9.26382978723	-1.09090909091
1452	0.726	11505.7	-0.771794871795	-4.92765957447	-2.50909090909
1453	0.7265	11505.7	-9.30256410256	-4.92765957447	-1.09090909091
1454	0.727	11505.7	-3.61538461538	-3.5085106383	-3.92727272727
1455	0.7275	11505.7	0.65	-4.92765957447	-2.50909090909
1456	0.728	11505.7	2.07179487179	-0.670212765957	8.83636363636
1457	0.7285	11505.7	2.07179487179	-2.08936170213	-2.50909090909
1458	0.729	11505.7	-0.771794871795	-6.34680851064	-1.09090909091
1459	0.7295	11505.7	0.65	-3.5085106383	-3.92727272727
1460	0.73	11505.7	2.07179487179	-3.5085106383	-2.50909090909
1461	0.7305	11505.7	3.49358974359	-2.08936170213	0.327272727273
1462	0.731	11505.7	2.07179487179	-2.08936170213	-15.2727272727
1463	0.7315	11505.7	2.07179487179	-12.0234042553	-5.34545454545
1464	0.732	11505.7	-0.771794871795	-6.34680851064	-3.92727272727
1465	0.7325	11505.7	-2.19358974359	-3.5085106383	-3.92727272727
1466	0.733	11505.7	2.07179487179	-3.5085106383	0.327272727273
1467	0.7335	11505.7	3.49358974359	-3.5085106383	-2.50909090909
1468	0.734	11505.7	2.07179487179	13.5212765957	-3.92727272727
1469	0.7345	11505.7	-0.771794871795	-3.5085106383	-5.34545454545
1470	0.735	11505.7	-0.771794871795	-4.92765957447	-3.92727272727
1471	0.7355	11505.7	-0.771794871795	-3.5085106383	-5.34545454545
1472	0.736	11505.7	6.33717948718	-0.670212765957	4.58181818182
1473	0.7365	11505.7	3.49358974359	-0.670212765957	-6.76363636364
1474	0.737	11505.7	2.07179487179	16.3595744681	-5.34545454545
1475	0.7375	11505.7	4.91538461538	-3.5085106383	-5.34545454545
1476	0.738	11505.7	19.1333333333	-4.92765957447	-3.92727272727
1477	0.7385	11505.7	-2.19358974359	-4.92765957447	-6.76363636364
1478	0.739	11505.7	4.91538461538	-3.5085106383	3.16363636364
1479	0.7395	11505.7	4.91538461538	-12.0234042553	-9.6
1480	0.74	11505.7	7.75897435897	-12.0234042553	-3.92727272727
1481	0.7405	11505.7	9.18076923077	-3.5085106383	-6.76363636364
1482	0.741	11505.7	20.5551282051	-3.5085106383	-5.34545454545
1483	0.7415	11505.7	2.07179487179	-0.670212765957	-5.34545454545
1484	0.742	11505.7	-0.771794871795	-2.08936170213	-1.09090909091
1485	0.7425	11505.7	-6.45897435897	-12.0234042553	-8.18181818182
1486	0.743	11505.7	-3.61538461538	-4.92765957447	-3.92727272727
1487	0.7435	11505.7	17.7115384615	3.58723404255	-5.34545454545
1488	0.744	11505.7	-2.19358974359	3.58723404255	-3.92727272727
1489	0.7445	11505.7	-0.771794871795	2.16808510638	-6.76363636364
1490	0.745	11505.7	-0.771794871795	-0.670212765957	-6.76363636364
1491	0.7455	11505.7	2.07179487179	14.9404255319	-3.92727272727
1492	0.746	11505.7	6.33717948718	0.748936170213	-3.92727272727
1493	0.7465	11505.7	24.8205128205	0.748936170213	-2.50909090909
1494	0.747	11505.7	-3.61538461538	0.748936170213	-1.09090909091
1495	0.7475	11505.7	0.65	0.748936170213	-1.09090909091
1496	0.748	11505.7	9.18076923077	3.58723404255	-5.34545454545
1497	0.7485	11505.7	4.91538461538	3.58723404255	-5.34545454545
1498	0.749	11505.7	6.33717948718	16.3595744681	-3.92727272727
1499	0.7495	11505.7	-5.03717948718	0.748936170213	-2.50909090909
1500	0.75	11505.7	3.49358974359	-0.670212765957	-6.76363636364
1501	0.7505	11505.7	4.91538461538	-2.08936170213	-1.09090909091
1502	0.751	11505.7	6.33717948718	-3.5085106383	14.5090909091
1503	0.7515	11505.7	6.33717948718	-3.5085106383	-12.4363636364
1504	0.752	11505.7	4.91538461538	-10.6042553191	-3.92727272727
1505	0.7525	11505.7	16.2897435897	-6.34680851064	-2.50909090909
1506	0.753	11505.7	6.33717948718	-3.5085106383	-3.92727272727
1507	0.7535	11505.7	3.49358974359	-3.5085106383	-3.92727272727
1508	0.754	11505.7	4.91538461538	0.748936170213	0.327272727273
1509	0.7545	11505.7	4.91538461538	5.00638297872	-3.92727272727
1510	0.755	11505.7	-10.7243589744	-3.5085106383	-6.76363636364
1511	0.7555	11505.7	-13.5679487179	-3.5085106383	-5.34545454545
1512	0.756	11505.7	-0.771794871795	-3.5085106383	-5.34545454545
1513	0.7565	11505.7	-0.771794871795	-6.34680851064	14.5090909091
1514	0.757	11505.7	2.07179487179	-7.76595744681	14.5090909091
1515	0.7575	11505.7	2.07179487179	13.5212765957	-3.92727272727
1516	0.758	11505.7	2.07179487179	-3.5085106383	-5.34545454545
1517	0.7585	11505.7	0.65	-6.34680851064	-2.50909090909
1518	0.759	11505.7	2.07179487179	-6.34680851064	-3.92727272727
1519	0.7595	11505.7	3.49358974359	-2.08936170213	-2.50909090909
1520	0.76	11505.7	3.49358974359	-3.5085106383	-3.92727272727
1521	0.7605	11505.7	0.65	-6.34680851064	-3.92727272727
1522	0.761	11505.7	16.2897435897	-6.34680851064	-3.92727272727
1523	0.7615	11505.7	16.2897435897	-4.92765957447	-1.09090909091
1524	0.762	11505.7	4.91538461538	-7.76595744681	-2.50909090909
1525	0.7625	11505.7	2.07179487179	-0.670212765957	-11.0181818182
1526	0.763	11505.7	3.49358974359	-14.8617021277	-8.18181818182
1527	0.7635	11505.7	3.49358974359	-14.8617021277	-5.34545454545
1528	0.764	11505.7	4.91538461538	-2.08936170213	-2.50909090909
1529	0.7645	11505.7	2.07179487179	-3.5085106383	-1.09090909091
1530	0.765	11505.7	2.07179487179	-4.92765957447	-2.50909090909
1531	0.7655	11505.7	3.49358974359	-2.08936170213	-5.34545454545
1532	0.766	11505.7	2.07179487179	14.9404255319	-5.34545454545
1533	0.7665	11505.7	0.65	14.9404255319	-3.92727272727
1534	0.767	11505.7	-9.30256410256	-0.670212765957	-2.50909090909
1535	0.7675	11505.7	2.07179487179	-0.670212765957	-3.92727272727
1536	0.768	11505.7	2.07179487179	-0.670212765957	-11.0181818182
1537	0.7685	11505.7	0.65	-4.92765957447	-11.0181818182
1538	0.769	11505.7	0.65	-9.18510638298	-2.50909090909
1539	0.7695	11505.7	0.65	-4.92765957447	-5.34545454545
1540	0.77	11505.7	0.65	0.748936170213	-2.50909090909
1541	0.7705	11505.7	2.07179487179	-0.670212765957	-12.4363636364
1542	0.771	11505.7	2.07179487179	-2.08936170213	-11.0181818182
1543	0.7715	11505.7	4.91538461538	-6.34680851064	-3.92727272727
1544	0.772	11505.7	2.07179487179	-3.5085106383	-3.92727272727
1545	0.7725	11505.7	-2.19358974359	0.748936170213	-3.92727272727
1546	0.773	11505.7	0.65	2.16808510638	-3.92727272727
1547	0.7735	11505.7	0.65	-2.08936170213	-5.34545454545
1548	0.774	11505.7	0.65	2.16808510638	-12.4363636364
1549	0.7745	11505.7	0.65	-4.92765957447	-3.92727272727
1550	0.775	11505.7	2.07179487179	-7.76595744681	-2.50909090909
1551	0.7755	11505.7	17.7115384615	0.748936170213	-5.34545454545
1552	0.776	11505.7	0.65	0.748936170213	-3.92727272727
1553	0.7765	11505.7	0.65	0.748936170213	-3.92727272727
1554	0.777	11505.7	2.07179487179	2.16808510638	3.16363636364
1555	0.7775	11505.7	0.65	0.748936170213	-5.34545454545
1556	0.778	11505.7	2.07179487179	2.16808510638	-3.92727272727
1557	0.7785	11505.7	-5.03717948718	3.58723404255	-2.50909090909
1558	0.779	11505.7	6.33717948718	-0.670212765957	-3.92727272727
1559	0.7795	11505.7	2.07179487179	-2.08936170213	13.0909090909
1560	0.78	11505.7	3.49358974359	-0.670212765957	-3.92727272727
1561	0.7805	11505.7	3.49358974359	-6.34680851064	-2.50909090909
1562	0.781	11505.7	13.4461538462	-0.670212765957	-2.50909090909
1563	0.7815	11505.7	3.49358974359	0.748936170213	-1.09090909091
1564	0.782	11505.7	2.07179487179	0.748936170213	-8.18181818182
1565	0.7825	11505.7	3.49358974359	0.748936170213	3.16363636364
1566	0.783	11505.7	2.07179487179	-0.670212765957	4.58181818182
1567	0.7835	11505.7	-6.45897435897	-0.670212765957	-2.50909090909
1568	0.784	11505.7	-0.771794871795	-0.670212765957	-3.92727272727
1569	0.7845	11505.7	-2.19358974359	-2.08936170213	-2.50909090909
1570	0.785	11505.7	0.65	-0.670212765957	-1.09090909091
1571	0.7855	11505.7	0.65	-14.8617021277	-6.76363636364
1572	0.786	11505.7	4.91538461538	-10.6042553191	-3.92727272727
1573	0.7865	11505.7	2.07179487179	-3.5085106383	-3.92727272727
1574	0.787	11505.7	12.0243589744	-3.5085106383	-3.92727272727
1575	0.7875	11505.7	3.49358974359	-0.670212765957	-1.09090909091
1576	0.788	11505.7	4.91538461538	-2.08936170213	-9.6
1577	0.7885	11505.7	3.49358974359	-2.08936170213	-5.34545454545
1578	0.789	11505.7	2.07179487179	2.16808510638	-2.50909090909
1579	0.7895	11505.7	3.49358974359	5.00638297872	-1.09090909091
1580	0.79	11505.7	0.65	-0.670212765957	0.327272727273
1581	0.7905	11505.7	4.91538461538	-0.670212765957	0.327272727273
1582	0.791	11505.7	2.07179487179	5.00638297872	-6.76363636364
1583	0.7915	11505.7	2.07179487179	3.58723404255	-8.18181818182
1584	0.792	11505.7	2.07179487179	-3.5085106383	-1.09090909091
1585	0.7925	11505.7	0.65	2.16808510638	-3.92727272727
1586	0.793	11505.7	0.65	5.00638297872	-1.09090909091
1587	0.7935	11505.7	2.07179487179	3.58723404255	-3.92727272727
1588	0.794	11505.7	4.91538461538	2.16808510638	-5.34545454545
1589	0.7945	11505.7	4.91538461538	2.16808510638	-6.76363636364
1590	0.795	11505.7	4.91538461538	-2.08936170213	-1.09090909091
1591	0.7955	11505.7	-3.61538461538	3.58723404255	-1.09090909091
1592	0.796	11505.7	4.91538461538	5.00638297872	-2.50909090909
1593	0.7965	11505.7	-5.03717948718	5.00638297872	-2.50909090909
1594	0.797	11505.7	-6.45897435897	2.16808510638	-6.76363636364
1595	0.7975	11505.7	-5.03717948718	-4.92765957447	-2.50909090909
1596	0.798	11505.7	-7.88076923077	0.748936170213	-3.92727272727
1597	0.7985	11505.7	-14.9897435897	7.84468085106	-2.50909090909
1598	0.799	11505.7	-9.30256410256	5.00638297872	-2.50909090909
1599	0.7995	11505.7	0.65	3.58723404255	-5.34545454545
1600	0.8	11505.7	3.49358974359	2.16808510638	11.6727272727
1601	0.8005	11505.7	6.33717948718	3.58723404255	-2.50909090909
1602	0.801	11505.7	6.33717948718	-0.670212765957	-3.92727272727
1603	0.8015	11505.7	14.8679487179	2.16808510638	-3.92727272727
1604	0.802	11505.7	7.75897435897	0.748936170213	-2.50909090909
1605	0.8025	11505.7	6.33717948718	5.00638297872	-1.09090909091
1606	0.803	11505.7	3.49358974359	3.58723404255	13.0909090909
1607	0.8035	11505.7	-2.19358974359	2.16808510638	-3.92727272727
1608	0.804	11505.7	-0.771794871795	2.16808510638	-3.92727272727
1609	0.8045	11505.7	-6.45897435897	-0.670212765957	-2.50909090909
1610	0.805	11505.7	4.91538461538	2.16808510638	-2.50909090909
1611	0.8055	11505.7	3.49358974359	3.58723404255	-9.6
1612	0.806	11505.7	3.49358974359	-7.76595744681	-2.50909090909
1613	0.8065	11505.7	6.33717948718	-10.6042553191	-2.50909090909
1614	0.807	11505.7	4.91538461538	-9.18510638298	0.327272727273
1615	0.8075	11505.7	0.65	0.748936170213	-3.92727272727
1616	0.808	11505.7	6.33717948718	3.58723404255	-1.09090909091
1617	0.8085	11505.7	7.75897435897	3.58723404255	-3.92727272727
1618	0.809	11505.7	6.33717948718	13.5212765957	-2.50909090909
1619	0.8095	11505.7	7.75897435897	-0.670212765957	-1.09090909091
1620	0.81	11505.7	-0.771794871795	5.00638297872	-1.09090909091
1621	0.8105	11505.7	24.8205128205	0.748936170213	-5.34545454545
1622	0.811	11505.7	6.33717948718	2.16808510638	-6.76363636364
1623	0.8115	11505.7	2.07179487179	3.58723404255	1.74545454545
1624	0.812	11505.7	0.65	12.1021276596	-2.50909090909
1625	0.8125	11505.7	2.07179487179	0.748936170213	-1.09090909091
1626	0.813	11505.7	-7.88076923077	5.00638297872	-3.92727272727
1627	0.8135	11505.7	2.07179487179	3.58723404255	-2.50909090909
1628	0.814	11505.7	0.65	3.58723404255	-1.09090909091
1629	0.8145	11505.7	0.65	6.42553191489	-1.09090909091
1630	0.815	11505.7	0.65	0.748936170213	-9.6
1631	0.8155	11505.7	2.07179487179	-2.08936170213	-2.50909090909
1632	0.816	11505.7	2.07179487179	5.00638297872	-3.92727272727
1633	0.8165	11505.7	-3.61538461538	5.00638297872	-2.50909090909
1634	0.817	11505.7	0.65	3.58723404255	-8.18181818182
1635	0.8175	11505.7	-0.771794871795	3.58723404255	-6.76363636364
1636	0.818	11505.7	-0.771794871795	2.16808510638	-3.92727272727
1637	0.8185	11505.7	-9.30256410256	5.00638297872	-5.34545454545
1638	0.819	11505.7	-7.88076923077	0.748936170213	-3.92727272727
1639	0.8195	11505.7	3.49358974359	2.16808510638	-5.34545454545
1640	0.82	11505.7	4.91538461538	-0.670212765957	-5.34545454545
1641	0.8205	11505.7	2.07179487179	0.748936170213	4.58181818182
1642	0.821	11505.7	2.07179487179	3.58723404255	-2.50909090909
1643	0.8215	11505.7	10.6025641026	-0.670212765957	-2.50909090909
1644	0.822	11505.7	-2.19358974359	0.748936170213	-1.09090909091
1645	0.8225	11505.7	4.91538461538	-2.08936170213	-3.92727272727
1646	0.823	11505.7	4.91538461538	-2.08936170213	-2.50909090909
1647	0.8235	11505.7	0.65	5.00638297872	-1.09090909091
1648	0.824	11505.7	2.07179487179	-3.5085106383	-2.50909090909
1649	0.8245	11505.7	-9.30256410256	-3.5085106383	-2.50909090909
1650	0.825	11505.7	-2.19358974359	-0.670212765957	-5.34545454545
1651	0.8255	11505.7	-3.61538461538	-3.5085106383	-5.34545454545
1652	0.826	11505.7	-2.19358974359	-0.670212765957	-12.4363636364
1653	0.8265	11505.7	0.65	-12.0234042553	-3.92727272727
1654	0.827	11505.7	4.91538461538	-4.92765957447	-5.34545454545
1655	0.8275	11505.7	17.7115384615	-2.08936170213	-5.34545454545
1656	0.828	11505.7	2.07179487179	0.748936170213	-6.76363636364
1657	0.8285	11505.7	3.49358974359	0.748936170213	-12.4363636364
1658	0.829	11505.7	3.49358974359	2.16808510638	-12.4363636364
1659	0.8295	11505.7	4.91538461538	3.58723404255	-6.76363636364
1660	0.83	11505.7	-6.45897435897	0.748936170213	0.327272727273
1661	0.8305	11505.7	-3.61538461538	3.58723404255	1.74545454545
1662	0.831	11505.7	0.65	0.748936170213	0.327272727273
1663	0.8315	11505.7	3.49358974359	5.00638297872	-9.6
1664	0.832	11505.7	6.33717948718	2.16808510638	-11.0181818182
1665	0.8325	11505.7	3.49358974359	-6.34680851064	-2.50909090909
1666	0.833	11505.7	3.49358974359	-6.34680851064	-5.34545454545
1667	0.8335	11505.7	20.5551282051	-0.670212765957	-3.92727272727
1668	0.834	11505.7	0.65	2.16808510638	-2.50909090909
1669	0.8345	11505.7	2.07179487179	5.00638297872	-6.76363636364
1670	0.835	11505.7	0.65	0.748936170213	-5.34545454545
1671	0.8355	11505.7	0.65	14.9404255319	-6.76363636364
1672	0.836	11505.7	2.07179487179	0.748936170213	-2.50909090909
1673	0.8365	11505.7	-0.771794871795	-0.670212765957	-8.18181818182
1674	0.837	11505.7	-0.771794871795	2.16808510638	-6.76363636364
1675	0.8375	11505.7	-0.771794871795	2.16808510638	-15.2727272727
1676	0.838	11505.7	0.65	-4.92765957447	-11.0181818182
1677	0.8385	11505.7	2.07179487179	-6.34680851064	-2.50909090909
1678	0.839	11505.7	3.49358974359	2.16808510638	-3.92727272727
1679	0.8395	11505.7	0.65	5.00638297872	-1.09090909091
1680	0.84	11505.7	2.07179487179	3.58723404255	-1.09090909091
1681	0.8405	11505.7	0.65	2.16808510638	-2.50909090909
1682	0.841	11505.7	6.33717948718	14.9404255319	-1.09090909091
1683	0.8415	11505.7	2.07179487179	19.1978723404	-1.09090909091
1684	0.842	11505.7	-6.45897435897	2.16808510638	-2.50909090909
1685	0.8425	11505.7	-0.771794871795	2.16808510638	0.327272727273
1686	0.843	11505.7	0.65	0.748936170213	-5.34545454545
1687	0.8435	11505.7	-0.771794871795	2.16808510638	-9.6
1688	0.844	11505.7	0.65	6.42553191489	-3.92727272727
1689	0.8445	11505.7	-9.30256410256	-0.670212765957	-1.09090909091
1690	0.845	11505.7	-9.30256410256	-3.5085106383	-3.92727272727
1691	0.8455	11505.7	0.65	0.748936170213	-1.09090909091
1692	0.846	11505.7	3.49358974359	-0.670212765957	-3.92727272727
1693	0.8465	11505.7	3.49358974359	7.84468085106	-1.09090909091
1694	0.847	11505.7	0.65	-0.670212765957	-2.50909090909
1695	0.8475	11505.7	-10.7243589744	0.748936170213	-1.09090909091
1696	0.848	11505.7	-6.45897435897	2.16808510638	-1.09090909091
1697	0.8485	11505.7	3.49358974359	2.16808510638	-3.92727272727
1698	0.849	11505.7	3.49358974359	3.58723404255	8.83636363636
1699	0.8495	11505.7	0.65	2.16808510638	-3.92727272727
1700	0.85	11505.7	-0.771794871795	-3.5085106383	-1.09090909091
1701	0.8505	11505.7	-3.61538461538	3.58723404255	-2.50909090909
1702	0.851	11505.7	-0.771794871795	0.748936170213	-3.92727272727
1703	0.8515	11505.7	0.65	3.58723404255	-1.09090909091
1704	0.852	11505.7	0.65	3.58723404255	-12.4363636364
1705	0.8525	11505.7	0.65	19.1978723404	-3.92727272727
1706	0.853	11505.7	2.07179487179	-0.670212765957	-1.09090909091
1707	0.8535	11505.7	0.65	-0.670212765957	-2.50909090909
1708	0.854	11505.7	2.07179487179	-0.670212765957	-1.09090909091
1709	0.8545	11505.7	0.65	-0.670212765957	11.6727272727
1710	0.855	11505.7	0.65	0.748936170213	-3.92727272727
1711	0.8555	11505.7	2.07179487179	16.3595744681	-3.92727272727
1712	0.856	11505.7	0.65	-0.670212765957	-5.34545454545
1713	0.8565	11505.7	-9.30256410256	0.748936170213	-1.09090909091
1714	0.857	11505.7	-0.771794871795	0.748936170213	-1.09090909091
1715	0.8575	11505.7	2.07179487179	-3.5085106383	-2.50909090909
1716	0.858	11505.7	0.65	5.00638297872	-1.09090909091
1717	0.8585	11505.7	2.07179487179	-4.92765957447	-2.50909090909
1718	0.859	11505.7	-6.45897435897	-0.670212765957	-2.50909090909
1719	0.8595	11505.7	-5.03717948718	-3.5085106383	-2.50909090909
1720	0.86	11505.7	0.65	-2.08936170213	-3.92727272727
1721	0.8605	11505.7	0.65	-2.08936170213	7.41818181818
1722	0.861	11505.7	0.65	-0.670212765957	-3.92727272727
1723	0.8615	11505.7	0.65	-3.5085106383	-5.34545454545
1724	0.862	11505.7	0.65	-7.76595744681	-5.34545454545
1725	0.8625	11505.7	-3.61538461538	-0.670212765957	-2.50909090909
1726	0.863	11505.7	2.07179487179	-0.670212765957	0.327272727273
1727	0.8635	11505.7	2.07179487179	-2.08936170213	1.74545454545
1728	0.864	11505.7	3.49358974359	9.26382978723	-5.34545454545
1729	0.8645	11505.7	2.07179487179	-2.08936170213	-1.09090909091
1730	0.865	11505.7	17.7115384615	0.748936170213	-3.92727272727
1731	0.8655	11505.7	2.07179487179	0.748936170213	-2.50909090909
1732	0.866	11505.7	2.07179487179	0.748936170213	-6.76363636364
1733	0.8665	11505.7	3.49358974359	5.00638297872	-9.6
1734	0.867	11505.7	6.33717948718	3.58723404255	-9.6
1735	0.8675	11505.7	2.07179487179	-0.670212765957	-2.50909090909
1736	0.868	11505.7	-3.61538461538	-0.670212765957	-5.34545454545
1737	0.8685	11505.7	0.65	-0.670212765957	-8.18181818182
1738	0.869	11505.7	-5.03717948718	2.16808510638	-13.8545454545
1739	0.8695	11505.7	-3.61538461538	-2.08936170213	-11.0181818182
1740	0.87	11505.7	-2.19358974359	-10.6042553191	-1.09090909091
1741	0.8705	11505.7	0.65	-6.34680851064	0.327272727273
1742	0.871	11505.7	20.5551282051	0.748936170213	-2.50909090909
1743	0.8715	11505.7	19.1333333333	2.16808510638	-3.92727272727
1744	0.872	11505.7	0.65	3.58723404255	14.5090909091
1745	0.8725	11505.7	-0.771794871795	3.58723404255	14.5090909091
1746	0.873	11505.7	0.65	-0.670212765957	-9.6
1747	0.8735	11505.7	2.07179487179	0.748936170213	-1.09090909091
1748	0.874	11505.7	6.33717948718	0.748936170213	-1.09090909091
1749	0.8745	11505.7	3.49358974359	2.16808510638	-2.50909090909
1750	0.875	11505.7	4.91538461538	2.16808510638	-11.0181818182
1751	0.8755	11505.7	6.33717948718	-7.76595744681	-2.50909090909
1752	0.876	11505.7	3.49358974359	-10.6042553191	-3.92727272727
1753	0.8765	11505.7	21.9769230769	2.16808510638	-2.50909090909
1754	0.877	11505.7	3.49358974359	-0.670212765957	-2.50909090909
1755	0.8775	11505.7	4.91538461538	-0.670212765957	-2.50909090909
1756	0.878	11505.7	0.65	0.748936170213	13.0909090909
1757	0.8785	11505.7	0.65	-3.5085106383	-2.50909090909
1758	0.879	11505.7	2.07179487179	3.58723404255	-5.34545454545
1759	0.8795	11505.7	13.4461538462	3.58723404255	-2.50909090909
1760	0.88	11505.7	-0.771794871795	2.16808510638	-1.09090909091
1761	0.8805	11505.7	-0.771794871795	3.58723404255	-1.09090909091
1762	0.881	11505.7	-3.61538461538	3.58723404255	-12.4363636364
1763	0.8815	11505.7	-2.19358974359	17.7787234043	1.74545454545
1764	0.882	11505.7	-3.61538461538	0.748936170213	-1.09090909091
1765	0.8825	11505.7	-9.30256410256	3.58723404255	-5.34545454545
1766	0.883	11505.7	0.65	2.16808510638	-3.92727272727
1767	0.8835	11505.7	0.65	5.00638297872	-5.34545454545
1768	0.884	11505.7	-2.19358974359	-0.670212765957	-12.4363636364
1769	0.8845	11505.7	0.65	0.748936170213	-13.8545454545
1770	0.885	11505.7	2.07179487179	0.748936170213	-9.6
1771	0.8855	11505.7	-7.88076923077	5.00638297872	-8.18181818182
1772	0.886	11505.7	3.49358974359	5.00638297872	-6.76363636364
1773	0.8865	11505.7	4.91538461538	5.00638297872	-5.34545454545
1774	0.887	11505.7	3.49358974359	6.42553191489	-5.34545454545
1775	0.8875	11505.7	0.65	14.9404255319	-6.76363636364
1776	0.888	11505.7	2.07179487179	7.84468085106	-5.34545454545
1777	0.8885	11505.7	-5.03717948718	6.42553191489	-3.92727272727
1778	0.889	11505.7	-3.61538461538	3.58723404255	0.327272727273
1779	0.8895	11505.7	-5.03717948718	5.00638297872	15.9272727273
1780	0.89	11505.7	-5.03717948718	6.42553191489	17.3454545455
1781	0.8905	11505.7	-3.61538461538	3.58723404255	-1.09090909091
1782	0.891	11505.7	-0.771794871795	3.58723404255	0.327272727273
1783	0.8915	11505.7	-0.771794871795	3.58723404255	0.327272727273
1784	0.892	11505.7	3.49358974359	5.00638297872	4.58181818182
1785	0.8925	11505.7	2.07179487179	3.58723404255	17.3454545455
1786	0.893	11505.7	3.49358974359	16.3595744681	-1.09090909091
1787	0.8935	11505.7	3.49358974359	5.00638297872	-2.50909090909
1788	0.894	11505.7	6.33717948718	2.16808510638	-1.09090909091
1789	0.8945	11505.7	2.07179487179	2.16808510638	-2.50909090909
1790	0.895	11505.7	2.07179487179	-0.670212765957	-2.50909090909
1791	0.8955	11505.7	2.07179487179	-2.08936170213	-8.18181818182
1792	0.896	11505.7	2.07179487179	-6.34680851064	-2.50909090909
1793	0.8965	11505.7	6.33717948718	2.16808510638	-2.50909090909
1794	0.897	11505.7	19.1333333333	3.58723404255	-5.34545454545
1795	0.8975	11505.7	-2.19358974359	2.16808510638	-2.50909090909
1796	0.898	11505.7	-0.771794871795	3.58723404255	-1.09090909091
1797	0.8985	11505.7	2.07179487179	-3.5085106383	-8.18181818182
1798	0.899	11505.7	0.65	-3.5085106383	-6.76363636364
1799	0.8995	11505.7	4.91538461538	-0.670212765957	-3.92727272727
1800	0.9	11505.7	-10.7243589744	0.748936170213	-1.09090909091
1801	0.9005	11505.7	0.65	-3.5085106383	-3.92727272727
1802	0.901	11505.7	-0.771794871795	-0.670212765957	-5.34545454545
1803	0.9015	11505.7	0.65	-0.670212765957	-9.6
1804	0.902	11505.7	2.07179487179	-6.34680851064	-1.09090909091
1805	0.9025	11505.7	0.65	0.748936170213	0.327272727273
1806	0.903	11505.7	-3.61538461538	2.16808510638	-1.09090909091
1807	0.9035	11505.7	-2.19358974359	2.16808510638	-2.50909090909
1808	0.904	11505.7	-2.19358974359	2.16808510638	-8.18181818182
1809	0.9045	11505.7	-5.03717948718	-4.92765957447	-1.09090909091
1810	0.905	11505.7	-5.03717948718	-6.34680851064	-5.34545454545
1811	0.9055	11505.7	-6.45897435897	0.748936170213	-3.92727272727
1812	0.906	11505.7	-14.9897435897	3.58723404255	-2.50909090909
1813	0.9065	11505.7	-5.03717948718	2.16808510638	-3.92727272727
1814	0.907	11505.7	-2.19358974359	3.58723404255	-8.18181818182
1815	0.9075	11505.7	-3.61538461538	0.748936170213	-9.6
1816	0.908	11505.7	-0.771794871795	-0.670212765957	-3.92727272727
1817	0.9085	11505.7	-5.03717948718	0.748936170213	-3.92727272727
1818	0.909	11505.7	-5.03717948718	7.84468085106	-5.34545454545
1819	0.9095	11505.7	3.49358974359	7.84468085106	-13.8545454545
1820	0.91	11505.7	6.33717948718	5.00638297872	-8.18181818182
1821	0.9105	11505.7	6.33717948718	-4.92765957447	-3.92727272727
1822	0.911	11505.7	-2.19358974359	-0.670212765957	-2.50909090909
1823	0.9115	11505.7	-7.88076923077	6.42553191489	-6.76363636364
1824	0.912	11505.7	-9.30256410256	9.26382978723	-3.92727272727
1825	0.9125	11505.7	-6.45897435897	9.26382978723	-2.50909090909
1826	0.913	11505.7	-3.61538461538	6.42553191489	-13.8545454545
1827	0.9135	11505.7	-5.03717948718	9.26382978723	14.5090909091
1828	0.914	11505.7	-5.03717948718	9.26382978723	-1.09090909091
1829	0.9145	11505.7	0.65	16.3595744681	-3.92727272727
1830	0.915	11505.7	-0.771794871795	14.9404255319	-3.92727272727
1831	0.9155	11505.7	0.65	7.84468085106	-13.8545454545
1832	0.916	11505.7	0.65	-0.670212765957	-6.76363636364
1833	0.9165	11505.7	-0.771794871795	0.748936170213	-2.50909090909
1834	0.917	11505.7	-2.19358974359	9.26382978723	-2.50909090909
1835	0.9175	11505.7	-5.03717948718	9.26382978723	-3.92727272727
1836	0.918	11505.7	4.91538461538	12.1021276596	-1.09090909091
1837	0.9185	11505.7	4.91538461538	6.42553191489	6.0
1838	0.919	11505.7	2.07179487179	9.26382978723	8.83636363636
1839	0.9195	11505.7	6.33717948718	2.16808510638	-2.50909090909
1840	0.92	11505.7	16.2897435897	3.58723404255	-1.09090909091
1841	0.9205	11505.7	3.49358974359	6.42553191489	-2.50909090909
1842	0.921	11505.7	0.65	5.00638297872	0.327272727273
1843	0.9215	11505.7	3.49358974359	6.42553191489	-12.4363636364
1844	0.922	11505.7	0.65	-7.76595744681	-9.6
1845	0.9225	11505.7	-3.61538461538	-3.5085106383	-2.50909090909
1846	0.923	11505.7	16.2897435897	2.16808510638	-2.50909090909
1847	0.9235	11505.7	2.07179487179	-0.670212765957	-1.09090909091
1848	0.924	11505.7	-0.771794871795	-0.670212765957	-1.09090909091
1849	0.9245	11505.7	-0.771794871795	-0.670212765957	13.0909090909
1850	0.925	11505.7	0.65	14.9404255319	-1.09090909091
1851	0.9255	11505.7	2.07179487179	-3.5085106383	-2.50909090909
1852	0.926	11505.7	14.8679487179	-0.670212765957	-3.92727272727
1853	0.9265	11505.7	0.65	-0.670212765957	-2.50909090909
1854	0.927	11505.7	2.07179487179	0.748936170213	-9.6
1855	0.9275	11505.7	3.49358974359	-2.08936170213	1.74545454545
1856	0.928	11505.7	3.49358974359	0.748936170213	-5.34545454545
1857	0.9285	11505.7	4.91538461538	-2.08936170213	-3.92727272727
1858	0.929	11505.7	4.91538461538	0.748936170213	-3.92727272727
1859	0.9295	11505.7	3.49358974359	-2.08936170213	-1.09090909091
1860	0.93	11505.7	3.49358974359	-2.08936170213	8.83636363636
1861	0.9305	11505.7	0.65	0.748936170213	-8.18181818182
1862	0.931	11505.7	3.49358974359	17.7787234043	-5.34545454545
1863	0.9315	11505.7	-5.03717948718	0.748936170213	-6.76363636364
1864	0.932	11505.7	-6.45897435897	-0.670212765957	-3.92727272727
1865	0.9325	11505.7	-5.03717948718	0.748936170213	-1.09090909091
1866	0.933	11505.7	2.07179487179	-0.670212765957	-1.09090909091
1867	0.9335	11505.7	-0.771794871795	2.16808510638	0.327272727273
1868	0.934	11505.7	-3.61538461538	-3.5085106383	-1.09090909091
1869	0.9345	11505.7	17.7115384615	-0.670212765957	-2.50909090909
1870	0.935	11505.7	2.07179487179	-2.08936170213	-3.92727272727
1871	0.9355	11505.7	3.49358974359	-0.670212765957	-2.50909090909
1872	0.936	11505.7	6.33717948718	-0.670212765957	-6.76363636364
1873	0.9365	11505.7	4.91538461538	-2.08936170213	-11.0181818182
1874	0.937	11505.7	3.49358974359	-6.34680851064	-2.50909090909
1875	0.9375	11505.7	4.91538461538	-0.670212765957	-2.50909090909
1876	0.938	11505.7	0.65	-0.670212765957	-5.34545454545
1877	0.9385	11505.7	-0.771794871795	2.16808510638	-12.4363636364
1878	0.939	11505.7	-0.771794871795	3.58723404255	-6.76363636364
1879	0.9395	11505.7	-5.03717948718	-7.76595744681	-3.92727272727
1880	0.94	11505.7	-14.9897435897	-0.670212765957	-2.50909090909
1881	0.9405	11505.7	-16.4115384615	-2.08936170213	-3.92727272727
1882	0.941	11505.7	-7.88076923077	-0.670212765957	-3.92727272727
1883	0.9415	11505.7	-7.88076923077	-2.08936170213	13.0909090909
1884	0.942	11505.7	-3.61538461538	-7.76595744681	-1.09090909091
1885	0.9425	11505.7	-5.03717948718	-7.76595744681	-2.50909090909
1886	0.943	11505.7	-0.771794871795	-9.18510638298	-1.09090909091
1887	0.9435	11505.7	0.65	-2.08936170213	-2.50909090909
1888	0.944	11505.7	0.65	-2.08936170213	1.74545454545
1889	0.9445	11505.7	3.49358974359	0.748936170213	0.327272727273
1890	0.945	11505.7	4.91538461538	-0.670212765957	-8.18181818182
1891	0.9455	11505.7	0.65	-7.76595744681	-3.92727272727
1892	0.946	11505.7	-2.19358974359	-6.34680851064	-3.92727272727
1893	0.9465	11505.7	-5.03717948718	2.16808510638	-5.34545454545
1894	0.947	11505.7	-2.19358974359	0.748936170213	-3.92727272727
1895	0.9475	11505.7	-3.61538461538	2.16808510638	-3.92727272727
1896	0.948	11505.7	-2.19358974359	6.42553191489	-1.09090909091
1897	0.9485	11505.7	0.65	-4.92765957447	-2.50909090909
1898	0.949	11505.7	-5.03717948718	-6.34680851064	-3.92727272727
1899	0.9495	11505.7	0.65	-2.08936170213	-3.92727272727
1900	0.95	11505.7	4.91538461538	-0.670212765957	-12.4363636364
1901	0.9505	11505.7	6.33717948718	-2.08936170213	-9.6
1902	0.951	11505.7	7.75897435897	-7.76595744681	-2.50909090909
1903	0.9515	11505.7	3.49358974359	-7.76595744681	-3.92727272727
1904	0.952	11505.7	6.33717948718	0.748936170213	-2.50909090909
1905	0.9525	11505.7	4.91538461538	2.16808510638	-3.92727272727
1906	0.953	11505.7	4.91538461538	0.748936170213	-8.18181818182
1907	0.9535	11505.7	3.49358974359	-2.08936170213	-11.0181818182
1908	0.954	11505.7	2.07179487179	3.58723404255	-2.50909090909
1909	0.9545	11505.7	-2.19358974359	-2.08936170213	-3.92727272727
1910	0.955	11505.7	3.49358974359	-2.08936170213	-6.76363636364
1911	0.9555	11505.7	6.33717948718	-2.08936170213	-5.34545454545
1912	0.956	11505.7	7.75897435897	-3.5085106383	-13.8545454545
1913	0.9565	11505.7	10.6025641026	-4.92765957447	-9.6
1914	0.957	11505.7	7.75897435897	-16.2808510638	-1.09090909091
1915	0.9575	11505.7	4.91538461538	-12.0234042553	-1.09090909091
1916	0.958	11505.7	4.91538461538	-7.76595744681	-2.50909090909
1917	0.9585	11505.7	-9.30256410256	-4.92765957447	-3.92727272727
1918	0.959	11505.7	-2.19358974359	-4.92765957447	6.0
1919	0.9595	11505.7	-3.61538461538	-3.5085106383	1.74545454545
1920	0.96	11505.7	-2.19358974359	-6.34680851064	-6.76363636364
1921	0.9605	11505.7	-13.5679487179	-7.76595744681	-1.09090909091
1922	0.961	11505.7	-13.5679487179	-7.76595744681	-1.09090909091
1923	0.9615	11505.7	-2.19358974359	-4.92765957447	-1.09090909091
1924	0.962	11505.7	-2.19358974359	-6.34680851064	18.7636363636
1925	0.9625	11505.7	-0.771794871795	-4.92765957447	18.7636363636
1926	0.963	11505.7	0.65	13.5212765957	0.327272727273
1927	0.9635	11505.7	-2.19358974359	-0.670212765957	-1.09090909091
1928	0.964	11505.7	-0.771794871795	-0.670212765957	-1.09090909091
1929	0.9645	11505.7	2.07179487179	-0.670212765957	-3.92727272727
1930	0.965	11505.7	2.07179487179	3.58723404255	-6.76363636364
1931	0.9655	11505.7	-0.771794871795	5.00638297872	-8.18181818182
1932	0.966	11505.7	-0.771794871795	-2.08936170213	-5.34545454545
1933	0.9665	11505.7	-10.7243589744	-2.08936170213	-2.50909090909
1934	0.967	11505.7	4.91538461538	0.748936170213	-2.50909090909
1935	0.9675	11505.7	0.65	0.748936170213	-3.92727272727
1936	0.968	11505.7	0.65	-3.5085106383	11.6727272727
1937	0.9685	11505.7	2.07179487179	16.3595744681	-3.92727272727
1938	0.969	11505.7	-0.771794871795	13.5212765957	-2.50909090909
1939	0.9695	11505.7	-10.7243589744	-0.670212765957	-3.92727272727
1940	0.97	11505.7	2.07179487179	-2.08936170213	-5.34545454545
1941	0.9705	11505.7	-0.771794871795	-2.08936170213	-12.4363636364
1942	0.971	11505.7	-2.19358974359	-2.08936170213	-11.0181818182
1943	0.9715	11505.7	-0.771794871795	-4.92765957447	-11.0181818182
1944	0.972	11505.7	0.65	-6.34680851064	-3.92727272727
1945	0.9725	11505.7	0.65	-0.670212765957	-1.09090909091
1946	0.973	11505.7	3.49358974359	-0.670212765957	-3.92727272727
1947	0.9735	11505.7	-2.19358974359	-0.670212765957	-11.0181818182
1948	0.974	11505.7	0.65	-9.18510638298	-2.50909090909
1949	0.9745	11505.7	-2.19358974359	-2.08936170213	-8.18181818182
1950	0.975	11505.7	-12.1461538462	-0.670212765957	-3.92727272727
1951	0.9755	11505.7	-5.03717948718	2.16808510638	-3.92727272727
1952	0.976	11505.7	-0.771794871795	-0.670212765957	-6.76363636364
1953	0.9765	11505.7	-0.771794871795	-0.670212765957	17.3454545455
1954	0.977	11505.7	-0.771794871795	-0.670212765957	11.6727272727
1955	0.9775	11505.7	-2.19358974359	0.748936170213	-2.50909090909
1956	0.978	11505.7	-0.771794871795	-0.670212765957	-3.92727272727
1957	0.9785	11505.7	-3.61538461538	0.748936170213	-2.50909090909
1958	0.979	11505.7	2.07179487179	-2.08936170213	-1.09090909091
1959	0.9795	11505.7	0.65	2.16808510638	13.0909090909
1960	0.98	11505.7	2.07179487179	17.7787234043	-6.76363636364
1961	0.9805	11505.7	2.07179487179	2.16808510638	-3.92727272727
1962	0.981	11505.7	-3.61538461538	2.16808510638	-3.92727272727
1963	0.9815	11505.7	-3.61538461538	0.748936170213	-2.50909090909
1964	0.982	11505.7	0.65	-0.670212765957	-3.92727272727
1965	0.9825	11505.7	0.65	0.748936170213	-6.76363636364
1966	0.983	11505.7	-0.771794871795	7.84468085106	-3.92727272727
1967	0.9835	11505.7	-7.88076923077	-2.08936170213	-2.50909090909
1968	0.984	11505.7	3.49358974359	-0.670212765957	-5.34545454545
1969	0.9845	11505.7	0.65	-0.670212765957	-8.18181818182
1970	0.985	11505.7	0.65	0.748936170213	-6.76363636364
1971	0.9855	11505.7	-0.771794871795	0.748936170213	-3.92727272727
1972	0.986	11505.7	-10.7243589744	-2.08936170213	-8.18181818182
1973	0.9865	11505.7	17.7115384615	-6.34680851064	-6.76363636364
