	Time	Channel 1	Channel 2	Channel 3	Channel 4
0	0.0	0.78115942029	6.41914893617	16.1244444444	-4.17857142857
1	0.0005	-0.642028985507	0.682978723404	13.2533333333	-7.05
2	0.001	-0.642028985507	-0.751063829787	16.1244444444	8.74285714286
3	0.0015	2.20434782609	0.682978723404	6.07555555556	-2.74285714286
4	0.002	-3.4884057971	-2.18510638298	11.8177777778	-2.74285714286
5	0.0025	2.20434782609	0.682978723404	11.8177777778	-2.74285714286
6	0.003	5.05072463768	-2.18510638298	17.56	0.128571428571
7	0.0035	0.78115942029	2.1170212766	-1.10222222222	0.128571428571
8	0.004	3.62753623188	0.682978723404	21.8666666667	-2.74285714286
9	0.0045	-7.75797101449	-0.751063829787	11.8177777778	1.56428571429
10	0.005	5.05072463768	0.682978723404	11.8177777778	-1.30714285714
11	0.0055	-0.642028985507	2.1170212766	11.8177777778	-8.48571428571
12	0.006	2.20434782609	0.682978723404	7.51111111111	1.56428571429
13	0.0065	3.62753623188	-0.751063829787	27.6088888889	-2.74285714286
14	0.007	3.62753623188	-2.18510638298	1.76888888889	-1.30714285714
15	0.0075	3.62753623188	4.98510638298	6.07555555556	1.56428571429
16	0.008	5.05072463768	9.28723404255	7.51111111111	-1.30714285714
17	0.0085	2.20434782609	-3.61914893617	4.64	-1.30714285714
18	0.009	5.05072463768	-0.751063829787	4.64	0.128571428571
19	0.0095	16.4362318841	0.682978723404	7.51111111111	-1.30714285714
20	0.01	-4.9115942029	0.682978723404	4.64	-8.48571428571
21	0.0105	5.05072463768	0.682978723404	3.20444444444	15.9214285714
22	0.011	9.32028985507	-0.751063829787	7.51111111111	-8.48571428571
23	0.0115	6.47391304348	0.682978723404	-8.28	-4.17857142857
24	0.012	7.89710144928	-5.05319148936	21.8666666667	0.128571428571
25	0.0125	9.32028985507	3.55106382979	4.64	-1.30714285714
26	0.013	7.89710144928	-5.05319148936	3.20444444444	-1.30714285714
27	0.0135	12.1666666667	-0.751063829787	0.333333333333	0.128571428571
28	0.014	-4.9115942029	0.682978723404	-1.10222222222	-1.30714285714
29	0.0145	7.89710144928	-0.751063829787	-3.97333333333	14.4857142857
30	0.015	7.89710144928	0.682978723404	4.64	-1.30714285714
31	0.0155	7.89710144928	0.682978723404	-11.1511111111	-1.30714285714
32	0.016	5.05072463768	2.1170212766	17.56	1.56428571429
33	0.0165	3.62753623188	0.682978723404	-9.71555555556	-1.30714285714
34	0.017	3.62753623188	-10.7893617021	-2.53777777778	-2.74285714286
35	0.0175	9.32028985507	9.28723404255	-1.10222222222	-1.30714285714
36	0.018	2.20434782609	4.98510638298	-1.10222222222	-1.30714285714
37	0.0185	6.47391304348	0.682978723404	-2.53777777778	-2.74285714286
38	0.019	17.8594202899	2.1170212766	3.20444444444	-1.30714285714
39	0.0195	0.78115942029	3.55106382979	-1.10222222222	-5.61428571429
40	0.02	7.89710144928	0.682978723404	0.333333333333	-5.61428571429
41	0.0205	13.5898550725	-0.751063829787	-2.53777777778	-1.30714285714
42	0.021	10.7434782609	2.1170212766	-6.84444444444	-1.30714285714
43	0.0215	10.7434782609	-0.751063829787	17.56	-1.30714285714
44	0.022	10.7434782609	-7.92127659574	-2.53777777778	1.56428571429
45	0.0225	3.62753623188	-0.751063829787	-1.10222222222	3.0
46	0.023	9.32028985507	-0.751063829787	-2.53777777778	3.0
47	0.0235	-0.642028985507	0.682978723404	-2.53777777778	-1.30714285714
48	0.024	10.7434782609	2.1170212766	-1.10222222222	5.87142857143
49	0.0245	7.89710144928	0.682978723404	-1.10222222222	-8.48571428571
50	0.025	9.32028985507	3.55106382979	-8.28	1.56428571429
51	0.0255	5.05072463768	0.682978723404	-2.53777777778	4.43571428571
52	0.026	3.62753623188	-0.751063829787	-12.5866666667	1.56428571429
53	0.0265	3.62753623188	0.682978723404	-1.10222222222	-1.30714285714
54	0.027	-4.9115942029	2.1170212766	-3.97333333333	3.0
55	0.0275	5.05072463768	0.682978723404	-3.97333333333	3.0
56	0.028	12.1666666667	0.682978723404	-3.97333333333	5.87142857143
57	0.0285	-2.0652173913	-0.751063829787	-3.97333333333	0.128571428571
58	0.029	2.20434782609	0.682978723404	-1.10222222222	4.43571428571
59	0.0295	6.47391304348	2.1170212766	-11.1511111111	-1.30714285714
60	0.03	7.89710144928	-0.751063829787	1.76888888889	0.128571428571
61	0.0305	7.89710144928	9.28723404255	-5.40888888889	0.128571428571
62	0.031	7.89710144928	-2.18510638298	-3.97333333333	1.56428571429
63	0.0315	10.7434782609	0.682978723404	-3.97333333333	3.0
64	0.032	-3.4884057971	-0.751063829787	-3.97333333333	4.43571428571
65	0.0325	0.78115942029	3.55106382979	-1.10222222222	-7.05
66	0.033	3.62753623188	-0.751063829787	-14.0222222222	3.0
67	0.0335	7.89710144928	-0.751063829787	13.2533333333	0.128571428571
68	0.034	5.05072463768	0.682978723404	-8.28	1.56428571429
69	0.0345	5.05072463768	3.55106382979	-5.40888888889	1.56428571429
70	0.035	6.47391304348	16.4574468085	-3.97333333333	3.0
71	0.0355	-2.0652173913	0.682978723404	-2.53777777778	0.128571428571
72	0.036	9.32028985507	0.682978723404	-5.40888888889	0.128571428571
73	0.0365	-4.9115942029	0.682978723404	-2.53777777778	-1.30714285714
74	0.037	-3.4884057971	2.1170212766	-2.53777777778	4.43571428571
75	0.0375	0.78115942029	0.682978723404	-1.10222222222	-4.17857142857
76	0.038	2.20434782609	2.1170212766	-3.97333333333	-2.74285714286
77	0.0385	0.78115942029	0.682978723404	-6.84444444444	1.56428571429
78	0.039	-7.75797101449	0.682978723404	4.64	1.56428571429
79	0.0395	-10.6043478261	-5.05319148936	-9.71555555556	3.0
80	0.04	-10.6043478261	-6.48723404255	-3.97333333333	-1.30714285714
81	0.0405	-12.0275362319	0.682978723404	-1.10222222222	0.128571428571
82	0.041	-3.4884057971	0.682978723404	-2.53777777778	1.56428571429
83	0.0415	9.32028985507	-0.751063829787	-3.97333333333	-1.30714285714
84	0.042	0.78115942029	0.682978723404	-1.10222222222	-8.48571428571
85	0.0425	3.62753623188	0.682978723404	-3.97333333333	18.7928571429
86	0.043	-3.4884057971	0.682978723404	0.333333333333	-8.48571428571
87	0.0435	-3.4884057971	4.98510638298	-1.10222222222	1.56428571429
88	0.044	-6.3347826087	20.7595744681	-1.10222222222	-1.30714285714
89	0.0445	-4.9115942029	-2.18510638298	-3.97333333333	1.56428571429
90	0.045	-16.2971014493	0.682978723404	-2.53777777778	-2.74285714286
91	0.0455	10.7434782609	0.682978723404	-3.97333333333	3.0
92	0.046	-2.0652173913	2.1170212766	-2.53777777778	-4.17857142857
93	0.0465	-6.3347826087	0.682978723404	-1.10222222222	3.0
94	0.047	-0.642028985507	2.1170212766	-1.10222222222	14.4857142857
95	0.0475	-0.642028985507	0.682978723404	3.20444444444	0.128571428571
96	0.048	-2.0652173913	2.1170212766	-8.28	1.56428571429
97	0.0485	0.78115942029	10.7212765957	-1.10222222222	0.128571428571
98	0.049	-0.642028985507	-2.18510638298	-1.10222222222	0.128571428571
99	0.0495	2.20434782609	13.5893617021	-5.40888888889	-1.30714285714
100	0.05	10.7434782609	0.682978723404	-3.97333333333	0.128571428571
101	0.0505	-3.4884057971	0.682978723404	-3.97333333333	-1.30714285714
102	0.051	-0.642028985507	2.1170212766	-3.97333333333	0.128571428571
103	0.0515	0.78115942029	4.98510638298	3.20444444444	0.128571428571
104	0.052	0.78115942029	0.682978723404	-8.28	3.0
105	0.0525	-0.642028985507	0.682978723404	-3.97333333333	-1.30714285714
106	0.053	0.78115942029	-10.7893617021	-1.10222222222	0.128571428571
107	0.0535	3.62753623188	17.8914893617	-2.53777777778	-1.30714285714
108	0.054	-9.18115942029	0.682978723404	-2.53777777778	-2.74285714286
109	0.0545	19.2826086957	-0.751063829787	-3.97333333333	3.0
110	0.055	-2.0652173913	0.682978723404	-3.97333333333	-8.48571428571
111	0.0555	2.20434782609	0.682978723404	-6.84444444444	11.6142857143
112	0.056	2.20434782609	0.682978723404	7.51111111111	0.128571428571
113	0.0565	0.78115942029	-0.751063829787	-8.28	1.56428571429
114	0.057	-0.642028985507	2.1170212766	-3.97333333333	-1.30714285714
115	0.0575	0.78115942029	-13.6574468085	-5.40888888889	1.56428571429
116	0.058	2.20434782609	17.8914893617	-3.97333333333	0.128571428571
117	0.0585	-12.0275362319	0.682978723404	-3.97333333333	0.128571428571
118	0.059	19.2826086957	0.682978723404	-6.84444444444	1.56428571429
119	0.0595	-3.4884057971	2.1170212766	-3.97333333333	-2.74285714286
120	0.06	5.05072463768	3.55106382979	-14.0222222222	-2.74285714286
121	0.0605	2.20434782609	2.1170212766	6.07555555556	0.128571428571
122	0.061	2.20434782609	0.682978723404	-2.53777777778	-1.30714285714
123	0.0615	0.78115942029	4.98510638298	-8.28	0.128571428571
124	0.062	-0.642028985507	7.85319148936	-2.53777777778	3.0
125	0.0625	-0.642028985507	-2.18510638298	-1.10222222222	0.128571428571
126	0.063	2.20434782609	0.682978723404	-2.53777777778	3.0
127	0.0635	3.62753623188	-2.18510638298	-1.10222222222	-1.30714285714
128	0.064	-6.3347826087	2.1170212766	-2.53777777778	1.56428571429
129	0.0645	-6.3347826087	0.682978723404	-2.53777777778	-4.17857142857
130	0.065	-7.75797101449	2.1170212766	-1.10222222222	0.128571428571
131	0.0655	-9.18115942029	0.682978723404	-1.10222222222	3.0
132	0.066	-9.18115942029	3.55106382979	8.94666666667	-1.30714285714
133	0.0665	-7.75797101449	-2.18510638298	-8.28	0.128571428571
134	0.067	-4.9115942029	-2.18510638298	-1.10222222222	3.0
135	0.0675	-7.75797101449	-0.751063829787	-1.10222222222	0.128571428571
136	0.068	-2.0652173913	0.682978723404	-2.53777777778	0.128571428571
137	0.0685	-3.4884057971	0.682978723404	-1.10222222222	14.4857142857
138	0.069	-2.0652173913	4.98510638298	-3.97333333333	-8.48571428571
139	0.0695	-4.9115942029	0.682978723404	-2.53777777778	-1.30714285714
140	0.07	-3.4884057971	0.682978723404	-5.40888888889	0.128571428571
141	0.0705	0.78115942029	0.682978723404	-2.53777777778	0.128571428571
142	0.071	0.78115942029	9.28723404255	-2.53777777778	-1.30714285714
143	0.0715	2.20434782609	0.682978723404	-1.10222222222	-1.30714285714
144	0.072	-9.18115942029	-2.18510638298	-1.10222222222	-1.30714285714
145	0.0725	12.1666666667	0.682978723404	-1.10222222222	1.56428571429
146	0.073	2.20434782609	-2.18510638298	-1.10222222222	-9.92142857143
147	0.0735	3.62753623188	0.682978723404	-15.4577777778	-2.74285714286
148	0.074	5.05072463768	-0.751063829787	-1.10222222222	-8.48571428571
149	0.0745	3.62753623188	3.55106382979	-12.5866666667	-1.30714285714
150	0.075	0.78115942029	-5.05319148936	0.333333333333	-1.30714285714
151	0.0755	0.78115942029	10.7212765957	-1.10222222222	-2.74285714286
152	0.076	3.62753623188	-2.18510638298	-3.97333333333	-1.30714285714
153	0.0765	-2.0652173913	0.682978723404	-1.10222222222	0.128571428571
154	0.077	-2.0652173913	0.682978723404	-3.97333333333	0.128571428571
155	0.0775	5.05072463768	-0.751063829787	0.333333333333	-5.61428571429
156	0.078	3.62753623188	0.682978723404	-1.10222222222	-1.30714285714
157	0.0785	-0.642028985507	0.682978723404	-2.53777777778	1.56428571429
158	0.079	0.78115942029	3.55106382979	4.64	-1.30714285714
159	0.0795	0.78115942029	-5.05319148936	-5.40888888889	-1.30714285714
160	0.08	2.20434782609	6.41914893617	-1.10222222222	0.128571428571
161	0.0805	-7.75797101449	0.682978723404	-2.53777777778	-1.30714285714
162	0.081	9.32028985507	0.682978723404	-1.10222222222	0.128571428571
163	0.0815	-0.642028985507	0.682978723404	-1.10222222222	0.128571428571
164	0.082	-2.0652173913	0.682978723404	-6.84444444444	-2.74285714286
165	0.0825	-0.642028985507	2.1170212766	-1.10222222222	7.30714285714
166	0.083	0.78115942029	3.55106382979	-6.84444444444	-5.61428571429
167	0.0835	3.62753623188	2.1170212766	3.20444444444	-1.30714285714
168	0.084	5.05072463768	15.0234042553	-2.53777777778	-1.30714285714
169	0.0845	2.20434782609	-2.18510638298	0.333333333333	1.56428571429
170	0.085	10.7434782609	0.682978723404	-1.10222222222	1.56428571429
171	0.0855	-6.3347826087	0.682978723404	-1.10222222222	0.128571428571
172	0.086	3.62753623188	0.682978723404	-3.97333333333	18.7928571429
173	0.0865	3.62753623188	2.1170212766	0.333333333333	-11.3571428571
174	0.087	3.62753623188	0.682978723404	-12.5866666667	-1.30714285714
175	0.0875	3.62753623188	-2.18510638298	14.6888888889	-2.74285714286
176	0.088	5.05072463768	7.85319148936	-8.28	-1.30714285714
177	0.0885	7.89710144928	-12.2234042553	-2.53777777778	-1.30714285714
178	0.089	10.7434782609	-0.751063829787	-1.10222222222	3.0
179	0.0895	-6.3347826087	3.55106382979	0.333333333333	-1.30714285714
180	0.09	24.9753623188	2.1170212766	-2.53777777778	1.56428571429
181	0.0905	-0.642028985507	0.682978723404	-1.10222222222	-2.74285714286
182	0.091	5.05072463768	0.682978723404	-12.5866666667	0.128571428571
183	0.0915	3.62753623188	0.682978723404	0.333333333333	-12.7928571429
184	0.092	2.20434782609	3.55106382979	-11.1511111111	0.128571428571
185	0.0925	2.20434782609	-3.61914893617	-2.53777777778	0.128571428571
186	0.093	0.78115942029	13.5893617021	-2.53777777778	-1.30714285714
187	0.0935	0.78115942029	0.682978723404	-1.10222222222	0.128571428571
188	0.094	-4.9115942029	0.682978723404	-1.10222222222	-1.30714285714
189	0.0945	-14.8739130435	3.55106382979	-1.10222222222	-1.30714285714
190	0.095	-7.75797101449	0.682978723404	-3.97333333333	17.3571428571
191	0.0955	-7.75797101449	2.1170212766	-1.10222222222	-9.92142857143
192	0.096	-4.9115942029	0.682978723404	-8.28	-1.30714285714
193	0.0965	-4.9115942029	2.1170212766	14.6888888889	0.128571428571
194	0.097	-4.9115942029	3.55106382979	-3.97333333333	-1.30714285714
195	0.0975	-6.3347826087	22.1936170213	-3.97333333333	1.56428571429
196	0.098	-4.9115942029	-7.92127659574	-2.53777777778	0.128571428571
197	0.0985	-13.4507246377	2.1170212766	-3.97333333333	4.43571428571
198	0.099	-13.4507246377	0.682978723404	-1.10222222222	-8.48571428571
199	0.0995	-4.9115942029	0.682978723404	-3.97333333333	17.3571428571
200	0.1	-3.4884057971	3.55106382979	-1.10222222222	-11.3571428571
201	0.1005	-2.0652173913	-0.751063829787	-2.53777777778	20.2285714286
202	0.101	-2.0652173913	-2.18510638298	-1.10222222222	0.128571428571
203	0.1015	-2.0652173913	2.1170212766	-9.71555555556	1.56428571429
204	0.102	-3.4884057971	-5.05319148936	-2.53777777778	-1.30714285714
205	0.1025	-0.642028985507	2.1170212766	-1.10222222222	3.0
206	0.103	-12.0275362319	3.55106382979	-3.97333333333	0.128571428571
207	0.1035	17.8594202899	-0.751063829787	-1.10222222222	1.56428571429
208	0.104	-12.0275362319	2.1170212766	-2.53777777778	-1.30714285714
209	0.1045	-2.0652173913	0.682978723404	-14.0222222222	-1.30714285714
210	0.105	-2.0652173913	0.682978723404	0.333333333333	-4.17857142857
211	0.1055	-3.4884057971	4.98510638298	-14.0222222222	-1.30714285714
212	0.106	0.78115942029	-10.7893617021	-2.53777777778	-1.30714285714
213	0.1065	3.62753623188	15.0234042553	-1.10222222222	-1.30714285714
214	0.107	-2.0652173913	-0.751063829787	0.333333333333	1.56428571429
215	0.1075	5.05072463768	-2.18510638298	-1.10222222222	-1.30714285714
216	0.108	0.78115942029	2.1170212766	0.333333333333	-5.61428571429
217	0.1085	-2.0652173913	3.55106382979	-1.10222222222	-2.74285714286
218	0.109	3.62753623188	2.1170212766	0.333333333333	-4.17857142857
219	0.1095	2.20434782609	3.55106382979	4.64	-1.30714285714
220	0.11	5.05072463768	-0.751063829787	-8.28	-2.74285714286
221	0.1105	2.20434782609	2.1170212766	-1.10222222222	-4.17857142857
222	0.111	2.20434782609	-10.7893617021	-1.10222222222	-2.74285714286
223	0.1115	0.78115942029	0.682978723404	-1.10222222222	0.128571428571
224	0.112	-0.642028985507	-5.05319148936	-1.10222222222	-1.30714285714
225	0.1125	-4.9115942029	2.1170212766	-1.10222222222	0.128571428571
226	0.113	-13.4507246377	0.682978723404	-1.10222222222	-2.74285714286
227	0.1135	-4.9115942029	2.1170212766	-5.40888888889	20.2285714286
228	0.114	-3.4884057971	2.1170212766	1.76888888889	-5.61428571429
229	0.1145	-3.4884057971	0.682978723404	-9.71555555556	-2.74285714286
230	0.115	-4.9115942029	-0.751063829787	4.64	-1.30714285714
231	0.1155	-7.75797101449	2.1170212766	4.64	3.0
232	0.116	-9.18115942029	2.1170212766	-1.10222222222	-1.30714285714
233	0.1165	-7.75797101449	-5.05319148936	-3.97333333333	0.128571428571
234	0.117	-13.4507246377	-0.751063829787	-1.10222222222	-1.30714285714
235	0.1175	-9.18115942029	0.682978723404	-3.97333333333	0.128571428571
236	0.118	-7.75797101449	2.1170212766	-3.97333333333	15.9214285714
237	0.1185	-6.3347826087	2.1170212766	3.20444444444	-7.05
238	0.119	-4.9115942029	3.55106382979	-12.5866666667	-1.30714285714
239	0.1195	-2.0652173913	2.1170212766	-1.10222222222	0.128571428571
240	0.12	-3.4884057971	-10.7893617021	-1.10222222222	-1.30714285714
241	0.1205	-2.0652173913	19.3255319149	3.20444444444	-1.30714285714
242	0.121	-3.4884057971	-6.48723404255	-1.10222222222	-2.74285714286
243	0.1215	-16.2971014493	0.682978723404	1.76888888889	0.128571428571
244	0.122	12.1666666667	0.682978723404	-1.10222222222	0.128571428571
245	0.1225	-0.642028985507	-0.751063829787	-1.10222222222	-7.05
246	0.123	-4.9115942029	0.682978723404	-3.97333333333	-7.05
247	0.1235	-0.642028985507	0.682978723404	-2.53777777778	0.128571428571
248	0.124	-3.4884057971	3.55106382979	-1.10222222222	14.4857142857
249	0.1245	-3.4884057971	0.682978723404	-8.28	0.128571428571
250	0.125	-0.642028985507	16.4574468085	-3.97333333333	-1.30714285714
251	0.1255	0.78115942029	-6.48723404255	-1.10222222222	-1.30714285714
252	0.126	-12.0275362319	0.682978723404	-3.97333333333	-1.30714285714
253	0.1265	16.4362318841	-2.18510638298	-3.97333333333	-1.30714285714
254	0.127	-10.6043478261	-2.18510638298	-1.10222222222	-12.7928571429
255	0.1275	-2.0652173913	0.682978723404	-3.97333333333	17.3571428571
256	0.128	-2.0652173913	3.55106382979	13.2533333333	0.128571428571
257	0.1285	-3.4884057971	0.682978723404	-9.71555555556	0.128571428571
258	0.129	-3.4884057971	2.1170212766	-1.10222222222	-1.30714285714
259	0.1295	-0.642028985507	13.5893617021	-2.53777777778	-1.30714285714
260	0.13	-2.0652173913	0.682978723404	-2.53777777778	-1.30714285714
261	0.1305	-2.0652173913	2.1170212766	-2.53777777778	0.128571428571
262	0.131	3.62753623188	3.55106382979	-1.10222222222	-1.30714285714
263	0.1315	-0.642028985507	2.1170212766	-1.10222222222	-2.74285714286
264	0.132	3.62753623188	2.1170212766	-1.10222222222	4.43571428571
265	0.1325	2.20434782609	0.682978723404	0.333333333333	3.0
266	0.133	3.62753623188	4.98510638298	-1.10222222222	0.128571428571
267	0.1335	3.62753623188	13.5893617021	-2.53777777778	0.128571428571
268	0.134	3.62753623188	2.1170212766	1.76888888889	0.128571428571
269	0.1345	-12.0275362319	-0.751063829787	0.333333333333	0.128571428571
270	0.135	9.32028985507	0.682978723404	-2.53777777778	1.56428571429
271	0.1355	0.78115942029	2.1170212766	0.333333333333	-1.30714285714
272	0.136	-3.4884057971	0.682978723404	-9.71555555556	-4.17857142857
273	0.1365	-3.4884057971	2.1170212766	1.76888888889	0.128571428571
274	0.137	0.78115942029	0.682978723404	1.76888888889	-1.30714285714
275	0.1375	3.62753623188	0.682978723404	-3.97333333333	1.56428571429
276	0.138	3.62753623188	-3.61914893617	0.333333333333	-1.30714285714
277	0.1385	3.62753623188	-5.05319148936	-1.10222222222	-1.30714285714
278	0.139	-0.642028985507	2.1170212766	1.76888888889	0.128571428571
279	0.1395	-4.9115942029	2.1170212766	-2.53777777778	0.128571428571
280	0.14	-4.9115942029	2.1170212766	-1.10222222222	-7.05
281	0.1405	3.62753623188	0.682978723404	-1.10222222222	17.3571428571
282	0.141	0.78115942029	2.1170212766	0.333333333333	-8.48571428571
283	0.1415	-2.0652173913	2.1170212766	-12.5866666667	-1.30714285714
284	0.142	-0.642028985507	4.98510638298	-2.53777777778	1.56428571429
285	0.1425	-2.0652173913	-9.35531914894	-2.53777777778	-1.30714285714
286	0.143	-0.642028985507	-7.92127659574	0.333333333333	-1.30714285714
287	0.1435	3.62753623188	0.682978723404	-2.53777777778	1.56428571429
288	0.144	-10.6043478261	0.682978723404	-1.10222222222	-2.74285714286
289	0.1445	19.2826086957	-0.751063829787	-1.10222222222	3.0
290	0.145	0.78115942029	0.682978723404	1.76888888889	-8.48571428571
291	0.1455	0.78115942029	0.682978723404	-3.97333333333	0.128571428571
292	0.146	-0.642028985507	2.1170212766	0.333333333333	1.56428571429
293	0.1465	-0.642028985507	2.1170212766	13.2533333333	0.128571428571
294	0.147	-0.642028985507	0.682978723404	-9.71555555556	-1.30714285714
295	0.1475	0.78115942029	-5.05319148936	-1.10222222222	1.56428571429
296	0.148	-4.9115942029	0.682978723404	-1.10222222222	1.56428571429
297	0.1485	-19.1434782609	4.98510638298	-1.10222222222	-2.74285714286
298	0.149	5.05072463768	2.1170212766	-2.53777777778	5.87142857143
299	0.1495	-12.0275362319	2.1170212766	0.333333333333	-12.7928571429
300	0.15	-14.8739130435	0.682978723404	-2.53777777778	18.7928571429
301	0.1505	-12.0275362319	4.98510638298	14.6888888889	0.128571428571
302	0.151	-7.75797101449	6.41914893617	0.333333333333	1.56428571429
303	0.1515	-6.3347826087	19.3255319149	-1.10222222222	1.56428571429
304	0.152	-3.4884057971	-7.92127659574	-1.10222222222	0.128571428571
305	0.1525	-7.75797101449	2.1170212766	-1.10222222222	1.56428571429
306	0.153	10.7434782609	0.682978723404	-2.53777777778	3.0
307	0.1535	-14.8739130435	0.682978723404	-1.10222222222	3.0
308	0.154	-4.9115942029	3.55106382979	-1.10222222222	5.87142857143
309	0.1545	-3.4884057971	3.55106382979	14.6888888889	-1.30714285714
310	0.155	-3.4884057971	0.682978723404	-1.10222222222	-1.30714285714
311	0.1555	-2.0652173913	4.98510638298	-1.10222222222	0.128571428571
312	0.156	2.20434782609	-6.48723404255	-3.97333333333	-1.30714285714
313	0.1565	10.7434782609	-2.18510638298	-1.10222222222	1.56428571429
314	0.157	-2.0652173913	0.682978723404	0.333333333333	-2.74285714286
315	0.1575	10.7434782609	2.1170212766	-1.10222222222	-7.05
316	0.158	9.32028985507	2.1170212766	-1.10222222222	0.128571428571
317	0.1585	-2.0652173913	3.55106382979	-1.10222222222	-2.74285714286
318	0.159	-3.4884057971	2.1170212766	0.333333333333	0.128571428571
319	0.1595	-3.4884057971	0.682978723404	7.51111111111	1.56428571429
320	0.16	-6.3347826087	-0.751063829787	-8.28	1.56428571429
321	0.1605	-3.4884057971	-0.751063829787	-2.53777777778	1.56428571429
322	0.161	-2.0652173913	20.7595744681	0.333333333333	-1.30714285714
323	0.1615	-13.4507246377	0.682978723404	-2.53777777778	-1.30714285714
324	0.162	20.7057971014	0.682978723404	1.76888888889	-11.3571428571
325	0.1625	-10.6043478261	4.98510638298	0.333333333333	1.56428571429
326	0.163	-0.642028985507	-0.751063829787	-9.71555555556	-2.74285714286
327	0.1635	0.78115942029	3.55106382979	18.9955555556	-2.74285714286
328	0.164	-0.642028985507	0.682978723404	-2.53777777778	0.128571428571
329	0.1645	0.78115942029	9.28723404255	-2.53777777778	1.56428571429
330	0.165	-0.642028985507	3.55106382979	1.76888888889	-1.30714285714
331	0.1655	3.62753623188	2.1170212766	-1.10222222222	0.128571428571
332	0.166	2.20434782609	0.682978723404	-6.84444444444	-2.74285714286
333	0.1665	22.1289855072	4.98510638298	-3.97333333333	3.0
334	0.167	-4.9115942029	2.1170212766	0.333333333333	-8.48571428571
335	0.1675	3.62753623188	2.1170212766	-3.97333333333	15.9214285714
336	0.168	5.05072463768	2.1170212766	13.2533333333	0.128571428571
337	0.1685	3.62753623188	4.98510638298	-5.40888888889	0.128571428571
338	0.169	3.62753623188	-6.48723404255	-6.84444444444	0.128571428571
339	0.1695	7.89710144928	12.1553191489	-3.97333333333	1.56428571429
340	0.17	0.78115942029	6.41914893617	-2.53777777778	-2.74285714286
341	0.1705	12.1666666667	3.55106382979	-6.84444444444	0.128571428571
342	0.171	10.7434782609	2.1170212766	-5.40888888889	-4.17857142857
343	0.1715	-6.3347826087	3.55106382979	-5.40888888889	-2.74285714286
344	0.172	-2.0652173913	0.682978723404	-8.28	0.128571428571
345	0.1725	-3.4884057971	2.1170212766	6.07555555556	0.128571428571
346	0.173	-3.4884057971	2.1170212766	-11.1511111111	1.56428571429
347	0.1735	-3.4884057971	2.1170212766	-1.10222222222	-1.30714285714
348	0.174	-3.4884057971	-6.48723404255	-1.10222222222	0.128571428571
349	0.1745	-2.0652173913	2.1170212766	-2.53777777778	1.56428571429
350	0.175	-13.4507246377	2.1170212766	-1.10222222222	-1.30714285714
351	0.1755	16.4362318841	0.682978723404	-2.53777777778	1.56428571429
352	0.176	-3.4884057971	2.1170212766	-1.10222222222	-5.61428571429
353	0.1765	-4.9115942029	0.682978723404	-12.5866666667	-1.30714285714
354	0.177	-7.75797101449	4.98510638298	6.07555555556	0.128571428571
355	0.1775	-6.3347826087	0.682978723404	-8.28	0.128571428571
356	0.178	-3.4884057971	6.41914893617	0.333333333333	-2.74285714286
357	0.1785	-3.4884057971	3.55106382979	-3.97333333333	-1.30714285714
358	0.179	-0.642028985507	2.1170212766	-1.10222222222	-1.30714285714
359	0.1795	-3.4884057971	4.98510638298	-2.53777777778	-2.74285714286
360	0.18	-12.0275362319	0.682978723404	-2.53777777778	-1.30714285714
361	0.1805	-6.3347826087	2.1170212766	-6.84444444444	14.4857142857
362	0.181	-4.9115942029	0.682978723404	0.333333333333	-4.17857142857
363	0.1815	-4.9115942029	3.55106382979	-12.5866666667	1.56428571429
364	0.182	-2.0652173913	3.55106382979	1.76888888889	-7.05
365	0.1825	-0.642028985507	-2.18510638298	-2.53777777778	-2.74285714286
366	0.183	3.62753623188	6.41914893617	-2.53777777778	0.128571428571
367	0.1835	3.62753623188	0.682978723404	-2.53777777778	-1.30714285714
368	0.184	-4.9115942029	6.41914893617	-2.53777777778	-1.30714285714
369	0.1845	15.0130434783	3.55106382979	-1.10222222222	-1.30714285714
370	0.185	7.89710144928	0.682978723404	3.20444444444	-1.30714285714
371	0.1855	5.05072463768	0.682978723404	-9.71555555556	-2.74285714286
372	0.186	3.62753623188	3.55106382979	8.94666666667	-1.30714285714
373	0.1865	5.05072463768	2.1170212766	1.76888888889	0.128571428571
374	0.187	0.78115942029	10.7212765957	-1.10222222222	0.128571428571
375	0.1875	0.78115942029	3.55106382979	-2.53777777778	-1.30714285714
376	0.188	3.62753623188	0.682978723404	-2.53777777778	1.56428571429
377	0.1885	-13.4507246377	0.682978723404	-2.53777777778	-1.30714285714
378	0.189	16.4362318841	0.682978723404	-1.10222222222	1.56428571429
379	0.1895	-0.642028985507	2.1170212766	3.20444444444	-4.17857142857
380	0.19	-2.0652173913	0.682978723404	-12.5866666667	-1.30714285714
381	0.1905	-3.4884057971	0.682978723404	0.333333333333	7.30714285714
382	0.191	-3.4884057971	4.98510638298	-6.84444444444	0.128571428571
383	0.1915	-9.18115942029	-7.92127659574	-2.53777777778	-2.74285714286
384	0.192	-12.0275362319	20.7595744681	-1.10222222222	-2.74285714286
385	0.1925	-27.6826086957	4.98510638298	-1.10222222222	-7.05
386	0.193	3.62753623188	3.55106382979	-2.53777777778	1.56428571429
387	0.1935	-21.9898550725	0.682978723404	-1.10222222222	-14.2285714286
388	0.194	-12.0275362319	0.682978723404	-3.97333333333	8.74285714286
389	0.1945	-7.75797101449	4.98510638298	13.2533333333	-1.30714285714
390	0.195	-4.9115942029	0.682978723404	-11.1511111111	-1.30714285714
391	0.1955	-4.9115942029	4.98510638298	-2.53777777778	0.128571428571
392	0.196	-4.9115942029	16.4574468085	-2.53777777778	-1.30714285714
393	0.1965	-4.9115942029	0.682978723404	-3.97333333333	-1.30714285714
394	0.197	-12.0275362319	3.55106382979	-2.53777777778	0.128571428571
395	0.1975	9.32028985507	4.98510638298	-2.53777777778	-7.05
396	0.198	-4.9115942029	2.1170212766	-1.10222222222	0.128571428571
397	0.1985	-2.0652173913	2.1170212766	-12.5866666667	-1.30714285714
398	0.199	0.78115942029	2.1170212766	-5.40888888889	0.128571428571
399	0.1995	-2.0652173913	0.682978723404	-2.53777777778	-2.74285714286
400	0.2	-2.0652173913	-9.35531914894	-1.10222222222	-1.30714285714
401	0.2005	-3.4884057971	-5.05319148936	-1.10222222222	-2.74285714286
402	0.201	3.62753623188	2.1170212766	-1.10222222222	-1.30714285714
403	0.2015	-9.18115942029	0.682978723404	-2.53777777778	-4.17857142857
404	0.202	17.8594202899	0.682978723404	-2.53777777778	-4.17857142857
405	0.2025	-0.642028985507	-0.751063829787	-6.84444444444	-7.05
406	0.203	-3.4884057971	2.1170212766	1.76888888889	-2.74285714286
407	0.2035	-3.4884057971	2.1170212766	-5.40888888889	-1.30714285714
408	0.204	0.78115942029	-3.61914893617	14.6888888889	-1.30714285714
409	0.2045	2.20434782609	19.3255319149	-1.10222222222	-2.74285714286
410	0.205	-3.4884057971	-5.05319148936	-1.10222222222	-2.74285714286
411	0.2055	7.89710144928	-0.751063829787	-1.10222222222	-4.17857142857
412	0.206	-10.6043478261	0.682978723404	-1.10222222222	-4.17857142857
413	0.2065	-0.642028985507	-0.751063829787	-3.97333333333	15.9214285714
414	0.207	-4.9115942029	-0.751063829787	-5.40888888889	-11.3571428571
415	0.2075	-0.642028985507	0.682978723404	-5.40888888889	-2.74285714286
416	0.208	0.78115942029	0.682978723404	-8.28	0.128571428571
417	0.2085	-2.0652173913	0.682978723404	-1.10222222222	-2.74285714286
418	0.209	-2.0652173913	-0.751063829787	-8.28	-4.17857142857
419	0.2095	0.78115942029	-5.05319148936	-1.10222222222	-2.74285714286
420	0.21	-4.9115942029	0.682978723404	-2.53777777778	-1.30714285714
421	0.2105	-2.0652173913	0.682978723404	-1.10222222222	-5.61428571429
422	0.211	17.8594202899	0.682978723404	1.76888888889	-1.30714285714
423	0.2115	0.78115942029	2.1170212766	-2.53777777778	-9.92142857143
424	0.212	3.62753623188	3.55106382979	-5.40888888889	-1.30714285714
425	0.2125	0.78115942029	0.682978723404	14.6888888889	-2.74285714286
426	0.213	0.78115942029	2.1170212766	1.76888888889	-1.30714285714
427	0.2135	0.78115942029	15.0234042553	0.333333333333	-4.17857142857
428	0.214	0.78115942029	-6.48723404255	1.76888888889	-2.74285714286
429	0.2145	-2.0652173913	0.682978723404	3.20444444444	-4.17857142857
430	0.215	13.5898550725	0.682978723404	0.333333333333	-2.74285714286
431	0.2155	-13.4507246377	0.682978723404	1.76888888889	-7.05
432	0.216	-4.9115942029	2.1170212766	4.64	1.56428571429
433	0.2165	-6.3347826087	3.55106382979	-1.10222222222	-2.74285714286
434	0.217	-7.75797101449	6.41914893617	-1.10222222222	-4.17857142857
435	0.2175	-6.3347826087	-10.7893617021	1.76888888889	-2.74285714286
436	0.218	-7.75797101449	17.8914893617	-1.10222222222	-4.17857142857
437	0.2185	-7.75797101449	0.682978723404	0.333333333333	-4.17857142857
438	0.219	-19.1434782609	0.682978723404	1.76888888889	-5.61428571429
439	0.2195	12.1666666667	0.682978723404	1.76888888889	-1.30714285714
440	0.22	-17.7202898551	2.1170212766	1.76888888889	14.4857142857
441	0.2205	-10.6043478261	0.682978723404	-3.97333333333	-1.30714285714
442	0.221	-6.3347826087	2.1170212766	1.76888888889	13.05
443	0.2215	-4.9115942029	0.682978723404	-5.40888888889	-1.30714285714
444	0.222	-0.642028985507	-0.751063829787	1.76888888889	-4.17857142857
445	0.2225	-3.4884057971	6.41914893617	1.76888888889	-2.74285714286
446	0.223	-0.642028985507	-0.751063829787	3.20444444444	-4.17857142857
447	0.2235	-12.0275362319	0.682978723404	1.76888888889	-4.17857142857
448	0.224	-4.9115942029	-0.751063829787	0.333333333333	4.43571428571
449	0.2245	-4.9115942029	-0.751063829787	8.94666666667	-7.05
450	0.225	-2.0652173913	0.682978723404	-6.84444444444	-5.61428571429
451	0.2255	-4.9115942029	0.682978723404	8.94666666667	-2.74285714286
452	0.226	-2.0652173913	2.1170212766	1.76888888889	-4.17857142857
453	0.2265	-3.4884057971	17.8914893617	3.20444444444	-5.61428571429
454	0.227	-2.0652173913	-5.05319148936	3.20444444444	-1.30714285714
455	0.2275	-14.8739130435	0.682978723404	1.76888888889	-5.61428571429
456	0.228	20.7057971014	0.682978723404	0.333333333333	-2.74285714286
457	0.2285	-7.75797101449	-0.751063829787	3.20444444444	-14.2285714286
458	0.229	-2.0652173913	0.682978723404	-1.10222222222	7.30714285714
459	0.2295	-2.0652173913	-0.751063829787	3.20444444444	-8.48571428571
460	0.23	-4.9115942029	0.682978723404	-8.28	-5.61428571429
461	0.2305	-4.9115942029	-0.751063829787	1.76888888889	-2.74285714286
462	0.231	0.78115942029	17.8914893617	3.20444444444	-2.74285714286
463	0.2315	-3.4884057971	-7.92127659574	3.20444444444	-2.74285714286
464	0.232	-7.75797101449	-0.751063829787	1.76888888889	-4.17857142857
465	0.2325	0.78115942029	-0.751063829787	0.333333333333	-2.74285714286
466	0.233	0.78115942029	0.682978723404	1.76888888889	1.56428571429
467	0.2335	2.20434782609	-0.751063829787	-2.53777777778	-7.05
468	0.234	0.78115942029	2.1170212766	16.1244444444	-5.61428571429
469	0.2345	2.20434782609	0.682978723404	3.20444444444	-7.05
470	0.235	-2.0652173913	3.55106382979	1.76888888889	-2.74285714286
471	0.2355	0.78115942029	17.8914893617	1.76888888889	-2.74285714286
472	0.236	-2.0652173913	-6.48723404255	1.76888888889	-1.30714285714
473	0.2365	2.20434782609	-0.751063829787	4.64	-4.17857142857
474	0.237	-4.9115942029	0.682978723404	4.64	-4.17857142857
475	0.2375	0.78115942029	2.1170212766	3.20444444444	-7.05
476	0.238	0.78115942029	-0.751063829787	3.20444444444	-7.05
477	0.2385	0.78115942029	-0.751063829787	0.333333333333	5.87142857143
478	0.239	0.78115942029	2.1170212766	-1.10222222222	-2.74285714286
479	0.2395	3.62753623188	-3.61914893617	1.76888888889	-5.61428571429
480	0.24	3.62753623188	4.98510638298	0.333333333333	-4.17857142857
481	0.2405	3.62753623188	-6.48723404255	1.76888888889	-4.17857142857
482	0.241	6.47391304348	0.682978723404	1.76888888889	-5.61428571429
483	0.2415	7.89710144928	-0.751063829787	4.64	-9.92142857143
484	0.242	0.78115942029	-0.751063829787	1.76888888889	0.128571428571
485	0.2425	3.62753623188	-2.18510638298	0.333333333333	-9.92142857143
486	0.243	5.05072463768	0.682978723404	0.333333333333	-11.3571428571
487	0.2435	7.89710144928	-2.18510638298	0.333333333333	-4.17857142857
488	0.244	5.05072463768	-10.7893617021	1.76888888889	-4.17857142857
489	0.2445	5.05072463768	-12.2234042553	1.76888888889	-5.61428571429
490	0.245	10.7434782609	0.682978723404	3.20444444444	-1.30714285714
491	0.2455	-6.3347826087	0.682978723404	1.76888888889	-1.30714285714
492	0.246	23.552173913	-2.18510638298	1.76888888889	-1.30714285714
493	0.2465	3.62753623188	-0.751063829787	4.64	-12.7928571429
494	0.247	0.78115942029	2.1170212766	1.76888888889	14.4857142857
495	0.2475	-0.642028985507	-0.751063829787	6.07555555556	-12.7928571429
496	0.248	-3.4884057971	2.1170212766	-6.84444444444	-4.17857142857
497	0.2485	-6.3347826087	-9.35531914894	1.76888888889	-4.17857142857
498	0.249	-4.9115942029	20.7595744681	4.64	-4.17857142857
499	0.2495	-7.75797101449	-6.48723404255	3.20444444444	-2.74285714286
500	0.25	10.7434782609	0.682978723404	4.64	-2.74285714286
501	0.2505	-12.0275362319	0.682978723404	8.94666666667	-12.7928571429
502	0.251	-2.0652173913	-0.751063829787	1.76888888889	-11.3571428571
503	0.2515	-2.0652173913	-0.751063829787	-3.97333333333	-7.05
504	0.252	-2.0652173913	-0.751063829787	7.51111111111	-11.3571428571
505	0.2525	-2.0652173913	2.1170212766	4.64	-5.61428571429
506	0.253	-0.642028985507	-10.7893617021	4.64	-4.17857142857
507	0.2535	2.20434782609	17.8914893617	3.20444444444	-4.17857142857
508	0.254	-3.4884057971	-9.35531914894	3.20444444444	-2.74285714286
509	0.2545	19.2826086957	-0.751063829787	1.76888888889	-2.74285714286
510	0.255	-7.75797101449	-0.751063829787	3.20444444444	-14.2285714286
511	0.2555	-0.642028985507	0.682978723404	-1.10222222222	13.05
512	0.256	0.78115942029	3.55106382979	18.9955555556	-5.61428571429
513	0.2565	-0.642028985507	-0.751063829787	-3.97333333333	-4.17857142857
514	0.257	-0.642028985507	2.1170212766	3.20444444444	-4.17857142857
515	0.2575	3.62753623188	-10.7893617021	6.07555555556	-2.74285714286
516	0.258	7.89710144928	17.8914893617	0.333333333333	-4.17857142857
517	0.2585	0.78115942029	0.682978723404	3.20444444444	-4.17857142857
518	0.259	22.1289855072	-0.751063829787	3.20444444444	-4.17857142857
519	0.2595	-6.3347826087	2.1170212766	4.64	-5.61428571429
520	0.26	0.78115942029	-2.18510638298	0.333333333333	11.6142857143
521	0.2605	3.62753623188	-0.751063829787	6.07555555556	-11.3571428571
522	0.261	2.20434782609	0.682978723404	-5.40888888889	-4.17857142857
523	0.2615	2.20434782609	-0.751063829787	1.76888888889	-1.30714285714
524	0.262	-0.642028985507	-9.35531914894	1.76888888889	-4.17857142857
525	0.2625	-3.4884057971	3.55106382979	3.20444444444	-2.74285714286
526	0.263	-0.642028985507	0.682978723404	6.07555555556	-2.74285714286
527	0.2635	-6.3347826087	0.682978723404	8.94666666667	-2.74285714286
528	0.264	0.78115942029	0.682978723404	7.51111111111	7.30714285714
529	0.2645	0.78115942029	0.682978723404	7.51111111111	-5.61428571429
530	0.265	3.62753623188	2.1170212766	4.64	3.0
531	0.2655	5.05072463768	2.1170212766	1.76888888889	-9.92142857143
532	0.266	5.05072463768	-10.7893617021	4.64	-5.61428571429
533	0.2665	3.62753623188	-0.751063829787	8.94666666667	-4.17857142857
534	0.267	2.20434782609	-0.751063829787	4.64	-1.30714285714
535	0.2675	-6.3347826087	0.682978723404	3.20444444444	-2.74285714286
536	0.268	16.4362318841	-3.61914893617	4.64	-2.74285714286
537	0.2685	2.20434782609	0.682978723404	7.51111111111	-8.48571428571
538	0.269	0.78115942029	0.682978723404	3.20444444444	4.43571428571
539	0.2695	0.78115942029	2.1170212766	23.3022222222	-1.30714285714
540	0.27	-2.0652173913	-3.61914893617	-1.10222222222	-2.74285714286
541	0.2705	-0.642028985507	2.1170212766	1.76888888889	-2.74285714286
542	0.271	-0.642028985507	-7.92127659574	4.64	-1.30714285714
543	0.2715	-2.0652173913	16.4574468085	4.64	-5.61428571429
544	0.272	2.20434782609	-5.05319148936	4.64	-2.74285714286
545	0.2725	-10.6043478261	0.682978723404	3.20444444444	-1.30714285714
546	0.273	-4.9115942029	0.682978723404	1.76888888889	-8.48571428571
547	0.2735	-4.9115942029	0.682978723404	-6.84444444444	-5.61428571429
548	0.274	-6.3347826087	0.682978723404	20.4311111111	-7.05
549	0.2745	-9.18115942029	2.1170212766	-8.28	-5.61428571429
550	0.275	-9.18115942029	-0.751063829787	3.20444444444	-4.17857142857
551	0.2755	-6.3347826087	16.4574468085	0.333333333333	-5.61428571429
552	0.276	-7.75797101449	-9.35531914894	3.20444444444	-2.74285714286
553	0.2765	-4.9115942029	3.55106382979	4.64	-4.17857142857
554	0.277	0.78115942029	0.682978723404	4.64	-5.61428571429
555	0.2775	0.78115942029	2.1170212766	4.64	-1.30714285714
556	0.278	0.78115942029	-2.18510638298	-3.97333333333	-8.48571428571
557	0.2785	-0.642028985507	-0.751063829787	4.64	0.128571428571
558	0.279	2.20434782609	-0.751063829787	-5.40888888889	-7.05
559	0.2795	0.78115942029	-10.7893617021	4.64	-2.74285714286
560	0.28	0.78115942029	19.3255319149	4.64	-2.74285714286
561	0.2805	2.20434782609	-9.35531914894	1.76888888889	-2.74285714286
562	0.281	0.78115942029	-2.18510638298	3.20444444444	-1.30714285714
563	0.2815	-4.9115942029	2.1170212766	4.64	-8.48571428571
564	0.282	3.62753623188	0.682978723404	0.333333333333	5.87142857143
565	0.2825	2.20434782609	0.682978723404	-1.10222222222	-8.48571428571
566	0.283	2.20434782609	2.1170212766	7.51111111111	-4.17857142857
567	0.2835	2.20434782609	-6.48723404255	-1.10222222222	-5.61428571429
568	0.284	2.20434782609	-9.35531914894	-1.10222222222	-4.17857142857
569	0.2845	2.20434782609	17.8914893617	0.333333333333	-2.74285714286
570	0.285	-12.0275362319	0.682978723404	0.333333333333	-4.17857142857
571	0.2855	22.1289855072	-2.18510638298	3.20444444444	-1.30714285714
572	0.286	-4.9115942029	0.682978723404	4.64	-17.1
573	0.2865	2.20434782609	0.682978723404	-1.10222222222	11.6142857143
574	0.287	-0.642028985507	-2.18510638298	20.4311111111	-7.05
575	0.2875	-2.0652173913	-2.18510638298	-6.84444444444	-2.74285714286
576	0.288	-2.0652173913	0.682978723404	21.8666666667	-7.05
577	0.2885	0.78115942029	17.8914893617	3.20444444444	-4.17857142857
578	0.289	-2.0652173913	-9.35531914894	0.333333333333	-4.17857142857
579	0.2895	3.62753623188	0.682978723404	4.64	-2.74285714286
580	0.29	-3.4884057971	-0.751063829787	3.20444444444	-4.17857142857
581	0.2905	0.78115942029	0.682978723404	0.333333333333	4.43571428571
582	0.291	0.78115942029	0.682978723404	-2.53777777778	-9.92142857143
583	0.2915	0.78115942029	0.682978723404	3.20444444444	-8.48571428571
584	0.292	-2.0652173913	-3.61914893617	7.51111111111	-4.17857142857
585	0.2925	-2.0652173913	3.55106382979	1.76888888889	-5.61428571429
586	0.293	2.20434782609	-7.92127659574	3.20444444444	-7.05
587	0.2935	0.78115942029	-5.05319148936	3.20444444444	-2.74285714286
588	0.294	16.4362318841	-2.18510638298	0.333333333333	-5.61428571429
589	0.2945	-3.4884057971	0.682978723404	4.64	7.30714285714
590	0.295	3.62753623188	-3.61914893617	3.20444444444	-7.05
591	0.2955	0.78115942029	2.1170212766	-9.71555555556	-2.74285714286
592	0.296	0.78115942029	2.1170212766	20.4311111111	-8.48571428571
593	0.2965	0.78115942029	2.1170212766	4.64	-5.61428571429
594	0.297	3.62753623188	17.8914893617	3.20444444444	-7.05
595	0.2975	0.78115942029	-7.92127659574	3.20444444444	-4.17857142857
596	0.298	-10.6043478261	0.682978723404	3.20444444444	-4.17857142857
597	0.2985	16.4362318841	2.1170212766	1.76888888889	-4.17857142857
598	0.299	-10.6043478261	0.682978723404	3.20444444444	14.4857142857
599	0.2995	-0.642028985507	2.1170212766	0.333333333333	-11.3571428571
600	0.3	-0.642028985507	0.682978723404	3.20444444444	13.05
601	0.3005	-0.642028985507	-0.751063829787	-1.10222222222	-2.74285714286
602	0.301	-2.0652173913	-3.61914893617	-2.53777777778	-1.30714285714
603	0.3015	-0.642028985507	-2.18510638298	1.76888888889	-4.17857142857
604	0.302	-6.3347826087	-0.751063829787	1.76888888889	-2.74285714286
605	0.3025	7.89710144928	-0.751063829787	1.76888888889	-1.30714285714
606	0.303	2.20434782609	-2.18510638298	4.64	-12.7928571429
607	0.3035	-2.0652173913	-3.61914893617	1.76888888889	-1.30714285714
608	0.304	0.78115942029	-0.751063829787	18.9955555556	-2.74285714286
609	0.3045	-0.642028985507	0.682978723404	-9.71555555556	-5.61428571429
610	0.305	-0.642028985507	-2.18510638298	17.56	-5.61428571429
611	0.3055	-2.0652173913	3.55106382979	-5.40888888889	-4.17857142857
612	0.306	-7.75797101449	-7.92127659574	1.76888888889	-2.74285714286
613	0.3065	-4.9115942029	-0.751063829787	3.20444444444	-7.05
614	0.307	-9.18115942029	-2.18510638298	4.64	-4.17857142857
615	0.3075	3.62753623188	0.682978723404	3.20444444444	14.4857142857
616	0.308	0.78115942029	-0.751063829787	4.64	-14.2285714286
617	0.3085	2.20434782609	0.682978723404	0.333333333333	8.74285714286
618	0.309	3.62753623188	0.682978723404	1.76888888889	-11.3571428571
619	0.3095	5.05072463768	-6.48723404255	4.64	-5.61428571429
620	0.31	7.89710144928	2.1170212766	4.64	-5.61428571429
621	0.3105	7.89710144928	-6.48723404255	4.64	-4.17857142857
622	0.311	12.1666666667	0.682978723404	3.20444444444	-2.74285714286
623	0.3115	16.4362318841	-0.751063829787	4.64	-7.05
624	0.312	-0.642028985507	-0.751063829787	1.76888888889	-2.74285714286
625	0.3125	9.32028985507	0.682978723404	4.64	3.0
626	0.313	5.05072463768	-0.751063829787	-6.84444444444	-7.05
627	0.3135	9.32028985507	-2.18510638298	11.8177777778	-1.30714285714
628	0.314	10.7434782609	2.1170212766	3.20444444444	-5.61428571429
629	0.3145	0.78115942029	-5.05319148936	3.20444444444	-7.05
630	0.315	7.89710144928	-3.61914893617	1.76888888889	-1.30714285714
631	0.3155	-12.0275362319	-3.61914893617	1.76888888889	-7.05
632	0.316	19.2826086957	-0.751063829787	3.20444444444	-1.30714285714
633	0.3165	3.62753623188	-0.751063829787	1.76888888889	-12.7928571429
634	0.317	2.20434782609	0.682978723404	-6.84444444444	-2.74285714286
635	0.3175	-0.642028985507	2.1170212766	16.1244444444	-2.74285714286
636	0.318	-0.642028985507	-0.751063829787	-2.53777777778	-1.30714285714
637	0.3185	-3.4884057971	7.85319148936	4.64	-4.17857142857
638	0.319	-4.9115942029	-5.05319148936	4.64	-4.17857142857
639	0.3195	-3.4884057971	0.682978723404	4.64	-2.74285714286
640	0.32	-17.7202898551	0.682978723404	3.20444444444	-4.17857142857
641	0.3205	-9.18115942029	0.682978723404	3.20444444444	8.74285714286
642	0.321	-4.9115942029	0.682978723404	3.20444444444	-12.7928571429
643	0.3215	-4.9115942029	-0.751063829787	0.333333333333	7.30714285714
644	0.322	-3.4884057971	-2.18510638298	1.76888888889	-7.05
645	0.3225	-0.642028985507	2.1170212766	0.333333333333	-4.17857142857
646	0.323	-0.642028985507	-10.7893617021	-2.53777777778	-5.61428571429
647	0.3235	-0.642028985507	9.28723404255	3.20444444444	-7.05
648	0.324	-12.0275362319	0.682978723404	0.333333333333	-5.61428571429
649	0.3245	9.32028985507	0.682978723404	0.333333333333	-1.30714285714
650	0.325	-4.9115942029	-0.751063829787	3.20444444444	-2.74285714286
651	0.3255	-2.0652173913	2.1170212766	-9.71555555556	-2.74285714286
652	0.326	-0.642028985507	2.1170212766	7.51111111111	-4.17857142857
653	0.3265	0.78115942029	-2.18510638298	3.20444444444	-4.17857142857
654	0.327	0.78115942029	0.682978723404	-5.40888888889	-2.74285714286
655	0.3275	5.05072463768	6.41914893617	1.76888888889	-4.17857142857
656	0.328	3.62753623188	-7.92127659574	0.333333333333	-4.17857142857
657	0.3285	0.78115942029	-2.18510638298	3.20444444444	-1.30714285714
658	0.329	-6.3347826087	-0.751063829787	1.76888888889	-2.74285714286
659	0.3295	2.20434782609	0.682978723404	-1.10222222222	14.4857142857
660	0.33	2.20434782609	0.682978723404	3.20444444444	-9.92142857143
661	0.3305	-0.642028985507	-0.751063829787	-8.28	-4.17857142857
662	0.331	0.78115942029	-0.751063829787	21.8666666667	-4.17857142857
663	0.3315	0.78115942029	0.682978723404	-6.84444444444	-4.17857142857
664	0.332	0.78115942029	-9.35531914894	0.333333333333	-1.30714285714
665	0.3325	0.78115942029	19.3255319149	3.20444444444	-5.61428571429
666	0.333	-7.75797101449	0.682978723404	4.64	-4.17857142857
667	0.3335	19.2826086957	0.682978723404	1.76888888889	0.128571428571
668	0.334	-7.75797101449	0.682978723404	1.76888888889	-5.61428571429
669	0.3345	3.62753623188	0.682978723404	-6.84444444444	-2.74285714286
670	0.335	3.62753623188	0.682978723404	20.4311111111	-2.74285714286
671	0.3355	-2.0652173913	-2.18510638298	-5.40888888889	-2.74285714286
672	0.336	0.78115942029	4.98510638298	3.20444444444	-4.17857142857
673	0.3365	-3.4884057971	-6.48723404255	4.64	-2.74285714286
674	0.337	-6.3347826087	19.3255319149	1.76888888889	-4.17857142857
675	0.3375	0.78115942029	-6.48723404255	1.76888888889	-4.17857142857
676	0.338	-12.0275362319	2.1170212766	3.20444444444	-14.2285714286
677	0.3385	-2.0652173913	-2.18510638298	0.333333333333	13.05
678	0.339	0.78115942029	0.682978723404	4.64	-11.3571428571
679	0.3395	2.20434782609	4.98510638298	-5.40888888889	-4.17857142857
680	0.34	3.62753623188	0.682978723404	3.20444444444	-2.74285714286
681	0.3405	5.05072463768	-9.35531914894	3.20444444444	-7.05
682	0.341	5.05072463768	10.7212765957	4.64	-4.17857142857
683	0.3415	5.05072463768	-5.05319148936	1.76888888889	-4.17857142857
684	0.342	10.7434782609	2.1170212766	3.20444444444	-2.74285714286
685	0.3425	0.78115942029	2.1170212766	4.64	-9.92142857143
686	0.343	-3.4884057971	2.1170212766	-1.10222222222	7.30714285714
687	0.3435	-0.642028985507	-0.751063829787	18.9955555556	-5.61428571429
688	0.344	0.78115942029	-0.751063829787	-2.53777777778	-2.74285714286
689	0.3445	-0.642028985507	0.682978723404	1.76888888889	-4.17857142857
690	0.345	-2.0652173913	-10.7893617021	3.20444444444	-2.74285714286
691	0.3455	3.62753623188	-6.48723404255	1.76888888889	-2.74285714286
692	0.346	-16.2971014493	-0.751063829787	3.20444444444	-7.05
693	0.3465	13.5898550725	-0.751063829787	4.64	1.56428571429
694	0.347	-16.2971014493	-3.61914893617	7.51111111111	-12.7928571429
695	0.3475	-3.4884057971	-0.751063829787	0.333333333333	14.4857142857
696	0.348	-4.9115942029	2.1170212766	16.1244444444	-5.61428571429
697	0.3485	-6.3347826087	-0.751063829787	-3.97333333333	-2.74285714286
698	0.349	-3.4884057971	2.1170212766	16.1244444444	-4.17857142857
699	0.3495	-6.3347826087	0.682978723404	6.07555555556	-1.30714285714
700	0.35	-7.75797101449	2.1170212766	0.333333333333	0.128571428571
701	0.3505	-10.6043478261	2.1170212766	3.20444444444	-2.74285714286
702	0.351	2.20434782609	0.682978723404	3.20444444444	-4.17857142857
703	0.3515	-16.2971014493	-2.18510638298	6.07555555556	-9.92142857143
704	0.352	-10.6043478261	-0.751063829787	3.20444444444	-12.7928571429
705	0.3525	-12.0275362319	2.1170212766	-5.40888888889	-4.17857142857
706	0.353	-10.6043478261	0.682978723404	3.20444444444	-4.17857142857
707	0.3535	-12.0275362319	3.55106382979	-3.97333333333	-1.30714285714
708	0.354	-13.4507246377	-10.7893617021	1.76888888889	-1.30714285714
709	0.3545	-9.18115942029	20.7595744681	0.333333333333	-4.17857142857
710	0.355	-19.1434782609	0.682978723404	1.76888888889	-5.61428571429
711	0.3555	10.7434782609	2.1170212766	0.333333333333	0.128571428571
712	0.356	-6.3347826087	-0.751063829787	0.333333333333	-9.92142857143
713	0.3565	-4.9115942029	0.682978723404	-5.40888888889	-7.05
714	0.357	-2.0652173913	2.1170212766	8.94666666667	-2.74285714286
715	0.3575	-0.642028985507	-2.18510638298	4.64	-4.17857142857
716	0.358	3.62753623188	0.682978723404	6.07555555556	-4.17857142857
717	0.3585	0.78115942029	2.1170212766	3.20444444444	-7.05
718	0.359	3.62753623188	-9.35531914894	1.76888888889	-4.17857142857
719	0.3595	5.05072463768	-0.751063829787	1.76888888889	-4.17857142857
720	0.36	17.8594202899	2.1170212766	3.20444444444	-5.61428571429
721	0.3605	0.78115942029	0.682978723404	0.333333333333	-7.05
722	0.361	9.32028985507	0.682978723404	-1.10222222222	8.74285714286
723	0.3615	7.89710144928	0.682978723404	0.333333333333	-8.48571428571
724	0.362	7.89710144928	2.1170212766	-6.84444444444	-1.30714285714
725	0.3625	3.62753623188	0.682978723404	3.20444444444	-1.30714285714
726	0.363	3.62753623188	-7.92127659574	0.333333333333	-5.61428571429
727	0.3635	3.62753623188	-6.48723404255	-1.10222222222	-2.74285714286
728	0.364	7.89710144928	0.682978723404	0.333333333333	-1.30714285714
729	0.3645	-10.6043478261	-0.751063829787	0.333333333333	-1.30714285714
730	0.365	-4.9115942029	0.682978723404	0.333333333333	-9.92142857143
731	0.3655	0.78115942029	-0.751063829787	-1.10222222222	4.43571428571
732	0.366	0.78115942029	0.682978723404	4.64	0.128571428571
733	0.3665	-2.0652173913	0.682978723404	3.20444444444	-2.74285714286
734	0.367	-3.4884057971	4.98510638298	-1.10222222222	-1.30714285714
735	0.3675	-6.3347826087	-7.92127659574	0.333333333333	-1.30714285714
736	0.368	-4.9115942029	6.41914893617	0.333333333333	0.128571428571
737	0.3685	-6.3347826087	2.1170212766	1.76888888889	-1.30714285714
738	0.369	-20.5666666667	0.682978723404	3.20444444444	-1.30714285714
739	0.3695	-9.18115942029	0.682978723404	1.76888888889	-2.74285714286
740	0.37	-12.0275362319	0.682978723404	3.20444444444	-5.61428571429
741	0.3705	-9.18115942029	0.682978723404	-6.84444444444	-2.74285714286
742	0.371	-4.9115942029	2.1170212766	4.64	-5.61428571429
743	0.3715	-4.9115942029	2.1170212766	-8.28	-4.17857142857
744	0.372	-4.9115942029	-7.92127659574	3.20444444444	-4.17857142857
745	0.3725	-3.4884057971	16.4574468085	1.76888888889	-4.17857142857
746	0.373	-4.9115942029	-0.751063829787	4.64	-1.30714285714
747	0.3735	0.78115942029	0.682978723404	0.333333333333	-4.17857142857
748	0.374	19.2826086957	-2.18510638298	0.333333333333	-1.30714285714
749	0.3745	-0.642028985507	-0.751063829787	1.76888888889	-14.2285714286
750	0.375	-0.642028985507	0.682978723404	-3.97333333333	-1.30714285714
751	0.3755	3.62753623188	-0.751063829787	3.20444444444	-12.7928571429
752	0.376	7.89710144928	0.682978723404	-8.28	-1.30714285714
753	0.3765	3.62753623188	-5.05319148936	0.333333333333	-4.17857142857
754	0.377	0.78115942029	17.8914893617	-1.10222222222	-2.74285714286
755	0.3775	0.78115942029	-7.92127659574	0.333333333333	0.128571428571
756	0.378	10.7434782609	0.682978723404	-1.10222222222	-1.30714285714
757	0.3785	-3.4884057971	-2.18510638298	0.333333333333	-4.17857142857
758	0.379	-3.4884057971	-0.751063829787	1.76888888889	-1.30714285714
759	0.3795	0.78115942029	0.682978723404	0.333333333333	11.6142857143
760	0.38	-2.0652173913	2.1170212766	3.20444444444	-11.3571428571
761	0.3805	-3.4884057971	0.682978723404	-6.84444444444	-2.74285714286
762	0.381	-4.9115942029	-5.05319148936	20.4311111111	-2.74285714286
763	0.3815	-3.4884057971	19.3255319149	1.76888888889	-2.74285714286
764	0.382	-6.3347826087	-7.92127659574	-1.10222222222	-2.74285714286
765	0.3825	-0.642028985507	0.682978723404	4.64	-2.74285714286
766	0.383	-19.1434782609	2.1170212766	4.64	-1.30714285714
767	0.3835	-6.3347826087	0.682978723404	0.333333333333	3.0
768	0.384	-6.3347826087	0.682978723404	0.333333333333	7.30714285714
769	0.3845	-3.4884057971	0.682978723404	0.333333333333	-8.48571428571
770	0.385	-3.4884057971	2.1170212766	-8.28	-2.74285714286
771	0.3855	-3.4884057971	0.682978723404	20.4311111111	-4.17857142857
772	0.386	-4.9115942029	3.55106382979	-6.84444444444	-1.30714285714
773	0.3865	-9.18115942029	-6.48723404255	0.333333333333	-4.17857142857
774	0.387	-3.4884057971	-2.18510638298	1.76888888889	-4.17857142857
775	0.3875	-19.1434782609	0.682978723404	0.333333333333	-2.74285714286
776	0.388	3.62753623188	0.682978723404	0.333333333333	-4.17857142857
777	0.3885	-3.4884057971	0.682978723404	3.20444444444	7.30714285714
778	0.389	-4.9115942029	2.1170212766	-1.10222222222	-8.48571428571
779	0.3895	-6.3347826087	0.682978723404	-1.10222222222	11.6142857143
780	0.39	-4.9115942029	0.682978723404	-1.10222222222	-1.30714285714
781	0.3905	-7.75797101449	-0.751063829787	-8.28	0.128571428571
782	0.391	-2.0652173913	-7.92127659574	4.64	-1.30714285714
783	0.3915	0.78115942029	19.3255319149	1.76888888889	-2.74285714286
784	0.392	-10.6043478261	0.682978723404	0.333333333333	-2.74285714286
785	0.3925	16.4362318841	-0.751063829787	1.76888888889	-4.17857142857
786	0.393	-10.6043478261	0.682978723404	0.333333333333	-7.05
787	0.3935	-0.642028985507	0.682978723404	-5.40888888889	-2.74285714286
788	0.394	0.78115942029	0.682978723404	18.9955555556	-1.30714285714
789	0.3945	0.78115942029	-0.751063829787	-8.28	-4.17857142857
790	0.395	0.78115942029	0.682978723404	1.76888888889	-1.30714285714
791	0.3955	-0.642028985507	-2.18510638298	-8.28	-4.17857142857
792	0.396	-2.0652173913	-6.48723404255	1.76888888889	-1.30714285714
793	0.3965	-2.0652173913	-0.751063829787	1.76888888889	-1.30714285714
794	0.397	-7.75797101449	4.98510638298	0.333333333333	-2.74285714286
795	0.3975	-2.0652173913	-0.751063829787	-1.10222222222	14.4857142857
796	0.398	-4.9115942029	2.1170212766	0.333333333333	-11.3571428571
797	0.3985	-7.75797101449	0.682978723404	0.333333333333	14.4857142857
798	0.399	-6.3347826087	-0.751063829787	3.20444444444	-11.3571428571
799	0.3995	-3.4884057971	-5.05319148936	1.76888888889	-2.74285714286
800	0.4	-4.9115942029	-3.61914893617	1.76888888889	-4.17857142857
801	0.4005	-3.4884057971	9.28723404255	1.76888888889	-2.74285714286
802	0.401	-2.0652173913	-6.48723404255	3.20444444444	-2.74285714286
803	0.4015	10.7434782609	0.682978723404	3.20444444444	-2.74285714286
804	0.402	-6.3347826087	2.1170212766	1.76888888889	-5.61428571429
805	0.4025	0.78115942029	0.682978723404	3.20444444444	-2.74285714286
806	0.403	-0.642028985507	0.682978723404	-5.40888888889	-9.92142857143
807	0.4035	2.20434782609	2.1170212766	-1.10222222222	-2.74285714286
808	0.404	2.20434782609	0.682978723404	11.8177777778	-4.17857142857
809	0.4045	3.62753623188	-7.92127659574	-1.10222222222	-2.74285714286
810	0.405	2.20434782609	13.5893617021	0.333333333333	-2.74285714286
811	0.4055	2.20434782609	-3.61914893617	0.333333333333	-1.30714285714
812	0.406	20.7057971014	0.682978723404	1.76888888889	-1.30714285714
813	0.4065	-3.4884057971	0.682978723404	1.76888888889	-4.17857142857
814	0.407	0.78115942029	-0.751063829787	3.20444444444	-1.30714285714
815	0.4075	5.05072463768	0.682978723404	16.1244444444	-2.74285714286
816	0.408	2.20434782609	0.682978723404	3.20444444444	-1.30714285714
817	0.4085	3.62753623188	2.1170212766	-3.97333333333	-1.30714285714
818	0.409	2.20434782609	-5.05319148936	1.76888888889	-2.74285714286
819	0.4095	0.78115942029	7.85319148936	-1.10222222222	-5.61428571429
820	0.41	-0.642028985507	-5.05319148936	3.20444444444	-2.74285714286
821	0.4105	5.05072463768	2.1170212766	4.64	-1.30714285714
822	0.411	-4.9115942029	2.1170212766	4.64	-14.2285714286
823	0.4115	0.78115942029	2.1170212766	3.20444444444	-1.30714285714
824	0.412	3.62753623188	-0.751063829787	3.20444444444	-8.48571428571
825	0.4125	0.78115942029	-0.751063829787	6.07555555556	-8.48571428571
826	0.413	-0.642028985507	2.1170212766	-2.53777777778	-1.30714285714
827	0.4135	-0.642028985507	6.41914893617	0.333333333333	-2.74285714286
828	0.414	-0.642028985507	-10.7893617021	4.64	-2.74285714286
829	0.4145	-2.0652173913	15.0234042553	6.07555555556	-1.30714285714
830	0.415	-4.9115942029	4.98510638298	4.64	-2.74285714286
831	0.4155	-0.642028985507	2.1170212766	-1.10222222222	1.56428571429
832	0.416	7.89710144928	2.1170212766	3.20444444444	-2.74285714286
833	0.4165	-6.3347826087	0.682978723404	1.76888888889	-4.17857142857
834	0.417	2.20434782609	2.1170212766	-6.84444444444	-2.74285714286
835	0.4175	0.78115942029	3.55106382979	17.56	-1.30714285714
836	0.418	3.62753623188	-0.751063829787	-6.84444444444	-1.30714285714
837	0.4185	3.62753623188	4.98510638298	-2.53777777778	-4.17857142857
838	0.419	3.62753623188	16.4574468085	-1.10222222222	-1.30714285714
839	0.4195	0.78115942029	-0.751063829787	0.333333333333	-1.30714285714
840	0.42	3.62753623188	-0.751063829787	0.333333333333	-2.74285714286
841	0.4205	0.78115942029	0.682978723404	0.333333333333	-4.17857142857
842	0.421	-12.0275362319	-0.751063829787	-2.53777777778	-4.17857142857
843	0.4215	-12.0275362319	0.682978723404	0.333333333333	-5.61428571429
844	0.422	-13.4507246377	2.1170212766	11.8177777778	-2.74285714286
845	0.4225	-12.0275362319	3.55106382979	-2.53777777778	-1.30714285714
846	0.423	-13.4507246377	0.682978723404	14.6888888889	-1.30714285714
847	0.4235	-10.6043478261	-2.18510638298	1.76888888889	-2.74285714286
848	0.424	-10.6043478261	-6.48723404255	1.76888888889	-2.74285714286
849	0.4245	-7.75797101449	0.682978723404	0.333333333333	-2.74285714286
850	0.425	-24.8362318841	2.1170212766	4.64	-4.17857142857
851	0.4255	-12.0275362319	0.682978723404	-1.10222222222	8.74285714286
852	0.426	-10.6043478261	-0.751063829787	4.64	-2.74285714286
853	0.4265	-7.75797101449	0.682978723404	-6.84444444444	-7.05
854	0.427	-7.75797101449	0.682978723404	7.51111111111	-1.30714285714
855	0.4275	-7.75797101449	0.682978723404	13.2533333333	-4.17857142857
856	0.428	-6.3347826087	-2.18510638298	-5.40888888889	-2.74285714286
857	0.4285	-7.75797101449	-7.92127659574	3.20444444444	-7.05
858	0.429	-6.3347826087	0.682978723404	0.333333333333	-1.30714285714
859	0.4295	-13.4507246377	-0.751063829787	1.76888888889	-1.30714285714
860	0.43	12.1666666667	0.682978723404	-1.10222222222	-4.17857142857
861	0.4305	-10.6043478261	0.682978723404	0.333333333333	-5.61428571429
862	0.431	-2.0652173913	2.1170212766	-8.28	-4.17857142857
863	0.4315	-3.4884057971	0.682978723404	3.20444444444	-9.92142857143
864	0.432	-0.642028985507	3.55106382979	-9.71555555556	-2.74285714286
865	0.4325	-3.4884057971	-6.48723404255	0.333333333333	-1.30714285714
866	0.433	-4.9115942029	19.3255319149	1.76888888889	-1.30714285714
867	0.4335	-6.3347826087	-7.92127659574	1.76888888889	-2.74285714286
868	0.434	0.78115942029	-2.18510638298	1.76888888889	-1.30714285714
869	0.4345	-10.6043478261	0.682978723404	3.20444444444	-4.17857142857
870	0.435	-4.9115942029	2.1170212766	3.20444444444	1.56428571429
871	0.4355	-4.9115942029	0.682978723404	6.07555555556	-2.74285714286
872	0.436	-3.4884057971	3.55106382979	-9.71555555556	-7.05
873	0.4365	-6.3347826087	-3.61914893617	-1.10222222222	-4.17857142857
874	0.437	-6.3347826087	-7.92127659574	1.76888888889	-4.17857142857
875	0.4375	-4.9115942029	9.28723404255	3.20444444444	-2.74285714286
876	0.438	-3.4884057971	-0.751063829787	3.20444444444	-2.74285714286
877	0.4385	-12.0275362319	0.682978723404	4.64	-1.30714285714
878	0.439	5.05072463768	-0.751063829787	3.20444444444	-2.74285714286
879	0.4395	-0.642028985507	0.682978723404	4.64	-7.05
880	0.44	-0.642028985507	2.1170212766	-3.97333333333	-9.92142857143
881	0.4405	-3.4884057971	0.682978723404	-1.10222222222	-4.17857142857
882	0.441	-2.0652173913	-2.18510638298	16.1244444444	-2.74285714286
883	0.4415	-0.642028985507	-0.751063829787	-3.97333333333	-1.30714285714
884	0.442	-2.0652173913	0.682978723404	7.51111111111	-2.74285714286
885	0.4425	-4.9115942029	-10.7893617021	4.64	-5.61428571429
886	0.443	-0.642028985507	-0.751063829787	3.20444444444	-2.74285714286
887	0.4435	-16.2971014493	-2.18510638298	3.20444444444	-2.74285714286
888	0.444	15.0130434783	0.682978723404	0.333333333333	0.128571428571
889	0.4445	-0.642028985507	0.682978723404	3.20444444444	-12.7928571429
890	0.445	-4.9115942029	-0.751063829787	-8.28	-2.74285714286
891	0.4455	0.78115942029	2.1170212766	20.4311111111	-2.74285714286
892	0.446	-0.642028985507	-3.61914893617	-6.84444444444	-7.05
893	0.4465	0.78115942029	2.1170212766	17.56	-4.17857142857
894	0.447	3.62753623188	19.3255319149	3.20444444444	-2.74285714286
895	0.4475	2.20434782609	-9.35531914894	0.333333333333	-4.17857142857
896	0.448	6.47391304348	0.682978723404	3.20444444444	-1.30714285714
897	0.4485	-4.9115942029	2.1170212766	3.20444444444	-4.17857142857
898	0.449	3.62753623188	0.682978723404	3.20444444444	1.56428571429
899	0.4495	3.62753623188	0.682978723404	4.64	-12.7928571429
900	0.45	0.78115942029	0.682978723404	-3.97333333333	-4.17857142857
901	0.4505	-3.4884057971	-2.18510638298	3.20444444444	-2.74285714286
902	0.451	-4.9115942029	-10.7893617021	3.20444444444	-1.30714285714
903	0.4515	-4.9115942029	-12.2234042553	-1.10222222222	-1.30714285714
904	0.452	-0.642028985507	-2.18510638298	4.64	-1.30714285714
905	0.4525	-16.2971014493	2.1170212766	4.64	-2.74285714286
906	0.453	3.62753623188	0.682978723404	3.20444444444	-2.74285714286
907	0.4535	0.78115942029	2.1170212766	1.76888888889	-4.17857142857
908	0.454	-7.75797101449	0.682978723404	-1.10222222222	-8.48571428571
909	0.4545	-4.9115942029	0.682978723404	3.20444444444	15.9214285714
910	0.455	-4.9115942029	0.682978723404	6.07555555556	-12.7928571429
911	0.4555	-2.0652173913	2.1170212766	3.20444444444	-4.17857142857
912	0.456	-6.3347826087	-10.7893617021	0.333333333333	-2.74285714286
913	0.4565	-2.0652173913	16.4574468085	3.20444444444	-2.74285714286
914	0.457	-4.9115942029	-2.18510638298	1.76888888889	-1.30714285714
915	0.4575	10.7434782609	0.682978723404	3.20444444444	-1.30714285714
916	0.458	0.78115942029	0.682978723404	3.20444444444	-1.30714285714
917	0.4585	-7.75797101449	0.682978723404	1.76888888889	-7.05
918	0.459	-3.4884057971	-0.751063829787	0.333333333333	13.05
919	0.4595	-2.0652173913	0.682978723404	4.64	-11.3571428571
920	0.46	-2.0652173913	2.1170212766	-12.5866666667	-4.17857142857
921	0.4605	-6.3347826087	-0.751063829787	13.2533333333	-2.74285714286
922	0.461	-4.9115942029	10.7212765957	3.20444444444	-4.17857142857
923	0.4615	-0.642028985507	2.1170212766	4.64	-7.05
924	0.462	-0.642028985507	-5.05319148936	0.333333333333	-1.30714285714
925	0.4625	-6.3347826087	0.682978723404	1.76888888889	-1.30714285714
926	0.463	-4.9115942029	3.55106382979	1.76888888889	-1.30714285714
927	0.4635	-0.642028985507	0.682978723404	1.76888888889	-8.48571428571
928	0.464	-0.642028985507	-0.751063829787	0.333333333333	-1.30714285714
929	0.4645	-2.0652173913	-2.18510638298	17.56	-4.17857142857
930	0.465	0.78115942029	-2.18510638298	-6.84444444444	-2.74285714286
931	0.4655	-3.4884057971	-12.2234042553	1.76888888889	-2.74285714286
932	0.466	-0.642028985507	17.8914893617	3.20444444444	-1.30714285714
933	0.4665	-6.3347826087	-0.751063829787	1.76888888889	-1.30714285714
934	0.467	10.7434782609	2.1170212766	1.76888888889	-1.30714285714
935	0.4675	-10.6043478261	-2.18510638298	1.76888888889	-9.92142857143
936	0.468	-7.75797101449	0.682978723404	1.76888888889	0.128571428571
937	0.4685	-4.9115942029	0.682978723404	4.64	-14.2285714286
938	0.469	-4.9115942029	3.55106382979	-5.40888888889	-4.17857142857
939	0.4695	-3.4884057971	-0.751063829787	-1.10222222222	-1.30714285714
940	0.47	-0.642028985507	-10.7893617021	0.333333333333	-2.74285714286
941	0.4705	2.20434782609	6.41914893617	3.20444444444	-7.05
942	0.471	12.1666666667	-2.18510638298	1.76888888889	-2.74285714286
943	0.4715	-0.642028985507	-2.18510638298	0.333333333333	-2.74285714286
944	0.472	9.32028985507	-0.751063829787	0.333333333333	-2.74285714286
945	0.4725	9.32028985507	-0.751063829787	-1.10222222222	10.1785714286
946	0.473	12.1666666667	0.682978723404	3.20444444444	-12.7928571429
947	0.4735	12.1666666667	0.682978723404	-1.10222222222	14.4857142857
948	0.474	16.4362318841	-0.751063829787	3.20444444444	-2.74285714286
949	0.4745	15.0130434783	-13.6574468085	0.333333333333	-4.17857142857
950	0.475	17.8594202899	10.7212765957	3.20444444444	-2.74285714286
951	0.4755	15.0130434783	3.55106382979	0.333333333333	-4.17857142857
952	0.476	7.89710144928	-5.05319148936	0.333333333333	-5.61428571429
953	0.4765	20.7057971014	-0.751063829787	0.333333333333	-2.74285714286
954	0.477	-9.18115942029	-0.751063829787	1.76888888889	-12.7928571429
955	0.4775	-4.9115942029	-0.751063829787	0.333333333333	-1.30714285714
956	0.478	-2.0652173913	2.1170212766	3.20444444444	-11.3571428571
957	0.4785	-0.642028985507	0.682978723404	0.333333333333	14.4857142857
958	0.479	-4.9115942029	-2.18510638298	-6.84444444444	-2.74285714286
959	0.4795	-4.9115942029	17.8914893617	1.76888888889	-2.74285714286
960	0.48	-9.18115942029	-6.48723404255	4.64	-1.30714285714
961	0.4805	-2.0652173913	0.682978723404	3.20444444444	-1.30714285714
962	0.481	-20.5666666667	0.682978723404	3.20444444444	-2.74285714286
963	0.4815	0.78115942029	0.682978723404	0.333333333333	-2.74285714286
964	0.482	-12.0275362319	-0.751063829787	0.333333333333	7.30714285714
965	0.4825	-9.18115942029	2.1170212766	3.20444444444	-12.7928571429
966	0.483	-7.75797101449	3.55106382979	-8.28	-2.74285714286
967	0.4835	-6.3347826087	-0.751063829787	17.56	-4.17857142857
968	0.484	-4.9115942029	4.98510638298	1.76888888889	-2.74285714286
969	0.4845	-4.9115942029	-7.92127659574	0.333333333333	-5.61428571429
970	0.485	-3.4884057971	-3.61914893617	1.76888888889	-4.17857142857
971	0.4855	-17.7202898551	0.682978723404	0.333333333333	-2.74285714286
972	0.486	10.7434782609	0.682978723404	4.64	-4.17857142857
973	0.4865	-4.9115942029	0.682978723404	1.76888888889	-2.74285714286
974	0.487	-4.9115942029	-0.751063829787	-5.40888888889	-9.92142857143
975	0.4875	-6.3347826087	0.682978723404	3.20444444444	8.74285714286
976	0.488	-3.4884057971	-0.751063829787	0.333333333333	-14.2285714286
977	0.4885	-6.3347826087	0.682978723404	-5.40888888889	-4.17857142857
978	0.489	-7.75797101449	-5.05319148936	3.20444444444	-4.17857142857
979	0.4895	-7.75797101449	16.4574468085	0.333333333333	-2.74285714286
980	0.49	-9.18115942029	-9.35531914894	0.333333333333	-1.30714285714
981	0.4905	-3.4884057971	0.682978723404	3.20444444444	1.56428571429
982	0.491	-13.4507246377	-2.18510638298	3.20444444444	-12.7928571429
983	0.4915	-4.9115942029	0.682978723404	1.76888888889	11.6142857143
984	0.492	-4.9115942029	2.1170212766	3.20444444444	-8.48571428571
985	0.4925	-2.0652173913	-0.751063829787	-8.28	-2.74285714286
986	0.493	-3.4884057971	2.1170212766	0.333333333333	-2.74285714286
987	0.4935	-3.4884057971	-9.35531914894	3.20444444444	-4.17857142857
988	0.494	0.78115942029	17.8914893617	3.20444444444	-2.74285714286
989	0.4945	-3.4884057971	-3.61914893617	1.76888888889	0.128571428571
990	0.495	16.4362318841	-0.751063829787	3.20444444444	1.56428571429
991	0.4955	-12.0275362319	0.682978723404	1.76888888889	-14.2285714286
992	0.496	-4.9115942029	3.55106382979	-1.10222222222	3.0
993	0.4965	-3.4884057971	0.682978723404	4.64	-12.7928571429
994	0.497	-2.0652173913	0.682978723404	-3.97333333333	-2.74285714286
995	0.4975	-2.0652173913	-2.18510638298	-1.10222222222	-2.74285714286
996	0.498	-0.642028985507	-6.48723404255	0.333333333333	-2.74285714286
997	0.4985	-2.0652173913	4.98510638298	3.20444444444	-2.74285714286
998	0.499	-2.0652173913	3.55106382979	4.64	-1.30714285714
999	0.4995	-6.3347826087	-5.05319148936	4.64	-2.74285714286
1000	0.5	5.05072463768	0.682978723404	-1.10222222222	-2.74285714286
1001	0.5005	10.7434782609	0.682978723404	3.20444444444	-2.74285714286
1002	0.501	-2.0652173913	2.1170212766	0.333333333333	-1.30714285714
1003	0.5015	0.78115942029	2.1170212766	18.9955555556	-1.30714285714
1004	0.502	-2.0652173913	3.55106382979	-5.40888888889	-1.30714285714
1005	0.5025	-3.4884057971	2.1170212766	1.76888888889	-1.30714285714
1006	0.503	-2.0652173913	-10.7893617021	3.20444444444	-4.17857142857
1007	0.5035	-3.4884057971	-5.05319148936	4.64	-4.17857142857
1008	0.504	0.78115942029	-0.751063829787	3.20444444444	-2.74285714286
1009	0.5045	-7.75797101449	0.682978723404	0.333333333333	-4.17857142857
1010	0.505	-3.4884057971	0.682978723404	3.20444444444	-1.30714285714
1011	0.5055	0.78115942029	-0.751063829787	0.333333333333	0.128571428571
1012	0.506	-0.642028985507	-0.751063829787	1.76888888889	-12.7928571429
1013	0.5065	0.78115942029	0.682978723404	-8.28	-2.74285714286
1014	0.507	2.20434782609	-0.751063829787	17.56	-1.30714285714
1015	0.5075	0.78115942029	3.55106382979	3.20444444444	-4.17857142857
1016	0.508	0.78115942029	-9.35531914894	-3.97333333333	-4.17857142857
1017	0.5085	3.62753623188	-5.05319148936	0.333333333333	-4.17857142857
1018	0.509	-4.9115942029	3.55106382979	4.64	-2.74285714286
1019	0.5095	0.78115942029	-0.751063829787	1.76888888889	-4.17857142857
1020	0.51	3.62753623188	-0.751063829787	0.333333333333	14.4857142857
1021	0.5105	0.78115942029	0.682978723404	3.20444444444	-14.2285714286
1022	0.511	-0.642028985507	-2.18510638298	3.20444444444	7.30714285714
1023	0.5115	-0.642028985507	-0.751063829787	3.20444444444	-1.30714285714
1024	0.512	-3.4884057971	2.1170212766	1.76888888889	-4.17857142857
1025	0.5125	-4.9115942029	-9.35531914894	-3.97333333333	-4.17857142857
1026	0.513	-3.4884057971	4.98510638298	1.76888888889	-1.30714285714
1027	0.5135	-9.18115942029	0.682978723404	0.333333333333	-1.30714285714
1028	0.514	-12.0275362319	0.682978723404	1.76888888889	-4.17857142857
1029	0.5145	19.2826086957	0.682978723404	-1.10222222222	-1.30714285714
1030	0.515	-12.0275362319	-0.751063829787	-1.10222222222	-1.30714285714
1031	0.5155	-3.4884057971	0.682978723404	-5.40888888889	-7.05
1032	0.516	-4.9115942029	0.682978723404	0.333333333333	7.30714285714
1033	0.5165	-4.9115942029	0.682978723404	14.6888888889	-2.74285714286
1034	0.517	-0.642028985507	4.98510638298	-5.40888888889	-2.74285714286
1035	0.5175	-2.0652173913	-10.7893617021	1.76888888889	0.128571428571
1036	0.518	0.78115942029	-2.18510638298	1.76888888889	-2.74285714286
1037	0.5185	-13.4507246377	2.1170212766	1.76888888889	-4.17857142857
1038	0.519	10.7434782609	0.682978723404	3.20444444444	-1.30714285714
1039	0.5195	2.20434782609	0.682978723404	1.76888888889	0.128571428571
1040	0.52	-6.3347826087	0.682978723404	0.333333333333	-2.74285714286
1041	0.5205	-0.642028985507	0.682978723404	3.20444444444	4.43571428571
1042	0.521	0.78115942029	0.682978723404	-1.10222222222	-8.48571428571
1043	0.5215	3.62753623188	0.682978723404	-1.10222222222	-1.30714285714
1044	0.522	2.20434782609	4.98510638298	3.20444444444	-2.74285714286
1045	0.5225	0.78115942029	7.85319148936	1.76888888889	-5.61428571429
1046	0.523	3.62753623188	-5.05319148936	0.333333333333	-2.74285714286
1047	0.5235	0.78115942029	0.682978723404	-1.10222222222	-2.74285714286
1048	0.524	-7.75797101449	0.682978723404	0.333333333333	-5.61428571429
1049	0.5245	0.78115942029	-0.751063829787	0.333333333333	11.6142857143
1050	0.525	0.78115942029	-0.751063829787	0.333333333333	-11.3571428571
1051	0.5255	-9.18115942029	2.1170212766	-6.84444444444	-2.74285714286
1052	0.526	-4.9115942029	-2.18510638298	16.1244444444	-4.17857142857
1053	0.5265	-3.4884057971	-10.7893617021	-3.97333333333	-2.74285714286
1054	0.527	-2.0652173913	22.1936170213	-1.10222222222	-2.74285714286
1055	0.5275	0.78115942029	0.682978723404	1.76888888889	-4.17857142857
1056	0.528	16.4362318841	0.682978723404	1.76888888889	0.128571428571
1057	0.5285	-12.0275362319	0.682978723404	-1.10222222222	-2.74285714286
1058	0.529	-3.4884057971	0.682978723404	-1.10222222222	13.05
1059	0.5295	-3.4884057971	-2.18510638298	16.1244444444	-4.17857142857
1060	0.53	-2.0652173913	-3.61914893617	-3.97333333333	-2.74285714286
1061	0.5305	-0.642028985507	7.85319148936	-2.53777777778	-2.74285714286
1062	0.531	-4.9115942029	-7.92127659574	-1.10222222222	-2.74285714286
1063	0.5315	-4.9115942029	2.1170212766	-1.10222222222	-2.74285714286
1064	0.532	-0.642028985507	-3.61914893617	-1.10222222222	-1.30714285714
1065	0.5325	-10.6043478261	2.1170212766	-2.53777777778	-2.74285714286
1066	0.533	-3.4884057971	2.1170212766	0.333333333333	-2.74285714286
1067	0.5335	-4.9115942029	2.1170212766	0.333333333333	-2.74285714286
1068	0.534	-2.0652173913	2.1170212766	-2.53777777778	-9.92142857143
1069	0.5345	-3.4884057971	0.682978723404	0.333333333333	14.4857142857
1070	0.535	-2.0652173913	0.682978723404	-1.10222222222	-2.74285714286
1071	0.5355	-0.642028985507	-0.751063829787	-8.28	-1.30714285714
1072	0.536	0.78115942029	-0.751063829787	-1.10222222222	-2.74285714286
1073	0.5365	-6.3347826087	0.682978723404	-2.53777777778	-1.30714285714
1074	0.537	-0.642028985507	0.682978723404	-1.10222222222	-1.30714285714
1075	0.5375	13.5898550725	0.682978723404	0.333333333333	0.128571428571
1076	0.538	-9.18115942029	-0.751063829787	-1.10222222222	-12.7928571429
1077	0.5385	3.62753623188	3.55106382979	-1.10222222222	14.4857142857
1078	0.539	5.05072463768	-2.18510638298	16.1244444444	-2.74285714286
1079	0.5395	0.78115942029	4.98510638298	-11.1511111111	-1.30714285714
1080	0.54	0.78115942029	-2.18510638298	16.1244444444	-5.61428571429
1081	0.5405	0.78115942029	22.1936170213	-1.10222222222	-4.17857142857
1082	0.541	-2.0652173913	2.1170212766	1.76888888889	-2.74285714286
1083	0.5415	3.62753623188	3.55106382979	-1.10222222222	-1.30714285714
1084	0.542	-6.3347826087	0.682978723404	1.76888888889	-12.7928571429
1085	0.5425	-4.9115942029	0.682978723404	-1.10222222222	7.30714285714
1086	0.543	-4.9115942029	-0.751063829787	3.20444444444	-1.30714285714
1087	0.5435	-4.9115942029	-0.751063829787	-5.40888888889	-7.05
1088	0.544	-4.9115942029	-0.751063829787	-1.10222222222	-7.05
1089	0.5445	-6.3347826087	-7.92127659574	1.76888888889	-1.30714285714
1090	0.545	-7.75797101449	13.5893617021	1.76888888889	-1.30714285714
1091	0.5455	-6.3347826087	4.98510638298	0.333333333333	-2.74285714286
1092	0.546	-2.0652173913	-3.61914893617	-1.10222222222	-2.74285714286
1093	0.5465	0.78115942029	0.682978723404	3.20444444444	-8.48571428571
1094	0.547	-3.4884057971	2.1170212766	1.76888888889	1.56428571429
1095	0.5475	-2.0652173913	0.682978723404	6.07555555556	-5.61428571429
1096	0.548	-0.642028985507	0.682978723404	-2.53777777778	-11.3571428571
1097	0.5485	-3.4884057971	-0.751063829787	16.1244444444	-1.30714285714
1098	0.549	-6.3347826087	3.55106382979	4.64	0.128571428571
1099	0.5495	-7.75797101449	13.5893617021	3.20444444444	-5.61428571429
1100	0.55	-2.0652173913	-0.751063829787	4.64	-4.17857142857
1101	0.5505	0.78115942029	2.1170212766	3.20444444444	-1.30714285714
1102	0.551	-4.9115942029	0.682978723404	4.64	-11.3571428571
1103	0.5515	-0.642028985507	3.55106382979	-1.10222222222	7.30714285714
1104	0.552	0.78115942029	2.1170212766	4.64	-11.3571428571
1105	0.5525	0.78115942029	0.682978723404	1.76888888889	3.0
1106	0.553	-2.0652173913	-5.05319148936	0.333333333333	-4.17857142857
1107	0.5535	-2.0652173913	6.41914893617	4.64	-4.17857142857
1108	0.554	-0.642028985507	-9.35531914894	0.333333333333	-4.17857142857
1109	0.5545	-0.642028985507	17.8914893617	0.333333333333	-4.17857142857
1110	0.555	-17.7202898551	-0.751063829787	3.20444444444	-4.17857142857
1111	0.5555	15.0130434783	0.682978723404	1.76888888889	-2.74285714286
1112	0.556	-7.75797101449	2.1170212766	6.07555555556	-12.7928571429
1113	0.5565	-6.3347826087	0.682978723404	1.76888888889	7.30714285714
1114	0.557	-7.75797101449	-0.751063829787	3.20444444444	-7.05
1115	0.5575	-6.3347826087	-3.61914893617	-1.10222222222	-1.30714285714
1116	0.558	-6.3347826087	0.682978723404	3.20444444444	-4.17857142857
1117	0.5585	-6.3347826087	-9.35531914894	-1.10222222222	-2.74285714286
1118	0.559	-0.642028985507	15.0234042553	3.20444444444	-4.17857142857
1119	0.5595	-17.7202898551	0.682978723404	1.76888888889	-7.05
1120	0.56	16.4362318841	0.682978723404	0.333333333333	-2.74285714286
1121	0.5605	-6.3347826087	0.682978723404	1.76888888889	-2.74285714286
1122	0.561	-2.0652173913	-0.751063829787	1.76888888889	-1.30714285714
1123	0.5615	-2.0652173913	0.682978723404	17.56	-1.30714285714
1124	0.562	0.78115942029	3.55106382979	-11.1511111111	-2.74285714286
1125	0.5625	0.78115942029	-2.18510638298	16.1244444444	-4.17857142857
1126	0.563	0.78115942029	20.7595744681	1.76888888889	-2.74285714286
1127	0.5635	-3.4884057971	-6.48723404255	1.76888888889	-2.74285714286
1128	0.564	-2.0652173913	0.682978723404	4.64	-2.74285714286
1129	0.5645	-14.8739130435	0.682978723404	-1.10222222222	-1.30714285714
1130	0.565	-3.4884057971	0.682978723404	3.20444444444	13.05
1131	0.5655	-4.9115942029	2.1170212766	3.20444444444	-11.3571428571
1132	0.566	-0.642028985507	3.55106382979	-6.84444444444	-1.30714285714
1133	0.5665	-3.4884057971	0.682978723404	21.8666666667	-1.30714285714
1134	0.567	-4.9115942029	-0.751063829787	-6.84444444444	-8.48571428571
1135	0.5675	-2.0652173913	-3.61914893617	1.76888888889	-1.30714285714
1136	0.568	-4.9115942029	17.8914893617	4.64	-4.17857142857
1137	0.5685	-7.75797101449	2.1170212766	3.20444444444	-1.30714285714
1138	0.569	3.62753623188	2.1170212766	1.76888888889	-1.30714285714
1139	0.5695	-6.3347826087	2.1170212766	3.20444444444	-2.74285714286
1140	0.57	-0.642028985507	-2.18510638298	3.20444444444	-9.92142857143
1141	0.5705	0.78115942029	3.55106382979	0.333333333333	-2.74285714286
1142	0.571	-0.642028985507	0.682978723404	-1.10222222222	-2.74285714286
1143	0.5715	0.78115942029	2.1170212766	1.76888888889	-1.30714285714
1144	0.572	-3.4884057971	-10.7893617021	1.76888888889	-2.74285714286
1145	0.5725	2.20434782609	-2.18510638298	4.64	-1.30714285714
1146	0.573	3.62753623188	-7.92127659574	3.20444444444	-5.61428571429
1147	0.5735	-13.4507246377	-0.751063829787	6.07555555556	1.56428571429
1148	0.574	19.2826086957	0.682978723404	0.333333333333	-2.74285714286
1149	0.5745	0.78115942029	-0.751063829787	4.64	-11.3571428571
1150	0.575	0.78115942029	0.682978723404	3.20444444444	-4.17857142857
1151	0.5755	-0.642028985507	0.682978723404	20.4311111111	-1.30714285714
1152	0.576	-0.642028985507	0.682978723404	4.64	-1.30714285714
1153	0.5765	-2.0652173913	13.5893617021	1.76888888889	-2.74285714286
1154	0.577	-3.4884057971	-7.92127659574	1.76888888889	-1.30714285714
1155	0.5775	-2.0652173913	-2.18510638298	3.20444444444	-1.30714285714
1156	0.578	-16.2971014493	0.682978723404	4.64	-1.30714285714
1157	0.5785	-3.4884057971	0.682978723404	1.76888888889	11.6142857143
1158	0.579	-2.0652173913	0.682978723404	7.51111111111	-11.3571428571
1159	0.5795	-2.0652173913	-0.751063829787	1.76888888889	8.74285714286
1160	0.58	-3.4884057971	-0.751063829787	1.76888888889	-4.17857142857
1161	0.5805	-3.4884057971	3.55106382979	0.333333333333	-2.74285714286
1162	0.581	-2.0652173913	-6.48723404255	1.76888888889	-2.74285714286
1163	0.5815	-0.642028985507	16.4574468085	1.76888888889	-1.30714285714
1164	0.582	-12.0275362319	2.1170212766	4.64	-4.17857142857
1165	0.5825	12.1666666667	2.1170212766	1.76888888889	-1.30714285714
1166	0.583	0.78115942029	0.682978723404	4.64	-2.74285714286
1167	0.5835	0.78115942029	0.682978723404	-2.53777777778	-9.92142857143
1168	0.584	0.78115942029	3.55106382979	1.76888888889	-4.17857142857
1169	0.5845	2.20434782609	3.55106382979	20.4311111111	-2.74285714286
1170	0.585	2.20434782609	0.682978723404	-5.40888888889	-2.74285714286
1171	0.5855	-2.0652173913	6.41914893617	3.20444444444	-4.17857142857
1172	0.586	0.78115942029	-6.48723404255	4.64	-2.74285714286
1173	0.5865	-3.4884057971	0.682978723404	1.76888888889	-2.74285714286
1174	0.587	2.20434782609	-2.18510638298	7.51111111111	0.128571428571
1175	0.5875	-12.0275362319	-0.751063829787	3.20444444444	-4.17857142857
1176	0.588	-3.4884057971	3.55106382979	0.333333333333	13.05
1177	0.5885	-4.9115942029	0.682978723404	6.07555555556	-9.92142857143
1178	0.589	-4.9115942029	0.682978723404	-8.28	-2.74285714286
1179	0.5895	-4.9115942029	-2.18510638298	6.07555555556	14.4857142857
1180	0.59	-3.4884057971	4.98510638298	1.76888888889	-2.74285714286
1181	0.5905	-4.9115942029	19.3255319149	3.20444444444	-2.74285714286
1182	0.591	-3.4884057971	-10.7893617021	3.20444444444	-2.74285714286
1183	0.5915	-0.642028985507	2.1170212766	4.64	-2.74285714286
1184	0.592	17.8594202899	0.682978723404	4.64	-1.30714285714
1185	0.5925	-9.18115942029	2.1170212766	6.07555555556	-12.7928571429
1186	0.593	0.78115942029	0.682978723404	4.64	11.6142857143
1187	0.5935	-0.642028985507	2.1170212766	18.9955555556	-2.74285714286
1188	0.594	0.78115942029	2.1170212766	-3.97333333333	-2.74285714286
1189	0.5945	0.78115942029	0.682978723404	17.56	-2.74285714286
1190	0.595	0.78115942029	0.682978723404	3.20444444444	-2.74285714286
1191	0.5955	3.62753623188	0.682978723404	1.76888888889	-1.30714285714
1192	0.596	-10.6043478261	3.55106382979	3.20444444444	0.128571428571
1193	0.5965	15.0130434783	2.1170212766	3.20444444444	-1.30714285714
1194	0.597	0.78115942029	2.1170212766	0.333333333333	0.128571428571
1195	0.5975	2.20434782609	3.55106382979	-5.40888888889	-7.05
1196	0.598	3.62753623188	2.1170212766	4.64	3.0
1197	0.5985	-0.642028985507	2.1170212766	-5.40888888889	-5.61428571429
1198	0.599	-0.642028985507	-6.48723404255	1.76888888889	-1.30714285714
1199	0.5995	-0.642028985507	9.28723404255	0.333333333333	-2.74285714286
1200	0.6	-2.0652173913	7.85319148936	0.333333333333	-2.74285714286
1201	0.6005	3.62753623188	-3.61914893617	0.333333333333	-1.30714285714
1202	0.601	9.32028985507	3.55106382979	0.333333333333	-4.17857142857
1203	0.6015	-3.4884057971	0.682978723404	1.76888888889	-7.05
1204	0.602	-0.642028985507	2.1170212766	-1.10222222222	-9.92142857143
1205	0.6025	0.78115942029	0.682978723404	1.76888888889	3.0
1206	0.603	-0.642028985507	2.1170212766	-3.97333333333	-1.30714285714
1207	0.6035	-2.0652173913	0.682978723404	1.76888888889	-2.74285714286
1208	0.604	-2.0652173913	-7.92127659574	1.76888888889	-2.74285714286
1209	0.6045	0.78115942029	17.8914893617	1.76888888889	-2.74285714286
1210	0.605	-3.4884057971	0.682978723404	1.76888888889	-1.30714285714
1211	0.6055	-9.18115942029	0.682978723404	1.76888888889	-7.05
1212	0.606	16.4362318841	-0.751063829787	0.333333333333	-1.30714285714
1213	0.6065	-13.4507246377	-2.18510638298	1.76888888889	17.3571428571
1214	0.607	-7.75797101449	0.682978723404	-9.71555555556	-2.74285714286
1215	0.6075	-3.4884057971	0.682978723404	6.07555555556	-4.17857142857
1216	0.608	-3.4884057971	-2.18510638298	-5.40888888889	-1.30714285714
1217	0.6085	-2.0652173913	4.98510638298	16.1244444444	-2.74285714286
1218	0.609	0.78115942029	-7.92127659574	1.76888888889	-2.74285714286
1219	0.6095	-4.9115942029	3.55106382979	1.76888888889	-1.30714285714
1220	0.61	-0.642028985507	3.55106382979	-1.10222222222	-4.17857142857
1221	0.6105	-14.8739130435	0.682978723404	-1.10222222222	-1.30714285714
1222	0.611	-0.642028985507	3.55106382979	-2.53777777778	14.4857142857
1223	0.6115	-3.4884057971	2.1170212766	-1.10222222222	-8.48571428571
1224	0.612	-4.9115942029	0.682978723404	-5.40888888889	-1.30714285714
1225	0.6125	-4.9115942029	-0.751063829787	-2.53777777778	-8.48571428571
1226	0.613	-7.75797101449	-6.48723404255	0.333333333333	-2.74285714286
1227	0.6135	-6.3347826087	16.4574468085	1.76888888889	-1.30714285714
1228	0.614	-7.75797101449	0.682978723404	1.76888888889	0.128571428571
1229	0.6145	-3.4884057971	0.682978723404	3.20444444444	-1.30714285714
1230	0.615	-6.3347826087	0.682978723404	0.333333333333	-9.92142857143
1231	0.6155	-6.3347826087	0.682978723404	3.20444444444	-1.30714285714
1232	0.616	-2.0652173913	2.1170212766	4.64	-7.05
1233	0.6165	-3.4884057971	3.55106382979	7.51111111111	-1.30714285714
1234	0.617	-2.0652173913	2.1170212766	6.07555555556	-1.30714285714
1235	0.6175	0.78115942029	3.55106382979	17.56	-2.74285714286
1236	0.618	-3.4884057971	0.682978723404	-2.53777777778	-2.74285714286
1237	0.6185	0.78115942029	-5.05319148936	0.333333333333	-1.30714285714
1238	0.619	-4.9115942029	2.1170212766	3.20444444444	-1.30714285714
1239	0.6195	-3.4884057971	0.682978723404	0.333333333333	-4.17857142857
1240	0.62	-2.0652173913	0.682978723404	0.333333333333	11.6142857143
1241	0.6205	-2.0652173913	0.682978723404	0.333333333333	-5.61428571429
1242	0.621	-3.4884057971	0.682978723404	4.64	-1.30714285714
1243	0.6215	-6.3347826087	-0.751063829787	4.64	-2.74285714286
1244	0.622	-4.9115942029	2.1170212766	-3.97333333333	-2.74285714286
1245	0.6225	-2.0652173913	13.5893617021	3.20444444444	-4.17857142857
1246	0.623	-3.4884057971	0.682978723404	1.76888888889	-2.74285714286
1247	0.6235	0.78115942029	-2.18510638298	1.76888888889	0.128571428571
1248	0.624	5.05072463768	0.682978723404	3.20444444444	-1.30714285714
1249	0.6245	-4.9115942029	2.1170212766	3.20444444444	-2.74285714286
1250	0.625	2.20434782609	0.682978723404	0.333333333333	-2.74285714286
1251	0.6255	0.78115942029	3.55106382979	7.51111111111	-5.61428571429
1252	0.626	0.78115942029	0.682978723404	-1.10222222222	-1.30714285714
1253	0.6265	3.62753623188	0.682978723404	11.8177777778	-4.17857142857
1254	0.627	0.78115942029	-2.18510638298	1.76888888889	-2.74285714286
1255	0.6275	0.78115942029	-6.48723404255	0.333333333333	0.128571428571
1256	0.628	5.05072463768	0.682978723404	0.333333333333	-2.74285714286
1257	0.6285	-12.0275362319	-0.751063829787	0.333333333333	-1.30714285714
1258	0.629	0.78115942029	0.682978723404	-2.53777777778	8.74285714286
1259	0.6295	-2.0652173913	2.1170212766	3.20444444444	-8.48571428571
1260	0.63	-3.4884057971	2.1170212766	0.333333333333	3.0
1261	0.6305	-3.4884057971	0.682978723404	0.333333333333	3.0
1262	0.631	0.78115942029	2.1170212766	-1.10222222222	-1.30714285714
1263	0.6315	2.20434782609	-6.48723404255	-3.97333333333	-1.30714285714
1264	0.632	2.20434782609	-6.48723404255	1.76888888889	-1.30714285714
1265	0.6325	0.78115942029	2.1170212766	3.20444444444	0.128571428571
1266	0.633	-7.75797101449	0.682978723404	0.333333333333	-1.30714285714
1267	0.6335	20.7057971014	2.1170212766	1.76888888889	-1.30714285714
1268	0.634	-9.18115942029	2.1170212766	1.76888888889	-4.17857142857
1269	0.6345	-2.0652173913	0.682978723404	-8.28	-2.74285714286
1270	0.635	-2.0652173913	2.1170212766	17.56	0.128571428571
1271	0.6355	0.78115942029	-0.751063829787	-8.28	-1.30714285714
1272	0.636	0.78115942029	-7.92127659574	0.333333333333	0.128571428571
1273	0.6365	2.20434782609	20.7595744681	-2.53777777778	-1.30714285714
1274	0.637	-3.4884057971	2.1170212766	-1.10222222222	-1.30714285714
1275	0.6375	0.78115942029	0.682978723404	-1.10222222222	0.128571428571
1276	0.638	-13.4507246377	-0.751063829787	1.76888888889	-15.6642857143
1277	0.6385	-2.0652173913	0.682978723404	-5.40888888889	0.128571428571
1278	0.639	-0.642028985507	-0.751063829787	0.333333333333	-12.7928571429
1279	0.6395	-0.642028985507	0.682978723404	-8.28	-2.74285714286
1280	0.64	-2.0652173913	4.98510638298	-2.53777777778	-1.30714285714
1281	0.6405	-3.4884057971	-12.2234042553	0.333333333333	-2.74285714286
1282	0.641	-4.9115942029	16.4574468085	-1.10222222222	-1.30714285714
1283	0.6415	-0.642028985507	-2.18510638298	-1.10222222222	-1.30714285714
1284	0.642	-13.4507246377	2.1170212766	-2.53777777778	-4.17857142857
1285	0.6425	-4.9115942029	2.1170212766	-5.40888888889	-2.74285714286
1286	0.643	-6.3347826087	2.1170212766	-3.97333333333	14.4857142857
1287	0.6435	-7.75797101449	3.55106382979	-1.10222222222	-9.92142857143
1288	0.644	-6.3347826087	2.1170212766	-9.71555555556	-5.61428571429
1289	0.6445	-7.75797101449	0.682978723404	-1.10222222222	15.9214285714
1290	0.645	-4.9115942029	3.55106382979	-11.1511111111	-1.30714285714
1291	0.6455	0.78115942029	-6.48723404255	-3.97333333333	-2.74285714286
1292	0.646	0.78115942029	20.7595744681	-3.97333333333	-4.17857142857
1293	0.6465	-12.0275362319	6.41914893617	-5.40888888889	-7.05
1294	0.647	16.4362318841	3.55106382979	-2.53777777778	-1.30714285714
1295	0.6475	-7.75797101449	3.55106382979	-3.97333333333	-7.05
1296	0.648	0.78115942029	3.55106382979	-2.53777777778	13.05
1297	0.6485	-3.4884057971	3.55106382979	14.6888888889	-2.74285714286
1298	0.649	-3.4884057971	0.682978723404	-6.84444444444	-5.61428571429
1299	0.6495	0.78115942029	4.98510638298	0.333333333333	-8.48571428571
1300	0.65	-4.9115942029	-7.92127659574	1.76888888889	-5.61428571429
1301	0.6505	0.78115942029	22.1936170213	0.333333333333	-8.48571428571
1302	0.651	-3.4884057971	6.41914893617	1.76888888889	-7.05
1303	0.6515	16.4362318841	4.98510638298	4.64	-5.61428571429
1304	0.652	-10.6043478261	4.98510638298	4.64	-21.4071428571
1305	0.6525	-3.4884057971	6.41914893617	0.333333333333	0.128571428571
1306	0.653	-2.0652173913	3.55106382979	13.2533333333	-9.92142857143
1307	0.6535	-3.4884057971	3.55106382979	0.333333333333	-12.7928571429
1308	0.654	-4.9115942029	3.55106382979	-1.10222222222	-12.7928571429
1309	0.6545	-4.9115942029	-2.18510638298	4.64	-15.6642857143
1310	0.655	-7.75797101449	13.5893617021	6.07555555556	-17.1
1311	0.6555	-4.9115942029	4.98510638298	6.07555555556	-11.3571428571
1312	0.656	-4.9115942029	4.98510638298	7.51111111111	-17.1
1313	0.6565	-14.8739130435	4.98510638298	7.51111111111	-30.0214285714
1314	0.657	-7.75797101449	3.55106382979	6.07555555556	-2.74285714286
1315	0.6575	-2.0652173913	3.55106382979	14.6888888889	-24.2785714286
1316	0.658	-6.3347826087	3.55106382979	-3.97333333333	-21.4071428571
1317	0.6585	-9.18115942029	0.682978723404	20.4311111111	-21.4071428571
1318	0.659	-12.0275362319	7.85319148936	11.8177777778	-18.5357142857
1319	0.6595	-14.8739130435	-6.48723404255	8.94666666667	-19.9714285714
1320	0.66	-7.75797101449	0.682978723404	13.2533333333	-18.5357142857
1321	0.6605	-20.5666666667	3.55106382979	13.2533333333	-22.8428571429
1322	0.661	12.1666666667	3.55106382979	14.6888888889	-21.4071428571
1323	0.6615	-17.7202898551	3.55106382979	17.56	-32.8928571429
1324	0.662	-12.0275362319	3.55106382979	7.51111111111	-24.2785714286
1325	0.6625	-16.2971014493	0.682978723404	17.56	-34.3285714286
1326	0.663	-17.7202898551	3.55106382979	16.1244444444	-25.7142857143
1327	0.6635	-12.0275362319	6.41914893617	17.56	-27.15
1328	0.664	-14.8739130435	6.41914893617	17.56	-25.7142857143
1329	0.6645	-13.4507246377	-3.61914893617	16.1244444444	-24.2785714286
1330	0.665	-21.9898550725	3.55106382979	16.1244444444	-24.2785714286
1331	0.6655	-23.4130434783	3.55106382979	16.1244444444	-24.2785714286
1332	0.666	-17.7202898551	4.98510638298	16.1244444444	-18.5357142857
1333	0.6665	-20.5666666667	0.682978723404	17.56	-30.0214285714
1334	0.667	-27.6826086957	3.55106382979	7.51111111111	-19.9714285714
1335	0.6675	-27.6826086957	0.682978723404	31.9155555556	-17.1
1336	0.668	-26.2594202899	2.1170212766	11.8177777778	-14.2285714286
1337	0.6685	-27.6826086957	-10.7893617021	17.56	-14.2285714286
1338	0.669	-19.1434782609	0.682978723404	18.9955555556	-14.2285714286
1339	0.6695	-36.2217391304	3.55106382979	18.9955555556	-15.6642857143
1340	0.67	-6.3347826087	0.682978723404	20.4311111111	-11.3571428571
1341	0.6705	-19.1434782609	-0.751063829787	21.8666666667	-11.3571428571
1342	0.671	-17.7202898551	0.682978723404	11.8177777778	-18.5357142857
1343	0.6715	-17.7202898551	-0.751063829787	21.8666666667	-7.05
1344	0.672	-21.9898550725	-0.751063829787	11.8177777778	-18.5357142857
1345	0.6725	-16.2971014493	-7.92127659574	18.9955555556	-12.7928571429
1346	0.673	-16.2971014493	7.85319148936	20.4311111111	-14.2285714286
1347	0.6735	-16.2971014493	-6.48723404255	21.8666666667	-11.3571428571
1348	0.674	-10.6043478261	-2.18510638298	21.8666666667	-12.7928571429
1349	0.6745	-14.8739130435	-3.61914893617	23.3022222222	-18.5357142857
1350	0.675	-19.1434782609	-5.05319148936	18.9955555556	-9.92142857143
1351	0.6755	-14.8739130435	-3.61914893617	24.7377777778	-2.74285714286
1352	0.676	-16.2971014493	-0.751063829787	16.1244444444	-15.6642857143
1353	0.6765	-16.2971014493	-5.05319148936	16.1244444444	-8.48571428571
1354	0.677	-16.2971014493	-9.35531914894	21.8666666667	-14.2285714286
1355	0.6775	-12.0275362319	-0.751063829787	26.1733333333	-12.7928571429
1356	0.678	-7.75797101449	-3.61914893617	24.7377777778	-12.7928571429
1357	0.6785	-16.2971014493	-6.48723404255	26.1733333333	-12.7928571429
1358	0.679	-9.18115942029	-6.48723404255	24.7377777778	-12.7928571429
1359	0.6795	-16.2971014493	-3.61914893617	24.7377777778	-1.30714285714
1360	0.68	-14.8739130435	-3.61914893617	18.9955555556	-14.2285714286
1361	0.6805	-10.6043478261	-2.18510638298	23.3022222222	-8.48571428571
1362	0.681	-7.75797101449	-2.18510638298	24.7377777778	-8.48571428571
1363	0.6815	-7.75797101449	-12.2234042553	18.9955555556	-8.48571428571
1364	0.682	-3.4884057971	0.682978723404	23.3022222222	-7.05
1365	0.6825	-4.9115942029	3.55106382979	23.3022222222	-7.05
1366	0.683	-2.0652173913	-2.18510638298	20.4311111111	-7.05
1367	0.6835	0.78115942029	-3.61914893617	23.3022222222	-4.17857142857
1368	0.684	-10.6043478261	-2.18510638298	18.9955555556	-8.48571428571
1369	0.6845	0.78115942029	-2.18510638298	20.4311111111	-5.61428571429
1370	0.685	-2.0652173913	-0.751063829787	27.6088888889	-2.74285714286
1371	0.6855	0.78115942029	0.682978723404	7.51111111111	-4.17857142857
1372	0.686	-0.642028985507	-3.61914893617	16.1244444444	-2.74285714286
1373	0.6865	0.78115942029	13.5893617021	14.6888888889	-4.17857142857
1374	0.687	0.78115942029	0.682978723404	14.6888888889	-4.17857142857
1375	0.6875	0.78115942029	0.682978723404	11.8177777778	-4.17857142857
1376	0.688	-3.4884057971	0.682978723404	11.8177777778	-4.17857142857
1377	0.6885	3.62753623188	0.682978723404	11.8177777778	4.43571428571
1378	0.689	3.62753623188	-0.751063829787	8.94666666667	-7.05
1379	0.6895	10.7434782609	0.682978723404	14.6888888889	-2.74285714286
1380	0.69	7.89710144928	0.682978723404	20.4311111111	-2.74285714286
1381	0.6905	7.89710144928	-6.48723404255	11.8177777778	-1.30714285714
1382	0.691	5.05072463768	6.41914893617	8.94666666667	-2.74285714286
1383	0.6915	0.78115942029	-6.48723404255	7.51111111111	0.128571428571
1384	0.692	0.78115942029	-0.751063829787	11.8177777778	0.128571428571
1385	0.6925	2.20434782609	0.682978723404	11.8177777778	3.0
1386	0.693	-0.642028985507	2.1170212766	11.8177777778	1.56428571429
1387	0.6935	0.78115942029	2.1170212766	1.76888888889	-7.05
1388	0.694	-0.642028985507	2.1170212766	16.1244444444	-1.30714285714
1389	0.6945	3.62753623188	-0.751063829787	6.07555555556	-2.74285714286
1390	0.695	10.7434782609	-5.05319148936	3.20444444444	-1.30714285714
1391	0.6955	12.1666666667	3.55106382979	4.64	-1.30714285714
1392	0.696	12.1666666667	3.55106382979	3.20444444444	-1.30714285714
1393	0.6965	24.9753623188	0.682978723404	4.64	1.56428571429
1394	0.697	10.7434782609	3.55106382979	4.64	-2.74285714286
1395	0.6975	5.05072463768	0.682978723404	3.20444444444	1.56428571429
1396	0.698	12.1666666667	0.682978723404	16.1244444444	0.128571428571
1397	0.6985	7.89710144928	-0.751063829787	1.76888888889	0.128571428571
1398	0.699	7.89710144928	-0.751063829787	16.1244444444	0.128571428571
1399	0.6995	7.89710144928	4.98510638298	7.51111111111	-1.30714285714
1400	0.7	5.05072463768	4.98510638298	3.20444444444	0.128571428571
1401	0.7005	10.7434782609	-0.751063829787	3.20444444444	0.128571428571
1402	0.701	-6.3347826087	2.1170212766	1.76888888889	1.56428571429
1403	0.7015	-0.642028985507	2.1170212766	0.333333333333	7.30714285714
1404	0.702	0.78115942029	3.55106382979	1.76888888889	-4.17857142857
1405	0.7025	2.20434782609	2.1170212766	-6.84444444444	-2.74285714286
1406	0.703	-4.9115942029	3.55106382979	7.51111111111	0.128571428571
1407	0.7035	-4.9115942029	2.1170212766	-1.10222222222	1.56428571429
1408	0.704	-4.9115942029	13.5893617021	-1.10222222222	0.128571428571
1409	0.7045	-7.75797101449	4.98510638298	0.333333333333	0.128571428571
1410	0.705	-7.75797101449	0.682978723404	1.76888888889	3.0
1411	0.7055	0.78115942029	2.1170212766	3.20444444444	1.56428571429
1412	0.706	-2.0652173913	3.55106382979	0.333333333333	1.56428571429
1413	0.7065	-9.18115942029	0.682978723404	3.20444444444	7.30714285714
1414	0.707	-6.3347826087	2.1170212766	3.20444444444	5.87142857143
1415	0.7075	-6.3347826087	3.55106382979	-3.97333333333	-4.17857142857
1416	0.708	-3.4884057971	3.55106382979	4.64	1.56428571429
1417	0.7085	-0.642028985507	9.28723404255	0.333333333333	1.56428571429
1418	0.709	-3.4884057971	-2.18510638298	-1.10222222222	3.0
1419	0.7095	2.20434782609	4.98510638298	0.333333333333	1.56428571429
1420	0.71	-6.3347826087	2.1170212766	-1.10222222222	0.128571428571
1421	0.7105	-2.0652173913	2.1170212766	-2.53777777778	3.0
1422	0.711	0.78115942029	3.55106382979	-1.10222222222	7.30714285714
1423	0.7115	2.20434782609	3.55106382979	-9.71555555556	-4.17857142857
1424	0.712	2.20434782609	2.1170212766	-8.28	3.0
1425	0.7125	0.78115942029	-2.18510638298	0.333333333333	3.0
1426	0.713	0.78115942029	-2.18510638298	-8.28	4.43571428571
1427	0.7135	3.62753623188	2.1170212766	-2.53777777778	3.0
1428	0.714	-3.4884057971	2.1170212766	0.333333333333	0.128571428571
1429	0.7145	2.20434782609	4.98510638298	-2.53777777778	0.128571428571
1430	0.715	12.1666666667	2.1170212766	-3.97333333333	4.43571428571
1431	0.7155	-2.0652173913	0.682978723404	-6.84444444444	-4.17857142857
1432	0.716	-2.0652173913	0.682978723404	-5.40888888889	3.0
1433	0.7165	2.20434782609	4.98510638298	11.8177777778	3.0
1434	0.717	3.62753623188	2.1170212766	-11.1511111111	0.128571428571
1435	0.7175	0.78115942029	0.682978723404	-1.10222222222	1.56428571429
1436	0.718	3.62753623188	-0.751063829787	-1.10222222222	0.128571428571
1437	0.7185	-0.642028985507	0.682978723404	-1.10222222222	3.0
1438	0.719	-3.4884057971	0.682978723404	-1.10222222222	1.56428571429
1439	0.7195	15.0130434783	-0.751063829787	-3.97333333333	-1.30714285714
1440	0.72	3.62753623188	2.1170212766	-2.53777777778	0.128571428571
1441	0.7205	2.20434782609	2.1170212766	-3.97333333333	14.4857142857
1442	0.721	5.05072463768	2.1170212766	-9.71555555556	-4.17857142857
1443	0.7215	2.20434782609	-7.92127659574	-2.53777777778	0.128571428571
1444	0.722	3.62753623188	20.7595744681	-3.97333333333	3.0
1445	0.7225	-0.642028985507	-6.48723404255	-2.53777777778	-2.74285714286
1446	0.723	7.89710144928	0.682978723404	-2.53777777778	1.56428571429
1447	0.7235	-7.75797101449	0.682978723404	-2.53777777778	0.128571428571
1448	0.724	2.20434782609	-0.751063829787	-5.40888888889	4.43571428571
1449	0.7245	2.20434782609	2.1170212766	-1.10222222222	-8.48571428571
1450	0.725	0.78115942029	3.55106382979	-8.28	0.128571428571
1451	0.7255	2.20434782609	-2.18510638298	17.56	-1.30714285714
1452	0.726	5.05072463768	4.98510638298	-1.10222222222	0.128571428571
1453	0.7265	3.62753623188	20.7595744681	-3.97333333333	-1.30714285714
1454	0.727	9.32028985507	0.682978723404	-1.10222222222	3.0
1455	0.7275	-10.6043478261	0.682978723404	-2.53777777778	-1.30714285714
1456	0.728	22.1289855072	0.682978723404	-3.97333333333	3.0
1457	0.7285	-4.9115942029	0.682978723404	-2.53777777778	-11.3571428571
1458	0.729	5.05072463768	2.1170212766	-2.53777777778	14.4857142857
1459	0.7295	3.62753623188	2.1170212766	3.20444444444	1.56428571429
1460	0.73	2.20434782609	-0.751063829787	-2.53777777778	1.56428571429
1461	0.7305	2.20434782609	-7.92127659574	-2.53777777778	0.128571428571
1462	0.731	7.89710144928	-3.61914893617	-2.53777777778	0.128571428571
1463	0.7315	2.20434782609	2.1170212766	-1.10222222222	0.128571428571
1464	0.732	10.7434782609	0.682978723404	-1.10222222222	0.128571428571
1465	0.7325	-2.0652173913	3.55106382979	0.333333333333	18.7928571429
1466	0.733	7.89710144928	3.55106382979	-5.40888888889	-8.48571428571
1467	0.7335	10.7434782609	3.55106382979	-1.10222222222	0.128571428571
1468	0.734	7.89710144928	0.682978723404	4.64	1.56428571429
1469	0.7345	7.89710144928	3.55106382979	-11.1511111111	0.128571428571
1470	0.735	7.89710144928	9.28723404255	-3.97333333333	1.56428571429
1471	0.7355	0.78115942029	0.682978723404	-1.10222222222	0.128571428571
1472	0.736	5.05072463768	-0.751063829787	-3.97333333333	4.43571428571
1473	0.7365	-2.0652173913	0.682978723404	-1.10222222222	-7.05
1474	0.737	-2.0652173913	0.682978723404	-6.84444444444	1.56428571429
1475	0.7375	0.78115942029	0.682978723404	-1.10222222222	-2.74285714286
1476	0.738	-2.0652173913	0.682978723404	-12.5866666667	3.0
1477	0.7385	-2.0652173913	4.98510638298	17.56	-1.30714285714
1478	0.739	2.20434782609	-0.751063829787	-11.1511111111	0.128571428571
1479	0.7395	0.78115942029	0.682978723404	0.333333333333	-1.30714285714
1480	0.74	3.62753623188	-7.92127659574	-2.53777777778	-1.30714285714
1481	0.7405	-10.6043478261	0.682978723404	-2.53777777778	5.87142857143
1482	0.741	19.2826086957	2.1170212766	-3.97333333333	0.128571428571
1483	0.7415	-12.0275362319	2.1170212766	-1.10222222222	18.7928571429
1484	0.742	-2.0652173913	-0.751063829787	-2.53777777778	-2.74285714286
1485	0.7425	-0.642028985507	0.682978723404	0.333333333333	-8.48571428571
1486	0.743	-2.0652173913	0.682978723404	-12.5866666667	0.128571428571
1487	0.7435	0.78115942029	-7.92127659574	-2.53777777778	0.128571428571
1488	0.744	-2.0652173913	-7.92127659574	-3.97333333333	0.128571428571
1489	0.7445	-3.4884057971	2.1170212766	-2.53777777778	1.56428571429
1490	0.745	3.62753623188	3.55106382979	-1.10222222222	1.56428571429
1491	0.7455	-7.75797101449	0.682978723404	-2.53777777778	-1.30714285714
1492	0.746	0.78115942029	-0.751063829787	-2.53777777778	4.43571428571
1493	0.7465	0.78115942029	0.682978723404	-1.10222222222	-11.3571428571
1494	0.747	2.20434782609	2.1170212766	-12.5866666667	1.56428571429
1495	0.7475	3.62753623188	2.1170212766	-2.53777777778	0.128571428571
1496	0.748	5.05072463768	-9.35531914894	-1.10222222222	1.56428571429
1497	0.7485	5.05072463768	6.41914893617	-1.10222222222	1.56428571429
1498	0.749	7.89710144928	2.1170212766	-1.10222222222	4.43571428571
1499	0.7495	-9.18115942029	0.682978723404	-3.97333333333	-1.30714285714
1500	0.75	3.62753623188	2.1170212766	-5.40888888889	17.3571428571
1501	0.7505	5.05072463768	0.682978723404	-1.10222222222	-7.05
1502	0.751	3.62753623188	2.1170212766	-11.1511111111	0.128571428571
1503	0.7515	3.62753623188	0.682978723404	1.76888888889	15.9214285714
1504	0.752	3.62753623188	3.55106382979	-11.1511111111	1.56428571429
1505	0.7525	-0.642028985507	-7.92127659574	0.333333333333	-1.30714285714
1506	0.753	2.20434782609	20.7595744681	0.333333333333	-1.30714285714
1507	0.7535	-2.0652173913	0.682978723404	0.333333333333	-1.30714285714
1508	0.754	19.2826086957	0.682978723404	-1.10222222222	0.128571428571
1509	0.7545	-10.6043478261	2.1170212766	-1.10222222222	-8.48571428571
1510	0.755	-0.642028985507	2.1170212766	-2.53777777778	20.2285714286
1511	0.7555	2.20434782609	0.682978723404	14.6888888889	3.0
1512	0.756	0.78115942029	2.1170212766	-9.71555555556	0.128571428571
1513	0.7565	0.78115942029	0.682978723404	0.333333333333	0.128571428571
1514	0.757	0.78115942029	-2.18510638298	0.333333333333	1.56428571429
1515	0.7575	0.78115942029	-6.48723404255	-1.10222222222	1.56428571429
1516	0.758	-2.0652173913	2.1170212766	-1.10222222222	3.0
1517	0.7585	-3.4884057971	3.55106382979	-1.10222222222	-1.30714285714
1518	0.759	5.05072463768	0.682978723404	-2.53777777778	3.0
1519	0.7595	3.62753623188	2.1170212766	-1.10222222222	-8.48571428571
1520	0.76	5.05072463768	2.1170212766	-2.53777777778	14.4857142857
1521	0.7605	3.62753623188	4.98510638298	-1.10222222222	0.128571428571
1522	0.761	3.62753623188	-6.48723404255	-2.53777777778	0.128571428571
1523	0.7615	3.62753623188	6.41914893617	-3.97333333333	0.128571428571
1524	0.762	9.32028985507	-3.61914893617	0.333333333333	1.56428571429
1525	0.7625	16.4362318841	0.682978723404	-1.10222222222	1.56428571429
1526	0.763	9.32028985507	2.1170212766	-1.10222222222	-7.05
1527	0.7635	-0.642028985507	0.682978723404	0.333333333333	3.0
1528	0.764	2.20434782609	2.1170212766	-1.10222222222	1.56428571429
1529	0.7645	0.78115942029	3.55106382979	-9.71555555556	-1.30714285714
1530	0.765	-2.0652173913	2.1170212766	0.333333333333	1.56428571429
1531	0.7655	-3.4884057971	-6.48723404255	0.333333333333	1.56428571429
1532	0.766	-4.9115942029	20.7595744681	1.76888888889	3.0
1533	0.7665	-2.0652173913	3.55106382979	-1.10222222222	4.43571428571
1534	0.767	-16.2971014493	3.55106382979	-2.53777777778	4.43571428571
1535	0.7675	-7.75797101449	6.41914893617	1.76888888889	-5.61428571429
1536	0.768	-2.0652173913	4.98510638298	-2.53777777778	7.30714285714
1537	0.7685	2.20434782609	3.55106382979	1.76888888889	4.43571428571
1538	0.769	5.05072463768	4.98510638298	-1.10222222222	0.128571428571
1539	0.7695	0.78115942029	4.98510638298	-5.40888888889	-1.30714285714
1540	0.77	-0.642028985507	0.682978723404	-1.10222222222	0.128571428571
1541	0.7705	0.78115942029	0.682978723404	-1.10222222222	0.128571428571
1542	0.771	-0.642028985507	-2.18510638298	-2.53777777778	0.128571428571
1543	0.7715	-7.75797101449	-0.751063829787	-2.53777777778	1.56428571429
1544	0.772	-7.75797101449	2.1170212766	-2.53777777778	-1.30714285714
1545	0.7725	-6.3347826087	0.682978723404	-1.10222222222	1.56428571429
1546	0.773	-6.3347826087	0.682978723404	-1.10222222222	-5.61428571429
1547	0.7735	-7.75797101449	2.1170212766	-9.71555555556	0.128571428571
1548	0.774	-7.75797101449	2.1170212766	16.1244444444	0.128571428571
1549	0.7745	-4.9115942029	4.98510638298	-2.53777777778	1.56428571429
1550	0.775	-3.4884057971	17.8914893617	-2.53777777778	1.56428571429
1551	0.7755	0.78115942029	-5.05319148936	-3.97333333333	0.128571428571
1552	0.776	-4.9115942029	0.682978723404	-3.97333333333	1.56428571429
1553	0.7765	17.8594202899	-0.751063829787	-1.10222222222	3.0
1554	0.777	-9.18115942029	0.682978723404	-1.10222222222	-9.92142857143
1555	0.7775	-0.642028985507	0.682978723404	-2.53777777778	15.9214285714
1556	0.778	0.78115942029	3.55106382979	-1.10222222222	-8.48571428571
1557	0.7785	-0.642028985507	4.98510638298	-11.1511111111	1.56428571429
1558	0.779	-0.642028985507	2.1170212766	-2.53777777778	0.128571428571
1559	0.7795	3.62753623188	-9.35531914894	-2.53777777778	-1.30714285714
1560	0.78	0.78115942029	20.7595744681	-2.53777777778	0.128571428571
1561	0.7805	3.62753623188	3.55106382979	-2.53777777778	-1.30714285714
1562	0.781	-9.18115942029	0.682978723404	-2.53777777778	3.0
1563	0.7815	23.552173913	2.1170212766	-3.97333333333	4.43571428571
1564	0.782	-3.4884057971	3.55106382979	-1.10222222222	-11.3571428571
1565	0.7825	5.05072463768	0.682978723404	-6.84444444444	-1.30714285714
1566	0.783	0.78115942029	2.1170212766	13.2533333333	0.128571428571
1567	0.7835	5.05072463768	0.682978723404	-8.28	1.56428571429
1568	0.784	0.78115942029	2.1170212766	8.94666666667	1.56428571429
1569	0.7845	2.20434782609	6.41914893617	-1.10222222222	3.0
1570	0.785	9.32028985507	2.1170212766	-1.10222222222	0.128571428571
1571	0.7855	-7.75797101449	0.682978723404	-3.97333333333	1.56428571429
1572	0.786	12.1666666667	2.1170212766	3.20444444444	-1.30714285714
1573	0.7865	-2.0652173913	0.682978723404	1.76888888889	-5.61428571429
1574	0.787	-4.9115942029	2.1170212766	-14.0222222222	-1.30714285714
1575	0.7875	-4.9115942029	2.1170212766	14.6888888889	0.128571428571
1576	0.788	-3.4884057971	2.1170212766	0.333333333333	-1.30714285714
1577	0.7885	-3.4884057971	-9.35531914894	-1.10222222222	-1.30714285714
1578	0.789	-3.4884057971	17.8914893617	0.333333333333	-1.30714285714
1579	0.7895	-6.3347826087	-2.18510638298	-1.10222222222	-1.30714285714
1580	0.79	9.32028985507	3.55106382979	0.333333333333	-2.74285714286
1581	0.7905	-10.6043478261	0.682978723404	1.76888888889	-1.30714285714
1582	0.791	-3.4884057971	-0.751063829787	0.333333333333	-5.61428571429
1583	0.7915	-3.4884057971	2.1170212766	-1.10222222222	3.0
1584	0.792	-4.9115942029	0.682978723404	-2.53777777778	0.128571428571
1585	0.7925	-4.9115942029	4.98510638298	-8.28	0.128571428571
1586	0.793	2.20434782609	-10.7893617021	-1.10222222222	3.0
1587	0.7935	0.78115942029	3.55106382979	-1.10222222222	0.128571428571
1588	0.794	-7.75797101449	3.55106382979	-1.10222222222	0.128571428571
1589	0.7945	7.89710144928	2.1170212766	-1.10222222222	3.0
1590	0.795	-0.642028985507	2.1170212766	0.333333333333	3.0
1591	0.7955	2.20434782609	0.682978723404	-1.10222222222	7.30714285714
1592	0.796	3.62753623188	-0.751063829787	-2.53777777778	0.128571428571
1593	0.7965	2.20434782609	3.55106382979	-3.97333333333	-1.30714285714
1594	0.797	0.78115942029	-10.7893617021	-1.10222222222	-1.30714285714
1595	0.7975	0.78115942029	19.3255319149	-1.10222222222	0.128571428571
1596	0.798	-4.9115942029	2.1170212766	-3.97333333333	0.128571428571
1597	0.7985	22.1289855072	2.1170212766	-1.10222222222	0.128571428571
1598	0.799	-0.642028985507	3.55106382979	-1.10222222222	0.128571428571
1599	0.7995	5.05072463768	3.55106382979	7.51111111111	0.128571428571
1600	0.8	3.62753623188	4.98510638298	-8.28	-5.61428571429
1601	0.8005	0.78115942029	2.1170212766	-3.97333333333	-1.30714285714
1602	0.801	5.05072463768	-7.92127659574	-1.10222222222	0.128571428571
1603	0.8015	0.78115942029	-3.61914893617	0.333333333333	-1.30714285714
1604	0.802	9.32028985507	4.98510638298	0.333333333333	3.0
1605	0.8025	-7.75797101449	2.1170212766	0.333333333333	0.128571428571
1606	0.803	20.7057971014	2.1170212766	-1.10222222222	-11.3571428571
1607	0.8035	-0.642028985507	2.1170212766	-2.53777777778	18.7928571429
1608	0.804	-4.9115942029	0.682978723404	13.2533333333	0.128571428571
1609	0.8045	-6.3347826087	2.1170212766	-6.84444444444	1.56428571429
1610	0.805	-4.9115942029	-0.751063829787	-1.10222222222	-1.30714285714
1611	0.8055	-2.0652173913	0.682978723404	-2.53777777778	1.56428571429
1612	0.806	-0.642028985507	7.85319148936	0.333333333333	1.56428571429
1613	0.8065	-10.6043478261	2.1170212766	-1.10222222222	-1.30714285714
1614	0.807	16.4362318841	2.1170212766	-1.10222222222	4.43571428571
1615	0.8075	-12.0275362319	2.1170212766	-1.10222222222	-1.30714285714
1616	0.808	-3.4884057971	4.98510638298	-6.84444444444	0.128571428571
1617	0.8085	-3.4884057971	3.55106382979	14.6888888889	0.128571428571
1618	0.809	-0.642028985507	2.1170212766	-9.71555555556	0.128571428571
1619	0.8095	0.78115942029	-6.48723404255	-2.53777777778	0.128571428571
1620	0.81	0.78115942029	9.28723404255	-2.53777777778	0.128571428571
1621	0.8105	9.32028985507	2.1170212766	-1.10222222222	3.0
1622	0.811	-7.75797101449	0.682978723404	-2.53777777778	-2.74285714286
1623	0.8115	19.2826086957	0.682978723404	-1.10222222222	1.56428571429
1624	0.812	-4.9115942029	2.1170212766	1.76888888889	-4.17857142857
1625	0.8125	7.89710144928	-0.751063829787	1.76888888889	3.0
1626	0.813	7.89710144928	-0.751063829787	0.333333333333	0.128571428571
1627	0.8135	7.89710144928	2.1170212766	-3.97333333333	0.128571428571
1628	0.814	3.62753623188	0.682978723404	-3.97333333333	0.128571428571
1629	0.8145	3.62753623188	-3.61914893617	-3.97333333333	0.128571428571
1630	0.815	10.7434782609	0.682978723404	0.333333333333	0.128571428571
1631	0.8155	-4.9115942029	2.1170212766	-2.53777777778	-2.74285714286
1632	0.816	3.62753623188	2.1170212766	-1.10222222222	0.128571428571
1633	0.8165	7.89710144928	3.55106382979	-6.84444444444	-5.61428571429
1634	0.817	0.78115942029	2.1170212766	7.51111111111	-2.74285714286
1635	0.8175	2.20434782609	6.41914893617	-11.1511111111	-1.30714285714
1636	0.818	3.62753623188	-10.7893617021	-2.53777777778	1.56428571429
1637	0.8185	2.20434782609	20.7595744681	-2.53777777778	0.128571428571
1638	0.819	-2.0652173913	-6.48723404255	-1.10222222222	1.56428571429
1639	0.8195	19.2826086957	2.1170212766	0.333333333333	4.43571428571
1640	0.82	-12.0275362319	6.41914893617	-1.10222222222	-9.92142857143
1641	0.8205	-3.4884057971	3.55106382979	-3.97333333333	15.9214285714
1642	0.821	-0.642028985507	2.1170212766	-2.53777777778	-1.30714285714
1643	0.8215	-3.4884057971	0.682978723404	-5.40888888889	-9.92142857143
1644	0.822	-3.4884057971	0.682978723404	14.6888888889	-1.30714285714
1645	0.8225	-2.0652173913	-0.751063829787	-2.53777777778	-2.74285714286
1646	0.823	-4.9115942029	3.55106382979	-3.97333333333	-1.30714285714
1647	0.8235	-9.18115942029	3.55106382979	-1.10222222222	-1.30714285714
1648	0.824	12.1666666667	0.682978723404	-3.97333333333	3.0
1649	0.8245	-12.0275362319	0.682978723404	-1.10222222222	-9.92142857143
1650	0.825	0.78115942029	2.1170212766	-2.53777777778	15.9214285714
1651	0.8255	2.20434782609	4.98510638298	8.94666666667	1.56428571429
1652	0.826	0.78115942029	6.41914893617	-9.71555555556	1.56428571429
1653	0.8265	0.78115942029	-6.48723404255	-1.10222222222	-2.74285714286
1654	0.827	0.78115942029	22.1936170213	-3.97333333333	3.0
1655	0.8275	0.78115942029	-5.05319148936	-2.53777777778	0.128571428571
1656	0.828	-7.75797101449	3.55106382979	-2.53777777778	-2.74285714286
1657	0.8285	-4.9115942029	3.55106382979	-2.53777777778	3.0
1658	0.829	-0.642028985507	0.682978723404	-1.10222222222	-1.30714285714
1659	0.8295	-2.0652173913	0.682978723404	-15.4577777778	-1.30714285714
1660	0.83	-2.0652173913	2.1170212766	11.8177777778	0.128571428571
1661	0.8305	-2.0652173913	2.1170212766	-14.0222222222	-8.48571428571
1662	0.831	2.20434782609	0.682978723404	-3.97333333333	0.128571428571
1663	0.8315	0.78115942029	-2.18510638298	-2.53777777778	3.0
1664	0.832	6.47391304348	2.1170212766	-3.97333333333	1.56428571429
1665	0.8325	-3.4884057971	3.55106382979	-2.53777777778	-2.74285714286
1666	0.833	0.78115942029	-0.751063829787	-6.84444444444	17.3571428571
1667	0.8335	0.78115942029	0.682978723404	0.333333333333	-7.05
1668	0.834	2.20434782609	3.55106382979	-9.71555555556	3.0
1669	0.8345	2.20434782609	2.1170212766	-8.28	0.128571428571
1670	0.835	0.78115942029	17.8914893617	-3.97333333333	1.56428571429
1671	0.8355	6.47391304348	20.7595744681	-5.40888888889	1.56428571429
1672	0.836	-0.642028985507	-5.05319148936	-2.53777777778	1.56428571429
1673	0.8365	10.7434782609	0.682978723404	-2.53777777778	4.43571428571
1674	0.837	0.78115942029	-0.751063829787	-3.97333333333	0.128571428571
1675	0.8375	-4.9115942029	0.682978723404	-2.53777777778	-1.30714285714
1676	0.838	-2.0652173913	4.98510638298	14.6888888889	0.128571428571
1677	0.8385	-2.0652173913	0.682978723404	-2.53777777778	-1.30714285714
1678	0.839	-3.4884057971	3.55106382979	-2.53777777778	0.128571428571
1679	0.8395	-3.4884057971	13.5893617021	-2.53777777778	-1.30714285714
1680	0.84	-0.642028985507	-2.18510638298	-5.40888888889	0.128571428571
1681	0.8405	2.20434782609	0.682978723404	-3.97333333333	1.56428571429
1682	0.841	7.89710144928	2.1170212766	-2.53777777778	-8.48571428571
1683	0.8415	-2.0652173913	0.682978723404	-3.97333333333	4.43571428571
1684	0.842	2.20434782609	-0.751063829787	-8.28	-2.74285714286
1685	0.8425	2.20434782609	0.682978723404	8.94666666667	1.56428571429
1686	0.843	2.20434782609	3.55106382979	-2.53777777778	0.128571428571
1687	0.8435	3.62753623188	17.8914893617	-5.40888888889	0.128571428571
1688	0.844	5.05072463768	-6.48723404255	-3.97333333333	0.128571428571
1689	0.8445	3.62753623188	0.682978723404	-5.40888888889	0.128571428571
1690	0.845	17.8594202899	-0.751063829787	-2.53777777778	0.128571428571
1691	0.8455	-6.3347826087	2.1170212766	-2.53777777778	-1.30714285714
1692	0.846	0.78115942029	4.98510638298	-3.97333333333	4.43571428571
1693	0.8465	3.62753623188	2.1170212766	16.1244444444	0.128571428571
1694	0.847	9.32028985507	4.98510638298	-15.4577777778	0.128571428571
1695	0.8475	5.05072463768	-0.751063829787	16.1244444444	-1.30714285714
1696	0.848	5.05072463768	19.3255319149	-3.97333333333	1.56428571429
1697	0.8485	0.78115942029	-6.48723404255	-5.40888888889	1.56428571429
1698	0.849	5.05072463768	2.1170212766	-1.10222222222	-1.30714285714
1699	0.8495	-6.3347826087	2.1170212766	-3.97333333333	-1.30714285714
1700	0.85	2.20434782609	3.55106382979	-6.84444444444	18.7928571429
1701	0.8505	0.78115942029	4.98510638298	-1.10222222222	-7.05
1702	0.851	0.78115942029	0.682978723404	-12.5866666667	1.56428571429
1703	0.8515	-2.0652173913	0.682978723404	14.6888888889	0.128571428571
1704	0.852	-3.4884057971	3.55106382979	-12.5866666667	1.56428571429
1705	0.8525	-4.9115942029	-10.7893617021	-3.97333333333	0.128571428571
1706	0.853	-2.0652173913	0.682978723404	-3.97333333333	1.56428571429
1707	0.8535	-13.4507246377	0.682978723404	-3.97333333333	0.128571428571
1708	0.854	9.32028985507	3.55106382979	-1.10222222222	0.128571428571
1709	0.8545	-14.8739130435	2.1170212766	-3.97333333333	-8.48571428571
1710	0.855	-4.9115942029	-0.751063829787	-11.1511111111	1.56428571429
1711	0.8555	-0.642028985507	3.55106382979	11.8177777778	-1.30714285714
1712	0.856	-2.0652173913	0.682978723404	-15.4577777778	-7.05
1713	0.8565	-0.642028985507	-10.7893617021	-3.97333333333	3.0
1714	0.857	2.20434782609	-2.18510638298	-2.53777777778	3.0
1715	0.8575	-0.642028985507	2.1170212766	-2.53777777778	3.0
1716	0.858	22.1289855072	2.1170212766	-3.97333333333	4.43571428571
1717	0.8585	-9.18115942029	3.55106382979	-3.97333333333	-9.92142857143
1718	0.859	-4.9115942029	0.682978723404	-5.40888888889	10.1785714286
1719	0.8595	-7.75797101449	0.682978723404	-2.53777777778	-2.74285714286
1720	0.86	-4.9115942029	3.55106382979	-6.84444444444	3.0
1721	0.8605	-4.9115942029	3.55106382979	-5.40888888889	0.128571428571
1722	0.861	-4.9115942029	-9.35531914894	-1.10222222222	0.128571428571
1723	0.8615	-4.9115942029	6.41914893617	-2.53777777778	0.128571428571
1724	0.862	-4.9115942029	0.682978723404	-5.40888888889	0.128571428571
1725	0.8625	-9.18115942029	3.55106382979	0.333333333333	1.56428571429
1726	0.863	10.7434782609	0.682978723404	-2.53777777778	-1.30714285714
1727	0.8635	-0.642028985507	2.1170212766	-5.40888888889	-7.05
1728	0.864	-0.642028985507	4.98510638298	0.333333333333	0.128571428571
1729	0.8645	0.78115942029	2.1170212766	4.64	1.56428571429
1730	0.865	0.78115942029	2.1170212766	-8.28	1.56428571429
1731	0.8655	-0.642028985507	7.85319148936	-3.97333333333	1.56428571429
1732	0.866	0.78115942029	-2.18510638298	-3.97333333333	0.128571428571
1733	0.8665	3.62753623188	3.55106382979	0.333333333333	3.0
1734	0.867	0.78115942029	3.55106382979	-1.10222222222	-9.92142857143
1735	0.8675	3.62753623188	4.98510638298	-2.53777777778	3.0
1736	0.868	5.05072463768	0.682978723404	-1.10222222222	-9.92142857143
1737	0.8685	7.89710144928	2.1170212766	-2.53777777778	13.05
1738	0.869	3.62753623188	0.682978723404	-3.97333333333	0.128571428571
1739	0.8695	2.20434782609	4.98510638298	-12.5866666667	-1.30714285714
1740	0.87	9.32028985507	-3.61914893617	-2.53777777778	-2.74285714286
1741	0.8705	3.62753623188	4.98510638298	-3.97333333333	0.128571428571
1742	0.871	9.32028985507	0.682978723404	-2.53777777778	1.56428571429
1743	0.8715	5.05072463768	6.41914893617	-1.10222222222	-8.48571428571
1744	0.872	-2.0652173913	0.682978723404	-2.53777777778	10.1785714286
1745	0.8725	-0.642028985507	2.1170212766	-1.10222222222	-2.74285714286
1746	0.873	-2.0652173913	6.41914893617	-12.5866666667	-1.30714285714
1747	0.8735	-0.642028985507	0.682978723404	-2.53777777778	-1.30714285714
1748	0.874	0.78115942029	-5.05319148936	-2.53777777778	0.128571428571
1749	0.8745	-2.0652173913	-7.92127659574	-1.10222222222	0.128571428571
1750	0.875	-2.0652173913	2.1170212766	0.333333333333	0.128571428571
1751	0.8755	-0.642028985507	2.1170212766	-2.53777777778	0.128571428571
1752	0.876	-2.0652173913	0.682978723404	-2.53777777778	7.30714285714
1753	0.8765	-10.6043478261	2.1170212766	-2.53777777778	-1.30714285714
1754	0.877	-4.9115942029	4.98510638298	0.333333333333	-2.74285714286
1755	0.8775	-0.642028985507	4.98510638298	-12.5866666667	0.128571428571
1756	0.878	-0.642028985507	-6.48723404255	-1.10222222222	-4.17857142857
1757	0.8785	3.62753623188	20.7595744681	-3.97333333333	0.128571428571
1758	0.879	2.20434782609	3.55106382979	-2.53777777778	-1.30714285714
1759	0.8795	10.7434782609	2.1170212766	-3.97333333333	0.128571428571
1760	0.88	-0.642028985507	2.1170212766	-3.97333333333	-11.3571428571
1761	0.8805	7.89710144928	4.98510638298	-3.97333333333	17.3571428571
1762	0.881	0.78115942029	2.1170212766	0.333333333333	1.56428571429
1763	0.8815	3.62753623188	2.1170212766	17.56	-2.74285714286
1764	0.882	0.78115942029	3.55106382979	-9.71555555556	-1.30714285714
1765	0.8825	-2.0652173913	4.98510638298	-1.10222222222	0.128571428571
1766	0.883	-0.642028985507	23.6276595745	-3.97333333333	1.56428571429
1767	0.8835	-3.4884057971	3.55106382979	0.333333333333	0.128571428571
1768	0.884	-2.0652173913	2.1170212766	0.333333333333	1.56428571429
1769	0.8845	5.05072463768	-0.751063829787	-3.97333333333	-1.30714285714
1770	0.885	-0.642028985507	3.55106382979	-1.10222222222	-11.3571428571
1771	0.8855	-2.0652173913	3.55106382979	-2.53777777778	7.30714285714
1772	0.886	-3.4884057971	2.1170212766	13.2533333333	-1.30714285714
1773	0.8865	-3.4884057971	4.98510638298	-2.53777777778	0.128571428571
1774	0.887	-3.4884057971	-7.92127659574	-2.53777777778	0.128571428571
1775	0.8875	-0.642028985507	16.4574468085	-1.10222222222	-1.30714285714
1776	0.888	-3.4884057971	-2.18510638298	-1.10222222222	0.128571428571
1777	0.8885	-2.0652173913	3.55106382979	-1.10222222222	-12.7928571429
1778	0.889	-2.0652173913	2.1170212766	-2.53777777778	11.6142857143
1779	0.8895	0.78115942029	0.682978723404	0.333333333333	-5.61428571429
