	Time	Channel 1	Channel 2	Channel 3	Channel 4
0	0.0	11505.7	-6.78	-2.00253164557	-1.12682926829
1	0.0005	11505.7	0.397777777778	-0.581012658228	-1.12682926829
2	0.001	11505.7	-6.78	0.840506329114	-11.0804878049
3	0.0015	11505.7	14.7533333333	-10.5316455696	-3.97073170732
4	0.002	11505.7	0.397777777778	0.840506329114	1.71707317073
5	0.0025	11505.7	0.397777777778	-2.00253164557	0.29512195122
6	0.003	11505.7	1.83333333333	-2.00253164557	-1.12682926829
7	0.0035	11505.7	-1.03777777778	-4.84556962025	-1.12682926829
8	0.004	11505.7	0.397777777778	-4.84556962025	-3.97073170732
9	0.0045	11505.7	0.397777777778	-2.00253164557	-1.12682926829
10	0.005	11505.7	-5.34444444444	-2.00253164557	-3.97073170732
11	0.0055	11505.7	0.397777777778	-0.581012658228	0.29512195122
12	0.006	11505.7	-1.03777777778	0.840506329114	-2.5487804878
13	0.0065	11505.7	-1.03777777778	15.0556962025	-3.97073170732
14	0.007	11505.7	-1.03777777778	-0.581012658228	-3.97073170732
15	0.0075	11505.7	-6.78	-2.00253164557	-6.81463414634
16	0.008	11505.7	-1.03777777778	-0.581012658228	-8.23658536585
17	0.0085	11505.7	-1.03777777778	-2.00253164557	-5.39268292683
18	0.009	11505.7	-1.03777777778	-7.68860759494	-5.39268292683
19	0.0095	11505.7	0.397777777778	-7.68860759494	-6.81463414634
20	0.01	11505.7	-2.47333333333	-7.68860759494	-5.39268292683
21	0.0105	11505.7	6.14	-2.00253164557	-3.97073170732
22	0.011	11505.7	0.397777777778	-0.581012658228	-5.39268292683
23	0.0115	11505.7	-2.47333333333	-2.00253164557	-1.12682926829
24	0.012	11505.7	-2.47333333333	-9.11012658228	3.13902439024
25	0.0125	11505.7	0.397777777778	-0.581012658228	-2.5487804878
26	0.013	11505.7	-1.03777777778	-2.00253164557	-5.39268292683
27	0.0135	11505.7	-5.34444444444	-2.00253164557	-1.12682926829
28	0.014	11505.7	0.397777777778	-0.581012658228	3.13902439024
29	0.0145	11505.7	0.397777777778	-2.00253164557	3.13902439024
30	0.015	11505.7	-1.03777777778	-2.00253164557	1.71707317073
31	0.0155	11505.7	-13.9577777778	-2.00253164557	-3.97073170732
32	0.016	11505.7	-8.21555555556	-2.00253164557	-1.12682926829
33	0.0165	11505.7	-2.47333333333	-2.00253164557	-1.12682926829
34	0.017	11505.7	-2.47333333333	-3.42405063291	-12.5024390244
35	0.0175	11505.7	0.397777777778	-3.42405063291	-3.97073170732
36	0.018	11505.7	0.397777777778	-2.00253164557	-2.5487804878
37	0.0185	11505.7	0.397777777778	0.840506329114	-3.97073170732
38	0.019	11505.7	-2.47333333333	0.840506329114	-2.5487804878
39	0.0195	11505.7	-1.03777777778	3.6835443038	-2.5487804878
40	0.02	11505.7	0.397777777778	2.26202531646	13.0926829268
41	0.0205	11505.7	1.83333333333	5.10506329114	14.5146341463
42	0.021	11505.7	0.397777777778	2.26202531646	-5.39268292683
43	0.0215	11505.7	-1.03777777778	3.6835443038	-2.5487804878
44	0.022	11505.7	-6.78	0.840506329114	-3.97073170732
45	0.0225	11505.7	-8.21555555556	2.26202531646	-1.12682926829
46	0.023	11505.7	0.397777777778	2.26202531646	-12.5024390244
47	0.0235	11505.7	-1.03777777778	-3.42405063291	-5.39268292683
48	0.024	11505.7	0.397777777778	-6.26708860759	-5.39268292683
49	0.0245	11505.7	7.57555555556	-0.581012658228	-5.39268292683
50	0.025	11505.7	6.14	-2.00253164557	-3.97073170732
51	0.0255	11505.7	-2.47333333333	-0.581012658228	-5.39268292683
52	0.026	11505.7	0.397777777778	-2.00253164557	-1.12682926829
53	0.0265	11505.7	1.83333333333	-11.953164557	-8.23658536585
54	0.027	11505.7	9.01111111111	-6.26708860759	-3.97073170732
55	0.0275	11505.7	-6.78	-3.42405063291	-5.39268292683
56	0.028	11505.7	-2.47333333333	-2.00253164557	-2.5487804878
57	0.0285	11505.7	-3.90888888889	-3.42405063291	-3.97073170732
58	0.029	11505.7	-1.03777777778	2.26202531646	-12.5024390244
59	0.0295	11505.7	-1.03777777778	-3.42405063291	-6.81463414634
60	0.03	11505.7	-2.47333333333	-3.42405063291	-5.39268292683
61	0.0305	11505.7	-2.47333333333	-2.00253164557	-6.81463414634
62	0.031	11505.7	-1.03777777778	-3.42405063291	-6.81463414634
63	0.0315	11505.7	-1.03777777778	-2.00253164557	-2.5487804878
64	0.032	11505.7	-1.03777777778	15.0556962025	-2.5487804878
65	0.0325	11505.7	4.70444444444	-2.00253164557	-2.5487804878
66	0.033	11505.7	21.9311111111	-3.42405063291	-5.39268292683
67	0.0335	11505.7	0.397777777778	-0.581012658228	-3.97073170732
68	0.034	11505.7	0.397777777778	0.840506329114	-5.39268292683
69	0.0345	11505.7	-1.03777777778	-0.581012658228	-8.23658536585
70	0.035	11505.7	0.397777777778	12.2126582278	-5.39268292683
71	0.0355	11505.7	1.83333333333	0.840506329114	-3.97073170732
72	0.036	11505.7	-5.34444444444	-0.581012658228	-5.39268292683
73	0.0365	11505.7	-6.78	0.840506329114	-3.97073170732
74	0.037	11505.7	-1.03777777778	-0.581012658228	-8.23658536585
75	0.0375	11505.7	-2.47333333333	3.6835443038	-8.23658536585
76	0.038	11505.7	-2.47333333333	-0.581012658228	-5.39268292683
77	0.0385	11505.7	3.26888888889	3.6835443038	-6.81463414634
78	0.039	11505.7	-5.34444444444	3.6835443038	-3.97073170732
79	0.0395	11505.7	3.26888888889	5.10506329114	-6.81463414634
80	0.04	11505.7	1.83333333333	2.26202531646	-8.23658536585
81	0.0405	11505.7	0.397777777778	0.840506329114	-6.81463414634
82	0.041	11505.7	-1.03777777778	-2.00253164557	-6.81463414634
83	0.0415	11505.7	7.57555555556	-2.00253164557	-3.97073170732
84	0.042	11505.7	1.83333333333	0.840506329114	-1.12682926829
85	0.0425	11505.7	1.83333333333	-0.581012658228	-6.81463414634
86	0.043	11505.7	0.397777777778	3.6835443038	-5.39268292683
87	0.0435	11505.7	0.397777777778	-0.581012658228	-11.0804878049
88	0.044	11505.7	3.26888888889	3.6835443038	-5.39268292683
89	0.0445	11505.7	14.7533333333	3.6835443038	-1.12682926829
90	0.045	11505.7	0.397777777778	2.26202531646	-2.5487804878
91	0.0455	11505.7	3.26888888889	-0.581012658228	15.9365853659
92	0.046	11505.7	0.397777777778	-0.581012658228	15.9365853659
93	0.0465	11505.7	1.83333333333	-9.11012658228	-5.39268292683
94	0.047	11505.7	16.1888888889	-2.00253164557	-3.97073170732
95	0.0475	11505.7	-1.03777777778	-0.581012658228	-2.5487804878
96	0.048	11505.7	1.83333333333	-0.581012658228	-3.97073170732
97	0.0485	11505.7	0.397777777778	0.840506329114	-8.23658536585
98	0.049	11505.7	-2.47333333333	-2.00253164557	-12.5024390244
99	0.0495	11505.7	-2.47333333333	0.840506329114	-3.97073170732
100	0.05	11505.7	-3.90888888889	2.26202531646	-3.97073170732
101	0.0505	11505.7	1.83333333333	2.26202531646	-3.97073170732
102	0.051	11505.7	0.397777777778	5.10506329114	-12.5024390244
103	0.0515	11505.7	0.397777777778	5.10506329114	-11.0804878049
104	0.052	11505.7	0.397777777778	3.6835443038	-5.39268292683
105	0.0525	11505.7	-12.5222222222	3.6835443038	-3.97073170732
106	0.053	11505.7	-2.47333333333	2.26202531646	-2.5487804878
107	0.0535	11505.7	0.397777777778	0.840506329114	-3.97073170732
108	0.054	11505.7	-1.03777777778	-0.581012658228	0.29512195122
109	0.0545	11505.7	-1.03777777778	-0.581012658228	4.56097560976
110	0.055	11505.7	-1.03777777778	-6.26708860759	-6.81463414634
111	0.0555	11505.7	1.83333333333	-0.581012658228	-2.5487804878
112	0.056	11505.7	-6.78	-0.581012658228	-1.12682926829
113	0.0565	11505.7	0.397777777778	-2.00253164557	-2.5487804878
114	0.057	11505.7	0.397777777778	0.840506329114	4.56097560976
115	0.0575	11505.7	0.397777777778	15.0556962025	-3.97073170732
116	0.058	11505.7	0.397777777778	15.0556962025	-3.97073170732
117	0.0585	11505.7	-8.21555555556	3.6835443038	-2.5487804878
118	0.059	11505.7	0.397777777778	6.52658227848	-3.97073170732
119	0.0595	11505.7	0.397777777778	3.6835443038	-2.5487804878
120	0.06	11505.7	0.397777777778	2.26202531646	13.0926829268
121	0.0605	11505.7	1.83333333333	22.1632911392	-1.12682926829
122	0.061	11505.7	1.83333333333	5.10506329114	-2.5487804878
123	0.0615	11505.7	19.06	3.6835443038	-2.5487804878
124	0.062	11505.7	0.397777777778	3.6835443038	-6.81463414634
125	0.0625	11505.7	0.397777777778	3.6835443038	-6.81463414634
126	0.063	11505.7	-3.90888888889	6.52658227848	-12.5024390244
127	0.0635	11505.7	-3.90888888889	-6.26708860759	-2.5487804878
128	0.064	11505.7	-13.9577777778	5.10506329114	-5.39268292683
129	0.0645	11505.7	-12.5222222222	3.6835443038	-5.39268292683
130	0.065	11505.7	-1.03777777778	5.10506329114	-5.39268292683
131	0.0655	11505.7	-2.47333333333	2.26202531646	-1.12682926829
132	0.066	11505.7	-2.47333333333	-7.68860759494	-6.81463414634
133	0.0665	11505.7	-1.03777777778	-7.68860759494	-5.39268292683
134	0.067	11505.7	-1.03777777778	-9.11012658228	-3.97073170732
135	0.0675	11505.7	0.397777777778	3.6835443038	-3.97073170732
136	0.068	11505.7	1.83333333333	2.26202531646	-3.97073170732
137	0.0685	11505.7	1.83333333333	3.6835443038	-3.97073170732
138	0.069	11505.7	1.83333333333	2.26202531646	-11.0804878049
139	0.0695	11505.7	-1.03777777778	5.10506329114	-2.5487804878
140	0.07	11505.7	1.83333333333	3.6835443038	-2.5487804878
141	0.0705	11505.7	1.83333333333	2.26202531646	-2.5487804878
142	0.071	11505.7	0.397777777778	3.6835443038	-3.97073170732
143	0.0715	11505.7	-1.03777777778	-0.581012658228	17.3585365854
144	0.072	11505.7	0.397777777778	-3.42405063291	-2.5487804878
145	0.0725	11505.7	-3.90888888889	5.10506329114	-3.97073170732
146	0.073	11505.7	1.83333333333	5.10506329114	-3.97073170732
147	0.0735	11505.7	-1.03777777778	5.10506329114	-1.12682926829
148	0.074	11505.7	-1.03777777778	9.36962025316	-3.97073170732
149	0.0745	11505.7	-1.03777777778	12.2126582278	7.40487804878
150	0.075	11505.7	0.397777777778	25.0063291139	-8.23658536585
151	0.0755	11505.7	1.83333333333	5.10506329114	-2.5487804878
152	0.076	11505.7	-8.21555555556	5.10506329114	-6.81463414634
153	0.0765	11505.7	-5.34444444444	9.36962025316	-2.5487804878
154	0.077	11505.7	0.397777777778	9.36962025316	-13.9243902439
155	0.0775	11505.7	0.397777777778	7.94810126582	-12.5024390244
156	0.078	11505.7	-2.47333333333	-3.42405063291	-1.12682926829
157	0.0785	11505.7	-9.65111111111	5.10506329114	-2.5487804878
158	0.079	11505.7	16.1888888889	5.10506329114	-1.12682926829
159	0.0795	11505.7	1.83333333333	7.94810126582	-1.12682926829
160	0.08	11505.7	-1.03777777778	6.52658227848	7.40487804878
161	0.0805	11505.7	1.83333333333	7.94810126582	15.9365853659
162	0.081	11505.7	1.83333333333	0.840506329114	-2.5487804878
163	0.0815	11505.7	9.01111111111	7.94810126582	-2.5487804878
164	0.082	11505.7	-1.03777777778	7.94810126582	-1.12682926829
165	0.0825	11505.7	-1.03777777778	7.94810126582	-5.39268292683
166	0.083	11505.7	-1.03777777778	2.26202531646	4.56097560976
167	0.0835	11505.7	-1.03777777778	3.6835443038	-3.97073170732
168	0.084	11505.7	-9.65111111111	2.26202531646	-2.5487804878
169	0.0845	11505.7	4.70444444444	2.26202531646	-3.97073170732
170	0.085	11505.7	-9.65111111111	2.26202531646	-2.5487804878
171	0.0855	11505.7	-2.47333333333	3.6835443038	-3.97073170732
172	0.086	11505.7	-1.03777777778	0.840506329114	-9.65853658537
173	0.0865	11505.7	-2.47333333333	-4.84556962025	-3.97073170732
174	0.087	11505.7	-8.21555555556	-4.84556962025	-3.97073170732
175	0.0875	11505.7	7.57555555556	0.840506329114	-3.97073170732
176	0.088	11505.7	-1.03777777778	-0.581012658228	-2.5487804878
177	0.0885	11505.7	0.397777777778	2.26202531646	7.40487804878
178	0.089	11505.7	0.397777777778	2.26202531646	-5.39268292683
179	0.0895	11505.7	0.397777777778	2.26202531646	-3.97073170732
180	0.09	11505.7	-3.90888888889	5.10506329114	-5.39268292683
181	0.0905	11505.7	9.01111111111	5.10506329114	-3.97073170732
182	0.091	11505.7	1.83333333333	5.10506329114	-6.81463414634
183	0.0915	11505.7	0.397777777778	2.26202531646	5.98292682927
184	0.092	11505.7	0.397777777778	2.26202531646	-8.23658536585
185	0.0925	11505.7	-2.47333333333	-0.581012658228	-3.97073170732
186	0.093	11505.7	-2.47333333333	7.94810126582	-5.39268292683
187	0.0935	11505.7	0.397777777778	7.94810126582	-2.5487804878
188	0.094	11505.7	-1.03777777778	9.36962025316	-3.97073170732
189	0.0945	11505.7	-1.03777777778	9.36962025316	0.29512195122
190	0.095	11505.7	-1.03777777778	7.94810126582	-2.5487804878
191	0.0955	11505.7	0.397777777778	23.5848101266	-3.97073170732
192	0.096	11505.7	-3.90888888889	13.6341772152	-2.5487804878
193	0.0965	11505.7	-8.21555555556	9.36962025316	-6.81463414634
194	0.097	11505.7	-9.65111111111	7.94810126582	-3.97073170732
195	0.0975	11505.7	-2.47333333333	2.26202531646	-15.3463414634
196	0.098	11505.7	0.397777777778	-7.68860759494	-2.5487804878
197	0.0985	11505.7	-2.47333333333	-0.581012658228	-3.97073170732
198	0.099	11505.7	17.6244444444	5.10506329114	-2.5487804878
199	0.0995	11505.7	17.6244444444	6.52658227848	-5.39268292683
200	0.1	11505.7	-2.47333333333	7.94810126582	-3.97073170732
201	0.1005	11505.7	0.397777777778	5.10506329114	-3.97073170732
202	0.101	11505.7	0.397777777778	19.3202531646	-8.23658536585
203	0.1015	11505.7	4.70444444444	5.10506329114	-2.5487804878
204	0.102	11505.7	10.4466666667	5.10506329114	-6.81463414634
205	0.1025	11505.7	0.397777777778	7.94810126582	-6.81463414634
206	0.103	11505.7	-1.03777777778	5.10506329114	-11.0804878049
207	0.1035	11505.7	1.83333333333	5.10506329114	-11.0804878049
208	0.104	11505.7	1.83333333333	9.36962025316	-5.39268292683
209	0.1045	11505.7	-3.90888888889	0.840506329114	-5.39268292683
210	0.105	11505.7	9.01111111111	5.10506329114	-6.81463414634
211	0.1055	11505.7	1.83333333333	2.26202531646	-8.23658536585
212	0.106	11505.7	-1.03777777778	5.10506329114	-9.65853658537
213	0.1065	11505.7	0.397777777778	5.10506329114	-12.5024390244
214	0.107	11505.7	-2.47333333333	3.6835443038	-13.9243902439
215	0.1075	11505.7	-6.78	3.6835443038	-5.39268292683
216	0.108	11505.7	13.3177777778	3.6835443038	-2.5487804878
217	0.1085	11505.7	-5.34444444444	3.6835443038	-5.39268292683
218	0.109	11505.7	-1.03777777778	2.26202531646	-8.23658536585
219	0.1095	11505.7	-1.03777777778	-0.581012658228	7.40487804878
220	0.11	11505.7	1.83333333333	7.94810126582	-2.5487804878
221	0.1105	11505.7	1.83333333333	-0.581012658228	-3.97073170732
222	0.111	11505.7	-5.34444444444	3.6835443038	-5.39268292683
223	0.1115	11505.7	0.397777777778	2.26202531646	-6.81463414634
224	0.112	11505.7	-1.03777777778	-2.00253164557	-5.39268292683
225	0.1125	11505.7	-1.03777777778	2.26202531646	-12.5024390244
226	0.113	11505.7	-2.47333333333	-2.00253164557	-3.97073170732
227	0.1135	11505.7	-3.90888888889	2.26202531646	-3.97073170732
228	0.114	11505.7	-3.90888888889	2.26202531646	-2.5487804878
229	0.1145	11505.7	-2.47333333333	0.840506329114	0.29512195122
230	0.115	11505.7	-1.03777777778	3.6835443038	-3.97073170732
231	0.1155	11505.7	0.397777777778	19.3202531646	-3.97073170732
232	0.116	11505.7	-3.90888888889	17.8987341772	-2.5487804878
233	0.1165	11505.7	-11.0866666667	0.840506329114	-2.5487804878
234	0.117	11505.7	0.397777777778	3.6835443038	-3.97073170732
235	0.1175	11505.7	0.397777777778	2.26202531646	-8.23658536585
236	0.118	11505.7	-1.03777777778	5.10506329114	-6.81463414634
237	0.1185	11505.7	-2.47333333333	-0.581012658228	-2.5487804878
238	0.119	11505.7	-12.5222222222	0.840506329114	-5.39268292683
239	0.1195	11505.7	-9.65111111111	5.10506329114	-3.97073170732
240	0.12	11505.7	-1.03777777778	6.52658227848	-5.39268292683
241	0.1205	11505.7	-2.47333333333	5.10506329114	-12.5024390244
242	0.121	11505.7	-1.03777777778	2.26202531646	-8.23658536585
243	0.1215	11505.7	0.397777777778	6.52658227848	-1.12682926829
244	0.122	11505.7	-6.78	7.94810126582	-2.5487804878
245	0.1225	11505.7	-5.34444444444	6.52658227848	-2.5487804878
246	0.123	11505.7	0.397777777778	3.6835443038	-1.12682926829
247	0.1235	11505.7	0.397777777778	7.94810126582	-6.81463414634
248	0.124	11505.7	-1.03777777778	5.10506329114	-3.97073170732
249	0.1245	11505.7	0.397777777778	-0.581012658228	-6.81463414634
250	0.125	11505.7	14.7533333333	-0.581012658228	-6.81463414634
251	0.1255	11505.7	16.1888888889	-0.581012658228	-6.81463414634
252	0.126	11505.7	0.397777777778	0.840506329114	-3.97073170732
253	0.1265	11505.7	-1.03777777778	0.840506329114	11.6707317073
254	0.127	11505.7	3.26888888889	19.3202531646	-8.23658536585
255	0.1275	11505.7	4.70444444444	2.26202531646	-2.5487804878
256	0.128	11505.7	23.3666666667	-0.581012658228	-3.97073170732
257	0.1285	11505.7	-1.03777777778	-2.00253164557	-3.97073170732
258	0.129	11505.7	1.83333333333	-2.00253164557	-5.39268292683
259	0.1295	11505.7	1.83333333333	0.840506329114	0.29512195122
260	0.13	11505.7	-1.03777777778	-2.00253164557	-1.12682926829
261	0.1305	11505.7	-9.65111111111	-2.00253164557	-3.97073170732
262	0.131	11505.7	1.83333333333	-2.00253164557	-2.5487804878
263	0.1315	11505.7	1.83333333333	-0.581012658228	-6.81463414634
264	0.132	11505.7	0.397777777778	-0.581012658228	-12.5024390244
265	0.1325	11505.7	-2.47333333333	-0.581012658228	-6.81463414634
266	0.133	11505.7	-2.47333333333	-9.11012658228	-5.39268292683
267	0.1335	11505.7	-1.03777777778	0.840506329114	-5.39268292683
268	0.134	11505.7	1.83333333333	0.840506329114	-2.5487804878
269	0.1345	11505.7	3.26888888889	2.26202531646	-8.23658536585
270	0.135	11505.7	1.83333333333	3.6835443038	-5.39268292683
271	0.1355	11505.7	6.14	2.26202531646	5.98292682927
272	0.136	11505.7	6.14	5.10506329114	-1.12682926829
273	0.1365	11505.7	9.01111111111	0.840506329114	-3.97073170732
274	0.137	11505.7	0.397777777778	-0.581012658228	-3.97073170732
275	0.1375	11505.7	4.70444444444	-0.581012658228	-1.12682926829
276	0.138	11505.7	4.70444444444	-4.84556962025	13.0926829268
277	0.1385	11505.7	4.70444444444	12.2126582278	-5.39268292683
278	0.139	11505.7	0.397777777778	12.2126582278	-8.23658536585
279	0.1395	11505.7	0.397777777778	-2.00253164557	-8.23658536585
280	0.14	11505.7	4.70444444444	-2.00253164557	-6.81463414634
281	0.1405	11505.7	1.83333333333	-0.581012658228	-1.12682926829
282	0.141	11505.7	0.397777777778	0.840506329114	-6.81463414634
283	0.1415	11505.7	0.397777777778	3.6835443038	-8.23658536585
284	0.142	11505.7	-3.90888888889	0.840506329114	-3.97073170732
285	0.1425	11505.7	-5.34444444444	-0.581012658228	-2.5487804878
286	0.143	11505.7	0.397777777778	-0.581012658228	-2.5487804878
287	0.1435	11505.7	0.397777777778	-0.581012658228	-8.23658536585
288	0.144	11505.7	1.83333333333	-6.26708860759	-1.12682926829
289	0.1445	11505.7	3.26888888889	3.6835443038	0.29512195122
290	0.145	11505.7	-3.90888888889	5.10506329114	0.29512195122
291	0.1455	11505.7	0.397777777778	2.26202531646	0.29512195122
292	0.146	11505.7	0.397777777778	0.840506329114	0.29512195122
293	0.1465	11505.7	3.26888888889	6.52658227848	4.56097560976
294	0.147	11505.7	1.83333333333	17.8987341772	-3.97073170732
295	0.1475	11505.7	3.26888888889	15.0556962025	-3.97073170732
296	0.148	11505.7	-9.65111111111	2.26202531646	-2.5487804878
297	0.1485	11505.7	-8.21555555556	-0.581012658228	0.29512195122
298	0.149	11505.7	1.83333333333	2.26202531646	-2.5487804878
299	0.1495	11505.7	0.397777777778	0.840506329114	-15.3463414634
300	0.15	11505.7	0.397777777778	-9.11012658228	-3.97073170732
301	0.1505	11505.7	6.14	2.26202531646	-1.12682926829
302	0.151	11505.7	20.4955555556	0.840506329114	-3.97073170732
303	0.1515	11505.7	20.4955555556	0.840506329114	-2.5487804878
304	0.152	11505.7	-1.03777777778	0.840506329114	-1.12682926829
305	0.1525	11505.7	0.397777777778	5.10506329114	13.0926829268
306	0.153	11505.7	1.83333333333	20.7417721519	-6.81463414634
307	0.1535	11505.7	3.26888888889	-2.00253164557	-2.5487804878
308	0.154	11505.7	17.6244444444	-0.581012658228	-3.97073170732
309	0.1545	11505.7	0.397777777778	0.840506329114	-2.5487804878
310	0.155	11505.7	-1.03777777778	3.6835443038	-13.9243902439
311	0.1555	11505.7	1.83333333333	0.840506329114	-15.3463414634
312	0.156	11505.7	-1.03777777778	-10.5316455696	-1.12682926829
313	0.1565	11505.7	1.83333333333	-10.5316455696	-2.5487804878
314	0.157	11505.7	13.3177777778	-0.581012658228	-3.97073170732
315	0.1575	11505.7	0.397777777778	-0.581012658228	-3.97073170732
316	0.158	11505.7	0.397777777778	-0.581012658228	-9.65853658537
317	0.1585	11505.7	-1.03777777778	-9.11012658228	-2.5487804878
318	0.159	11505.7	1.83333333333	-0.581012658228	-3.97073170732
319	0.1595	11505.7	-11.0866666667	0.840506329114	-3.97073170732
320	0.16	11505.7	-2.47333333333	2.26202531646	-3.97073170732
321	0.1605	11505.7	1.83333333333	0.840506329114	-1.12682926829
322	0.161	11505.7	0.397777777778	-2.00253164557	7.40487804878
323	0.1615	11505.7	0.397777777778	-7.68860759494	-6.81463414634
324	0.162	11505.7	1.83333333333	-0.581012658228	-2.5487804878
325	0.1625	11505.7	19.06	-3.42405063291	-3.97073170732
326	0.163	11505.7	-1.03777777778	-2.00253164557	-2.5487804878
327	0.1635	11505.7	-2.47333333333	-6.26708860759	-2.5487804878
328	0.164	11505.7	-2.47333333333	-9.11012658228	-1.12682926829
329	0.1645	11505.7	-2.47333333333	-3.42405063291	-1.12682926829
330	0.165	11505.7	3.26888888889	-7.68860759494	-2.5487804878
331	0.1655	11505.7	-1.03777777778	-6.26708860759	-1.12682926829
332	0.166	11505.7	-1.03777777778	-9.11012658228	-1.12682926829
333	0.1665	11505.7	-1.03777777778	-7.68860759494	11.6707317073
334	0.167	11505.7	-3.90888888889	-13.3746835443	-3.97073170732
335	0.1675	11505.7	-2.47333333333	-4.84556962025	-2.5487804878
336	0.168	11505.7	-9.65111111111	-4.84556962025	-3.97073170732
337	0.1685	11505.7	0.397777777778	-0.581012658228	-1.12682926829
338	0.169	11505.7	0.397777777778	-2.00253164557	-1.12682926829
339	0.1695	11505.7	-1.03777777778	-2.00253164557	-1.12682926829
340	0.17	11505.7	0.397777777778	5.10506329114	-2.5487804878
341	0.1705	11505.7	1.83333333333	-0.581012658228	-3.97073170732
342	0.171	11505.7	16.1888888889	-2.00253164557	-3.97073170732
343	0.1715	11505.7	-2.47333333333	-0.581012658228	-2.5487804878
344	0.172	11505.7	0.397777777778	0.840506329114	-3.97073170732
345	0.1725	11505.7	0.397777777778	2.26202531646	14.5146341463
346	0.173	11505.7	0.397777777778	13.6341772152	-2.5487804878
347	0.1735	11505.7	0.397777777778	3.6835443038	-3.97073170732
348	0.174	11505.7	7.57555555556	-0.581012658228	-2.5487804878
349	0.1745	11505.7	1.83333333333	-0.581012658228	-3.97073170732
350	0.175	11505.7	0.397777777778	-0.581012658228	-2.5487804878
351	0.1755	11505.7	0.397777777778	0.840506329114	4.56097560976
352	0.176	11505.7	4.70444444444	12.2126582278	-2.5487804878
353	0.1765	11505.7	-9.65111111111	-2.00253164557	-2.5487804878
354	0.177	11505.7	-5.34444444444	3.6835443038	-2.5487804878
355	0.1775	11505.7	-5.34444444444	2.26202531646	-3.97073170732
356	0.178	11505.7	0.397777777778	-2.00253164557	-13.9243902439
357	0.1785	11505.7	1.83333333333	-2.00253164557	-8.23658536585
358	0.179	11505.7	1.83333333333	-10.5316455696	-1.12682926829
359	0.1795	11505.7	20.4955555556	-0.581012658228	-5.39268292683
360	0.18	11505.7	19.06	-3.42405063291	-5.39268292683
361	0.1805	11505.7	1.83333333333	-3.42405063291	-2.5487804878
362	0.181	11505.7	0.397777777778	-0.581012658228	14.5146341463
363	0.1815	11505.7	-1.03777777778	-2.00253164557	-3.97073170732
364	0.182	11505.7	-1.03777777778	-3.42405063291	-1.12682926829
365	0.1825	11505.7	3.26888888889	-4.84556962025	-3.97073170732
366	0.183	11505.7	-1.03777777778	-4.84556962025	-1.12682926829
367	0.1835	11505.7	-1.03777777778	0.840506329114	-2.5487804878
368	0.184	11505.7	0.397777777778	0.840506329114	-8.23658536585
369	0.1845	11505.7	0.397777777778	7.94810126582	-3.97073170732
370	0.185	11505.7	3.26888888889	-2.00253164557	-1.12682926829
371	0.1855	11505.7	-5.34444444444	-0.581012658228	-3.97073170732
372	0.186	11505.7	-2.47333333333	-0.581012658228	-3.97073170732
373	0.1865	11505.7	0.397777777778	-0.581012658228	-3.97073170732
374	0.187	11505.7	-1.03777777778	0.840506329114	-11.0804878049
375	0.1875	11505.7	0.397777777778	-7.68860759494	-1.12682926829
376	0.188	11505.7	0.397777777778	-3.42405063291	-1.12682926829
377	0.1885	11505.7	-2.47333333333	2.26202531646	-1.12682926829
378	0.189	11505.7	-2.47333333333	3.6835443038	0.29512195122
379	0.1895	11505.7	-2.47333333333	0.840506329114	0.29512195122
380	0.19	11505.7	-3.90888888889	2.26202531646	-11.0804878049
381	0.1905	11505.7	-5.34444444444	0.840506329114	-2.5487804878
382	0.191	11505.7	-3.90888888889	-0.581012658228	0.29512195122
383	0.1915	11505.7	-9.65111111111	0.840506329114	-1.12682926829
384	0.192	11505.7	-1.03777777778	3.6835443038	-1.12682926829
385	0.1925	11505.7	0.397777777778	0.840506329114	13.0926829268
386	0.193	11505.7	-1.03777777778	7.94810126582	-2.5487804878
387	0.1935	11505.7	-11.0866666667	7.94810126582	-1.12682926829
388	0.194	11505.7	13.3177777778	6.52658227848	-1.12682926829
389	0.1945	11505.7	-2.47333333333	5.10506329114	0.29512195122
390	0.195	11505.7	-6.78	9.36962025316	1.71707317073
391	0.1955	11505.7	-5.34444444444	12.2126582278	0.29512195122
392	0.196	11505.7	-1.03777777778	23.5848101266	-1.12682926829
393	0.1965	11505.7	-3.90888888889	12.2126582278	0.29512195122
394	0.197	11505.7	-9.65111111111	9.36962025316	0.29512195122
395	0.1975	11505.7	-3.90888888889	12.2126582278	0.29512195122
396	0.198	11505.7	0.397777777778	7.94810126582	8.82682926829
397	0.1985	11505.7	0.397777777778	-0.581012658228	-1.12682926829
398	0.199	11505.7	4.70444444444	9.36962025316	0.29512195122
399	0.1995	11505.7	19.06	12.2126582278	0.29512195122
400	0.2	11505.7	-2.47333333333	9.36962025316	0.29512195122
401	0.2005	11505.7	0.397777777778	12.2126582278	1.71707317073
402	0.201	11505.7	0.397777777778	3.6835443038	-5.39268292683
403	0.2015	11505.7	1.83333333333	3.6835443038	-3.97073170732
404	0.202	11505.7	-2.47333333333	7.94810126582	3.13902439024
405	0.2025	11505.7	7.57555555556	9.36962025316	-1.12682926829
406	0.203	11505.7	0.397777777778	15.0556962025	1.71707317073
407	0.2035	11505.7	-1.03777777778	15.0556962025	1.71707317073
408	0.204	11505.7	-3.90888888889	15.0556962025	-11.0804878049
409	0.2045	11505.7	-5.34444444444	0.840506329114	-3.97073170732
410	0.205	11505.7	-5.34444444444	13.6341772152	-3.97073170732
411	0.2055	11505.7	-8.21555555556	15.0556962025	-3.97073170732
412	0.206	11505.7	-2.47333333333	10.7911392405	-2.5487804878
413	0.2065	11505.7	-2.47333333333	9.36962025316	1.71707317073
414	0.207	11505.7	-5.34444444444	9.36962025316	-12.5024390244
415	0.2075	11505.7	-6.78	5.10506329114	-8.23658536585
416	0.208	11505.7	-19.7	5.10506329114	-6.81463414634
417	0.2085	11505.7	-12.5222222222	6.52658227848	-8.23658536585
418	0.209	11505.7	-6.78	5.10506329114	-11.0804878049
419	0.2095	11505.7	-2.47333333333	5.10506329114	-18.1902439024
420	0.21	11505.7	-5.34444444444	-9.11012658228	-13.9243902439
421	0.2105	11505.7	-9.65111111111	0.840506329114	-9.65853658537
422	0.211	11505.7	6.14	0.840506329114	-13.9243902439
423	0.2115	11505.7	-6.78	-0.581012658228	-18.1902439024
424	0.212	11505.7	-6.78	-0.581012658228	-22.456097561
425	0.2125	11505.7	-8.21555555556	-9.11012658228	-26.7219512195
426	0.213	11505.7	-8.21555555556	-6.26708860759	-30.987804878
427	0.2135	11505.7	-5.34444444444	-0.581012658228	-23.8780487805
428	0.214	11505.7	-5.34444444444	-0.581012658228	-28.143902439
429	0.2145	11505.7	-2.47333333333	-2.00253164557	-32.4097560976
430	0.215	11505.7	-2.47333333333	-0.581012658228	-30.987804878
431	0.2155	11505.7	-2.47333333333	-4.84556962025	-39.5195121951
432	0.216	11505.7	-8.21555555556	-11.953164557	-32.4097560976
433	0.2165	11505.7	-18.2644444444	-9.11012658228	-39.5195121951
434	0.217	11505.7	10.4466666667	-9.11012658228	-39.5195121951
435	0.2175	11505.7	-9.65111111111	-10.5316455696	-43.7853658537
436	0.218	11505.7	-6.78	-10.5316455696	-39.5195121951
437	0.2185	11505.7	-9.65111111111	-17.6392405063	-52.3170731707
438	0.219	11505.7	-6.78	-13.3746835443	-52.3170731707
439	0.2195	11505.7	-5.34444444444	-14.7962025316	-48.0512195122
440	0.22	11505.7	-12.5222222222	-14.7962025316	-49.4731707317
441	0.2205	11505.7	-5.34444444444	-13.3746835443	-50.8951219512
442	0.221	11505.7	-6.78	-13.3746835443	-49.4731707317
443	0.2215	11505.7	-3.90888888889	-14.7962025316	-52.3170731707
444	0.222	11505.7	-2.47333333333	-13.3746835443	-52.3170731707
445	0.2225	11505.7	-5.34444444444	-7.68860759494	-56.5829268293
446	0.223	11505.7	9.01111111111	-10.5316455696	-58.0048780488
447	0.2235	11505.7	-3.90888888889	-11.953164557	-52.3170731707
448	0.224	11505.7	-3.90888888889	-17.6392405063	-42.3634146341
449	0.2245	11505.7	-2.47333333333	-16.217721519	-45.2073170732
450	0.225	11505.7	-1.03777777778	-23.3253164557	-59.4268292683
451	0.2255	11505.7	1.83333333333	-16.217721519	-59.4268292683
452	0.226	11505.7	-1.03777777778	-19.0607594937	-55.1609756098
453	0.2265	11505.7	0.397777777778	-19.0607594937	-49.4731707317
454	0.227	11505.7	-1.03777777778	-17.6392405063	-49.4731707317
455	0.2275	11505.7	0.397777777778	-19.0607594937	-50.8951219512
456	0.228	11505.7	0.397777777778	-26.1683544304	-40.9414634146
457	0.2285	11505.7	0.397777777778	-31.8544303797	-36.6756097561
458	0.229	11505.7	20.4955555556	-24.746835443	-38.0975609756
459	0.2295	11505.7	1.83333333333	-27.5898734177	-32.4097560976
460	0.23	11505.7	3.26888888889	-29.0113924051	-25.3
461	0.2305	11505.7	3.26888888889	-33.2759493671	-28.143902439
462	0.231	11505.7	3.26888888889	-31.8544303797	-35.2536585366
463	0.2315	11505.7	17.6244444444	-34.6974683544	-32.4097560976
464	0.232	11505.7	0.397777777778	-36.1189873418	-30.987804878
465	0.2325	11505.7	4.70444444444	-37.5405063291	-33.8317073171
466	0.233	11505.7	7.57555555556	-38.9620253165	-38.0975609756
467	0.2335	11505.7	13.3177777778	-43.2265822785	-45.2073170732
468	0.234	11505.7	16.1888888889	-47.4911392405	-33.8317073171
469	0.2345	11505.7	17.6244444444	-46.0696202532	-33.8317073171
470	0.235	11505.7	33.4155555556	-36.1189873418	-35.2536585366
471	0.2355	11505.7	17.6244444444	-40.3835443038	-28.143902439
472	0.236	11505.7	20.4955555556	-40.3835443038	-29.5658536585
473	0.2365	11505.7	20.4955555556	-50.3341772152	-36.6756097561
474	0.237	11505.7	23.3666666667	-50.3341772152	-38.0975609756
475	0.2375	11505.7	34.8511111111	-44.6481012658	-35.2536585366
476	0.238	11505.7	23.3666666667	-41.8050632911	-32.4097560976
477	0.2385	11505.7	26.2377777778	-43.2265822785	-32.4097560976
478	0.239	11505.7	26.2377777778	-41.8050632911	-23.8780487805
479	0.2395	11505.7	27.6733333333	-41.8050632911	-21.0341463415
480	0.24	11505.7	27.6733333333	-46.0696202532	-26.7219512195
481	0.2405	11505.7	23.3666666667	-40.3835443038	-26.7219512195
482	0.241	11505.7	29.1088888889	-41.8050632911	-25.3
483	0.2415	11505.7	27.6733333333	-40.3835443038	-25.3
484	0.242	11505.7	24.8022222222	-41.8050632911	-22.456097561
485	0.2425	11505.7	27.6733333333	-38.9620253165	-25.3
486	0.243	11505.7	20.4955555556	-37.5405063291	-21.0341463415
487	0.2435	11505.7	20.4955555556	-37.5405063291	-18.1902439024
488	0.244	11505.7	7.57555555556	-36.1189873418	-18.1902439024
489	0.2445	11505.7	21.9311111111	-33.2759493671	-19.612195122
490	0.245	11505.7	20.4955555556	-31.8544303797	-15.3463414634
491	0.2455	11505.7	20.4955555556	-40.3835443038	-12.5024390244
492	0.246	11505.7	21.9311111111	-37.5405063291	-15.3463414634
493	0.2465	11505.7	21.9311111111	-30.4329113924	-13.9243902439
494	0.247	11505.7	16.1888888889	-34.6974683544	-12.5024390244
495	0.2475	11505.7	19.06	-34.6974683544	-8.23658536585
496	0.248	11505.7	17.6244444444	-37.5405063291	-8.23658536585
497	0.2485	11505.7	16.1888888889	-19.0607594937	-11.0804878049
498	0.249	11505.7	10.4466666667	-19.0607594937	-8.23658536585
499	0.2495	11505.7	0.397777777778	-33.2759493671	-3.97073170732
500	0.25	11505.7	14.7533333333	-34.6974683544	-6.81463414634
501	0.2505	11505.7	9.01111111111	-33.2759493671	-3.97073170732
502	0.251	11505.7	7.57555555556	-27.5898734177	-9.65853658537
503	0.2515	11505.7	6.14	-30.4329113924	-5.39268292683
504	0.252	11505.7	-8.21555555556	-31.8544303797	0.29512195122
505	0.2525	11505.7	-2.47333333333	-33.2759493671	-1.12682926829
506	0.253	11505.7	7.57555555556	-31.8544303797	0.29512195122
507	0.2535	11505.7	7.57555555556	-30.4329113924	4.56097560976
508	0.254	11505.7	7.57555555556	-41.8050632911	-1.12682926829
509	0.2545	11505.7	9.01111111111	-41.8050632911	-1.12682926829
510	0.255	11505.7	24.8022222222	-30.4329113924	1.71707317073
511	0.2555	11505.7	9.01111111111	-26.1683544304	3.13902439024
512	0.256	11505.7	6.14	-27.5898734177	4.56097560976
513	0.2565	11505.7	4.70444444444	-24.746835443	3.13902439024
514	0.257	11505.7	1.83333333333	-21.9037974684	-1.12682926829
515	0.2575	11505.7	1.83333333333	-26.1683544304	3.13902439024
516	0.258	11505.7	1.83333333333	-26.1683544304	3.13902439024
517	0.2585	11505.7	1.83333333333	-21.9037974684	4.56097560976
518	0.259	11505.7	4.70444444444	-17.6392405063	-2.5487804878
519	0.2595	11505.7	4.70444444444	-16.217721519	-1.12682926829
520	0.26	11505.7	1.83333333333	-17.6392405063	15.9365853659
521	0.2605	11505.7	-1.03777777778	-16.217721519	1.71707317073
522	0.261	11505.7	16.1888888889	-14.7962025316	0.29512195122
523	0.2615	11505.7	-2.47333333333	-16.217721519	0.29512195122
524	0.262	11505.7	3.26888888889	-14.7962025316	0.29512195122
525	0.2625	11505.7	0.397777777778	-16.217721519	-6.81463414634
526	0.263	11505.7	1.83333333333	-23.3253164557	4.56097560976
527	0.2635	11505.7	3.26888888889	-13.3746835443	5.98292682927
528	0.264	11505.7	3.26888888889	-13.3746835443	3.13902439024
529	0.2645	11505.7	0.397777777778	-10.5316455696	4.56097560976
530	0.265	11505.7	0.397777777778	-11.953164557	23.0463414634
531	0.2655	11505.7	0.397777777778	-11.953164557	20.2024390244
532	0.266	11505.7	1.83333333333	0.840506329114	4.56097560976
533	0.2665	11505.7	-5.34444444444	-10.5316455696	4.56097560976
534	0.267	11505.7	-6.78	-11.953164557	1.71707317073
535	0.2675	11505.7	-8.21555555556	-9.11012658228	7.40487804878
536	0.268	11505.7	1.83333333333	-10.5316455696	-5.39268292683
537	0.2685	11505.7	-1.03777777778	-19.0607594937	8.82682926829
538	0.269	11505.7	-3.90888888889	-11.953164557	5.98292682927
539	0.2695	11505.7	-15.3933333333	-4.84556962025	5.98292682927
540	0.27	11505.7	-2.47333333333	-3.42405063291	7.40487804878
541	0.2705	11505.7	0.397777777778	-3.42405063291	11.6707317073
542	0.271	11505.7	1.83333333333	-3.42405063291	23.0463414634
543	0.2715	11505.7	0.397777777778	0.840506329114	27.312195122
544	0.272	11505.7	-1.03777777778	15.0556962025	8.82682926829
545	0.2725	11505.7	-15.3933333333	-0.581012658228	5.98292682927
546	0.273	11505.7	-3.90888888889	-3.42405063291	7.40487804878
547	0.2735	11505.7	-3.90888888889	-0.581012658228	-2.5487804878
548	0.274	11505.7	-3.90888888889	-0.581012658228	1.71707317073
549	0.2745	11505.7	-3.90888888889	12.2126582278	7.40487804878
550	0.275	11505.7	-5.34444444444	-2.00253164557	7.40487804878
551	0.2755	11505.7	-2.47333333333	-2.00253164557	7.40487804878
552	0.276	11505.7	-1.03777777778	3.6835443038	8.82682926829
553	0.2765	11505.7	-3.90888888889	3.6835443038	11.6707317073
554	0.277	11505.7	-5.34444444444	5.10506329114	5.98292682927
555	0.2775	11505.7	-6.78	0.840506329114	-2.5487804878
556	0.278	11505.7	-5.34444444444	17.8987341772	5.98292682927
557	0.2785	11505.7	-12.5222222222	2.26202531646	8.82682926829
558	0.279	11505.7	-3.90888888889	0.840506329114	5.98292682927
559	0.2795	11505.7	-3.90888888889	3.6835443038	5.98292682927
560	0.28	11505.7	0.397777777778	9.36962025316	3.13902439024
561	0.2805	11505.7	-2.47333333333	7.94810126582	11.6707317073
562	0.281	11505.7	-9.65111111111	7.94810126582	13.0926829268
563	0.2815	11505.7	0.397777777778	5.10506329114	13.0926829268
564	0.282	11505.7	-2.47333333333	7.94810126582	8.82682926829
565	0.2825	11505.7	-2.47333333333	9.36962025316	0.29512195122
566	0.283	11505.7	-1.03777777778	12.2126582278	-2.5487804878
567	0.2835	11505.7	-1.03777777778	-3.42405063291	1.71707317073
568	0.284	11505.7	1.83333333333	-2.00253164557	7.40487804878
569	0.2845	11505.7	9.01111111111	9.36962025316	7.40487804878
570	0.285	11505.7	16.1888888889	9.36962025316	8.82682926829
571	0.2855	11505.7	-3.90888888889	12.2126582278	10.2487804878
572	0.286	11505.7	-5.34444444444	7.94810126582	24.4682926829
573	0.2865	11505.7	-5.34444444444	12.2126582278	8.82682926829
574	0.287	11505.7	-11.0866666667	9.36962025316	8.82682926829
575	0.2875	11505.7	-15.3933333333	9.36962025316	11.6707317073
576	0.288	11505.7	-5.34444444444	9.36962025316	7.40487804878
577	0.2885	11505.7	0.397777777778	12.2126582278	7.40487804878
578	0.289	11505.7	-3.90888888889	-2.00253164557	4.56097560976
579	0.2895	11505.7	-1.03777777778	-2.00253164557	7.40487804878
580	0.29	11505.7	3.26888888889	3.6835443038	7.40487804878
581	0.2905	11505.7	-2.47333333333	12.2126582278	13.0926829268
582	0.291	11505.7	-3.90888888889	7.94810126582	8.82682926829
583	0.2915	11505.7	-5.34444444444	7.94810126582	13.0926829268
584	0.292	11505.7	-5.34444444444	13.6341772152	3.13902439024
585	0.2925	11505.7	-6.78	9.36962025316	11.6707317073
586	0.293	11505.7	-5.34444444444	10.7911392405	8.82682926829
587	0.2935	11505.7	-2.47333333333	9.36962025316	13.0926829268
588	0.294	11505.7	-5.34444444444	12.2126582278	7.40487804878
589	0.2945	11505.7	-5.34444444444	15.0556962025	17.3585365854
590	0.295	11505.7	-1.03777777778	13.6341772152	25.8902439024
591	0.2955	11505.7	-2.47333333333	25.0063291139	8.82682926829
592	0.296	11505.7	-8.21555555556	13.6341772152	8.82682926829
593	0.2965	11505.7	-8.21555555556	13.6341772152	11.6707317073
594	0.297	11505.7	-2.47333333333	12.2126582278	7.40487804878
595	0.2975	11505.7	0.397777777778	13.6341772152	-1.12682926829
596	0.298	11505.7	-3.90888888889	3.6835443038	11.6707317073
597	0.2985	11505.7	1.83333333333	3.6835443038	11.6707317073
598	0.299	11505.7	16.1888888889	16.4772151899	11.6707317073
599	0.2995	11505.7	16.1888888889	15.0556962025	7.40487804878
600	0.3	11505.7	-2.47333333333	17.8987341772	24.4682926829
601	0.3005	11505.7	-2.47333333333	19.3202531646	18.7804878049
602	0.301	11505.7	-1.03777777778	20.7417721519	3.13902439024
603	0.3015	11505.7	-1.03777777778	15.0556962025	7.40487804878
604	0.302	11505.7	-9.65111111111	19.3202531646	5.98292682927
605	0.3025	11505.7	-2.47333333333	16.4772151899	11.6707317073
606	0.303	11505.7	0.397777777778	19.3202531646	3.13902439024
607	0.3035	11505.7	-3.90888888889	16.4772151899	21.6243902439
608	0.304	11505.7	0.397777777778	12.2126582278	7.40487804878
609	0.3045	11505.7	-5.34444444444	15.0556962025	8.82682926829
610	0.305	11505.7	-6.78	17.8987341772	7.40487804878
611	0.3055	11505.7	-2.47333333333	13.6341772152	8.82682926829
612	0.306	11505.7	-2.47333333333	16.4772151899	17.3585365854
613	0.3065	11505.7	-2.47333333333	16.4772151899	10.2487804878
614	0.307	11505.7	-2.47333333333	12.2126582278	8.82682926829
615	0.3075	11505.7	-1.03777777778	12.2126582278	7.40487804878
616	0.308	11505.7	1.83333333333	15.0556962025	5.98292682927
617	0.3085	11505.7	3.26888888889	17.8987341772	5.98292682927
618	0.309	11505.7	-2.47333333333	13.6341772152	15.9365853659
619	0.3095	11505.7	-2.47333333333	13.6341772152	5.98292682927
620	0.31	11505.7	-3.90888888889	25.0063291139	7.40487804878
621	0.3105	11505.7	-2.47333333333	22.1632911392	7.40487804878
622	0.311	11505.7	-11.0866666667	12.2126582278	4.56097560976
623	0.3115	11505.7	-8.21555555556	13.6341772152	8.82682926829
624	0.312	11505.7	-5.34444444444	15.0556962025	8.82682926829
625	0.3125	11505.7	-3.90888888889	16.4772151899	5.98292682927
626	0.313	11505.7	-8.21555555556	7.94810126582	4.56097560976
627	0.3135	11505.7	-19.7	13.6341772152	7.40487804878
628	0.314	11505.7	-5.34444444444	15.0556962025	5.98292682927
629	0.3145	11505.7	-6.78	16.4772151899	7.40487804878
630	0.315	11505.7	-3.90888888889	16.4772151899	7.40487804878
631	0.3155	11505.7	-6.78	15.0556962025	-1.12682926829
632	0.316	11505.7	-6.78	16.4772151899	8.82682926829
633	0.3165	11505.7	-6.78	16.4772151899	7.40487804878
634	0.317	11505.7	-9.65111111111	15.0556962025	7.40487804878
635	0.3175	11505.7	-3.90888888889	16.4772151899	14.5146341463
636	0.318	11505.7	-2.47333333333	12.2126582278	1.71707317073
637	0.3185	11505.7	0.397777777778	22.1632911392	11.6707317073
638	0.319	11505.7	-1.03777777778	25.0063291139	7.40487804878
639	0.3195	11505.7	0.397777777778	20.7417721519	7.40487804878
640	0.32	11505.7	-3.90888888889	19.3202531646	8.82682926829
641	0.3205	11505.7	0.397777777778	23.5848101266	15.9365853659
642	0.321	11505.7	-1.03777777778	22.1632911392	1.71707317073
643	0.3215	11505.7	0.397777777778	22.1632911392	1.71707317073
644	0.322	11505.7	-11.0866666667	22.1632911392	4.56097560976
645	0.3225	11505.7	-6.78	23.5848101266	5.98292682927
646	0.323	11505.7	-2.47333333333	20.7417721519	5.98292682927
647	0.3235	11505.7	-3.90888888889	23.5848101266	-1.12682926829
648	0.324	11505.7	-5.34444444444	7.94810126582	5.98292682927
649	0.3245	11505.7	-2.47333333333	12.2126582278	8.82682926829
650	0.325	11505.7	-12.5222222222	19.3202531646	7.40487804878
651	0.3255	11505.7	14.7533333333	19.3202531646	11.6707317073
652	0.326	11505.7	-2.47333333333	17.8987341772	8.82682926829
653	0.3265	11505.7	0.397777777778	16.4772151899	20.2024390244
654	0.327	11505.7	0.397777777778	6.52658227848	5.98292682927
655	0.3275	11505.7	-3.90888888889	0.840506329114	4.56097560976
656	0.328	11505.7	16.1888888889	15.0556962025	7.40487804878
657	0.3285	11505.7	-5.34444444444	13.6341772152	8.82682926829
658	0.329	11505.7	-1.03777777778	13.6341772152	8.82682926829
659	0.3295	11505.7	-3.90888888889	6.52658227848	11.6707317073
660	0.33	11505.7	-3.90888888889	19.3202531646	10.2487804878
661	0.3305	11505.7	-1.03777777778	5.10506329114	8.82682926829
662	0.331	11505.7	6.14	5.10506329114	5.98292682927
663	0.3315	11505.7	7.57555555556	0.840506329114	4.56097560976
664	0.332	11505.7	-2.47333333333	3.6835443038	7.40487804878
665	0.3325	11505.7	-3.90888888889	6.52658227848	-2.5487804878
666	0.333	11505.7	-2.47333333333	17.8987341772	4.56097560976
667	0.3335	11505.7	-1.03777777778	2.26202531646	4.56097560976
668	0.334	11505.7	-9.65111111111	2.26202531646	4.56097560976
669	0.3345	11505.7	0.397777777778	6.52658227848	4.56097560976
670	0.335	11505.7	-2.47333333333	3.6835443038	-5.39268292683
671	0.3355	11505.7	-2.47333333333	3.6835443038	-3.97073170732
672	0.336	11505.7	-1.03777777778	16.4772151899	5.98292682927
673	0.3365	11505.7	0.397777777778	19.3202531646	5.98292682927
674	0.337	11505.7	-12.5222222222	9.36962025316	4.56097560976
675	0.3375	11505.7	-3.90888888889	9.36962025316	7.40487804878
676	0.338	11505.7	-1.03777777778	15.0556962025	3.13902439024
677	0.3385	11505.7	-1.03777777778	9.36962025316	14.5146341463
678	0.339	11505.7	-1.03777777778	20.7417721519	4.56097560976
679	0.3395	11505.7	-6.78	13.6341772152	1.71707317073
680	0.34	11505.7	1.83333333333	13.6341772152	3.13902439024
681	0.3405	11505.7	0.397777777778	15.0556962025	3.13902439024
682	0.341	11505.7	0.397777777778	12.2126582278	4.56097560976
683	0.3415	11505.7	0.397777777778	16.4772151899	18.7804878049
684	0.342	11505.7	-2.47333333333	6.52658227848	5.98292682927
685	0.3425	11505.7	-1.03777777778	9.36962025316	5.98292682927
686	0.343	11505.7	-2.47333333333	12.2126582278	3.13902439024
687	0.3435	11505.7	-2.47333333333	10.7911392405	1.71707317073
688	0.344	11505.7	-1.03777777778	13.6341772152	-2.5487804878
689	0.3445	11505.7	1.83333333333	5.10506329114	4.56097560976
690	0.345	11505.7	3.26888888889	6.52658227848	7.40487804878
691	0.3455	11505.7	20.4955555556	16.4772151899	7.40487804878
692	0.346	11505.7	19.06	19.3202531646	11.6707317073
693	0.3465	11505.7	-1.03777777778	17.8987341772	11.6707317073
694	0.347	11505.7	0.397777777778	20.7417721519	3.13902439024
695	0.3475	11505.7	-1.03777777778	22.1632911392	0.29512195122
696	0.348	11505.7	3.26888888889	17.8987341772	5.98292682927
697	0.3485	11505.7	0.397777777778	19.3202531646	7.40487804878
698	0.349	11505.7	4.70444444444	20.7417721519	4.56097560976
699	0.3495	11505.7	0.397777777778	19.3202531646	4.56097560976
700	0.35	11505.7	1.83333333333	7.94810126582	3.13902439024
701	0.3505	11505.7	0.397777777778	20.7417721519	1.71707317073
702	0.351	11505.7	-6.78	22.1632911392	4.56097560976
703	0.3515	11505.7	-2.47333333333	17.8987341772	4.56097560976
704	0.352	11505.7	-5.34444444444	17.8987341772	4.56097560976
705	0.3525	11505.7	-3.90888888889	16.4772151899	5.98292682927
706	0.353	11505.7	-2.47333333333	19.3202531646	3.13902439024
707	0.3535	11505.7	0.397777777778	22.1632911392	4.56097560976
708	0.354	11505.7	-11.0866666667	9.36962025316	4.56097560976
709	0.3545	11505.7	4.70444444444	16.4772151899	4.56097560976
710	0.355	11505.7	10.4466666667	15.0556962025	5.98292682927
711	0.3555	11505.7	-2.47333333333	16.4772151899	8.82682926829
712	0.356	11505.7	0.397777777778	19.3202531646	5.98292682927
713	0.3565	11505.7	0.397777777778	27.8493670886	4.56097560976
714	0.357	11505.7	0.397777777778	13.6341772152	8.82682926829
715	0.3575	11505.7	-6.78	17.8987341772	10.2487804878
716	0.358	11505.7	-2.47333333333	16.4772151899	4.56097560976
717	0.3585	11505.7	-3.90888888889	13.6341772152	3.13902439024
718	0.359	11505.7	-5.34444444444	13.6341772152	-3.97073170732
719	0.3595	11505.7	-3.90888888889	3.6835443038	3.13902439024
720	0.36	11505.7	1.83333333333	13.6341772152	3.13902439024
721	0.3605	11505.7	0.397777777778	12.2126582278	4.56097560976
722	0.361	11505.7	0.397777777778	7.94810126582	7.40487804878
723	0.3615	11505.7	-2.47333333333	10.7911392405	17.3585365854
724	0.362	11505.7	-2.47333333333	15.0556962025	11.6707317073
725	0.3625	11505.7	-2.47333333333	19.3202531646	3.13902439024
726	0.363	11505.7	-11.0866666667	6.52658227848	4.56097560976
727	0.3635	11505.7	-3.90888888889	12.2126582278	4.56097560976
728	0.364	11505.7	1.83333333333	15.0556962025	3.13902439024
729	0.3645	11505.7	-3.90888888889	13.6341772152	4.56097560976
730	0.365	11505.7	-2.47333333333	12.2126582278	20.2024390244
731	0.3655	11505.7	-2.47333333333	26.4278481013	3.13902439024
732	0.366	11505.7	-6.78	13.6341772152	3.13902439024
733	0.3665	11505.7	-9.65111111111	9.36962025316	3.13902439024
734	0.367	11505.7	-11.0866666667	12.2126582278	5.98292682927
735	0.3675	11505.7	-2.47333333333	9.36962025316	-1.12682926829
736	0.368	11505.7	-2.47333333333	16.4772151899	-2.5487804878
737	0.3685	11505.7	-5.34444444444	0.840506329114	11.6707317073
738	0.369	11505.7	-13.9577777778	13.6341772152	11.6707317073
739	0.3695	11505.7	-12.5222222222	17.8987341772	7.40487804878
740	0.37	11505.7	-2.47333333333	13.6341772152	8.82682926829
741	0.3705	11505.7	-2.47333333333	16.4772151899	11.6707317073
742	0.371	11505.7	-5.34444444444	17.8987341772	5.98292682927
743	0.3715	11505.7	-6.78	30.6924050633	8.82682926829
744	0.372	11505.7	-18.2644444444	15.0556962025	7.40487804878
745	0.3725	11505.7	-16.8288888889	13.6341772152	7.40487804878
746	0.373	11505.7	-6.78	15.0556962025	1.71707317073
747	0.3735	11505.7	-6.78	12.2126582278	-1.12682926829
748	0.374	11505.7	-3.90888888889	5.10506329114	5.98292682927
749	0.3745	11505.7	-5.34444444444	7.94810126582	10.2487804878
750	0.375	11505.7	6.14	7.94810126582	8.82682926829
751	0.3755	11505.7	-9.65111111111	5.10506329114	7.40487804878
752	0.376	11505.7	-1.03777777778	5.10506329114	13.0926829268
753	0.3765	11505.7	-3.90888888889	3.6835443038	7.40487804878
754	0.377	11505.7	-1.03777777778	7.94810126582	14.5146341463
755	0.3775	11505.7	-3.90888888889	5.10506329114	8.82682926829
756	0.378	11505.7	-5.34444444444	5.10506329114	4.56097560976
757	0.3785	11505.7	-3.90888888889	2.26202531646	1.71707317073
758	0.379	11505.7	-3.90888888889	3.6835443038	4.56097560976
759	0.3795	11505.7	-2.47333333333	3.6835443038	3.13902439024
760	0.38	11505.7	-5.34444444444	-0.581012658228	4.56097560976
761	0.3805	11505.7	-8.21555555556	5.10506329114	3.13902439024
762	0.381	11505.7	4.70444444444	5.10506329114	4.56097560976
763	0.3815	11505.7	1.83333333333	6.52658227848	5.98292682927
764	0.382	11505.7	-5.34444444444	5.10506329114	4.56097560976
765	0.3825	11505.7	-3.90888888889	0.840506329114	18.7804878049
766	0.383	11505.7	-2.47333333333	2.26202531646	4.56097560976
767	0.3835	11505.7	-2.47333333333	3.6835443038	7.40487804878
768	0.384	11505.7	-5.34444444444	6.52658227848	5.98292682927
769	0.3845	11505.7	-2.47333333333	5.10506329114	4.56097560976
770	0.385	11505.7	-1.03777777778	3.6835443038	4.56097560976
771	0.3855	11505.7	-1.03777777778	-0.581012658228	-1.12682926829
772	0.386	11505.7	-3.90888888889	-0.581012658228	7.40487804878
773	0.3865	11505.7	-12.5222222222	6.52658227848	10.2487804878
774	0.387	11505.7	-2.47333333333	7.94810126582	4.56097560976
775	0.3875	11505.7	-3.90888888889	2.26202531646	4.56097560976
776	0.388	11505.7	-5.34444444444	0.840506329114	-8.23658536585
777	0.3885	11505.7	-6.78	-6.26708860759	4.56097560976
778	0.389	11505.7	-8.21555555556	2.26202531646	4.56097560976
779	0.3895	11505.7	3.26888888889	3.6835443038	4.56097560976
780	0.39	11505.7	-5.34444444444	5.10506329114	4.56097560976
781	0.3905	11505.7	-6.78	5.10506329114	4.56097560976
782	0.391	11505.7	-6.78	-3.42405063291	1.71707317073
783	0.3915	11505.7	-8.21555555556	-0.581012658228	1.71707317073
784	0.392	11505.7	-5.34444444444	6.52658227848	3.13902439024
785	0.3925	11505.7	-11.0866666667	9.36962025316	7.40487804878
786	0.393	11505.7	-11.0866666667	6.52658227848	3.13902439024
787	0.3935	11505.7	-6.78	7.94810126582	4.56097560976
788	0.394	11505.7	-5.34444444444	6.52658227848	0.29512195122
789	0.3945	11505.7	-6.78	2.26202531646	8.82682926829
790	0.395	11505.7	-11.0866666667	0.840506329114	8.82682926829
791	0.3955	11505.7	4.70444444444	6.52658227848	4.56097560976
792	0.396	11505.7	-6.78	6.52658227848	3.13902439024
793	0.3965	11505.7	-5.34444444444	9.36962025316	7.40487804878
794	0.397	11505.7	-2.47333333333	7.94810126582	24.4682926829
795	0.3975	11505.7	-5.34444444444	25.0063291139	8.82682926829
796	0.398	11505.7	-2.47333333333	13.6341772152	8.82682926829
797	0.3985	11505.7	-12.5222222222	12.2126582278	8.82682926829
798	0.399	11505.7	-11.0866666667	13.6341772152	7.40487804878
799	0.3995	11505.7	-5.34444444444	7.94810126582	-3.97073170732
800	0.4	11505.7	-5.34444444444	2.26202531646	5.98292682927
801	0.4005	11505.7	-9.65111111111	2.26202531646	8.82682926829
802	0.401	11505.7	9.01111111111	9.36962025316	7.40487804878
803	0.4015	11505.7	6.14	12.2126582278	4.56097560976
804	0.402	11505.7	-5.34444444444	16.4772151899	8.82682926829
805	0.4025	11505.7	-3.90888888889	17.8987341772	-1.12682926829
806	0.403	11505.7	-1.03777777778	26.4278481013	5.98292682927
807	0.4035	11505.7	-3.90888888889	15.0556962025	8.82682926829
808	0.404	11505.7	-8.21555555556	16.4772151899	5.98292682927
809	0.4045	11505.7	-3.90888888889	15.0556962025	7.40487804878
810	0.405	11505.7	-3.90888888889	16.4772151899	5.98292682927
811	0.4055	11505.7	-5.34444444444	15.0556962025	4.56097560976
812	0.406	11505.7	-5.34444444444	5.10506329114	7.40487804878
813	0.4065	11505.7	-2.47333333333	15.0556962025	5.98292682927
814	0.407	11505.7	10.4466666667	16.4772151899	7.40487804878
815	0.4075	11505.7	-5.34444444444	17.8987341772	8.82682926829
816	0.408	11505.7	-5.34444444444	16.4772151899	7.40487804878
817	0.4085	11505.7	-6.78	9.36962025316	1.71707317073
818	0.409	11505.7	-6.78	15.0556962025	-1.12682926829
819	0.4095	11505.7	-13.9577777778	16.4772151899	7.40487804878
820	0.41	11505.7	-13.9577777778	15.0556962025	7.40487804878
821	0.4105	11505.7	-12.5222222222	15.0556962025	5.98292682927
822	0.411	11505.7	-6.78	17.8987341772	-5.39268292683
823	0.4115	11505.7	-5.34444444444	19.3202531646	-3.97073170732
824	0.412	11505.7	-11.0866666667	5.10506329114	8.82682926829
825	0.4125	11505.7	-3.90888888889	5.10506329114	7.40487804878
826	0.413	11505.7	4.70444444444	9.36962025316	5.98292682927
827	0.4135	11505.7	-9.65111111111	16.4772151899	4.56097560976
828	0.414	11505.7	-8.21555555556	16.4772151899	4.56097560976
829	0.4145	11505.7	-5.34444444444	22.1632911392	4.56097560976
830	0.415	11505.7	-8.21555555556	15.0556962025	7.40487804878
831	0.4155	11505.7	-8.21555555556	15.0556962025	5.98292682927
832	0.416	11505.7	-6.78	9.36962025316	4.56097560976
833	0.4165	11505.7	-5.34444444444	9.36962025316	5.98292682927
834	0.417	11505.7	-3.90888888889	6.52658227848	-2.5487804878
835	0.4175	11505.7	-1.03777777778	3.6835443038	4.56097560976
836	0.418	11505.7	-5.34444444444	9.36962025316	7.40487804878
837	0.4185	11505.7	3.26888888889	9.36962025316	4.56097560976
838	0.419	11505.7	-2.47333333333	7.94810126582	4.56097560976
839	0.4195	11505.7	-3.90888888889	12.2126582278	7.40487804878
840	0.42	11505.7	-5.34444444444	13.6341772152	4.56097560976
841	0.4205	11505.7	-5.34444444444	15.0556962025	5.98292682927
842	0.421	11505.7	-9.65111111111	12.2126582278	5.98292682927
843	0.4215	11505.7	-9.65111111111	12.2126582278	4.56097560976
844	0.422	11505.7	-3.90888888889	15.0556962025	7.40487804878
845	0.4225	11505.7	-3.90888888889	15.0556962025	7.40487804878
846	0.423	11505.7	-6.78	13.6341772152	21.6243902439
847	0.4235	11505.7	-6.78	16.4772151899	5.98292682927
848	0.424	11505.7	-6.78	26.4278481013	4.56097560976
849	0.4245	11505.7	-12.5222222222	15.0556962025	3.13902439024
850	0.425	11505.7	-9.65111111111	12.2126582278	5.98292682927
851	0.4255	11505.7	-8.21555555556	12.2126582278	5.98292682927
852	0.426	11505.7	-6.78	3.6835443038	5.98292682927
853	0.4265	11505.7	-6.78	0.840506329114	1.71707317073
854	0.427	11505.7	-5.34444444444	9.36962025316	5.98292682927
855	0.4275	11505.7	-9.65111111111	12.2126582278	4.56097560976
856	0.428	11505.7	-5.34444444444	9.36962025316	4.56097560976
857	0.4285	11505.7	-5.34444444444	12.2126582278	11.6707317073
858	0.429	11505.7	-3.90888888889	17.8987341772	-1.12682926829
859	0.4295	11505.7	-6.78	12.2126582278	4.56097560976
860	0.43	11505.7	-6.78	6.52658227848	5.98292682927
861	0.4305	11505.7	-15.3933333333	7.94810126582	5.98292682927
862	0.431	11505.7	-5.34444444444	9.36962025316	-5.39268292683
863	0.4315	11505.7	-9.65111111111	9.36962025316	-2.5487804878
864	0.432	11505.7	-5.34444444444	9.36962025316	-1.12682926829
865	0.4325	11505.7	-8.21555555556	3.6835443038	4.56097560976
866	0.433	11505.7	-13.9577777778	3.6835443038	7.40487804878
867	0.4335	11505.7	-6.78	2.26202531646	4.56097560976
868	0.434	11505.7	-6.78	2.26202531646	-2.5487804878
869	0.4345	11505.7	-5.34444444444	5.10506329114	-2.5487804878
870	0.435	11505.7	-5.34444444444	5.10506329114	-1.12682926829
871	0.4355	11505.7	-15.3933333333	5.10506329114	1.71707317073
872	0.436	11505.7	-11.0866666667	3.6835443038	4.56097560976
873	0.4365	11505.7	-8.21555555556	5.10506329114	1.71707317073
874	0.437	11505.7	-6.78	5.10506329114	3.13902439024
875	0.4375	11505.7	-5.34444444444	-2.00253164557	-2.5487804878
876	0.438	11505.7	-6.78	5.10506329114	-1.12682926829
877	0.4385	11505.7	3.26888888889	9.36962025316	0.29512195122
878	0.439	11505.7	-11.0866666667	9.36962025316	3.13902439024
879	0.4395	11505.7	-5.34444444444	12.2126582278	1.71707317073
880	0.44	11505.7	-6.78	16.4772151899	-6.81463414634
881	0.4405	11505.7	-6.78	29.2708860759	3.13902439024
882	0.441	11505.7	-6.78	27.8493670886	1.71707317073
883	0.4415	11505.7	-11.0866666667	15.0556962025	3.13902439024
884	0.442	11505.7	-13.9577777778	16.4772151899	1.71707317073
885	0.4425	11505.7	-6.78	15.0556962025	-1.12682926829
886	0.443	11505.7	-6.78	3.6835443038	-5.39268292683
887	0.4435	11505.7	-6.78	5.10506329114	-8.23658536585
888	0.444	11505.7	-9.65111111111	6.52658227848	1.71707317073
889	0.4445	11505.7	-6.78	7.94810126582	-1.12682926829
890	0.445	11505.7	-5.34444444444	9.36962025316	-1.12682926829
891	0.4455	11505.7	-1.03777777778	7.94810126582	-6.81463414634
892	0.446	11505.7	-3.90888888889	6.52658227848	-3.97073170732
893	0.4465	11505.7	-3.90888888889	13.6341772152	-1.12682926829
894	0.447	11505.7	-3.90888888889	7.94810126582	0.29512195122
895	0.4475	11505.7	-9.65111111111	7.94810126582	0.29512195122
896	0.448	11505.7	-2.47333333333	7.94810126582	-3.97073170732
897	0.4485	11505.7	-3.90888888889	2.26202531646	-2.5487804878
898	0.449	11505.7	-6.78	-2.00253164557	-6.81463414634
899	0.4495	11505.7	-2.47333333333	-0.581012658228	1.71707317073
900	0.45	11505.7	10.4466666667	2.26202531646	-1.12682926829
901	0.4505	11505.7	-5.34444444444	3.6835443038	0.29512195122
902	0.451	11505.7	-2.47333333333	5.10506329114	0.29512195122
903	0.4515	11505.7	-5.34444444444	6.52658227848	0.29512195122
904	0.452	11505.7	-1.03777777778	16.4772151899	-2.5487804878
905	0.4525	11505.7	-1.03777777778	0.840506329114	-1.12682926829
906	0.453	11505.7	-12.5222222222	0.840506329114	0.29512195122
907	0.4535	11505.7	0.397777777778	3.6835443038	-1.12682926829
908	0.454	11505.7	-3.90888888889	5.10506329114	0.29512195122
909	0.4545	11505.7	-2.47333333333	5.10506329114	11.6707317073
910	0.455	11505.7	-2.47333333333	5.10506329114	11.6707317073
911	0.4555	11505.7	-1.03777777778	5.10506329114	-2.5487804878
912	0.456	11505.7	-2.47333333333	3.6835443038	-2.5487804878
913	0.4565	11505.7	-9.65111111111	3.6835443038	-2.5487804878
914	0.457	11505.7	-2.47333333333	2.26202531646	-1.12682926829
915	0.4575	11505.7	-3.90888888889	-3.42405063291	-8.23658536585
916	0.458	11505.7	-2.47333333333	-4.84556962025	-6.81463414634
917	0.4585	11505.7	0.397777777778	5.10506329114	-2.5487804878
918	0.459	11505.7	16.1888888889	2.26202531646	-5.39268292683
919	0.4595	11505.7	-3.90888888889	3.6835443038	-3.97073170732
920	0.46	11505.7	-3.90888888889	7.94810126582	11.6707317073
921	0.4605	11505.7	-3.90888888889	9.36962025316	-6.81463414634
922	0.461	11505.7	-1.03777777778	25.0063291139	-6.81463414634
923	0.4615	11505.7	-3.90888888889	13.6341772152	-3.97073170732
924	0.462	11505.7	-8.21555555556	15.0556962025	-5.39268292683
925	0.4625	11505.7	-8.21555555556	9.36962025316	-5.39268292683
926	0.463	11505.7	-1.03777777778	7.94810126582	-11.0804878049
927	0.4635	11505.7	0.397777777778	13.6341772152	-12.5024390244
928	0.464	11505.7	-1.03777777778	5.10506329114	-6.81463414634
929	0.4645	11505.7	7.57555555556	6.52658227848	-8.23658536585
930	0.465	11505.7	-5.34444444444	12.2126582278	-5.39268292683
931	0.4655	11505.7	-1.03777777778	12.2126582278	-6.81463414634
932	0.466	11505.7	0.397777777778	16.4772151899	-11.0804878049
933	0.4665	11505.7	-1.03777777778	2.26202531646	-8.23658536585
934	0.467	11505.7	1.83333333333	6.52658227848	-3.97073170732
935	0.4675	11505.7	17.6244444444	15.0556962025	-1.12682926829
936	0.468	11505.7	19.06	9.36962025316	0.29512195122
937	0.4685	11505.7	0.397777777778	7.94810126582	18.7804878049
938	0.469	11505.7	-1.03777777778	12.2126582278	17.3585365854
939	0.4695	11505.7	1.83333333333	25.0063291139	-1.12682926829
940	0.47	11505.7	6.14	7.94810126582	-1.12682926829
941	0.4705	11505.7	-6.78	7.94810126582	-2.5487804878
942	0.471	11505.7	-6.78	7.94810126582	-5.39268292683
943	0.4715	11505.7	1.83333333333	6.52658227848	-5.39268292683
944	0.472	11505.7	1.83333333333	6.52658227848	11.6707317073
945	0.4725	11505.7	1.83333333333	17.8987341772	-5.39268292683
946	0.473	11505.7	-5.34444444444	3.6835443038	-3.97073170732
947	0.4735	11505.7	-2.47333333333	3.6835443038	-3.97073170732
948	0.474	11505.7	0.397777777778	0.840506329114	-1.12682926829
949	0.4745	11505.7	-1.03777777778	0.840506329114	11.6707317073
950	0.475	11505.7	0.397777777778	-2.00253164557	7.40487804878
951	0.4755	11505.7	1.83333333333	2.26202531646	-3.97073170732
952	0.476	11505.7	19.06	-0.581012658228	-3.97073170732
953	0.4765	11505.7	-3.90888888889	-0.581012658228	-1.12682926829
954	0.477	11505.7	-3.90888888889	2.26202531646	-3.97073170732
955	0.4775	11505.7	-1.03777777778	5.10506329114	-11.0804878049
956	0.478	11505.7	-1.03777777778	6.52658227848	-11.0804878049
957	0.4785	11505.7	-5.34444444444	2.26202531646	-5.39268292683
958	0.479	11505.7	-8.21555555556	3.6835443038	-5.39268292683
959	0.4795	11505.7	-1.03777777778	2.26202531646	-5.39268292683
960	0.48	11505.7	-1.03777777778	0.840506329114	-15.3463414634
961	0.4805	11505.7	0.397777777778	-0.581012658228	-13.9243902439
962	0.481	11505.7	3.26888888889	-7.68860759494	-2.5487804878
963	0.4815	11505.7	1.83333333333	-6.26708860759	-2.5487804878
964	0.482	11505.7	17.6244444444	-0.581012658228	-5.39268292683
965	0.4825	11505.7	1.83333333333	0.840506329114	-1.12682926829
966	0.483	11505.7	1.83333333333	-2.00253164557	0.29512195122
967	0.4835	11505.7	1.83333333333	-0.581012658228	5.98292682927
968	0.484	11505.7	0.397777777778	-0.581012658228	-6.81463414634
969	0.4845	11505.7	0.397777777778	-3.42405063291	-5.39268292683
970	0.485	11505.7	-2.47333333333	-3.42405063291	-3.97073170732
971	0.4855	11505.7	-1.03777777778	-3.42405063291	-2.5487804878
972	0.486	11505.7	3.26888888889	-3.42405063291	-6.81463414634
973	0.4865	11505.7	3.26888888889	-6.26708860759	-11.0804878049
974	0.487	11505.7	3.26888888889	-10.5316455696	-5.39268292683
975	0.4875	11505.7	1.83333333333	-7.68860759494	-5.39268292683
976	0.488	11505.7	0.397777777778	-2.00253164557	-2.5487804878
977	0.4885	11505.7	0.397777777778	-0.581012658228	-1.12682926829
978	0.489	11505.7	0.397777777778	5.10506329114	-3.97073170732
979	0.4895	11505.7	1.83333333333	7.94810126582	-3.97073170732
980	0.49	11505.7	3.26888888889	5.10506329114	-6.81463414634
981	0.4905	11505.7	-8.21555555556	-2.00253164557	-2.5487804878
982	0.491	11505.7	1.83333333333	-3.42405063291	-2.5487804878
983	0.4915	11505.7	3.26888888889	-3.42405063291	-12.5024390244
984	0.492	11505.7	1.83333333333	-2.00253164557	-1.12682926829
985	0.4925	11505.7	3.26888888889	-0.581012658228	3.13902439024
986	0.493	11505.7	1.83333333333	-7.68860759494	-5.39268292683
987	0.4935	11505.7	-6.78	-4.84556962025	-3.97073170732
988	0.494	11505.7	1.83333333333	-3.42405063291	-6.81463414634
989	0.4945	11505.7	1.83333333333	-3.42405063291	-12.5024390244
990	0.495	11505.7	1.83333333333	-0.581012658228	-13.9243902439
991	0.4955	11505.7	4.70444444444	7.94810126582	-5.39268292683
992	0.496	11505.7	6.14	9.36962025316	-5.39268292683
993	0.4965	11505.7	20.4955555556	-4.84556962025	-6.81463414634
994	0.497	11505.7	0.397777777778	-2.00253164557	-6.81463414634
995	0.4975	11505.7	3.26888888889	-3.42405063291	-3.97073170732
996	0.498	11505.7	0.397777777778	-0.581012658228	-3.97073170732
997	0.4985	11505.7	4.70444444444	12.2126582278	-5.39268292683
998	0.499	11505.7	-8.21555555556	-3.42405063291	-1.12682926829
999	0.4995	11505.7	-11.0866666667	-4.84556962025	-3.97073170732
1000	0.5	11505.7	1.83333333333	-2.00253164557	-3.97073170732
1001	0.5005	11505.7	0.397777777778	-4.84556962025	-9.65853658537
1002	0.501	11505.7	0.397777777778	-11.953164557	-6.81463414634
1003	0.5015	11505.7	-1.03777777778	-2.00253164557	-8.23658536585
1004	0.502	11505.7	-11.0866666667	-0.581012658228	-3.97073170732
1005	0.5025	11505.7	1.83333333333	0.840506329114	-6.81463414634
1006	0.503	11505.7	0.397777777778	0.840506329114	-6.81463414634
1007	0.5035	11505.7	3.26888888889	-2.00253164557	8.82682926829
1008	0.504	11505.7	3.26888888889	-0.581012658228	4.56097560976
1009	0.5045	11505.7	6.14	-0.581012658228	-8.23658536585
1010	0.505	11505.7	21.9311111111	-3.42405063291	-5.39268292683
1011	0.5055	11505.7	0.397777777778	-0.581012658228	-6.81463414634
1012	0.506	11505.7	4.70444444444	0.840506329114	-3.97073170732
1013	0.5065	11505.7	0.397777777778	0.840506329114	4.56097560976
1014	0.507	11505.7	0.397777777778	19.3202531646	-6.81463414634
1015	0.5075	11505.7	4.70444444444	17.8987341772	-8.23658536585
1016	0.508	11505.7	-6.78	-2.00253164557	-9.65853658537
1017	0.5085	11505.7	1.83333333333	0.840506329114	-6.81463414634
1018	0.509	11505.7	4.70444444444	0.840506329114	-9.65853658537
1019	0.5095	11505.7	3.26888888889	0.840506329114	-15.3463414634
1020	0.51	11505.7	4.70444444444	-11.953164557	-9.65853658537
1021	0.5105	11505.7	9.01111111111	-0.581012658228	-6.81463414634
1022	0.511	11505.7	21.9311111111	-0.581012658228	-6.81463414634
1023	0.5115	11505.7	20.4955555556	-3.42405063291	-6.81463414634
1024	0.512	11505.7	4.70444444444	0.840506329114	-3.97073170732
1025	0.5125	11505.7	1.83333333333	-0.581012658228	1.71707317073
1026	0.513	11505.7	1.83333333333	0.840506329114	-3.97073170732
1027	0.5135	11505.7	-9.65111111111	-2.00253164557	-5.39268292683
1028	0.514	11505.7	1.83333333333	-3.42405063291	-6.81463414634
1029	0.5145	11505.7	3.26888888889	-0.581012658228	-5.39268292683
1030	0.515	11505.7	0.397777777778	-2.00253164557	-3.97073170732
1031	0.5155	11505.7	1.83333333333	-10.5316455696	-11.0804878049
1032	0.516	11505.7	1.83333333333	-9.11012658228	-13.9243902439
1033	0.5165	11505.7	3.26888888889	-6.26708860759	-8.23658536585
1034	0.517	11505.7	-2.47333333333	-6.26708860759	-6.81463414634
1035	0.5175	11505.7	1.83333333333	-4.84556962025	-6.81463414634
1036	0.518	11505.7	3.26888888889	-7.68860759494	-15.3463414634
1037	0.5185	11505.7	3.26888888889	-14.7962025316	-13.9243902439
1038	0.519	11505.7	0.397777777778	-11.953164557	-6.81463414634
1039	0.5195	11505.7	4.70444444444	-11.953164557	-3.97073170732
1040	0.52	11505.7	19.06	-2.00253164557	-5.39268292683
1041	0.5205	11505.7	3.26888888889	-0.581012658228	-2.5487804878
1042	0.521	11505.7	0.397777777778	-2.00253164557	-2.5487804878
1043	0.5215	11505.7	0.397777777778	6.52658227848	-6.81463414634
1044	0.522	11505.7	-3.90888888889	-0.581012658228	-8.23658536585
1045	0.5225	11505.7	-1.03777777778	0.840506329114	-5.39268292683
1046	0.523	11505.7	-5.34444444444	0.840506329114	-5.39268292683
1047	0.5235	11505.7	0.397777777778	3.6835443038	-8.23658536585
1048	0.524	11505.7	1.83333333333	-0.581012658228	-12.5024390244
1049	0.5245	11505.7	3.26888888889	2.26202531646	-12.5024390244
1050	0.525	11505.7	1.83333333333	0.840506329114	-3.97073170732
1051	0.5255	11505.7	6.14	2.26202531646	-3.97073170732
1052	0.526	11505.7	-2.47333333333	2.26202531646	-6.81463414634
1053	0.5265	11505.7	0.397777777778	-0.581012658228	4.56097560976
1054	0.527	11505.7	-2.47333333333	3.6835443038	5.98292682927
1055	0.5275	11505.7	0.397777777778	-4.84556962025	-3.97073170732
1056	0.528	11505.7	1.83333333333	-6.26708860759	-5.39268292683
1057	0.5285	11505.7	1.83333333333	5.10506329114	-3.97073170732
1058	0.529	11505.7	-1.03777777778	0.840506329114	-2.5487804878
1059	0.5295	11505.7	0.397777777778	3.6835443038	13.0926829268
1060	0.53	11505.7	0.397777777778	3.6835443038	-2.5487804878
1061	0.5305	11505.7	-1.03777777778	0.840506329114	-8.23658536585
1062	0.531	11505.7	0.397777777778	-0.581012658228	-6.81463414634
1063	0.5315	11505.7	0.397777777778	0.840506329114	-5.39268292683
1064	0.532	11505.7	3.26888888889	-0.581012658228	-6.81463414634
1065	0.5325	11505.7	1.83333333333	-6.26708860759	11.6707317073
1066	0.533	11505.7	3.26888888889	-11.953164557	-6.81463414634
1067	0.5335	11505.7	-2.47333333333	-4.84556962025	-5.39268292683
1068	0.534	11505.7	13.3177777778	-3.42405063291	-2.5487804878
1069	0.5345	11505.7	10.4466666667	-7.68860759494	-5.39268292683
1070	0.535	11505.7	-5.34444444444	-6.26708860759	-8.23658536585
1071	0.5355	11505.7	0.397777777778	-14.7962025316	0.29512195122
1072	0.536	11505.7	-2.47333333333	-3.42405063291	-5.39268292683
1073	0.5365	11505.7	-8.21555555556	-4.84556962025	-2.5487804878
1074	0.537	11505.7	13.3177777778	-3.42405063291	-5.39268292683
1075	0.5375	11505.7	-5.34444444444	-3.42405063291	-2.5487804878
1076	0.538	11505.7	0.397777777778	-3.42405063291	0.29512195122
1077	0.5385	11505.7	3.26888888889	-4.84556962025	-2.5487804878
1078	0.539	11505.7	4.70444444444	-7.68860759494	-3.97073170732
1079	0.5395	11505.7	9.01111111111	-3.42405063291	-2.5487804878
1080	0.54	11505.7	-3.90888888889	-2.00253164557	-2.5487804878
1081	0.5405	11505.7	0.397777777778	-4.84556962025	1.71707317073
1082	0.541	11505.7	0.397777777778	-3.42405063291	-5.39268292683
1083	0.5415	11505.7	0.397777777778	3.6835443038	0.29512195122
1084	0.542	11505.7	-3.90888888889	-7.68860759494	-2.5487804878
1085	0.5425	11505.7	0.397777777778	-9.11012658228	-2.5487804878
1086	0.543	11505.7	-1.03777777778	-3.42405063291	-5.39268292683
1087	0.5435	11505.7	1.83333333333	-2.00253164557	-3.97073170732
1088	0.544	11505.7	-1.03777777778	-2.00253164557	-1.12682926829
1089	0.5445	11505.7	1.83333333333	5.10506329114	-11.0804878049
1090	0.545	11505.7	3.26888888889	-2.00253164557	-2.5487804878
1091	0.5455	11505.7	-2.47333333333	-0.581012658228	-3.97073170732
1092	0.546	11505.7	1.83333333333	-3.42405063291	-1.12682926829
1093	0.5465	11505.7	1.83333333333	-0.581012658228	-3.97073170732
1094	0.547	11505.7	0.397777777778	2.26202531646	7.40487804878
1095	0.5475	11505.7	0.397777777778	-3.42405063291	11.6707317073
1096	0.548	11505.7	1.83333333333	-2.00253164557	-3.97073170732
1097	0.5485	11505.7	1.83333333333	-0.581012658228	-2.5487804878
1098	0.549	11505.7	-5.34444444444	0.840506329114	-2.5487804878
1099	0.5495	11505.7	1.83333333333	-0.581012658228	-3.97073170732
1100	0.55	11505.7	1.83333333333	3.6835443038	-6.81463414634
1101	0.5505	11505.7	1.83333333333	-2.00253164557	7.40487804878
1102	0.551	11505.7	4.70444444444	9.36962025316	0.29512195122
1103	0.5515	11505.7	6.14	3.6835443038	-1.12682926829
1104	0.552	11505.7	3.26888888889	2.26202531646	-5.39268292683
1105	0.5525	11505.7	0.397777777778	-0.581012658228	-2.5487804878
1106	0.553	11505.7	3.26888888889	5.10506329114	-11.0804878049
1107	0.5535	11505.7	7.57555555556	0.840506329114	-3.97073170732
1108	0.554	11505.7	4.70444444444	-0.581012658228	-3.97073170732
1109	0.5545	11505.7	21.9311111111	3.6835443038	-6.81463414634
1110	0.555	11505.7	4.70444444444	3.6835443038	-2.5487804878
1111	0.5555	11505.7	4.70444444444	2.26202531646	8.82682926829
1112	0.556	11505.7	3.26888888889	-7.68860759494	-5.39268292683
1113	0.5565	11505.7	4.70444444444	-13.3746835443	-6.81463414634
1114	0.557	11505.7	9.01111111111	-0.581012658228	-6.81463414634
1115	0.5575	11505.7	7.57555555556	-2.00253164557	-5.39268292683
1116	0.558	11505.7	1.83333333333	-4.84556962025	-5.39268292683
1117	0.5585	11505.7	3.26888888889	-2.00253164557	-8.23658536585
1118	0.559	11505.7	0.397777777778	-9.11012658228	-8.23658536585
1119	0.5595	11505.7	3.26888888889	-9.11012658228	-6.81463414634
1120	0.56	11505.7	3.26888888889	-4.84556962025	-8.23658536585
1121	0.5605	11505.7	-5.34444444444	-2.00253164557	-3.97073170732
1122	0.561	11505.7	1.83333333333	-6.26708860759	-1.12682926829
1123	0.5615	11505.7	1.83333333333	0.840506329114	10.2487804878
1124	0.562	11505.7	4.70444444444	7.94810126582	-6.81463414634
1125	0.5625	11505.7	4.70444444444	9.36962025316	-5.39268292683
1126	0.563	11505.7	1.83333333333	0.840506329114	-2.5487804878
1127	0.5635	11505.7	3.26888888889	0.840506329114	-3.97073170732
1128	0.564	11505.7	3.26888888889	0.840506329114	-3.97073170732
1129	0.5645	11505.7	0.397777777778	2.26202531646	1.71707317073
1130	0.565	11505.7	1.83333333333	3.6835443038	-5.39268292683
1131	0.5655	11505.7	-2.47333333333	0.840506329114	-8.23658536585
1132	0.566	11505.7	9.01111111111	0.840506329114	-3.97073170732
1133	0.5665	11505.7	9.01111111111	2.26202531646	-3.97073170732
1134	0.567	11505.7	1.83333333333	3.6835443038	-2.5487804878
1135	0.5675	11505.7	1.83333333333	-0.581012658228	-3.97073170732
1136	0.568	11505.7	0.397777777778	15.0556962025	-3.97073170732
1137	0.5685	11505.7	0.397777777778	3.6835443038	-3.97073170732
1138	0.569	11505.7	17.6244444444	0.840506329114	-6.81463414634
1139	0.5695	11505.7	1.83333333333	0.840506329114	-3.97073170732
1140	0.57	11505.7	3.26888888889	5.10506329114	-11.0804878049
1141	0.5705	11505.7	0.397777777778	7.94810126582	-11.0804878049
1142	0.571	11505.7	3.26888888889	-0.581012658228	-2.5487804878
1143	0.5715	11505.7	4.70444444444	3.6835443038	-3.97073170732
1144	0.572	11505.7	7.57555555556	2.26202531646	-2.5487804878
1145	0.5725	11505.7	3.26888888889	3.6835443038	-1.12682926829
1146	0.573	11505.7	-1.03777777778	0.840506329114	8.82682926829
1147	0.5735	11505.7	-2.47333333333	0.840506329114	14.5146341463
1148	0.574	11505.7	1.83333333333	-7.68860759494	-3.97073170732
1149	0.5745	11505.7	1.83333333333	-7.68860759494	-2.5487804878
1150	0.575	11505.7	0.397777777778	2.26202531646	-3.97073170732
1151	0.5755	11505.7	4.70444444444	0.840506329114	-1.12682926829
1152	0.576	11505.7	1.83333333333	2.26202531646	3.13902439024
1153	0.5765	11505.7	0.397777777778	5.10506329114	-12.5024390244
1154	0.577	11505.7	-1.03777777778	-2.00253164557	-5.39268292683
1155	0.5775	11505.7	-9.65111111111	-0.581012658228	-2.5487804878
1156	0.578	11505.7	-9.65111111111	-2.00253164557	-2.5487804878
1157	0.5785	11505.7	0.397777777778	-2.00253164557	-13.9243902439
1158	0.579	11505.7	3.26888888889	-3.42405063291	-9.65853658537
1159	0.5795	11505.7	3.26888888889	-13.3746835443	-8.23658536585
1160	0.58	11505.7	4.70444444444	-11.953164557	-6.81463414634
1161	0.5805	11505.7	21.9311111111	-2.00253164557	-6.81463414634
1162	0.581	11505.7	3.26888888889	-6.26708860759	-3.97073170732
1163	0.5815	11505.7	4.70444444444	-6.26708860759	-1.12682926829
1164	0.582	11505.7	3.26888888889	-3.42405063291	-13.9243902439
1165	0.5825	11505.7	0.397777777778	6.52658227848	-2.5487804878
1166	0.583	11505.7	4.70444444444	3.6835443038	-3.97073170732
1167	0.5835	11505.7	1.83333333333	-3.42405063291	-5.39268292683
1168	0.584	11505.7	3.26888888889	-10.5316455696	-5.39268292683
1169	0.5845	11505.7	0.397777777778	-4.84556962025	-6.81463414634
1170	0.585	11505.7	1.83333333333	-3.42405063291	-5.39268292683
1171	0.5855	11505.7	1.83333333333	0.840506329114	-2.5487804878
1172	0.586	11505.7	0.397777777778	-0.581012658228	-3.97073170732
1173	0.5865	11505.7	0.397777777778	-0.581012658228	-5.39268292683
1174	0.587	11505.7	4.70444444444	-0.581012658228	-3.97073170732
1175	0.5875	11505.7	4.70444444444	-0.581012658228	-1.12682926829
1176	0.588	11505.7	0.397777777778	0.840506329114	-6.81463414634
1177	0.5885	11505.7	1.83333333333	13.6341772152	-1.12682926829
1178	0.589	11505.7	1.83333333333	16.4772151899	-3.97073170732
1179	0.5895	11505.7	-2.47333333333	0.840506329114	-2.5487804878
1180	0.59	11505.7	4.70444444444	-0.581012658228	-2.5487804878
1181	0.5905	11505.7	0.397777777778	2.26202531646	-9.65853658537
1182	0.591	11505.7	0.397777777778	-0.581012658228	-8.23658536585
1183	0.5915	11505.7	3.26888888889	-7.68860759494	-2.5487804878
1184	0.592	11505.7	0.397777777778	-7.68860759494	-2.5487804878
1185	0.5925	11505.7	16.1888888889	0.840506329114	-1.12682926829
1186	0.593	11505.7	0.397777777778	2.26202531646	-1.12682926829
1187	0.5935	11505.7	-1.03777777778	2.26202531646	13.0926829268
1188	0.594	11505.7	1.83333333333	3.6835443038	13.0926829268
1189	0.5945	11505.7	1.83333333333	3.6835443038	-3.97073170732
1190	0.595	11505.7	0.397777777778	0.840506329114	-2.5487804878
1191	0.5955	11505.7	-6.78	2.26202531646	-5.39268292683
1192	0.596	11505.7	-6.78	-0.581012658228	-3.97073170732
1193	0.5965	11505.7	0.397777777778	-3.42405063291	-15.3463414634
1194	0.597	11505.7	0.397777777778	-10.5316455696	-3.97073170732
1195	0.5975	11505.7	0.397777777778	-6.26708860759	-2.5487804878
1196	0.598	11505.7	6.14	-9.11012658228	-3.97073170732
1197	0.5985	11505.7	20.4955555556	0.840506329114	-6.81463414634
1198	0.599	11505.7	-1.03777777778	0.840506329114	-2.5487804878
1199	0.5995	11505.7	0.397777777778	0.840506329114	-1.12682926829
1200	0.6	11505.7	3.26888888889	16.4772151899	-2.5487804878
1201	0.6005	11505.7	0.397777777778	0.840506329114	-5.39268292683
1202	0.601	11505.7	19.06	0.840506329114	-3.97073170732
1203	0.6015	11505.7	-8.21555555556	-0.581012658228	-6.81463414634
1204	0.602	11505.7	-1.03777777778	-0.581012658228	-8.23658536585
1205	0.6025	11505.7	0.397777777778	5.10506329114	-11.0804878049
1206	0.603	11505.7	0.397777777778	3.6835443038	-8.23658536585
1207	0.6035	11505.7	-12.5222222222	2.26202531646	-3.97073170732
1208	0.604	11505.7	17.6244444444	-0.581012658228	-3.97073170732
1209	0.6045	11505.7	3.26888888889	-0.581012658228	-3.97073170732
1210	0.605	11505.7	4.70444444444	-2.00253164557	11.6707317073
1211	0.6055	11505.7	3.26888888889	-2.00253164557	4.56097560976
1212	0.606	11505.7	4.70444444444	-0.581012658228	0.29512195122
1213	0.6065	11505.7	4.70444444444	2.26202531646	-3.97073170732
1214	0.607	11505.7	1.83333333333	2.26202531646	-2.5487804878
1215	0.6075	11505.7	0.397777777778	3.6835443038	0.29512195122
1216	0.608	11505.7	1.83333333333	5.10506329114	-1.12682926829
1217	0.6085	11505.7	0.397777777778	3.6835443038	-2.5487804878
1218	0.609	11505.7	0.397777777778	5.10506329114	-1.12682926829
1219	0.6095	11505.7	-3.90888888889	3.6835443038	-1.12682926829
1220	0.61	11505.7	-2.47333333333	5.10506329114	-2.5487804878
1221	0.6105	11505.7	1.83333333333	5.10506329114	-2.5487804878
1222	0.611	11505.7	0.397777777778	5.10506329114	-6.81463414634
1223	0.6115	11505.7	0.397777777778	-6.26708860759	-6.81463414634
1224	0.612	11505.7	3.26888888889	2.26202531646	-2.5487804878
1225	0.6125	11505.7	11.8822222222	3.6835443038	-2.5487804878
1226	0.613	11505.7	7.57555555556	5.10506329114	-3.97073170732
1227	0.6135	11505.7	1.83333333333	5.10506329114	-2.5487804878
1228	0.614	11505.7	0.397777777778	6.52658227848	-3.97073170732
1229	0.6145	11505.7	1.83333333333	3.6835443038	-6.81463414634
1230	0.615	11505.7	1.83333333333	-0.581012658228	-1.12682926829
1231	0.6155	11505.7	-3.90888888889	5.10506329114	-2.5487804878
1232	0.616	11505.7	-1.03777777778	3.6835443038	0.29512195122
1233	0.6165	11505.7	-2.47333333333	2.26202531646	1.71707317073
1234	0.617	11505.7	-2.47333333333	6.52658227848	17.3585365854
1235	0.6175	11505.7	-2.47333333333	9.36962025316	-2.5487804878
1236	0.618	11505.7	0.397777777778	6.52658227848	-2.5487804878
1237	0.6185	11505.7	-5.34444444444	5.10506329114	-5.39268292683
1238	0.619	11505.7	-2.47333333333	-0.581012658228	-3.97073170732
1239	0.6195	11505.7	-2.47333333333	0.840506329114	-3.97073170732
1240	0.62	11505.7	-1.03777777778	3.6835443038	0.29512195122
1241	0.6205	11505.7	-1.03777777778	16.4772151899	-3.97073170732
1242	0.621	11505.7	3.26888888889	-0.581012658228	-2.5487804878
1243	0.6215	11505.7	9.01111111111	0.840506329114	-1.12682926829
1244	0.622	11505.7	0.397777777778	-2.00253164557	-2.5487804878
1245	0.6225	11505.7	0.397777777778	-0.581012658228	-3.97073170732
1246	0.623	11505.7	0.397777777778	-2.00253164557	-2.5487804878
1247	0.6235	11505.7	0.397777777778	-7.68860759494	-3.97073170732
1248	0.624	11505.7	3.26888888889	-0.581012658228	-1.12682926829
1249	0.6245	11505.7	0.397777777778	-2.00253164557	-3.97073170732
1250	0.625	11505.7	-3.90888888889	-0.581012658228	-3.97073170732
1251	0.6255	11505.7	-3.90888888889	-0.581012658228	-3.97073170732
1252	0.626	11505.7	-1.03777777778	0.840506329114	-8.23658536585
1253	0.6265	11505.7	0.397777777778	-4.84556962025	1.71707317073
1254	0.627	11505.7	0.397777777778	-9.11012658228	-2.5487804878
1255	0.6275	11505.7	17.6244444444	-0.581012658228	-1.12682926829
1256	0.628	11505.7	0.397777777778	-3.42405063291	1.71707317073
1257	0.6285	11505.7	0.397777777778	-0.581012658228	0.29512195122
1258	0.629	11505.7	-1.03777777778	-9.11012658228	-2.5487804878
1259	0.6295	11505.7	1.83333333333	-6.26708860759	-8.23658536585
1260	0.63	11505.7	3.26888888889	0.840506329114	-3.97073170732
1261	0.6305	11505.7	-1.03777777778	0.840506329114	-3.97073170732
1262	0.631	11505.7	1.83333333333	2.26202531646	-6.81463414634
1263	0.6315	11505.7	-2.47333333333	2.26202531646	-16.7682926829
1264	0.632	11505.7	0.397777777778	2.26202531646	-16.7682926829
1265	0.6325	11505.7	0.397777777778	23.5848101266	-3.97073170732
1266	0.633	11505.7	-1.03777777778	19.3202531646	-6.81463414634
1267	0.6335	11505.7	-6.78	5.10506329114	-3.97073170732
1268	0.634	11505.7	-1.03777777778	2.26202531646	-8.23658536585
1269	0.6345	11505.7	-2.47333333333	3.6835443038	-5.39268292683
1270	0.635	11505.7	3.26888888889	3.6835443038	0.29512195122
1271	0.6355	11505.7	-2.47333333333	-0.581012658228	-5.39268292683
1272	0.636	11505.7	-8.21555555556	2.26202531646	-5.39268292683
1273	0.6365	11505.7	-8.21555555556	0.840506329114	-3.97073170732
1274	0.637	11505.7	1.83333333333	0.840506329114	-5.39268292683
1275	0.6375	11505.7	1.83333333333	5.10506329114	-11.0804878049
1276	0.638	11505.7	0.397777777778	6.52658227848	-3.97073170732
1277	0.6385	11505.7	1.83333333333	-7.68860759494	-3.97073170732
1278	0.639	11505.7	3.26888888889	-10.5316455696	-3.97073170732
1279	0.6395	11505.7	16.1888888889	-3.42405063291	-5.39268292683
1280	0.64	11505.7	3.26888888889	-3.42405063291	-2.5487804878
1281	0.6405	11505.7	0.397777777778	0.840506329114	-13.9243902439
1282	0.641	11505.7	1.83333333333	2.26202531646	-13.9243902439
1283	0.6415	11505.7	-1.03777777778	-7.68860759494	-3.97073170732
1284	0.642	11505.7	-8.21555555556	-0.581012658228	-2.5487804878
1285	0.6425	11505.7	17.6244444444	-0.581012658228	-1.12682926829
1286	0.643	11505.7	1.83333333333	-3.42405063291	-1.12682926829
1287	0.6435	11505.7	0.397777777778	-0.581012658228	15.9365853659
1288	0.644	11505.7	-1.03777777778	-2.00253164557	14.5146341463
1289	0.6445	11505.7	-1.03777777778	-6.26708860759	-1.12682926829
1290	0.645	11505.7	16.1888888889	0.840506329114	-1.12682926829
1291	0.6455	11505.7	-1.03777777778	-0.581012658228	1.71707317073
1292	0.646	11505.7	-1.03777777778	2.26202531646	-1.12682926829
1293	0.6465	11505.7	4.70444444444	0.840506329114	-3.97073170732
1294	0.647	11505.7	0.397777777778	-0.581012658228	-11.0804878049
1295	0.6475	11505.7	0.397777777778	-6.26708860759	-1.12682926829
1296	0.648	11505.7	-6.78	2.26202531646	-3.97073170732
1297	0.6485	11505.7	-9.65111111111	2.26202531646	-3.97073170732
1298	0.649	11505.7	0.397777777778	2.26202531646	-5.39268292683
1299	0.6495	11505.7	0.397777777778	3.6835443038	-8.23658536585
1300	0.65	11505.7	0.397777777778	-4.84556962025	-9.65853658537
1301	0.6505	11505.7	4.70444444444	2.26202531646	-3.97073170732
1302	0.651	11505.7	3.26888888889	0.840506329114	-5.39268292683
1303	0.6515	11505.7	0.397777777778	-0.581012658228	-2.5487804878
1304	0.652	11505.7	0.397777777778	-3.42405063291	-3.97073170732
1305	0.6525	11505.7	0.397777777778	-6.26708860759	-12.5024390244
1306	0.653	11505.7	0.397777777778	-2.00253164557	-11.0804878049
1307	0.6535	11505.7	-1.03777777778	2.26202531646	-5.39268292683
1308	0.654	11505.7	-1.03777777778	2.26202531646	-5.39268292683
1309	0.6545	11505.7	0.397777777778	5.10506329114	-6.81463414634
1310	0.655	11505.7	0.397777777778	2.26202531646	-8.23658536585
1311	0.6555	11505.7	0.397777777778	2.26202531646	-15.3463414634
1312	0.656	11505.7	-1.03777777778	-0.581012658228	-13.9243902439
1313	0.6565	11505.7	-3.90888888889	2.26202531646	-5.39268292683
1314	0.657	11505.7	9.01111111111	3.6835443038	-3.97073170732
1315	0.6575	11505.7	0.397777777778	5.10506329114	-5.39268292683
1316	0.658	11505.7	-2.47333333333	2.26202531646	-2.5487804878
1317	0.6585	11505.7	-3.90888888889	0.840506329114	4.56097560976
1318	0.659	11505.7	-1.03777777778	-2.00253164557	-2.5487804878
1319	0.6595	11505.7	0.397777777778	-0.581012658228	-2.5487804878
1320	0.66	11505.7	0.397777777778	5.10506329114	-3.97073170732
1321	0.6605	11505.7	1.83333333333	6.52658227848	-12.5024390244
1322	0.661	11505.7	-1.03777777778	5.10506329114	-16.7682926829
1323	0.6615	11505.7	1.83333333333	5.10506329114	-6.81463414634
1324	0.662	11505.7	0.397777777778	-0.581012658228	-5.39268292683
1325	0.6625	11505.7	20.4955555556	5.10506329114	-5.39268292683
1326	0.663	11505.7	16.1888888889	5.10506329114	-3.97073170732
1327	0.6635	11505.7	3.26888888889	3.6835443038	0.29512195122
1328	0.664	11505.7	0.397777777778	5.10506329114	-1.12682926829
1329	0.6645	11505.7	1.83333333333	12.2126582278	-5.39268292683
1330	0.665	11505.7	3.26888888889	-3.42405063291	-1.12682926829
1331	0.6655	11505.7	-2.47333333333	-3.42405063291	-2.5487804878
1332	0.666	11505.7	0.397777777778	-4.84556962025	-2.5487804878
1333	0.6665	11505.7	1.83333333333	-2.00253164557	-15.3463414634
1334	0.667	11505.7	0.397777777778	15.0556962025	-2.5487804878
1335	0.6675	11505.7	-2.47333333333	-0.581012658228	0.29512195122
1336	0.668	11505.7	-2.47333333333	0.840506329114	0.29512195122
1337	0.6685	11505.7	-8.21555555556	2.26202531646	-3.97073170732
1338	0.669	11505.7	3.26888888889	0.840506329114	-3.97073170732
1339	0.6695	11505.7	3.26888888889	0.840506329114	-8.23658536585
1340	0.67	11505.7	-1.03777777778	-3.42405063291	-1.12682926829
1341	0.6705	11505.7	-2.47333333333	-4.84556962025	-1.12682926829
1342	0.671	11505.7	-2.47333333333	0.840506329114	-2.5487804878
1343	0.6715	11505.7	-1.03777777778	-0.581012658228	-3.97073170732
1344	0.672	11505.7	-1.03777777778	2.26202531646	-5.39268292683
1345	0.6725	11505.7	0.397777777778	3.6835443038	-11.0804878049
1346	0.673	11505.7	-1.03777777778	2.26202531646	-2.5487804878
1347	0.6735	11505.7	-2.47333333333	-2.00253164557	-1.12682926829
1348	0.674	11505.7	17.6244444444	7.94810126582	-2.5487804878
1349	0.6745	11505.7	0.397777777778	5.10506329114	-3.97073170732
1350	0.675	11505.7	1.83333333333	7.94810126582	-3.97073170732
1351	0.6755	11505.7	0.397777777778	6.52658227848	-12.5024390244
1352	0.676	11505.7	-2.47333333333	6.52658227848	-11.0804878049
1353	0.6765	11505.7	0.397777777778	6.52658227848	-2.5487804878
1354	0.677	11505.7	-9.65111111111	7.94810126582	-5.39268292683
1355	0.6775	11505.7	-1.03777777778	9.36962025316	-1.12682926829
1356	0.678	11505.7	-1.03777777778	6.52658227848	-3.97073170732
1357	0.6785	11505.7	0.397777777778	-0.581012658228	-2.5487804878
1358	0.679	11505.7	-2.47333333333	7.94810126582	-2.5487804878
1359	0.6795	11505.7	1.83333333333	7.94810126582	-3.97073170732
1360	0.68	11505.7	10.4466666667	5.10506329114	-3.97073170732
1361	0.6805	11505.7	-1.03777777778	5.10506329114	-1.12682926829
1362	0.681	11505.7	1.83333333333	6.52658227848	-2.5487804878
1363	0.6815	11505.7	0.397777777778	2.26202531646	-6.81463414634
1364	0.682	11505.7	0.397777777778	-3.42405063291	-3.97073170732
1365	0.6825	11505.7	1.83333333333	0.840506329114	-3.97073170732
1366	0.683	11505.7	6.14	3.6835443038	-3.97073170732
1367	0.6835	11505.7	0.397777777778	3.6835443038	-1.12682926829
1368	0.684	11505.7	-1.03777777778	2.26202531646	8.82682926829
1369	0.6845	11505.7	0.397777777778	-2.00253164557	-2.5487804878
1370	0.685	11505.7	-2.47333333333	-3.42405063291	-2.5487804878
1371	0.6855	11505.7	4.70444444444	-3.42405063291	-2.5487804878
1372	0.686	11505.7	-3.90888888889	-3.42405063291	-2.5487804878
1373	0.6865	11505.7	0.397777777778	-2.00253164557	0.29512195122
1374	0.687	11505.7	-1.03777777778	2.26202531646	11.6707317073
1375	0.6875	11505.7	3.26888888889	15.0556962025	-3.97073170732
1376	0.688	11505.7	3.26888888889	-2.00253164557	-3.97073170732
1377	0.6885	11505.7	19.06	-0.581012658228	0.29512195122
1378	0.689	11505.7	1.83333333333	0.840506329114	-2.5487804878
1379	0.6895	11505.7	1.83333333333	2.26202531646	-12.5024390244
1380	0.69	11505.7	3.26888888889	0.840506329114	-9.65853658537
1381	0.6905	11505.7	-1.03777777778	0.840506329114	-2.5487804878
1382	0.691	11505.7	-12.5222222222	2.26202531646	0.29512195122
1383	0.6915	11505.7	-2.47333333333	-0.581012658228	-3.97073170732
1384	0.692	11505.7	-2.47333333333	0.840506329114	-3.97073170732
1385	0.6925	11505.7	-2.47333333333	-0.581012658228	0.29512195122
1386	0.693	11505.7	0.397777777778	5.10506329114	13.0926829268
1387	0.6935	11505.7	0.397777777778	22.1632911392	-2.5487804878
1388	0.694	11505.7	-9.65111111111	3.6835443038	-3.97073170732
1389	0.6945	11505.7	-8.21555555556	5.10506329114	-2.5487804878
1390	0.695	11505.7	0.397777777778	3.6835443038	-5.39268292683
1391	0.6955	11505.7	-1.03777777778	3.6835443038	-3.97073170732
1392	0.696	11505.7	0.397777777778	5.10506329114	-2.5487804878
1393	0.6965	11505.7	-1.03777777778	-0.581012658228	-3.97073170732
1394	0.697	11505.7	6.14	0.840506329114	-2.5487804878
1395	0.6975	11505.7	-3.90888888889	3.6835443038	-3.97073170732
1396	0.698	11505.7	0.397777777778	0.840506329114	0.29512195122
1397	0.6985	11505.7	-2.47333333333	5.10506329114	-12.5024390244
1398	0.699	11505.7	-2.47333333333	2.26202531646	-13.9243902439
1399	0.6995	11505.7	-6.78	3.6835443038	-5.39268292683
1400	0.7	11505.7	-6.78	0.840506329114	-2.5487804878
1401	0.7005	11505.7	-1.03777777778	2.26202531646	-3.97073170732
1402	0.701	11505.7	-1.03777777778	6.52658227848	-12.5024390244
1403	0.7015	11505.7	0.397777777778	-6.26708860759	-5.39268292683
1404	0.702	11505.7	0.397777777778	-7.68860759494	-2.5487804878
1405	0.7025	11505.7	3.26888888889	3.6835443038	-3.97073170732
1406	0.703	11505.7	1.83333333333	0.840506329114	-3.97073170732
1407	0.7035	11505.7	-1.03777777778	2.26202531646	-3.97073170732
1408	0.704	11505.7	0.397777777778	3.6835443038	0.29512195122
1409	0.7045	11505.7	-1.03777777778	17.8987341772	-5.39268292683
1410	0.705	11505.7	0.397777777778	3.6835443038	-2.5487804878
1411	0.7055	11505.7	-3.90888888889	7.94810126582	-3.97073170732
1412	0.706	11505.7	-8.21555555556	5.10506329114	-6.81463414634
1413	0.7065	11505.7	0.397777777778	6.52658227848	-3.97073170732
1414	0.707	11505.7	-2.47333333333	9.36962025316	1.71707317073
1415	0.7075	11505.7	0.397777777778	12.2126582278	-1.12682926829
1416	0.708	11505.7	-9.65111111111	6.52658227848	-3.97073170732
1417	0.7085	11505.7	-6.78	6.52658227848	-3.97073170732
1418	0.709	11505.7	0.397777777778	5.10506329114	-5.39268292683
1419	0.7095	11505.7	1.83333333333	9.36962025316	-11.0804878049
1420	0.71	11505.7	1.83333333333	6.52658227848	-12.5024390244
1421	0.7105	11505.7	-1.03777777778	0.840506329114	-3.97073170732
1422	0.711	11505.7	0.397777777778	-0.581012658228	0.29512195122
1423	0.7115	11505.7	1.83333333333	7.94810126582	-2.5487804878
1424	0.712	11505.7	3.26888888889	5.10506329114	0.29512195122
1425	0.7125	11505.7	0.397777777778	5.10506329114	-1.12682926829
1426	0.713	11505.7	3.26888888889	-6.26708860759	-3.97073170732
1427	0.7135	11505.7	3.26888888889	0.840506329114	-2.5487804878
1428	0.714	11505.7	20.4955555556	6.52658227848	-1.12682926829
1429	0.7145	11505.7	0.397777777778	6.52658227848	0.29512195122
1430	0.715	11505.7	-1.03777777778	6.52658227848	-1.12682926829
1431	0.7155	11505.7	-1.03777777778	5.10506329114	-3.97073170732
1432	0.716	11505.7	1.83333333333	3.6835443038	-3.97073170732
1433	0.7165	11505.7	1.83333333333	-0.581012658228	-1.12682926829
1434	0.717	11505.7	6.14	7.94810126582	-3.97073170732
1435	0.7175	11505.7	0.397777777778	7.94810126582	-3.97073170732
1436	0.718	11505.7	-2.47333333333	6.52658227848	-5.39268292683
1437	0.7185	11505.7	-2.47333333333	15.0556962025	-5.39268292683
1438	0.719	11505.7	-2.47333333333	23.5848101266	-2.5487804878
1439	0.7195	11505.7	-12.5222222222	9.36962025316	-3.97073170732
1440	0.72	11505.7	19.06	7.94810126582	-3.97073170732
1441	0.7205	11505.7	-1.03777777778	12.2126582278	-1.12682926829
1442	0.721	11505.7	-1.03777777778	12.2126582278	0.29512195122
1443	0.7215	11505.7	-1.03777777778	12.2126582278	15.9365853659
1444	0.722	11505.7	-2.47333333333	25.0063291139	-2.5487804878
1445	0.7225	11505.7	-3.90888888889	6.52658227848	-3.97073170732
1446	0.723	11505.7	7.57555555556	9.36962025316	-5.39268292683
1447	0.7235	11505.7	-2.47333333333	9.36962025316	-2.5487804878
1448	0.724	11505.7	-1.03777777778	5.10506329114	-12.5024390244
1449	0.7245	11505.7	-2.47333333333	5.10506329114	-8.23658536585
1450	0.725	11505.7	1.83333333333	-0.581012658228	-2.5487804878
1451	0.7255	11505.7	14.7533333333	6.52658227848	-3.97073170732
1452	0.726	11505.7	-9.65111111111	6.52658227848	-5.39268292683
1453	0.7265	11505.7	-2.47333333333	9.36962025316	-2.5487804878
1454	0.727	11505.7	-2.47333333333	6.52658227848	-1.12682926829
1455	0.7275	11505.7	-2.47333333333	12.2126582278	-2.5487804878
1456	0.728	11505.7	0.397777777778	0.840506329114	-2.5487804878
1457	0.7285	11505.7	19.06	7.94810126582	-2.5487804878
1458	0.729	11505.7	19.06	7.94810126582	-6.81463414634
1459	0.7295	11505.7	0.397777777778	6.52658227848	-3.97073170732
1460	0.73	11505.7	0.397777777778	5.10506329114	-12.5024390244
1461	0.7305	11505.7	0.397777777778	5.10506329114	-9.65853658537
1462	0.731	11505.7	6.14	5.10506329114	-3.97073170732
1463	0.7315	11505.7	-6.78	10.7911392405	-5.39268292683
1464	0.732	11505.7	1.83333333333	9.36962025316	-3.97073170732
1465	0.7325	11505.7	0.397777777778	9.36962025316	-8.23658536585
1466	0.733	11505.7	0.397777777778	7.94810126582	14.5146341463
1467	0.7335	11505.7	1.83333333333	26.4278481013	-3.97073170732
1468	0.734	11505.7	-1.03777777778	22.1632911392	-8.23658536585
1469	0.7345	11505.7	-6.78	7.94810126582	-3.97073170732
1470	0.735	11505.7	-2.47333333333	7.94810126582	0.29512195122
1471	0.7355	11505.7	-2.47333333333	6.52658227848	11.6707317073
1472	0.736	11505.7	-3.90888888889	6.52658227848	-6.81463414634
1473	0.7365	11505.7	-2.47333333333	7.94810126582	-5.39268292683
1474	0.737	11505.7	-1.03777777778	7.94810126582	-3.97073170732
1475	0.7375	11505.7	0.397777777778	6.52658227848	-5.39268292683
1476	0.738	11505.7	1.83333333333	12.2126582278	-5.39268292683
1477	0.7385	11505.7	1.83333333333	9.36962025316	5.98292682927
1478	0.739	11505.7	4.70444444444	9.36962025316	-13.9243902439
1479	0.7395	11505.7	4.70444444444	9.36962025316	-5.39268292683
1480	0.74	11505.7	-5.34444444444	12.2126582278	-6.81463414634
1481	0.7405	11505.7	0.397777777778	12.2126582278	-8.23658536585
1482	0.741	11505.7	0.397777777778	12.2126582278	-13.9243902439
1483	0.7415	11505.7	-1.03777777778	9.36962025316	-13.9243902439
1484	0.742	11505.7	-1.03777777778	0.840506329114	-3.97073170732
1485	0.7425	11505.7	-6.78	9.36962025316	-1.12682926829
1486	0.743	11505.7	-6.78	9.36962025316	-2.5487804878
1487	0.7435	11505.7	0.397777777778	12.2126582278	-2.5487804878
1488	0.744	11505.7	-1.03777777778	13.6341772152	4.56097560976
1489	0.7445	11505.7	-2.47333333333	16.4772151899	-12.5024390244
1490	0.745	11505.7	-5.34444444444	13.6341772152	-8.23658536585
1491	0.7455	11505.7	-6.78	12.2126582278	-5.39268292683
1492	0.746	11505.7	0.397777777778	10.7911392405	-5.39268292683
1493	0.7465	11505.7	-1.03777777778	12.2126582278	-6.81463414634
1494	0.747	11505.7	-5.34444444444	12.2126582278	-13.9243902439
1495	0.7475	11505.7	0.397777777778	2.26202531646	-5.39268292683
1496	0.748	11505.7	-1.03777777778	7.94810126582	-2.5487804878
1497	0.7485	11505.7	-2.47333333333	6.52658227848	-2.5487804878
1498	0.749	11505.7	-2.47333333333	3.6835443038	-2.5487804878
1499	0.7495	11505.7	-1.03777777778	5.10506329114	1.71707317073
1500	0.75	11505.7	-2.47333333333	0.840506329114	4.56097560976
1501	0.7505	11505.7	0.397777777778	15.0556962025	-9.65853658537
1502	0.751	11505.7	-16.8288888889	2.26202531646	-1.12682926829
1503	0.7515	11505.7	-11.0866666667	0.840506329114	-2.5487804878
1504	0.752	11505.7	-1.03777777778	0.840506329114	-2.5487804878
1505	0.7525	11505.7	-2.47333333333	3.6835443038	-3.97073170732
1506	0.753	11505.7	0.397777777778	15.0556962025	-3.97073170732
1507	0.7535	11505.7	-1.03777777778	0.840506329114	-1.12682926829
1508	0.754	11505.7	-2.47333333333	2.26202531646	-1.12682926829
1509	0.7545	11505.7	1.83333333333	-0.581012658228	-2.5487804878
1510	0.755	11505.7	0.397777777778	0.840506329114	-1.12682926829
1511	0.7555	11505.7	-1.03777777778	5.10506329114	-5.39268292683
1512	0.756	11505.7	3.26888888889	19.3202531646	-3.97073170732
1513	0.7565	11505.7	-1.03777777778	0.840506329114	-2.5487804878
1514	0.757	11505.7	-1.03777777778	3.6835443038	-5.39268292683
1515	0.7575	11505.7	0.397777777778	3.6835443038	-6.81463414634
1516	0.758	11505.7	-1.03777777778	3.6835443038	-12.5024390244
1517	0.7585	11505.7	0.397777777778	-2.00253164557	-13.9243902439
1518	0.759	11505.7	-1.03777777778	3.6835443038	-11.0804878049
1519	0.7595	11505.7	-5.34444444444	5.10506329114	-3.97073170732
1520	0.76	11505.7	-6.78	5.10506329114	-3.97073170732
1521	0.7605	11505.7	-1.03777777778	6.52658227848	-5.39268292683
1522	0.761	11505.7	-1.03777777778	7.94810126582	-15.3463414634
1523	0.7615	11505.7	-1.03777777778	-3.42405063291	-8.23658536585
1524	0.762	11505.7	-1.03777777778	3.6835443038	-3.97073170732
1525	0.7625	11505.7	-12.5222222222	12.2126582278	-3.97073170732
1526	0.763	11505.7	-6.78	15.0556962025	-6.81463414634
1527	0.7635	11505.7	1.83333333333	12.2126582278	-8.23658536585
1528	0.764	11505.7	0.397777777778	12.2126582278	13.0926829268
1529	0.7645	11505.7	0.397777777778	9.36962025316	13.0926829268
1530	0.765	11505.7	-3.90888888889	9.36962025316	-5.39268292683
1531	0.7655	11505.7	7.57555555556	9.36962025316	-5.39268292683
1532	0.766	11505.7	-8.21555555556	6.52658227848	-3.97073170732
1533	0.7665	11505.7	-1.03777777778	7.94810126582	-2.5487804878
1534	0.767	11505.7	0.397777777778	-3.42405063291	-8.23658536585
1535	0.7675	11505.7	1.83333333333	-0.581012658228	-8.23658536585
1536	0.768	11505.7	3.26888888889	5.10506329114	-2.5487804878
1537	0.7685	11505.7	3.26888888889	5.10506329114	-3.97073170732
1538	0.769	11505.7	1.83333333333	-0.581012658228	-2.5487804878
1539	0.7695	11505.7	0.397777777778	2.26202531646	0.29512195122
1540	0.77	11505.7	1.83333333333	-0.581012658228	1.71707317073
1541	0.7705	11505.7	4.70444444444	15.0556962025	-2.5487804878
1542	0.771	11505.7	-11.0866666667	-2.00253164557	-3.97073170732
1543	0.7715	11505.7	-5.34444444444	-2.00253164557	-3.97073170732
1544	0.772	11505.7	0.397777777778	-2.00253164557	-2.5487804878
1545	0.7725	11505.7	1.83333333333	-2.00253164557	-5.39268292683
1546	0.773	11505.7	0.397777777778	2.26202531646	14.5146341463
1547	0.7735	11505.7	-2.47333333333	16.4772151899	-5.39268292683
1548	0.774	11505.7	-6.78	-2.00253164557	-3.97073170732
1549	0.7745	11505.7	-11.0866666667	-2.00253164557	-2.5487804878
1550	0.775	11505.7	0.397777777778	-2.00253164557	-11.0804878049
1551	0.7755	11505.7	3.26888888889	-4.84556962025	-12.5024390244
1552	0.776	11505.7	-1.03777777778	-4.84556962025	-6.81463414634
1553	0.7765	11505.7	1.83333333333	-7.68860759494	-2.5487804878
1554	0.777	11505.7	14.7533333333	-0.581012658228	-1.12682926829
1555	0.7775	11505.7	-5.34444444444	3.6835443038	-3.97073170732
1556	0.778	11505.7	0.397777777778	3.6835443038	0.29512195122
1557	0.7785	11505.7	0.397777777778	3.6835443038	0.29512195122
1558	0.779	11505.7	3.26888888889	6.52658227848	1.71707317073
1559	0.7795	11505.7	1.83333333333	-2.00253164557	1.71707317073
1560	0.78	11505.7	-6.78	6.52658227848	0.29512195122
1561	0.7805	11505.7	0.397777777778	3.6835443038	-2.5487804878
1562	0.781	11505.7	0.397777777778	6.52658227848	-15.3463414634
1563	0.7815	11505.7	1.83333333333	9.36962025316	-12.5024390244
1564	0.782	11505.7	1.83333333333	3.6835443038	-12.5024390244
1565	0.7825	11505.7	-2.47333333333	-6.26708860759	-2.5487804878
1566	0.783	11505.7	7.57555555556	0.840506329114	-8.23658536585
1567	0.7835	11505.7	0.397777777778	2.26202531646	-5.39268292683
1568	0.784	11505.7	0.397777777778	0.840506329114	-8.23658536585
1569	0.7845	11505.7	0.397777777778	-7.68860759494	-11.0804878049
1570	0.785	11505.7	1.83333333333	-10.5316455696	-3.97073170732
1571	0.7855	11505.7	1.83333333333	-6.26708860759	-2.5487804878
1572	0.786	11505.7	3.26888888889	-0.581012658228	-5.39268292683
1573	0.7865	11505.7	3.26888888889	-2.00253164557	-2.5487804878
1574	0.787	11505.7	6.14	0.840506329114	-9.65853658537
1575	0.7875	11505.7	1.83333333333	7.94810126582	-2.5487804878
1576	0.788	11505.7	-1.03777777778	19.3202531646	-2.5487804878
1577	0.7885	11505.7	-11.0866666667	-0.581012658228	-2.5487804878
1578	0.789	11505.7	0.397777777778	-0.581012658228	-1.12682926829
1579	0.7895	11505.7	0.397777777778	2.26202531646	-2.5487804878
1580	0.79	11505.7	0.397777777778	0.840506329114	8.82682926829
1581	0.7905	11505.7	-2.47333333333	3.6835443038	-3.97073170732
1582	0.791	11505.7	-5.34444444444	2.26202531646	-3.97073170732
1583	0.7915	11505.7	16.1888888889	6.52658227848	-6.81463414634
1584	0.792	11505.7	-2.47333333333	2.26202531646	-3.97073170732
1585	0.7925	11505.7	-1.03777777778	7.94810126582	-15.3463414634
1586	0.793	11505.7	1.83333333333	9.36962025316	-11.0804878049
1587	0.7935	11505.7	-1.03777777778	20.7417721519	-3.97073170732
1588	0.794	11505.7	0.397777777778	20.7417721519	-3.97073170732
1589	0.7945	11505.7	-8.21555555556	3.6835443038	-5.39268292683
1590	0.795	11505.7	0.397777777778	3.6835443038	-5.39268292683
1591	0.7955	11505.7	0.397777777778	5.10506329114	-3.97073170732
1592	0.796	11505.7	-1.03777777778	5.10506329114	-3.97073170732
1593	0.7965	11505.7	-1.03777777778	3.6835443038	-1.12682926829
1594	0.797	11505.7	0.397777777778	0.840506329114	-2.5487804878
1595	0.7975	11505.7	0.397777777778	7.94810126582	-5.39268292683
1596	0.798	11505.7	0.397777777778	6.52658227848	-5.39268292683
1597	0.7985	11505.7	-1.03777777778	5.10506329114	-15.3463414634
1598	0.799	11505.7	0.397777777778	-3.42405063291	-2.5487804878
1599	0.7995	11505.7	0.397777777778	-2.00253164557	-2.5487804878
1600	0.8	11505.7	-2.47333333333	7.94810126582	-2.5487804878
1601	0.8005	11505.7	-6.78	5.10506329114	-5.39268292683
1602	0.801	11505.7	0.397777777778	5.10506329114	-3.97073170732
1603	0.8015	11505.7	-1.03777777778	3.6835443038	-5.39268292683
1604	0.802	11505.7	1.83333333333	2.26202531646	-6.81463414634
1605	0.8025	11505.7	-5.34444444444	3.6835443038	-6.81463414634
1606	0.803	11505.7	13.3177777778	2.26202531646	-3.97073170732
1607	0.8035	11505.7	0.397777777778	3.6835443038	-2.5487804878
1608	0.804	11505.7	0.397777777778	2.26202531646	-2.5487804878
1609	0.8045	11505.7	0.397777777778	-0.581012658228	-9.65853658537
1610	0.805	11505.7	-1.03777777778	-0.581012658228	-12.5024390244
1611	0.8055	11505.7	0.397777777778	0.840506329114	-6.81463414634
1612	0.806	11505.7	1.83333333333	-0.581012658228	-2.5487804878
1613	0.8065	11505.7	0.397777777778	-0.581012658228	-2.5487804878
1614	0.807	11505.7	0.397777777778	-0.581012658228	4.56097560976
1615	0.8075	11505.7	3.26888888889	0.840506329114	4.56097560976
1616	0.808	11505.7	3.26888888889	5.10506329114	-6.81463414634
1617	0.8085	11505.7	0.397777777778	-0.581012658228	-3.97073170732
1618	0.809	11505.7	-8.21555555556	-0.581012658228	-2.5487804878
1619	0.8095	11505.7	0.397777777778	0.840506329114	-5.39268292683
1620	0.81	11505.7	-1.03777777778	-2.00253164557	-13.9243902439
1621	0.8105	11505.7	0.397777777778	-6.26708860759	-2.5487804878
1622	0.811	11505.7	0.397777777778	-4.84556962025	-2.5487804878
1623	0.8115	11505.7	4.70444444444	-0.581012658228	-5.39268292683
1624	0.812	11505.7	-2.47333333333	-0.581012658228	-2.5487804878
1625	0.8125	11505.7	1.83333333333	0.840506329114	0.29512195122
1626	0.813	11505.7	3.26888888889	5.10506329114	14.5146341463
1627	0.8135	11505.7	1.83333333333	19.3202531646	-2.5487804878
1628	0.814	11505.7	7.57555555556	-0.581012658228	-1.12682926829
1629	0.8145	11505.7	19.06	-0.581012658228	-2.5487804878
1630	0.815	11505.7	1.83333333333	-0.581012658228	-5.39268292683
1631	0.8155	11505.7	-1.03777777778	2.26202531646	-2.5487804878
1632	0.816	11505.7	0.397777777778	5.10506329114	-8.23658536585
1633	0.8165	11505.7	0.397777777778	13.6341772152	-3.97073170732
1634	0.817	11505.7	-12.5222222222	2.26202531646	-3.97073170732
1635	0.8175	11505.7	-8.21555555556	0.840506329114	-1.12682926829
1636	0.818	11505.7	3.26888888889	5.10506329114	-2.5487804878
1637	0.8185	11505.7	3.26888888889	-2.00253164557	-2.5487804878
1638	0.819	11505.7	0.397777777778	-3.42405063291	5.98292682927
1639	0.8195	11505.7	4.70444444444	-6.26708860759	-1.12682926829
1640	0.82	11505.7	3.26888888889	-0.581012658228	-2.5487804878
1641	0.8205	11505.7	-2.47333333333	2.26202531646	-2.5487804878
1642	0.821	11505.7	3.26888888889	2.26202531646	0.29512195122
1643	0.8215	11505.7	1.83333333333	3.6835443038	-1.12682926829
1644	0.822	11505.7	0.397777777778	3.6835443038	1.71707317073
1645	0.8225	11505.7	0.397777777778	9.36962025316	-2.5487804878
1646	0.823	11505.7	-8.21555555556	0.840506329114	-5.39268292683
1647	0.8235	11505.7	1.83333333333	2.26202531646	-3.97073170732
1648	0.824	11505.7	4.70444444444	6.52658227848	-3.97073170732
1649	0.8245	11505.7	0.397777777778	3.6835443038	-8.23658536585
1650	0.825	11505.7	0.397777777778	0.840506329114	-1.12682926829
1651	0.8255	11505.7	1.83333333333	-0.581012658228	-3.97073170732
1652	0.826	11505.7	17.6244444444	3.6835443038	-1.12682926829
1653	0.8265	11505.7	-2.47333333333	3.6835443038	-1.12682926829
1654	0.827	11505.7	0.397777777778	7.94810126582	-1.12682926829
1655	0.8275	11505.7	-2.47333333333	6.52658227848	15.9365853659
1656	0.828	11505.7	1.83333333333	10.7911392405	-3.97073170732
1657	0.8285	11505.7	0.397777777778	5.10506329114	-2.5487804878
1658	0.829	11505.7	-6.78	7.94810126582	-3.97073170732
1659	0.8295	11505.7	-11.0866666667	9.36962025316	-1.12682926829
1660	0.83	11505.7	0.397777777778	6.52658227848	-2.5487804878
1661	0.8305	11505.7	0.397777777778	7.94810126582	-6.81463414634
1662	0.831	11505.7	1.83333333333	3.6835443038	-8.23658536585
1663	0.8315	11505.7	0.397777777778	-0.581012658228	-2.5487804878
1664	0.832	11505.7	14.7533333333	9.36962025316	-1.12682926829
1665	0.8325	11505.7	3.26888888889	9.36962025316	-1.12682926829
1666	0.833	11505.7	-2.47333333333	9.36962025316	-8.23658536585
1667	0.8335	11505.7	0.397777777778	-0.581012658228	-6.81463414634
1668	0.834	11505.7	1.83333333333	0.840506329114	-1.12682926829
1669	0.8345	11505.7	3.26888888889	15.0556962025	-1.12682926829
1670	0.835	11505.7	0.397777777778	15.0556962025	0.29512195122
1671	0.8355	11505.7	0.397777777778	15.0556962025	1.71707317073
1672	0.836	11505.7	-1.03777777778	15.0556962025	18.7804878049
1673	0.8365	11505.7	-1.03777777778	16.4772151899	17.3585365854
1674	0.837	11505.7	-2.47333333333	17.8987341772	-1.12682926829
1675	0.8375	11505.7	13.3177777778	17.8987341772	-2.5487804878
1676	0.838	11505.7	-6.78	16.4772151899	-2.5487804878
1677	0.8385	11505.7	-2.47333333333	19.3202531646	-2.5487804878
1678	0.839	11505.7	-2.47333333333	20.7417721519	1.71707317073
1679	0.8395	11505.7	-3.90888888889	20.7417721519	-9.65853658537
1680	0.84	11505.7	-16.8288888889	16.4772151899	-6.81463414634
1681	0.8405	11505.7	-12.5222222222	15.0556962025	-6.81463414634
1682	0.841	11505.7	-3.90888888889	16.4772151899	-8.23658536585
1683	0.8415	11505.7	-3.90888888889	13.6341772152	-8.23658536585
1684	0.842	11505.7	-5.34444444444	15.0556962025	-11.0804878049
1685	0.8425	11505.7	-5.34444444444	7.94810126582	-9.65853658537
1686	0.843	11505.7	-13.9577777778	10.7911392405	-11.0804878049
1687	0.8435	11505.7	-9.65111111111	9.36962025316	-12.5024390244
1688	0.844	11505.7	-6.78	9.36962025316	-15.3463414634
1689	0.8445	11505.7	-6.78	12.2126582278	-23.8780487805
1690	0.845	11505.7	-6.78	15.0556962025	-29.5658536585
1691	0.8455	11505.7	-8.21555555556	0.840506329114	-21.0341463415
1692	0.846	11505.7	-16.8288888889	6.52658227848	-22.456097561
1693	0.8465	11505.7	-16.8288888889	7.94810126582	-26.7219512195
1694	0.847	11505.7	-3.90888888889	6.52658227848	-28.143902439
1695	0.8475	11505.7	-6.78	6.52658227848	-18.1902439024
1696	0.848	11505.7	-5.34444444444	5.10506329114	-32.4097560976
1697	0.8485	11505.7	-8.21555555556	16.4772151899	-35.2536585366
1698	0.849	11505.7	-11.0866666667	6.52658227848	-36.6756097561
1699	0.8495	11505.7	-9.65111111111	3.6835443038	-39.5195121951
1700	0.85	11505.7	-5.34444444444	0.840506329114	-39.5195121951
1701	0.8505	11505.7	-5.34444444444	-2.00253164557	-46.6292682927
1702	0.851	11505.7	-9.65111111111	-10.5316455696	-48.0512195122
1703	0.8515	11505.7	-8.21555555556	-11.953164557	-48.0512195122
1704	0.852	11505.7	-5.34444444444	-3.42405063291	-52.3170731707
1705	0.8525	11505.7	-9.65111111111	-3.42405063291	-52.3170731707
1706	0.853	11505.7	-8.21555555556	-3.42405063291	-63.6926829268
1707	0.8535	11505.7	-6.78	-2.00253164557	-63.6926829268
1708	0.854	11505.7	-8.21555555556	12.2126582278	-60.8487804878
1709	0.8545	11505.7	-9.65111111111	-3.42405063291	-59.4268292683
1710	0.855	11505.7	-11.0866666667	-6.26708860759	-58.0048780488
1711	0.8555	11505.7	-6.78	-2.00253164557	-60.8487804878
1712	0.856	11505.7	-6.78	-4.84556962025	-59.4268292683
1713	0.8565	11505.7	-5.34444444444	-7.68860759494	-67.9585365854
1714	0.857	11505.7	-3.90888888889	-11.953164557	-66.5365853659
1715	0.8575	11505.7	-11.0866666667	-10.5316455696	-67.9585365854
1716	0.858	11505.7	-5.34444444444	-13.3746835443	-66.5365853659
1717	0.8585	11505.7	-2.47333333333	-13.3746835443	-67.9585365854
1718	0.859	11505.7	0.397777777778	-13.3746835443	-62.2707317073
1719	0.8595	11505.7	-1.03777777778	-6.26708860759	-46.6292682927
1720	0.86	11505.7	1.83333333333	0.840506329114	-53.7390243902
1721	0.8605	11505.7	-12.5222222222	-14.7962025316	-49.4731707317
1722	0.861	11505.7	-11.0866666667	-16.217721519	-46.6292682927
1723	0.8615	11505.7	0.397777777778	-17.6392405063	-43.7853658537
1724	0.862	11505.7	3.26888888889	-16.217721519	-43.7853658537
1725	0.8625	11505.7	3.26888888889	-13.3746835443	-39.5195121951
1726	0.863	11505.7	4.70444444444	-19.0607594937	-38.0975609756
1727	0.8635	11505.7	4.70444444444	-19.0607594937	-35.2536585366
1728	0.864	11505.7	1.83333333333	-23.3253164557	-36.6756097561
1729	0.8645	11505.7	6.14	-26.1683544304	-30.987804878
1730	0.865	11505.7	6.14	-37.5405063291	-33.8317073171
1731	0.8655	11505.7	4.70444444444	-38.9620253165	-35.2536585366
1732	0.866	11505.7	6.14	-38.9620253165	-35.2536585366
1733	0.8665	11505.7	6.14	-36.1189873418	-35.2536585366
1734	0.867	11505.7	10.4466666667	-37.5405063291	-35.2536585366
1735	0.8675	11505.7	11.8822222222	-38.9620253165	-33.8317073171
1736	0.868	11505.7	16.1888888889	-37.5405063291	-18.1902439024
1737	0.8685	11505.7	16.1888888889	-26.1683544304	-36.6756097561
1738	0.869	11505.7	16.1888888889	-43.2265822785	-35.2536585366
1739	0.8695	11505.7	19.06	-40.3835443038	-36.6756097561
1740	0.87	11505.7	24.8022222222	-44.6481012658	-35.2536585366
1741	0.8705	11505.7	24.8022222222	-41.8050632911	-36.6756097561
1742	0.871	11505.7	27.6733333333	-36.1189873418	-38.0975609756
1743	0.8715	11505.7	29.1088888889	-46.0696202532	-38.0975609756
1744	0.872	11505.7	33.4155555556	-43.2265822785	-38.0975609756
1745	0.8725	11505.7	24.8022222222	-41.8050632911	-35.2536585366
1746	0.873	11505.7	29.1088888889	-40.3835443038	-39.5195121951
1747	0.8735	11505.7	24.8022222222	-38.9620253165	-36.6756097561
1748	0.874	11505.7	29.1088888889	-31.8544303797	-28.143902439
1749	0.8745	11505.7	31.98	-41.8050632911	-23.8780487805
1750	0.875	11505.7	23.3666666667	-43.2265822785	-22.456097561
1751	0.8755	11505.7	26.2377777778	-44.6481012658	-23.8780487805
1752	0.876	11505.7	24.8022222222	-43.2265822785	-30.987804878
1753	0.8765	11505.7	23.3666666667	-30.4329113924	-21.0341463415
1754	0.877	11505.7	20.4955555556	-44.6481012658	-19.612195122
1755	0.8775	11505.7	17.6244444444	-44.6481012658	-19.612195122
1756	0.878	11505.7	10.4466666667	-40.3835443038	-18.1902439024
1757	0.8785	11505.7	17.6244444444	-40.3835443038	-21.0341463415
1758	0.879	11505.7	16.1888888889	-37.5405063291	-21.0341463415
1759	0.8795	11505.7	17.6244444444	-30.4329113924	-13.9243902439
1760	0.88	11505.7	1.83333333333	-36.1189873418	-12.5024390244
1761	0.8805	11505.7	9.01111111111	-34.6974683544	-9.65853658537
1762	0.881	11505.7	14.7533333333	-34.6974683544	-13.9243902439
1763	0.8815	11505.7	16.1888888889	-36.1189873418	-12.5024390244
1764	0.882	11505.7	10.4466666667	-43.2265822785	-9.65853658537
1765	0.8825	11505.7	14.7533333333	-41.8050632911	-8.23658536585
1766	0.883	11505.7	14.7533333333	-30.4329113924	-9.65853658537
1767	0.8835	11505.7	3.26888888889	-29.0113924051	-8.23658536585
1768	0.884	11505.7	10.4466666667	-29.0113924051	-8.23658536585
1769	0.8845	11505.7	10.4466666667	-29.0113924051	-8.23658536585
1770	0.885	11505.7	11.8822222222	-31.8544303797	-8.23658536585
1771	0.8855	11505.7	10.4466666667	-33.2759493671	-2.5487804878
1772	0.886	11505.7	21.9311111111	-30.4329113924	-1.12682926829
1773	0.8865	11505.7	4.70444444444	-27.5898734177	0.29512195122
1774	0.887	11505.7	6.14	-26.1683544304	0.29512195122
1775	0.8875	11505.7	6.14	-27.5898734177	-11.0804878049
1776	0.888	11505.7	7.57555555556	-13.3746835443	-1.12682926829
1777	0.8885	11505.7	3.26888888889	-27.5898734177	-2.5487804878
1778	0.889	11505.7	3.26888888889	-26.1683544304	0.29512195122
1779	0.8895	11505.7	3.26888888889	-27.5898734177	-1.12682926829
1780	0.89	11505.7	-1.03777777778	-24.746835443	0.29512195122
1781	0.8905	11505.7	1.83333333333	-26.1683544304	3.13902439024
1782	0.891	11505.7	3.26888888889	-27.5898734177	1.71707317073
1783	0.8915	11505.7	-11.0866666667	-27.5898734177	0.29512195122
1784	0.892	11505.7	-6.78	-24.746835443	1.71707317073
1785	0.8925	11505.7	1.83333333333	-23.3253164557	4.56097560976
1786	0.893	11505.7	3.26888888889	-23.3253164557	7.40487804878
1787	0.8935	11505.7	4.70444444444	-34.6974683544	3.13902439024
1788	0.894	11505.7	3.26888888889	-29.0113924051	3.13902439024
1789	0.8945	11505.7	19.06	-21.9037974684	3.13902439024
1790	0.895	11505.7	-1.03777777778	-17.6392405063	3.13902439024
1791	0.8955	11505.7	-1.03777777778	-19.0607594937	3.13902439024
1792	0.896	11505.7	0.397777777778	-17.6392405063	4.56097560976
1793	0.8965	11505.7	-1.03777777778	-19.0607594937	15.9365853659
1794	0.897	11505.7	0.397777777778	-11.953164557	3.13902439024
1795	0.8975	11505.7	6.14	-13.3746835443	7.40487804878
1796	0.898	11505.7	7.57555555556	-11.953164557	7.40487804878
1797	0.8985	11505.7	0.397777777778	-7.68860759494	18.7804878049
1798	0.899	11505.7	-2.47333333333	-6.26708860759	18.7804878049
1799	0.8995	11505.7	0.397777777778	-6.26708860759	1.71707317073
1800	0.9	11505.7	-12.5222222222	-7.68860759494	3.13902439024
1801	0.9005	11505.7	-8.21555555556	-9.11012658228	4.56097560976
1802	0.901	11505.7	0.397777777778	-7.68860759494	5.98292682927
1803	0.9015	11505.7	0.397777777778	-3.42405063291	4.56097560976
1804	0.902	11505.7	0.397777777778	-3.42405063291	23.0463414634
1805	0.9025	11505.7	-1.03777777778	12.2126582278	8.82682926829
1806	0.903	11505.7	-1.03777777778	6.52658227848	8.82682926829
1807	0.9035	11505.7	3.26888888889	-0.581012658228	8.82682926829
1808	0.904	11505.7	-2.47333333333	0.840506329114	13.0926829268
1809	0.9045	11505.7	-1.03777777778	0.840506329114	23.0463414634
1810	0.905	11505.7	1.83333333333	-10.5316455696	11.6707317073
1811	0.9055	11505.7	0.397777777778	-7.68860759494	5.98292682927
1812	0.906	11505.7	16.1888888889	3.6835443038	8.82682926829
1813	0.9065	11505.7	-11.0866666667	3.6835443038	11.6707317073
1814	0.907	11505.7	-2.47333333333	5.10506329114	11.6707317073
1815	0.9075	11505.7	-1.03777777778	7.94810126582	14.5146341463
1816	0.908	11505.7	0.397777777778	20.7417721519	8.82682926829
1817	0.9085	11505.7	0.397777777778	5.10506329114	14.5146341463
1818	0.909	11505.7	-6.78	9.36962025316	10.2487804878
1819	0.9095	11505.7	-12.5222222222	6.52658227848	11.6707317073
1820	0.91	11505.7	-2.47333333333	6.52658227848	4.56097560976
1821	0.9105	11505.7	-2.47333333333	2.26202531646	8.82682926829
1822	0.911	11505.7	-2.47333333333	5.10506329114	8.82682926829
1823	0.9115	11505.7	-12.5222222222	5.10506329114	11.6707317073
1824	0.912	11505.7	-3.90888888889	9.36962025316	13.0926829268
1825	0.9125	11505.7	-1.03777777778	7.94810126582	14.5146341463
1826	0.913	11505.7	-3.90888888889	7.94810126582	25.8902439024
1827	0.9135	11505.7	0.397777777778	7.94810126582	8.82682926829
1828	0.914	11505.7	-6.78	13.6341772152	7.40487804878
1829	0.9145	11505.7	-3.90888888889	13.6341772152	11.6707317073
1830	0.915	11505.7	-1.03777777778	12.2126582278	7.40487804878
1831	0.9155	11505.7	-2.47333333333	13.6341772152	4.56097560976
1832	0.916	11505.7	0.397777777778	7.94810126582	27.312195122
1833	0.9165	11505.7	1.83333333333	27.8493670886	4.56097560976
1834	0.917	11505.7	-3.90888888889	9.36962025316	7.40487804878
1835	0.9175	11505.7	-8.21555555556	10.7911392405	11.6707317073
1836	0.918	11505.7	0.397777777778	12.2126582278	11.6707317073
1837	0.9185	11505.7	-1.03777777778	9.36962025316	8.82682926829
1838	0.919	11505.7	-1.03777777778	15.0556962025	1.71707317073
1839	0.9195	11505.7	-3.90888888889	19.3202531646	13.0926829268
1840	0.92	11505.7	-11.0866666667	15.0556962025	11.6707317073
1841	0.9205	11505.7	-5.34444444444	15.0556962025	11.6707317073
1842	0.921	11505.7	-5.34444444444	17.8987341772	14.5146341463
1843	0.9215	11505.7	-2.47333333333	19.3202531646	15.9365853659
1844	0.922	11505.7	-3.90888888889	32.1139240506	8.82682926829
1845	0.9225	11505.7	-5.34444444444	19.3202531646	8.82682926829
1846	0.923	11505.7	-3.90888888889	17.8987341772	8.82682926829
1847	0.9235	11505.7	-3.90888888889	16.4772151899	7.40487804878
1848	0.924	11505.7	-2.47333333333	17.8987341772	13.0926829268
1849	0.9245	11505.7	-1.03777777778	17.8987341772	11.6707317073
1850	0.925	11505.7	-2.47333333333	22.1632911392	8.82682926829
1851	0.9255	11505.7	-8.21555555556	17.8987341772	11.6707317073
1852	0.926	11505.7	-2.47333333333	15.0556962025	13.0926829268
1853	0.9265	11505.7	-1.03777777778	15.0556962025	13.0926829268
1854	0.927	11505.7	0.397777777778	17.8987341772	14.5146341463
1855	0.9275	11505.7	0.397777777778	6.52658227848	8.82682926829
1856	0.928	11505.7	3.26888888889	6.52658227848	13.0926829268
1857	0.9285	11505.7	4.70444444444	7.94810126582	7.40487804878
1858	0.929	11505.7	0.397777777778	17.8987341772	8.82682926829
1859	0.9295	11505.7	-2.47333333333	17.8987341772	4.56097560976
1860	0.93	11505.7	0.397777777778	15.0556962025	13.0926829268
1861	0.9305	11505.7	0.397777777778	2.26202531646	11.6707317073
1862	0.931	11505.7	-3.90888888889	13.6341772152	14.5146341463
1863	0.9315	11505.7	17.6244444444	16.4772151899	13.0926829268
1864	0.932	11505.7	20.4955555556	19.3202531646	14.5146341463
1865	0.9325	11505.7	0.397777777778	16.4772151899	17.3585365854
1866	0.933	11505.7	1.83333333333	19.3202531646	4.56097560976
1867	0.9335	11505.7	-1.03777777778	32.1139240506	11.6707317073
1868	0.934	11505.7	-1.03777777778	13.6341772152	11.6707317073
1869	0.9345	11505.7	0.397777777778	13.6341772152	7.40487804878
1870	0.935	11505.7	-2.47333333333	13.6341772152	5.98292682927
1871	0.9355	11505.7	-2.47333333333	13.6341772152	7.40487804878
1872	0.936	11505.7	-2.47333333333	15.0556962025	0.29512195122
1873	0.9365	11505.7	-2.47333333333	20.7417721519	1.71707317073
1874	0.937	11505.7	-11.0866666667	7.94810126582	8.82682926829
1875	0.9375	11505.7	-2.47333333333	15.0556962025	8.82682926829
1876	0.938	11505.7	-2.47333333333	15.0556962025	4.56097560976
1877	0.9385	11505.7	-5.34444444444	15.0556962025	-2.5487804878
1878	0.939	11505.7	-6.78	5.10506329114	11.6707317073
1879	0.9395	11505.7	-8.21555555556	6.52658227848	7.40487804878
1880	0.94	11505.7	-6.78	6.52658227848	5.98292682927
1881	0.9405	11505.7	7.57555555556	15.0556962025	7.40487804878
1882	0.941	11505.7	-5.34444444444	16.4772151899	8.82682926829
1883	0.9415	11505.7	-3.90888888889	16.4772151899	8.82682926829
1884	0.942	11505.7	-3.90888888889	27.8493670886	4.56097560976
1885	0.9425	11505.7	-6.78	30.6924050633	7.40487804878
1886	0.943	11505.7	-13.9577777778	17.8987341772	5.98292682927
1887	0.9435	11505.7	-5.34444444444	16.4772151899	7.40487804878
1888	0.944	11505.7	-6.78	16.4772151899	5.98292682927
1889	0.9445	11505.7	-2.47333333333	16.4772151899	23.0463414634
1890	0.945	11505.7	-1.03777777778	25.0063291139	8.82682926829
1891	0.9455	11505.7	0.397777777778	20.7417721519	8.82682926829
1892	0.946	11505.7	-2.47333333333	15.0556962025	7.40487804878
1893	0.9465	11505.7	-3.90888888889	17.8987341772	7.40487804878
1894	0.947	11505.7	0.397777777778	16.4772151899	10.2487804878
1895	0.9475	11505.7	-1.03777777778	19.3202531646	-3.97073170732
1896	0.948	11505.7	-2.47333333333	9.36962025316	7.40487804878
1897	0.9485	11505.7	-1.03777777778	16.4772151899	8.82682926829
1898	0.949	11505.7	-3.90888888889	17.8987341772	7.40487804878
1899	0.9495	11505.7	0.397777777778	17.8987341772	7.40487804878
1900	0.95	11505.7	-2.47333333333	19.3202531646	8.82682926829
1901	0.9505	11505.7	-3.90888888889	27.8493670886	5.98292682927
1902	0.951	11505.7	-5.34444444444	19.3202531646	5.98292682927
1903	0.9515	11505.7	-11.0866666667	20.7417721519	7.40487804878
1904	0.952	11505.7	-1.03777777778	22.1632911392	7.40487804878
1905	0.9525	11505.7	-1.03777777778	22.1632911392	5.98292682927
1906	0.953	11505.7	-1.03777777778	20.7417721519	-1.12682926829
1907	0.9535	11505.7	-2.47333333333	20.7417721519	1.71707317073
1908	0.954	11505.7	-1.03777777778	20.7417721519	7.40487804878
1909	0.9545	11505.7	0.397777777778	22.1632911392	8.82682926829
1910	0.955	11505.7	-1.03777777778	19.3202531646	8.82682926829
1911	0.9555	11505.7	-1.03777777778	19.3202531646	8.82682926829
1912	0.956	11505.7	0.397777777778	20.7417721519	25.8902439024
1913	0.9565	11505.7	-1.03777777778	22.1632911392	7.40487804878
1914	0.957	11505.7	-2.47333333333	22.1632911392	7.40487804878
1915	0.9575	11505.7	-6.78	20.7417721519	5.98292682927
1916	0.958	11505.7	-2.47333333333	19.3202531646	8.82682926829
1917	0.9585	11505.7	-2.47333333333	19.3202531646	7.40487804878
1918	0.959	11505.7	-1.03777777778	20.7417721519	7.40487804878
1919	0.9595	11505.7	-1.03777777778	23.5848101266	7.40487804878
1920	0.96	11505.7	-8.21555555556	19.3202531646	7.40487804878
1921	0.9605	11505.7	-1.03777777778	20.7417721519	7.40487804878
1922	0.961	11505.7	-1.03777777778	16.4772151899	4.56097560976
1923	0.9615	11505.7	-1.03777777778	15.0556962025	7.40487804878
1924	0.962	11505.7	-1.03777777778	16.4772151899	23.0463414634
1925	0.9625	11505.7	-3.90888888889	16.4772151899	7.40487804878
1926	0.963	11505.7	-11.0866666667	15.0556962025	7.40487804878
1927	0.9635	11505.7	-6.78	16.4772151899	7.40487804878
1928	0.964	11505.7	-8.21555555556	15.0556962025	5.98292682927
1929	0.9645	11505.7	-1.03777777778	16.4772151899	0.29512195122
1930	0.965	11505.7	-2.47333333333	30.6924050633	4.56097560976
1931	0.9655	11505.7	-3.90888888889	15.0556962025	7.40487804878
1932	0.966	11505.7	-9.65111111111	16.4772151899	5.98292682927
1933	0.9665	11505.7	-1.03777777778	15.0556962025	7.40487804878
1934	0.967	11505.7	-1.03777777778	15.0556962025	4.56097560976
1935	0.9675	11505.7	-2.47333333333	13.6341772152	18.7804878049
1936	0.968	11505.7	-5.34444444444	17.8987341772	4.56097560976
1937	0.9685	11505.7	-12.5222222222	16.4772151899	3.13902439024
1938	0.969	11505.7	-8.21555555556	15.0556962025	5.98292682927
1939	0.9695	11505.7	-2.47333333333	16.4772151899	4.56097560976
