	Time	Channel 1	Channel 2	Channel 3	Channel 4
0	0.0	-2.00153846154	0.994409937888	-1.43898305085	0.303448275862
1	0.0005	0.810769230769	-0.413664596273	-1.43898305085	0.303448275862
2	0.001	-0.595384615385	-0.413664596273	-1.43898305085	0.303448275862
3	0.0015	5.02923076923	13.6670807453	-1.43898305085	4.56551724138
4	0.002	3.62307692308	0.994409937888	-9.93559322034	0.303448275862
5	0.0025	-0.595384615385	-1.82173913043	-1.43898305085	-2.53793103448
6	0.003	-0.595384615385	2.40248447205	4.22542372881	-1.11724137931
7	0.0035	-3.40769230769	-0.413664596273	-7.10338983051	-11.0620689655
8	0.004	-3.40769230769	-4.63788819876	1.39322033898	-3.95862068966
9	0.0045	0.810769230769	-3.2298136646	-2.85508474576	-8.22068965517
10	0.005	3.62307692308	0.994409937888	-11.3516949153	-3.95862068966
11	0.0055	-0.595384615385	-1.82173913043	-0.0228813559322	-1.11724137931
12	0.006	10.6538461538	2.40248447205	-1.43898305085	-1.11724137931
13	0.0065	-7.62615384615	0.994409937888	1.39322033898	-2.53793103448
14	0.007	-4.81384615385	3.81055900621	2.8093220339	-11.0620689655
15	0.0075	-7.62615384615	-1.82173913043	-8.51949152542	-2.53793103448
16	0.008	-3.40769230769	-8.86211180124	-0.0228813559322	-3.95862068966
17	0.0085	0.810769230769	-7.45403726708	1.39322033898	0.303448275862
18	0.009	3.62307692308	-0.413664596273	2.8093220339	-1.11724137931
19	0.0095	-2.00153846154	0.994409937888	1.39322033898	-1.11724137931
20	0.01	0.810769230769	-1.82173913043	-2.85508474576	-8.22068965517
21	0.0105	3.62307692308	0.994409937888	18.386440678	-5.37931034483
22	0.011	3.62307692308	-1.82173913043	16.9703389831	-1.11724137931
23	0.0115	3.62307692308	-1.82173913043	-0.0228813559322	-2.53793103448
24	0.012	3.62307692308	0.994409937888	-0.0228813559322	1.72413793103
25	0.0125	-6.22	0.994409937888	2.8093220339	-1.11724137931
26	0.013	0.810769230769	0.994409937888	4.22542372881	-3.95862068966
27	0.0135	0.810769230769	0.994409937888	1.39322033898	-5.37931034483
28	0.014	0.810769230769	0.994409937888	-4.27118644068	-1.11724137931
29	0.0145	-0.595384615385	2.40248447205	-8.51949152542	-2.53793103448
30	0.015	-2.00153846154	0.994409937888	-1.43898305085	-3.95862068966
31	0.0155	-13.2507692308	0.994409937888	-0.0228813559322	0.303448275862
32	0.016	3.62307692308	-0.413664596273	-1.43898305085	-6.8
33	0.0165	-0.595384615385	0.994409937888	-0.0228813559322	-11.0620689655
34	0.017	-4.81384615385	-1.82173913043	-5.68728813559	-3.95862068966
35	0.0175	-4.81384615385	-11.6782608696	-1.43898305085	-1.11724137931
36	0.018	-4.81384615385	2.40248447205	-0.0228813559322	-2.53793103448
37	0.0185	-6.22	-0.413664596273	-1.43898305085	-5.37931034483
38	0.019	13.4661538462	0.994409937888	-0.0228813559322	-2.53793103448
39	0.0195	3.62307692308	-0.413664596273	5.64152542373	-8.22068965517
40	0.02	0.810769230769	0.994409937888	1.39322033898	0.303448275862
41	0.0205	2.21692307692	3.81055900621	7.05762711864	-3.95862068966
42	0.021	3.62307692308	-4.63788819876	1.39322033898	-2.53793103448
43	0.0215	-2.00153846154	-10.2701863354	2.8093220339	-2.53793103448
44	0.022	16.2784615385	-0.413664596273	2.8093220339	-11.0620689655
45	0.0225	-6.22	-0.413664596273	1.39322033898	1.72413793103
46	0.023	-3.40769230769	2.40248447205	1.39322033898	8.8275862069
47	0.0235	-3.40769230769	2.40248447205	-0.0228813559322	-2.53793103448
48	0.024	-4.81384615385	15.0751552795	-2.85508474576	-1.11724137931
49	0.0245	-3.40769230769	-1.82173913043	1.39322033898	-1.11724137931
50	0.025	-6.22	0.994409937888	-1.43898305085	-1.11724137931
51	0.0255	-6.22	-1.82173913043	-1.43898305085	3.14482758621
52	0.026	-0.595384615385	-0.413664596273	-12.7677966102	-1.11724137931
53	0.0265	-2.00153846154	-0.413664596273	-9.93559322034	-1.11724137931
54	0.027	-3.40769230769	2.40248447205	2.8093220339	1.72413793103
55	0.0275	-4.81384615385	-1.82173913043	1.39322033898	0.303448275862
56	0.028	-6.22	-0.413664596273	-1.43898305085	-2.53793103448
57	0.0285	16.2784615385	-1.82173913043	-1.43898305085	-3.95862068966
58	0.029	-0.595384615385	-0.413664596273	-1.43898305085	-13.9034482759
59	0.0295	-0.595384615385	-0.413664596273	-12.7677966102	-3.95862068966
60	0.03	0.810769230769	2.40248447205	-0.0228813559322	-2.53793103448
61	0.0305	-0.595384615385	0.994409937888	-0.0228813559322	-1.11724137931
62	0.031	-4.81384615385	-0.413664596273	-0.0228813559322	-2.53793103448
63	0.0315	21.9030769231	0.994409937888	-1.43898305085	-3.95862068966
64	0.032	2.21692307692	-0.413664596273	-0.0228813559322	-13.9034482759
65	0.0325	-0.595384615385	-0.413664596273	-11.3516949153	-5.37931034483
66	0.033	0.810769230769	-0.413664596273	-0.0228813559322	-3.95862068966
67	0.0335	-0.595384615385	-3.2298136646	-0.0228813559322	-3.95862068966
68	0.034	0.810769230769	-11.6782608696	-1.43898305085	-1.11724137931
69	0.0345	3.62307692308	-1.82173913043	-1.43898305085	-2.53793103448
70	0.035	-2.00153846154	-3.2298136646	2.8093220339	-1.11724137931
71	0.0355	-0.595384615385	-1.82173913043	4.22542372881	-3.95862068966
72	0.036	-3.40769230769	-1.82173913043	-2.85508474576	-1.11724137931
73	0.0365	-2.00153846154	-0.413664596273	-1.43898305085	-1.11724137931
74	0.037	-2.00153846154	17.8913043478	-1.43898305085	-1.11724137931
75	0.0375	-10.4384615385	-0.413664596273	-0.0228813559322	-1.11724137931
76	0.038	12.06	-3.2298136646	1.39322033898	-3.95862068966
77	0.0385	2.21692307692	-0.413664596273	-2.85508474576	-12.4827586207
78	0.039	0.810769230769	0.994409937888	-9.93559322034	-2.53793103448
79	0.0395	-0.595384615385	3.81055900621	-1.43898305085	0.303448275862
80	0.04	-0.595384615385	2.40248447205	-0.0228813559322	1.72413793103
81	0.0405	2.21692307692	-4.63788819876	1.39322033898	0.303448275862
82	0.041	-3.40769230769	-4.63788819876	1.39322033898	-1.11724137931
83	0.0415	-0.595384615385	2.40248447205	-0.0228813559322	-12.4827586207
84	0.042	0.810769230769	0.994409937888	-9.93559322034	-9.64137931034
85	0.0425	-0.595384615385	-0.413664596273	-7.10338983051	-1.11724137931
86	0.043	-2.00153846154	-8.86211180124	-0.0228813559322	-2.53793103448
87	0.0435	-0.595384615385	-4.63788819876	-1.43898305085	-1.11724137931
88	0.044	-7.62615384615	-0.413664596273	1.39322033898	-1.11724137931
89	0.0445	16.2784615385	-3.2298136646	-0.0228813559322	-2.53793103448
90	0.045	-0.595384615385	-1.82173913043	-8.51949152542	-2.53793103448
91	0.0455	2.21692307692	-4.63788819876	-8.51949152542	-3.95862068966
92	0.046	3.62307692308	3.81055900621	-4.27118644068	-1.11724137931
93	0.0465	0.810769230769	9.44285714286	-0.0228813559322	-2.53793103448
94	0.047	-11.8446153846	-0.413664596273	-1.43898305085	-1.11724137931
95	0.0475	10.6538461538	-0.413664596273	1.39322033898	-5.37931034483
96	0.048	-0.595384615385	-3.2298136646	2.8093220339	-9.64137931034
97	0.0485	-0.595384615385	-0.413664596273	19.8025423729	-2.53793103448
98	0.049	2.21692307692	-14.4944099379	-1.43898305085	-2.53793103448
99	0.0495	2.21692307692	-8.86211180124	-0.0228813559322	-3.95862068966
100	0.05	5.02923076923	-1.82173913043	1.39322033898	-3.95862068966
101	0.0505	17.6846153846	-0.413664596273	1.39322033898	-2.53793103448
102	0.051	0.810769230769	0.994409937888	-8.51949152542	-2.53793103448
103	0.0515	-0.595384615385	0.994409937888	-1.43898305085	-1.11724137931
104	0.052	-3.40769230769	0.994409937888	15.5542372881	-5.37931034483
105	0.0525	-2.00153846154	-8.86211180124	-1.43898305085	-1.11724137931
106	0.053	0.810769230769	-1.82173913043	2.8093220339	-2.53793103448
107	0.0535	14.8723076923	-1.82173913043	2.8093220339	-8.22068965517
108	0.054	-6.22	-0.413664596273	2.8093220339	-6.8
109	0.0545	-4.81384615385	0.994409937888	5.64152542373	-2.53793103448
110	0.055	-4.81384615385	-3.2298136646	-0.0228813559322	0.303448275862
111	0.0555	-0.595384615385	16.4832298137	-1.43898305085	-2.53793103448
112	0.056	-3.40769230769	0.994409937888	-0.0228813559322	-1.11724137931
113	0.0565	-7.62615384615	-1.82173913043	2.8093220339	4.56551724138
114	0.057	-2.00153846154	-0.413664596273	1.39322033898	7.40689655172
115	0.0575	-2.00153846154	-1.82173913043	-0.0228813559322	-6.8
116	0.058	2.21692307692	0.994409937888	-7.10338983051	-1.11724137931
117	0.0585	0.810769230769	10.850931677	-1.43898305085	0.303448275862
118	0.059	2.21692307692	17.8913043478	-1.43898305085	-1.11724137931
119	0.0595	-7.62615384615	0.994409937888	-0.0228813559322	0.303448275862
120	0.06	2.21692307692	0.994409937888	-11.3516949153	-3.95862068966
121	0.0605	-0.595384615385	-0.413664596273	-7.10338983051	-3.95862068966
122	0.061	0.810769230769	2.40248447205	-1.43898305085	-1.11724137931
123	0.0615	0.810769230769	5.21863354037	-0.0228813559322	-1.11724137931
124	0.062	-0.595384615385	-6.04596273292	-0.0228813559322	-2.53793103448
125	0.0625	10.6538461538	-0.413664596273	-0.0228813559322	-3.95862068966
126	0.063	-0.595384615385	0.994409937888	-1.43898305085	-6.8
127	0.0635	-0.595384615385	-1.82173913043	-9.93559322034	-5.37931034483
128	0.064	0.810769230769	0.994409937888	-0.0228813559322	-3.95862068966
129	0.0645	-0.595384615385	2.40248447205	-1.43898305085	-1.11724137931
130	0.065	-4.81384615385	-1.82173913043	-1.43898305085	0.303448275862
131	0.0655	-14.6569230769	-1.82173913043	-0.0228813559322	3.14482758621
132	0.066	-6.22	-1.82173913043	-9.93559322034	-1.11724137931
133	0.0665	-3.40769230769	-1.82173913043	-0.0228813559322	-1.11724137931
134	0.067	-4.81384615385	0.994409937888	7.05762711864	-1.11724137931
135	0.0675	-2.00153846154	5.21863354037	-0.0228813559322	-1.11724137931
136	0.068	-7.62615384615	0.994409937888	-0.0228813559322	0.303448275862
137	0.0685	-0.595384615385	-3.2298136646	1.39322033898	-1.11724137931
138	0.069	-6.22	-1.82173913043	2.8093220339	-1.11724137931
139	0.0695	3.62307692308	-0.413664596273	12.7220338983	-1.11724137931
140	0.07	5.02923076923	-3.2298136646	-1.43898305085	-2.53793103448
141	0.0705	9.24769230769	16.4832298137	1.39322033898	0.303448275862
142	0.071	3.62307692308	-13.0863354037	-1.43898305085	-2.53793103448
143	0.0715	20.4969230769	-4.63788819876	2.8093220339	-2.53793103448
144	0.072	-3.40769230769	0.994409937888	2.8093220339	-6.8
145	0.0725	-2.00153846154	-1.82173913043	2.8093220339	0.303448275862
146	0.073	-3.40769230769	-10.2701863354	2.8093220339	0.303448275862
147	0.0735	2.21692307692	-3.2298136646	-1.43898305085	1.72413793103
148	0.074	7.84153846154	-1.82173913043	-1.43898305085	-1.11724137931
149	0.0745	13.4661538462	-0.413664596273	1.39322033898	-1.11724137931
150	0.075	3.62307692308	0.994409937888	-7.10338983051	-3.95862068966
151	0.0755	-0.595384615385	0.994409937888	-1.43898305085	-6.8
152	0.076	-0.595384615385	-1.82173913043	-1.43898305085	-1.11724137931
153	0.0765	-3.40769230769	-3.2298136646	-0.0228813559322	-2.53793103448
154	0.077	2.21692307692	-3.2298136646	-0.0228813559322	-2.53793103448
155	0.0775	17.6846153846	-0.413664596273	1.39322033898	-9.64137931034
156	0.078	-2.00153846154	-0.413664596273	-1.43898305085	-8.22068965517
157	0.0785	2.21692307692	-1.82173913043	-5.68728813559	-1.11724137931
158	0.079	-0.595384615385	0.994409937888	-0.0228813559322	-1.11724137931
159	0.0795	-3.40769230769	-1.82173913043	-0.0228813559322	-1.11724137931
160	0.08	-2.00153846154	-1.82173913043	-0.0228813559322	-2.53793103448
161	0.0805	16.2784615385	-1.82173913043	-1.43898305085	-1.11724137931
162	0.081	-2.00153846154	-1.82173913043	2.8093220339	-3.95862068966
163	0.0815	-0.595384615385	0.994409937888	1.39322033898	-1.11724137931
164	0.082	-0.595384615385	-11.6782608696	-0.0228813559322	-1.11724137931
165	0.0825	0.810769230769	-0.413664596273	-0.0228813559322	0.303448275862
166	0.083	2.21692307692	-1.82173913043	-0.0228813559322	0.303448275862
167	0.0835	5.02923076923	0.994409937888	-0.0228813559322	-2.53793103448
168	0.084	3.62307692308	-0.413664596273	-1.43898305085	1.72413793103
169	0.0845	3.62307692308	0.994409937888	15.5542372881	-1.11724137931
170	0.085	3.62307692308	0.994409937888	1.39322033898	-1.11724137931
171	0.0855	-0.595384615385	16.4832298137	-1.43898305085	-1.11724137931
172	0.086	-16.0630769231	-1.82173913043	-0.0228813559322	-1.11724137931
173	0.0865	13.4661538462	-1.82173913043	1.39322033898	-1.11724137931
174	0.087	-6.22	-3.2298136646	-1.43898305085	-5.37931034483
175	0.0875	-3.40769230769	2.40248447205	-2.85508474576	-8.22068965517
176	0.088	-4.81384615385	0.994409937888	-0.0228813559322	-2.53793103448
177	0.0885	-3.40769230769	0.994409937888	-1.43898305085	-1.11724137931
178	0.089	-6.22	-4.63788819876	-1.43898305085	-1.11724137931
179	0.0895	14.8723076923	-1.82173913043	-1.43898305085	-8.22068965517
180	0.09	-0.595384615385	-1.82173913043	-0.0228813559322	-13.9034482759
181	0.0905	0.810769230769	-0.413664596273	16.9703389831	-2.53793103448
182	0.091	2.21692307692	-1.82173913043	12.7220338983	-2.53793103448
183	0.0915	3.62307692308	-1.82173913043	2.8093220339	0.303448275862
184	0.092	3.62307692308	-0.413664596273	-0.0228813559322	-1.11724137931
185	0.0925	6.43538461538	-0.413664596273	2.8093220339	-2.53793103448
186	0.093	-0.595384615385	-3.2298136646	-2.85508474576	-6.8
187	0.0935	-0.595384615385	-0.413664596273	-0.0228813559322	-6.8
188	0.094	-0.595384615385	-0.413664596273	1.39322033898	-1.11724137931
189	0.0945	-3.40769230769	-10.2701863354	-0.0228813559322	-1.11724137931
190	0.095	0.810769230769	0.994409937888	-0.0228813559322	0.303448275862
191	0.0955	19.0907692308	-0.413664596273	-1.43898305085	-1.11724137931
192	0.096	-4.81384615385	0.994409937888	-1.43898305085	17.3517241379
193	0.0965	-4.81384615385	0.994409937888	16.9703389831	-2.53793103448
194	0.097	-4.81384615385	-1.82173913043	16.9703389831	0.303448275862
195	0.0975	-0.595384615385	-13.0863354037	1.39322033898	0.303448275862
196	0.098	2.21692307692	-4.63788819876	1.39322033898	1.72413793103
197	0.0985	-10.4384615385	-4.63788819876	-0.0228813559322	1.72413793103
198	0.099	2.21692307692	-3.2298136646	-1.43898305085	-1.11724137931
199	0.0995	-2.00153846154	-0.413664596273	-0.0228813559322	0.303448275862
200	0.1	-0.595384615385	-1.82173913043	-2.85508474576	-1.11724137931
201	0.1005	-0.595384615385	-0.413664596273	1.39322033898	1.72413793103
202	0.101	-3.40769230769	-1.82173913043	-0.0228813559322	0.303448275862
203	0.1015	-13.2507692308	-0.413664596273	-1.43898305085	0.303448275862
204	0.102	-3.40769230769	-0.413664596273	1.39322033898	-2.53793103448
205	0.1025	-3.40769230769	-0.413664596273	-0.0228813559322	13.0896551724
206	0.103	-4.81384615385	-0.413664596273	-5.68728813559	-1.11724137931
207	0.1035	-6.22	-0.413664596273	-4.27118644068	-1.11724137931
208	0.104	-3.40769230769	5.21863354037	-0.0228813559322	-2.53793103448
209	0.1045	-10.4384615385	-1.82173913043	1.39322033898	-1.11724137931
210	0.105	12.06	-1.82173913043	-1.43898305085	-2.53793103448
211	0.1055	2.21692307692	-0.413664596273	-0.0228813559322	-11.0620689655
212	0.106	3.62307692308	-1.82173913043	2.8093220339	-8.22068965517
213	0.1065	3.62307692308	-14.4944099379	-0.0228813559322	-1.11724137931
214	0.107	5.02923076923	-3.2298136646	-1.43898305085	-2.53793103448
215	0.1075	9.24769230769	8.0347826087	1.39322033898	-2.53793103448
216	0.108	3.62307692308	-0.413664596273	1.39322033898	-1.11724137931
217	0.1085	5.02923076923	-0.413664596273	2.8093220339	-9.64137931034
218	0.109	3.62307692308	-0.413664596273	19.8025423729	-2.53793103448
219	0.1095	0.810769230769	-1.82173913043	-0.0228813559322	-1.11724137931
220	0.11	3.62307692308	-0.413664596273	1.39322033898	-2.53793103448
221	0.1105	2.21692307692	9.44285714286	1.39322033898	-2.53793103448
222	0.111	-4.81384615385	-0.413664596273	4.22542372881	-1.11724137931
223	0.1115	-0.595384615385	-0.413664596273	2.8093220339	15.9310344828
224	0.112	-0.595384615385	-3.2298136646	16.9703389831	-1.11724137931
225	0.1125	-2.00153846154	-3.2298136646	18.386440678	-3.95862068966
226	0.113	-0.595384615385	-11.6782608696	-2.85508474576	-1.11724137931
227	0.1135	0.810769230769	-0.413664596273	2.8093220339	-1.11724137931
228	0.114	0.810769230769	0.994409937888	2.8093220339	-1.11724137931
229	0.1145	-9.03230769231	0.994409937888	2.8093220339	18.7724137931
230	0.115	-0.595384615385	2.40248447205	4.22542372881	-1.11724137931
231	0.1155	2.21692307692	-1.82173913043	-1.43898305085	-1.11724137931
232	0.116	-2.00153846154	-3.2298136646	-4.27118644068	-1.11724137931
233	0.1165	0.810769230769	-1.82173913043	-1.43898305085	0.303448275862
234	0.117	-7.62615384615	-1.82173913043	2.8093220339	1.72413793103
235	0.1175	-6.22	-1.82173913043	1.39322033898	3.14482758621
236	0.118	2.21692307692	-1.82173913043	12.7220338983	0.303448275862
237	0.1185	3.62307692308	-0.413664596273	8.47372881356	-1.11724137931
238	0.119	0.810769230769	-7.45403726708	2.8093220339	0.303448275862
239	0.1195	-0.595384615385	-4.63788819876	-0.0228813559322	-1.11724137931
240	0.12	9.24769230769	0.994409937888	2.8093220339	-9.64137931034
241	0.1205	-9.03230769231	-0.413664596273	-0.0228813559322	-6.8
242	0.121	-7.62615384615	-1.82173913043	1.39322033898	8.8275862069
243	0.1215	-4.81384615385	0.994409937888	12.7220338983	0.303448275862
244	0.122	-6.22	-1.82173913043	-0.0228813559322	0.303448275862
245	0.1225	-4.81384615385	-6.04596273292	-0.0228813559322	3.14482758621
246	0.123	-2.00153846154	2.40248447205	-0.0228813559322	0.303448275862
247	0.1235	17.6846153846	-1.82173913043	2.8093220339	-1.11724137931
248	0.124	-2.00153846154	0.994409937888	-7.10338983051	-9.64137931034
249	0.1245	-2.00153846154	0.994409937888	-9.93559322034	-2.53793103448
250	0.125	2.21692307692	3.81055900621	1.39322033898	1.72413793103
251	0.1255	-3.40769230769	-3.2298136646	-0.0228813559322	1.72413793103
252	0.126	-13.2507692308	-6.04596273292	-1.43898305085	-1.11724137931
253	0.1265	-4.81384615385	-0.413664596273	-1.43898305085	0.303448275862
254	0.127	-4.81384615385	-0.413664596273	-0.0228813559322	-3.95862068966
255	0.1275	-6.22	-0.413664596273	-4.27118644068	0.303448275862
256	0.128	-4.81384615385	-0.413664596273	-5.68728813559	0.303448275862
257	0.1285	-6.22	-1.82173913043	1.39322033898	3.14482758621
258	0.129	-13.2507692308	-1.82173913043	-0.0228813559322	0.303448275862
259	0.1295	-17.4692307692	-1.82173913043	4.22542372881	13.0896551724
260	0.13	-7.62615384615	-1.82173913043	4.22542372881	1.72413793103
261	0.1305	-7.62615384615	-3.2298136646	-0.0228813559322	0.303448275862
262	0.131	-6.22	-3.2298136646	-5.68728813559	-2.53793103448
263	0.1315	-3.40769230769	16.4832298137	1.39322033898	-1.11724137931
264	0.132	-10.4384615385	0.994409937888	-1.43898305085	1.72413793103
265	0.1325	-14.6569230769	2.40248447205	-0.0228813559322	-1.11724137931
266	0.133	-3.40769230769	0.994409937888	2.8093220339	-9.64137931034
267	0.1335	-3.40769230769	-1.82173913043	-0.0228813559322	-1.11724137931
268	0.134	0.810769230769	-10.2701863354	-0.0228813559322	0.303448275862
269	0.1345	3.62307692308	-10.2701863354	-0.0228813559322	0.303448275862
270	0.135	2.21692307692	0.994409937888	-0.0228813559322	-2.53793103448
271	0.1355	14.8723076923	-1.82173913043	1.39322033898	-11.0620689655
272	0.136	-2.00153846154	-0.413664596273	-7.10338983051	0.303448275862
273	0.1365	2.21692307692	-0.413664596273	7.05762711864	1.72413793103
274	0.137	7.84153846154	-3.2298136646	-1.43898305085	-1.11724137931
275	0.1375	2.21692307692	15.0751552795	1.39322033898	-2.53793103448
276	0.138	-7.62615384615	0.994409937888	2.8093220339	-2.53793103448
277	0.1385	-2.00153846154	0.994409937888	2.8093220339	-6.8
278	0.139	-2.00153846154	-1.82173913043	-0.0228813559322	3.14482758621
279	0.1395	0.810769230769	0.994409937888	16.9703389831	-1.11724137931
280	0.14	-3.40769230769	2.40248447205	-0.0228813559322	-2.53793103448
281	0.1405	-3.40769230769	17.8913043478	-0.0228813559322	-1.11724137931
282	0.141	-6.22	-1.82173913043	1.39322033898	-1.11724137931
283	0.1415	9.24769230769	-0.413664596273	-0.0228813559322	-2.53793103448
284	0.142	-4.81384615385	-0.413664596273	1.39322033898	13.0896551724
285	0.1425	0.810769230769	-3.2298136646	-4.27118644068	-2.53793103448
286	0.143	2.21692307692	-0.413664596273	-4.27118644068	0.303448275862
287	0.1435	-0.595384615385	15.0751552795	1.39322033898	1.72413793103
288	0.144	-3.40769230769	-3.2298136646	1.39322033898	0.303448275862
289	0.1445	-13.2507692308	-0.413664596273	-1.43898305085	0.303448275862
290	0.145	-2.00153846154	-1.82173913043	-0.0228813559322	-9.64137931034
291	0.1455	0.810769230769	-3.2298136646	-8.51949152542	-1.11724137931
292	0.146	-2.00153846154	-1.82173913043	-1.43898305085	-1.11724137931
293	0.1465	-4.81384615385	-6.04596273292	1.39322033898	0.303448275862
294	0.147	0.810769230769	-6.04596273292	-0.0228813559322	0.303448275862
295	0.1475	-4.81384615385	-0.413664596273	-0.0228813559322	-3.95862068966
296	0.148	17.6846153846	0.994409937888	2.8093220339	-1.11724137931
297	0.1485	-0.595384615385	-0.413664596273	-12.7677966102	-5.37931034483
298	0.149	0.810769230769	-0.413664596273	-11.3516949153	0.303448275862
299	0.1495	-2.00153846154	0.994409937888	-0.0228813559322	0.303448275862
300	0.15	-2.00153846154	-3.2298136646	-0.0228813559322	-1.11724137931
301	0.1505	-9.03230769231	-0.413664596273	2.8093220339	-1.11724137931
302	0.151	10.6538461538	-3.2298136646	2.8093220339	-1.11724137931
303	0.1515	0.810769230769	-1.82173913043	-0.0228813559322	14.5103448276
304	0.152	3.62307692308	-0.413664596273	14.1381355932	1.72413793103
305	0.1525	2.21692307692	-0.413664596273	1.39322033898	-1.11724137931
306	0.153	7.84153846154	15.0751552795	-0.0228813559322	-1.11724137931
307	0.1535	0.810769230769	-4.63788819876	2.8093220339	0.303448275862
308	0.154	-7.62615384615	-0.413664596273	-0.0228813559322	0.303448275862
309	0.1545	-2.00153846154	0.994409937888	4.22542372881	4.56551724138
310	0.155	-0.595384615385	0.994409937888	1.39322033898	7.40689655172
311	0.1555	0.810769230769	-4.63788819876	-0.0228813559322	-2.53793103448
312	0.156	-2.00153846154	6.62670807453	-1.43898305085	0.303448275862
313	0.1565	-2.00153846154	-8.86211180124	-0.0228813559322	-1.11724137931
314	0.157	-9.03230769231	2.40248447205	1.39322033898	-3.95862068966
315	0.1575	-2.00153846154	2.40248447205	-0.0228813559322	-8.22068965517
316	0.158	-0.595384615385	-0.413664596273	18.386440678	-2.53793103448
317	0.1585	-0.595384615385	-1.82173913043	16.9703389831	-2.53793103448
318	0.159	-3.40769230769	-13.0863354037	-0.0228813559322	-2.53793103448
319	0.1595	5.02923076923	-0.413664596273	1.39322033898	-1.11724137931
320	0.16	9.24769230769	-3.2298136646	1.39322033898	-5.37931034483
321	0.1605	-4.81384615385	-0.413664596273	2.8093220339	17.3517241379
322	0.161	-0.595384615385	0.994409937888	1.39322033898	15.9310344828
323	0.1615	0.810769230769	-1.82173913043	2.8093220339	-1.11724137931
324	0.162	0.810769230769	-10.2701863354	-0.0228813559322	-2.53793103448
325	0.1625	0.810769230769	-10.2701863354	1.39322033898	-1.11724137931
326	0.163	2.21692307692	-0.413664596273	2.8093220339	-1.11724137931
327	0.1635	-7.62615384615	-0.413664596273	-0.0228813559322	0.303448275862
328	0.164	-3.40769230769	0.994409937888	4.22542372881	-9.64137931034
329	0.1645	-0.595384615385	-1.82173913043	4.22542372881	-1.11724137931
330	0.165	-0.595384615385	-10.2701863354	1.39322033898	-1.11724137931
331	0.1655	-0.595384615385	3.81055900621	-0.0228813559322	0.303448275862
332	0.166	-2.00153846154	-7.45403726708	-1.43898305085	-1.11724137931
333	0.1665	16.2784615385	-0.413664596273	-0.0228813559322	-11.0620689655
334	0.167	2.21692307692	-0.413664596273	4.22542372881	-6.8
335	0.1675	5.02923076923	-3.2298136646	2.8093220339	1.72413793103
336	0.168	7.84153846154	-0.413664596273	-2.85508474576	-1.11724137931
337	0.1685	0.810769230769	6.62670807453	-1.43898305085	-1.11724137931
338	0.169	-3.40769230769	-10.2701863354	-0.0228813559322	-2.53793103448
339	0.1695	-14.6569230769	0.994409937888	1.39322033898	-1.11724137931
340	0.17	-2.00153846154	-1.82173913043	-0.0228813559322	-6.8
341	0.1705	0.810769230769	-3.2298136646	1.39322033898	11.6689655172
342	0.171	2.21692307692	-1.82173913043	18.386440678	-2.53793103448
343	0.1715	2.21692307692	-11.6782608696	-0.0228813559322	-2.53793103448
344	0.172	3.62307692308	-10.2701863354	-1.43898305085	0.303448275862
345	0.1725	7.84153846154	-1.82173913043	-1.43898305085	-2.53793103448
346	0.173	14.8723076923	-1.82173913043	-0.0228813559322	-3.95862068966
347	0.1735	-4.81384615385	2.40248447205	-7.10338983051	-2.53793103448
348	0.174	-7.62615384615	0.994409937888	12.7220338983	-3.95862068966
349	0.1745	-11.8446153846	-3.2298136646	1.39322033898	-1.11724137931
350	0.175	-4.81384615385	17.8913043478	-1.43898305085	-2.53793103448
351	0.1755	-7.62615384615	-6.04596273292	-0.0228813559322	-1.11724137931
352	0.176	19.0907692308	-0.413664596273	-0.0228813559322	-13.9034482759
353	0.1765	0.810769230769	-0.413664596273	2.8093220339	-6.8
354	0.177	7.84153846154	-1.82173913043	11.3059322034	0.303448275862
355	0.1775	10.6538461538	0.994409937888	-4.27118644068	-1.11724137931
356	0.178	5.02923076923	13.6670807453	-0.0228813559322	-1.11724137931
357	0.1785	-0.595384615385	-1.82173913043	2.8093220339	0.303448275862
358	0.179	-16.0630769231	-1.82173913043	-0.0228813559322	-1.11724137931
359	0.1795	-13.2507692308	-0.413664596273	-0.0228813559322	-1.11724137931
360	0.18	-4.81384615385	0.994409937888	2.8093220339	3.14482758621
361	0.1805	-2.00153846154	-0.413664596273	-4.27118644068	-2.53793103448
362	0.181	-4.81384615385	-6.04596273292	1.39322033898	-2.53793103448
363	0.1815	-6.22	-1.82173913043	-0.0228813559322	0.303448275862
364	0.182	-11.8446153846	-1.82173913043	-0.0228813559322	-1.11724137931
365	0.1825	-14.6569230769	-0.413664596273	2.8093220339	3.14482758621
366	0.183	-2.00153846154	-3.2298136646	1.39322033898	-12.4827586207
367	0.1835	-3.40769230769	-3.2298136646	-7.10338983051	-1.11724137931
368	0.184	-0.595384615385	-8.86211180124	-0.0228813559322	-2.53793103448
369	0.1845	-2.00153846154	-8.86211180124	-1.43898305085	-2.53793103448
370	0.185	0.810769230769	-0.413664596273	-1.43898305085	-5.37931034483
371	0.1855	14.8723076923	-1.82173913043	-0.0228813559322	-5.37931034483
372	0.186	-4.81384615385	0.994409937888	-12.7677966102	0.303448275862
373	0.1865	-3.40769230769	-1.82173913043	-9.93559322034	-2.53793103448
374	0.187	-4.81384615385	2.40248447205	-0.0228813559322	-1.11724137931
375	0.1875	-3.40769230769	-1.82173913043	1.39322033898	-1.11724137931
376	0.188	-11.8446153846	-1.82173913043	-0.0228813559322	3.14482758621
377	0.1885	-9.03230769231	0.994409937888	2.8093220339	-9.64137931034
378	0.189	-3.40769230769	-0.413664596273	-11.3516949153	-6.8
379	0.1895	-0.595384615385	-1.82173913043	-4.27118644068	-1.11724137931
380	0.19	-4.81384615385	-10.2701863354	1.39322033898	-1.11724137931
381	0.1905	-4.81384615385	2.40248447205	1.39322033898	0.303448275862
382	0.191	-7.62615384615	-4.63788819876	-0.0228813559322	0.303448275862
383	0.1915	16.2784615385	-0.413664596273	2.8093220339	-6.8
384	0.192	0.810769230769	-0.413664596273	2.8093220339	-11.0620689655
385	0.1925	-0.595384615385	-0.413664596273	4.22542372881	-5.37931034483
386	0.193	2.21692307692	-11.6782608696	2.8093220339	-2.53793103448
387	0.1935	3.62307692308	-4.63788819876	1.39322033898	0.303448275862
388	0.194	3.62307692308	-0.413664596273	-0.0228813559322	-2.53793103448
389	0.1945	5.02923076923	-0.413664596273	2.8093220339	-1.11724137931
390	0.195	-9.03230769231	0.994409937888	1.39322033898	-2.53793103448
391	0.1955	-4.81384615385	0.994409937888	14.1381355932	-1.11724137931
392	0.196	-3.40769230769	-3.2298136646	-0.0228813559322	-1.11724137931
393	0.1965	-6.22	-4.63788819876	-1.43898305085	-2.53793103448
394	0.197	-2.00153846154	-6.04596273292	-1.43898305085	-2.53793103448
395	0.1975	13.4661538462	-0.413664596273	-1.43898305085	-1.11724137931
396	0.198	-3.40769230769	-0.413664596273	-1.43898305085	3.14482758621
397	0.1985	2.21692307692	0.994409937888	-4.27118644068	-8.22068965517
398	0.199	-0.595384615385	-0.413664596273	-5.68728813559	-1.11724137931
399	0.1995	-3.40769230769	0.994409937888	-9.93559322034	-2.53793103448
400	0.2	-2.00153846154	17.8913043478	-1.43898305085	-1.11724137931
401	0.2005	-18.8753846154	-1.82173913043	-0.0228813559322	1.72413793103
402	0.201	-10.4384615385	-0.413664596273	1.39322033898	7.40689655172
403	0.2015	0.810769230769	-3.2298136646	1.39322033898	4.56551724138
404	0.202	-0.595384615385	-4.63788819876	12.7220338983	-3.95862068966
405	0.2025	-2.00153846154	-13.0863354037	-0.0228813559322	-3.95862068966
406	0.203	0.810769230769	15.0751552795	-1.43898305085	-5.37931034483
407	0.2035	-11.8446153846	0.994409937888	1.39322033898	-1.11724137931
408	0.204	-2.00153846154	-0.413664596273	-0.0228813559322	5.98620689655
409	0.2045	0.810769230769	-1.82173913043	2.8093220339	-8.22068965517
410	0.205	-2.00153846154	0.994409937888	1.39322033898	-9.64137931034
411	0.2055	-2.00153846154	-0.413664596273	-1.43898305085	-1.11724137931
412	0.206	-0.595384615385	10.850931677	4.22542372881	-2.53793103448
413	0.2065	-0.595384615385	0.994409937888	4.22542372881	-1.11724137931
414	0.207	-11.8446153846	-0.413664596273	4.22542372881	-2.53793103448
415	0.2075	-6.22	0.994409937888	-2.85508474576	7.40689655172
416	0.208	-0.595384615385	-0.413664596273	14.1381355932	-8.22068965517
417	0.2085	-4.81384615385	-3.2298136646	4.22542372881	-2.53793103448
418	0.209	-4.81384615385	-1.82173913043	-2.85508474576	-5.37931034483
419	0.2095	-3.40769230769	-3.2298136646	-1.43898305085	-3.95862068966
420	0.21	-7.62615384615	-4.63788819876	-0.0228813559322	-5.37931034483
421	0.2105	-10.4384615385	-4.63788819876	4.22542372881	-15.324137931
422	0.211	-4.81384615385	-3.2298136646	16.9703389831	-8.22068965517
423	0.2115	-4.81384615385	-4.63788819876	1.39322033898	-8.22068965517
424	0.212	-6.22	-13.0863354037	2.8093220339	-9.64137931034
425	0.2125	-0.595384615385	-8.86211180124	1.39322033898	-11.0620689655
426	0.213	2.21692307692	-1.82173913043	2.8093220339	-9.64137931034
427	0.2135	-3.40769230769	-1.82173913043	-0.0228813559322	-6.8
428	0.214	-2.00153846154	-1.82173913043	-4.27118644068	-1.11724137931
429	0.2145	3.62307692308	-1.82173913043	-4.27118644068	-16.7448275862
430	0.215	9.24769230769	-8.86211180124	-1.43898305085	-8.22068965517
431	0.2155	13.4661538462	9.44285714286	-0.0228813559322	-9.64137931034
432	0.216	9.24769230769	-4.63788819876	-0.0228813559322	-6.8
433	0.2165	-2.00153846154	-4.63788819876	2.8093220339	-3.95862068966
434	0.217	5.02923076923	-4.63788819876	2.8093220339	4.56551724138
435	0.2175	5.02923076923	-1.82173913043	14.1381355932	-5.37931034483
436	0.218	2.21692307692	-14.4944099379	1.39322033898	-8.22068965517
437	0.2185	0.810769230769	-3.2298136646	1.39322033898	-6.8
438	0.219	0.810769230769	0.994409937888	1.39322033898	-5.37931034483
439	0.2195	0.810769230769	-3.2298136646	-1.43898305085	-3.95862068966
440	0.22	-7.62615384615	-0.413664596273	-1.43898305085	11.6689655172
441	0.2205	5.02923076923	-3.2298136646	-9.93559322034	-5.37931034483
442	0.221	7.84153846154	-0.413664596273	-2.85508474576	-8.22068965517
443	0.2215	10.6538461538	-3.2298136646	-1.43898305085	-8.22068965517
444	0.222	7.84153846154	-6.04596273292	-0.0228813559322	-6.8
445	0.2225	-3.40769230769	-3.2298136646	-1.43898305085	-2.53793103448
446	0.223	9.24769230769	-3.2298136646	-8.51949152542	-12.4827586207
447	0.2235	7.84153846154	-3.2298136646	-1.43898305085	-12.4827586207
448	0.224	7.84153846154	-1.82173913043	-2.85508474576	-6.8
449	0.2245	5.02923076923	-13.0863354037	-4.27118644068	-8.22068965517
450	0.225	10.6538461538	-0.413664596273	-0.0228813559322	-11.0620689655
451	0.2255	12.06	-4.63788819876	-0.0228813559322	-8.22068965517
452	0.226	-3.40769230769	-3.2298136646	-1.43898305085	0.303448275862
453	0.2265	2.21692307692	-4.63788819876	-2.85508474576	-6.8
454	0.227	2.21692307692	-4.63788819876	-0.0228813559322	-8.22068965517
455	0.2275	0.810769230769	-7.45403726708	-0.0228813559322	-8.22068965517
456	0.228	0.810769230769	-3.2298136646	-1.43898305085	-9.64137931034
457	0.2285	20.4969230769	-1.82173913043	-0.0228813559322	-9.64137931034
458	0.229	0.810769230769	-4.63788819876	-1.43898305085	4.56551724138
459	0.2295	-3.40769230769	-0.413664596273	-7.10338983051	-5.37931034483
460	0.23	-4.81384615385	-1.82173913043	-1.43898305085	-8.22068965517
461	0.2305	10.6538461538	2.40248447205	-1.43898305085	-6.8
462	0.231	10.6538461538	-1.82173913043	-0.0228813559322	-6.8
463	0.2315	14.8723076923	-1.82173913043	1.39322033898	-5.37931034483
464	0.232	5.02923076923	-1.82173913043	-1.43898305085	-6.8
465	0.2325	5.02923076923	-3.2298136646	-1.43898305085	11.6689655172
466	0.233	-0.595384615385	-1.82173913043	-1.43898305085	-2.53793103448
467	0.2335	3.62307692308	-6.04596273292	2.8093220339	-2.53793103448
468	0.234	-0.595384615385	-13.0863354037	-0.0228813559322	-2.53793103448
469	0.2345	16.2784615385	-0.413664596273	-0.0228813559322	-13.9034482759
470	0.235	-7.62615384615	-3.2298136646	-0.0228813559322	-15.324137931
471	0.2355	-13.2507692308	-1.82173913043	-2.85508474576	-5.37931034483
472	0.236	-14.6569230769	-1.82173913043	-5.68728813559	-1.11724137931
473	0.2365	-18.8753846154	17.8913043478	-1.43898305085	-1.11724137931
474	0.237	-16.0630769231	-1.82173913043	-1.43898305085	-1.11724137931
475	0.2375	-24.5	-4.63788819876	-1.43898305085	0.303448275862
476	0.238	-7.62615384615	-1.82173913043	2.8093220339	7.40689655172
477	0.2385	-6.22	-0.413664596273	7.05762711864	-1.11724137931
478	0.239	-7.62615384615	0.994409937888	-5.68728813559	-1.11724137931
479	0.2395	-9.03230769231	0.994409937888	1.39322033898	-2.53793103448
480	0.24	-13.2507692308	-0.413664596273	-0.0228813559322	0.303448275862
481	0.2405	3.62307692308	-3.2298136646	2.8093220339	0.303448275862
482	0.241	-6.22	-3.2298136646	-0.0228813559322	3.14482758621
483	0.2415	0.810769230769	-0.413664596273	16.9703389831	0.303448275862
484	0.242	0.810769230769	-1.82173913043	-0.0228813559322	1.72413793103
485	0.2425	7.84153846154	15.0751552795	-0.0228813559322	0.303448275862
486	0.243	5.02923076923	-4.63788819876	1.39322033898	-1.11724137931
487	0.2435	7.84153846154	-4.63788819876	-1.43898305085	3.14482758621
488	0.244	3.62307692308	-0.413664596273	-0.0228813559322	8.8275862069
489	0.2445	3.62307692308	-1.82173913043	-1.43898305085	15.9310344828
490	0.245	2.21692307692	-3.2298136646	-1.43898305085	0.303448275862
491	0.2455	-3.40769230769	15.0751552795	1.39322033898	0.303448275862
492	0.246	-3.40769230769	0.994409937888	-0.0228813559322	1.72413793103
493	0.2465	-16.0630769231	-1.82173913043	-0.0228813559322	4.56551724138
494	0.247	-2.00153846154	-0.413664596273	2.8093220339	17.3517241379
495	0.2475	-0.595384615385	0.994409937888	16.9703389831	1.72413793103
496	0.248	0.810769230769	2.40248447205	15.5542372881	1.72413793103
497	0.2485	0.810769230769	-6.04596273292	-0.0228813559322	0.303448275862
498	0.249	-2.00153846154	-0.413664596273	1.39322033898	0.303448275862
499	0.2495	7.84153846154	0.994409937888	-1.43898305085	1.72413793103
500	0.25	-10.4384615385	-1.82173913043	4.22542372881	5.98620689655
501	0.2505	-10.4384615385	-0.413664596273	1.39322033898	-2.53793103448
502	0.251	-4.81384615385	-0.413664596273	-2.85508474576	0.303448275862
503	0.2515	-4.81384615385	3.81055900621	2.8093220339	3.14482758621
504	0.252	-6.22	-0.413664596273	-1.43898305085	1.72413793103
505	0.2525	-14.6569230769	-0.413664596273	-1.43898305085	5.98620689655
506	0.253	-14.6569230769	-0.413664596273	-0.0228813559322	4.56551724138
507	0.2535	-0.595384615385	-0.413664596273	4.22542372881	-3.95862068966
508	0.254	0.810769230769	-3.2298136646	-7.10338983051	0.303448275862
509	0.2545	0.810769230769	17.8913043478	-0.0228813559322	1.72413793103
510	0.255	-2.00153846154	15.0751552795	-0.0228813559322	0.303448275862
511	0.2555	-13.2507692308	-1.82173913043	-0.0228813559322	4.56551724138
512	0.256	-10.4384615385	-1.82173913043	-0.0228813559322	20.1931034483
513	0.2565	-4.81384615385	0.994409937888	19.8025423729	0.303448275862
514	0.257	-2.00153846154	0.994409937888	-0.0228813559322	3.14482758621
515	0.2575	-3.40769230769	16.4832298137	1.39322033898	-1.11724137931
516	0.258	-3.40769230769	-0.413664596273	-2.85508474576	0.303448275862
517	0.2585	10.6538461538	-0.413664596273	-0.0228813559322	0.303448275862
518	0.259	-4.81384615385	-0.413664596273	-1.43898305085	-6.8
519	0.2595	-3.40769230769	-1.82173913043	4.22542372881	-6.8
520	0.26	-3.40769230769	-1.82173913043	-7.10338983051	1.72413793103
521	0.2605	0.810769230769	16.4832298137	-0.0228813559322	3.14482758621
522	0.261	-2.00153846154	-1.82173913043	-1.43898305085	4.56551724138
523	0.2615	-14.6569230769	-0.413664596273	-1.43898305085	-1.11724137931
524	0.262	-4.81384615385	-1.82173913043	-0.0228813559322	3.14482758621
525	0.2625	-6.22	-0.413664596273	5.64152542373	-3.95862068966
526	0.263	-9.03230769231	-1.82173913043	-1.43898305085	-1.11724137931
527	0.2635	-3.40769230769	-4.63788819876	1.39322033898	0.303448275862
528	0.264	3.62307692308	0.994409937888	-0.0228813559322	0.303448275862
529	0.2645	12.06	-0.413664596273	-0.0228813559322	-8.22068965517
530	0.265	-6.22	-1.82173913043	-1.43898305085	-3.95862068966
531	0.2655	-3.40769230769	-3.2298136646	-12.7677966102	-6.8
532	0.266	-3.40769230769	-1.82173913043	-0.0228813559322	1.72413793103
533	0.2665	-2.00153846154	16.4832298137	-0.0228813559322	-1.11724137931
534	0.267	-3.40769230769	10.850931677	-0.0228813559322	4.56551724138
535	0.2675	-6.22	-1.82173913043	4.22542372881	13.0896551724
536	0.268	2.21692307692	-0.413664596273	4.22542372881	8.8275862069
537	0.2685	0.810769230769	-6.04596273292	4.22542372881	-2.53793103448
538	0.269	-2.00153846154	-3.2298136646	-1.43898305085	-1.11724137931
539	0.2695	-3.40769230769	-1.82173913043	1.39322033898	0.303448275862
540	0.27	0.810769230769	-0.413664596273	2.8093220339	0.303448275862
541	0.2705	5.02923076923	-3.2298136646	1.39322033898	1.72413793103
542	0.271	-9.03230769231	-4.63788819876	-1.43898305085	13.0896551724
543	0.2715	-4.81384615385	-0.413664596273	12.7220338983	0.303448275862
544	0.272	-6.22	-1.82173913043	14.1381355932	-1.11724137931
545	0.2725	-3.40769230769	-6.04596273292	1.39322033898	0.303448275862
546	0.273	-3.40769230769	-3.2298136646	-0.0228813559322	-1.11724137931
547	0.2735	13.4661538462	-1.82173913043	1.39322033898	-11.0620689655
548	0.274	-3.40769230769	2.40248447205	-1.43898305085	-12.4827586207
549	0.2745	-2.00153846154	-0.413664596273	-2.85508474576	-5.37931034483
550	0.275	-4.81384615385	2.40248447205	-5.68728813559	-2.53793103448
551	0.2755	-4.81384615385	16.4832298137	-0.0228813559322	0.303448275862
552	0.276	-7.62615384615	-6.04596273292	-0.0228813559322	1.72413793103
553	0.2765	16.2784615385	0.994409937888	2.8093220339	-11.0620689655
554	0.277	-0.595384615385	-1.82173913043	-0.0228813559322	-6.8
555	0.2775	-0.595384615385	-3.2298136646	-5.68728813559	4.56551724138
556	0.278	-3.40769230769	-0.413664596273	2.8093220339	1.72413793103
557	0.2785	0.810769230769	6.62670807453	1.39322033898	4.56551724138
558	0.279	-0.595384615385	-6.04596273292	-0.0228813559322	-1.11724137931
559	0.2795	-2.00153846154	-10.2701863354	-1.43898305085	-1.11724137931
560	0.28	0.810769230769	-1.82173913043	-2.85508474576	-8.22068965517
561	0.2805	3.62307692308	-0.413664596273	-9.93559322034	-1.11724137931
562	0.281	2.21692307692	-3.2298136646	-1.43898305085	1.72413793103
563	0.2815	7.84153846154	5.21863354037	-0.0228813559322	1.72413793103
564	0.282	5.02923076923	-4.63788819876	1.39322033898	0.303448275862
565	0.2825	7.84153846154	-8.86211180124	1.39322033898	1.72413793103
566	0.283	6.43538461538	0.994409937888	-1.43898305085	-6.8
567	0.2835	10.6538461538	-0.413664596273	-9.93559322034	-1.11724137931
568	0.284	5.02923076923	0.994409937888	-8.51949152542	0.303448275862
569	0.2845	0.810769230769	0.994409937888	1.39322033898	1.72413793103
570	0.285	-2.00153846154	-4.63788819876	-1.43898305085	-1.11724137931
571	0.2855	-6.22	-6.04596273292	-0.0228813559322	0.303448275862
572	0.286	3.62307692308	-0.413664596273	1.39322033898	-9.64137931034
573	0.2865	0.810769230769	-1.82173913043	2.8093220339	-6.8
574	0.287	-0.595384615385	-3.2298136646	-1.43898305085	1.72413793103
575	0.2875	-0.595384615385	-0.413664596273	-1.43898305085	0.303448275862
576	0.288	0.810769230769	6.62670807453	2.8093220339	1.72413793103
577	0.2885	-6.22	-1.82173913043	2.8093220339	1.72413793103
578	0.289	-9.03230769231	-0.413664596273	1.39322033898	4.56551724138
579	0.2895	3.62307692308	-1.82173913043	2.8093220339	7.40689655172
580	0.29	0.810769230769	-3.2298136646	-2.85508474576	-1.11724137931
581	0.2905	0.810769230769	-3.2298136646	-9.93559322034	1.72413793103
582	0.291	-2.00153846154	17.8913043478	-0.0228813559322	0.303448275862
583	0.2915	-14.6569230769	-0.413664596273	2.8093220339	4.56551724138
584	0.292	-2.00153846154	-1.82173913043	-0.0228813559322	1.72413793103
585	0.2925	-0.595384615385	-0.413664596273	2.8093220339	-6.8
586	0.293	-0.595384615385	-0.413664596273	16.9703389831	0.303448275862
587	0.2935	-2.00153846154	-11.6782608696	-1.43898305085	-1.11724137931
588	0.294	-3.40769230769	-4.63788819876	-0.0228813559322	0.303448275862
589	0.2945	-4.81384615385	-3.2298136646	2.8093220339	1.72413793103
590	0.295	19.0907692308	-4.63788819876	1.39322033898	3.14482758621
591	0.2955	-0.595384615385	-1.82173913043	-8.51949152542	-1.11724137931
592	0.296	-2.00153846154	-0.413664596273	-2.85508474576	-8.22068965517
593	0.2965	-3.40769230769	-3.2298136646	2.8093220339	0.303448275862
594	0.297	-0.595384615385	-3.2298136646	1.39322033898	1.72413793103
595	0.2975	3.62307692308	-0.413664596273	-1.43898305085	0.303448275862
596	0.298	10.6538461538	-1.82173913043	-1.43898305085	0.303448275862
597	0.2985	-6.22	0.994409937888	-0.0228813559322	3.14482758621
598	0.299	0.810769230769	0.994409937888	1.39322033898	0.303448275862
599	0.2995	-0.595384615385	-0.413664596273	2.8093220339	0.303448275862
600	0.3	-4.81384615385	0.994409937888	-1.43898305085	1.72413793103
601	0.3005	-3.40769230769	-0.413664596273	-1.43898305085	3.14482758621
602	0.301	-10.4384615385	-1.82173913043	-2.85508474576	1.72413793103
603	0.3015	2.21692307692	-1.82173913043	-1.43898305085	11.6689655172
604	0.302	3.62307692308	0.994409937888	-2.85508474576	-3.95862068966
605	0.3025	2.21692307692	-3.2298136646	-5.68728813559	0.303448275862
606	0.303	2.21692307692	-0.413664596273	-5.68728813559	0.303448275862
607	0.3035	2.21692307692	17.8913043478	1.39322033898	-1.11724137931
608	0.304	-14.6569230769	-1.82173913043	1.39322033898	1.72413793103
609	0.3045	-9.03230769231	-3.2298136646	5.64152542373	14.5103448276
610	0.305	-3.40769230769	0.994409937888	4.22542372881	4.56551724138
611	0.3055	-3.40769230769	-1.82173913043	-0.0228813559322	-8.22068965517
612	0.306	-2.00153846154	-0.413664596273	-8.51949152542	1.72413793103
613	0.3065	-2.00153846154	16.4832298137	-0.0228813559322	0.303448275862
614	0.307	-6.22	16.4832298137	-0.0228813559322	-2.53793103448
615	0.3075	-7.62615384615	0.994409937888	-0.0228813559322	3.14482758621
616	0.308	0.810769230769	-0.413664596273	4.22542372881	-6.8
617	0.3085	-0.595384615385	-0.413664596273	-0.0228813559322	-8.22068965517
618	0.309	-0.595384615385	-3.2298136646	-2.85508474576	-1.11724137931
619	0.3095	-2.00153846154	-10.2701863354	2.8093220339	-2.53793103448
620	0.31	-0.595384615385	-1.82173913043	2.8093220339	0.303448275862
621	0.3105	13.4661538462	-3.2298136646	1.39322033898	-2.53793103448
622	0.311	-4.81384615385	-3.2298136646	-1.43898305085	17.3517241379
623	0.3115	-4.81384615385	2.40248447205	16.9703389831	-2.53793103448
624	0.312	-2.00153846154	3.81055900621	-1.43898305085	-2.53793103448
625	0.3125	-3.40769230769	-11.6782608696	-1.43898305085	0.303448275862
626	0.313	2.21692307692	2.40248447205	-1.43898305085	3.14482758621
627	0.3135	3.62307692308	-1.82173913043	-0.0228813559322	0.303448275862
628	0.314	-4.81384615385	-0.413664596273	-1.43898305085	20.1931034483
629	0.3145	0.810769230769	2.40248447205	-1.43898305085	18.7724137931
630	0.315	0.810769230769	0.994409937888	-1.43898305085	3.14482758621
631	0.3155	-3.40769230769	-13.0863354037	-1.43898305085	0.303448275862
632	0.316	-4.81384615385	-6.04596273292	-1.43898305085	1.72413793103
633	0.3165	17.6846153846	-0.413664596273	2.8093220339	-11.0620689655
634	0.317	-3.40769230769	-0.413664596273	2.8093220339	0.303448275862
635	0.3175	-0.595384615385	-0.413664596273	4.22542372881	3.14482758621
636	0.318	0.810769230769	-3.2298136646	-1.43898305085	0.303448275862
637	0.3185	0.810769230769	3.81055900621	1.39322033898	0.303448275862
638	0.319	3.62307692308	10.850931677	-0.0228813559322	3.14482758621
639	0.3195	-7.62615384615	-0.413664596273	-1.43898305085	4.56551724138
640	0.32	-7.62615384615	-3.2298136646	1.39322033898	4.56551724138
641	0.3205	-2.00153846154	0.994409937888	15.5542372881	-1.11724137931
642	0.321	-3.40769230769	-4.63788819876	7.05762711864	-1.11724137931
643	0.3215	-2.00153846154	-7.45403726708	1.39322033898	0.303448275862
644	0.322	-2.00153846154	-0.413664596273	-1.43898305085	0.303448275862
645	0.3225	-4.81384615385	-0.413664596273	4.22542372881	3.14482758621
646	0.323	-7.62615384615	-1.82173913043	1.39322033898	5.98620689655
647	0.3235	2.21692307692	0.994409937888	-8.51949152542	-1.11724137931
648	0.324	3.62307692308	-0.413664596273	-8.51949152542	-1.11724137931
649	0.3245	3.62307692308	6.62670807453	1.39322033898	3.14482758621
650	0.325	5.02923076923	-6.04596273292	-0.0228813559322	1.72413793103
651	0.3255	0.810769230769	-0.413664596273	-0.0228813559322	1.72413793103
652	0.326	0.810769230769	-1.82173913043	2.8093220339	14.5103448276
653	0.3265	-2.00153846154	-1.82173913043	-0.0228813559322	17.3517241379
654	0.327	-6.22	-0.413664596273	-5.68728813559	0.303448275862
655	0.3275	-2.00153846154	-0.413664596273	1.39322033898	0.303448275862
656	0.328	-0.595384615385	-6.04596273292	-0.0228813559322	3.14482758621
657	0.3285	-4.81384615385	-1.82173913043	-1.43898305085	-1.11724137931
658	0.329	14.8723076923	-1.82173913043	2.8093220339	-2.53793103448
659	0.3295	3.62307692308	-1.82173913043	-1.43898305085	17.3517241379
660	0.33	-0.595384615385	2.40248447205	-5.68728813559	-2.53793103448
661	0.3305	-0.595384615385	3.81055900621	1.39322033898	-1.11724137931
662	0.331	0.810769230769	2.40248447205	-1.43898305085	0.303448275862
663	0.3315	-0.595384615385	-0.413664596273	-0.0228813559322	0.303448275862
664	0.332	17.6846153846	-1.82173913043	1.39322033898	-6.8
665	0.3325	2.21692307692	0.994409937888	-1.43898305085	-11.0620689655
666	0.333	-3.40769230769	0.994409937888	-5.68728813559	1.72413793103
667	0.3335	-2.00153846154	0.994409937888	-1.43898305085	-1.11724137931
668	0.334	-0.595384615385	3.81055900621	1.39322033898	1.72413793103
669	0.3345	-2.00153846154	-4.63788819876	-1.43898305085	-1.11724137931
670	0.335	14.8723076923	0.994409937888	-1.43898305085	0.303448275862
671	0.3355	-2.00153846154	-0.413664596273	2.8093220339	-5.37931034483
672	0.336	-2.00153846154	-1.82173913043	-9.93559322034	4.56551724138
673	0.3365	-0.595384615385	-0.413664596273	1.39322033898	1.72413793103
674	0.337	-0.595384615385	3.81055900621	1.39322033898	0.303448275862
675	0.3375	0.810769230769	-8.86211180124	-0.0228813559322	0.303448275862
676	0.338	0.810769230769	-10.2701863354	-0.0228813559322	-1.11724137931
677	0.3385	0.810769230769	-1.82173913043	-1.43898305085	-13.9034482759
678	0.339	0.810769230769	-0.413664596273	-1.43898305085	-2.53793103448
679	0.3395	0.810769230769	0.994409937888	-1.43898305085	-2.53793103448
680	0.34	0.810769230769	10.850931677	-1.43898305085	1.72413793103
681	0.3405	0.810769230769	-7.45403726708	-0.0228813559322	0.303448275862
682	0.341	-6.22	-8.86211180124	-0.0228813559322	0.303448275862
683	0.3415	10.6538461538	-0.413664596273	1.39322033898	-8.22068965517
684	0.342	-0.595384615385	-3.2298136646	-8.51949152542	-8.22068965517
685	0.3425	-0.595384615385	-4.63788819876	-5.68728813559	0.303448275862
686	0.343	-2.00153846154	-13.0863354037	-0.0228813559322	-1.11724137931
687	0.3435	-0.595384615385	-6.04596273292	-0.0228813559322	-1.11724137931
688	0.344	19.0907692308	-0.413664596273	2.8093220339	1.72413793103
689	0.3445	-2.00153846154	-3.2298136646	-0.0228813559322	1.72413793103
690	0.345	0.810769230769	0.994409937888	2.8093220339	-11.0620689655
691	0.3455	0.810769230769	-1.82173913043	-11.3516949153	1.72413793103
692	0.346	0.810769230769	-10.2701863354	-0.0228813559322	0.303448275862
693	0.3465	-0.595384615385	-8.86211180124	2.8093220339	3.14482758621
694	0.347	2.21692307692	-0.413664596273	1.39322033898	-1.11724137931
695	0.3475	-4.81384615385	-1.82173913043	2.8093220339	13.0896551724
696	0.348	2.21692307692	0.994409937888	2.8093220339	14.5103448276
697	0.3485	-0.595384615385	0.994409937888	15.5542372881	-1.11724137931
698	0.349	-0.595384615385	3.81055900621	-1.43898305085	-1.11724137931
699	0.3495	-4.81384615385	-1.82173913043	2.8093220339	0.303448275862
700	0.35	0.810769230769	-0.413664596273	-1.43898305085	-1.11724137931
701	0.3505	3.62307692308	-1.82173913043	1.39322033898	0.303448275862
702	0.351	0.810769230769	0.994409937888	2.8093220339	-1.11724137931
703	0.3515	0.810769230769	0.994409937888	21.2186440678	0.303448275862
704	0.352	2.21692307692	-0.413664596273	-1.43898305085	-1.11724137931
705	0.3525	3.62307692308	17.8913043478	1.39322033898	0.303448275862
706	0.353	-7.62615384615	-0.413664596273	2.8093220339	1.72413793103
707	0.3535	2.21692307692	-0.413664596273	-1.43898305085	-2.53793103448
708	0.354	-7.62615384615	-0.413664596273	-0.0228813559322	0.303448275862
709	0.3545	-2.00153846154	-0.413664596273	19.8025423729	0.303448275862
710	0.355	-0.595384615385	-3.2298136646	16.9703389831	0.303448275862
711	0.3555	-0.595384615385	-14.4944099379	-1.43898305085	-1.11724137931
712	0.356	3.62307692308	-1.82173913043	1.39322033898	-1.11724137931
713	0.3565	12.06	-1.82173913043	-1.43898305085	0.303448275862
714	0.357	-6.22	-1.82173913043	-0.0228813559322	14.5103448276
715	0.3575	3.62307692308	-1.82173913043	-2.85508474576	17.3517241379
716	0.358	3.62307692308	-1.82173913043	-1.43898305085	-1.11724137931
717	0.3585	0.810769230769	17.8913043478	-1.43898305085	0.303448275862
718	0.359	-4.81384615385	-3.2298136646	1.39322033898	1.72413793103
719	0.3595	-10.4384615385	-0.413664596273	-1.43898305085	1.72413793103
720	0.36	-0.595384615385	0.994409937888	2.8093220339	-1.11724137931
721	0.3605	6.43538461538	-0.413664596273	-0.0228813559322	3.14482758621
722	0.361	-0.595384615385	0.994409937888	-4.27118644068	1.72413793103
723	0.3615	0.810769230769	15.0751552795	-0.0228813559322	3.14482758621
724	0.362	-3.40769230769	-0.413664596273	2.8093220339	-1.11724137931
725	0.3625	-13.2507692308	-1.82173913043	-1.43898305085	4.56551724138
726	0.363	-4.81384615385	0.994409937888	1.39322033898	1.72413793103
727	0.3635	0.810769230769	-1.82173913043	12.7220338983	3.14482758621
728	0.364	0.810769230769	0.994409937888	2.8093220339	3.14482758621
729	0.3645	-0.595384615385	-6.04596273292	2.8093220339	0.303448275862
730	0.365	-3.40769230769	-1.82173913043	-1.43898305085	-1.11724137931
731	0.3655	-7.62615384615	0.994409937888	2.8093220339	0.303448275862
732	0.366	-9.03230769231	0.994409937888	-1.43898305085	1.72413793103
733	0.3665	-2.00153846154	0.994409937888	4.22542372881	15.9310344828
734	0.367	-0.595384615385	-0.413664596273	1.39322033898	-1.11724137931
735	0.3675	0.810769230769	-1.82173913043	1.39322033898	0.303448275862
736	0.368	-0.595384615385	-7.45403726708	-0.0228813559322	-1.11724137931
737	0.3685	2.21692307692	0.994409937888	-1.43898305085	-1.11724137931
738	0.369	-3.40769230769	-1.82173913043	4.22542372881	-2.53793103448
739	0.3695	-0.595384615385	-1.82173913043	14.1381355932	0.303448275862
740	0.37	-0.595384615385	-1.82173913043	-4.27118644068	1.72413793103
741	0.3705	0.810769230769	0.994409937888	-4.27118644068	0.303448275862
742	0.371	3.62307692308	-0.413664596273	1.39322033898	0.303448275862
743	0.3715	14.8723076923	-1.82173913043	-0.0228813559322	-1.11724137931
744	0.372	-0.595384615385	-3.2298136646	-0.0228813559322	3.14482758621
745	0.3725	0.810769230769	-0.413664596273	-4.27118644068	7.40689655172
746	0.373	-2.00153846154	-0.413664596273	-2.85508474576	1.72413793103
747	0.3735	-4.81384615385	5.21863354037	1.39322033898	-1.11724137931
748	0.374	-4.81384615385	0.994409937888	-0.0228813559322	-1.11724137931
749	0.3745	-11.8446153846	0.994409937888	1.39322033898	-1.11724137931
750	0.375	-7.62615384615	-0.413664596273	1.39322033898	-2.53793103448
751	0.3755	-6.22	2.40248447205	-4.27118644068	7.40689655172
752	0.376	-2.00153846154	0.994409937888	12.7220338983	-2.53793103448
753	0.3765	2.21692307692	-4.63788819876	-0.0228813559322	-1.11724137931
754	0.377	-0.595384615385	-10.2701863354	1.39322033898	-1.11724137931
755	0.3775	2.21692307692	-10.2701863354	-0.0228813559322	-1.11724137931
756	0.378	3.62307692308	-0.413664596273	-1.43898305085	-12.4827586207
757	0.3785	2.21692307692	0.994409937888	-8.51949152542	0.303448275862
758	0.379	-0.595384615385	-0.413664596273	-5.68728813559	-1.11724137931
759	0.3795	0.810769230769	3.81055900621	1.39322033898	-2.53793103448
760	0.38	0.810769230769	2.40248447205	-1.43898305085	-1.11724137931
761	0.3805	-6.22	-1.82173913043	-0.0228813559322	-1.11724137931
762	0.381	3.62307692308	-0.413664596273	2.8093220339	-8.22068965517
763	0.3815	2.21692307692	0.994409937888	-2.85508474576	1.72413793103
764	0.382	3.62307692308	-0.413664596273	-4.27118644068	0.303448275862
765	0.3825	3.62307692308	6.62670807453	-0.0228813559322	0.303448275862
766	0.383	5.02923076923	-0.413664596273	4.22542372881	1.72413793103
767	0.3835	0.810769230769	-0.413664596273	1.39322033898	0.303448275862
768	0.384	-4.81384615385	-0.413664596273	-0.0228813559322	1.72413793103
769	0.3845	3.62307692308	-1.82173913043	15.5542372881	-1.11724137931
770	0.385	2.21692307692	-1.82173913043	19.8025423729	3.14482758621
771	0.3855	-0.595384615385	-11.6782608696	-0.0228813559322	1.72413793103
772	0.386	2.21692307692	-10.2701863354	1.39322033898	-1.11724137931
773	0.3865	19.0907692308	-4.63788819876	1.39322033898	-2.53793103448
774	0.387	-3.40769230769	2.40248447205	-1.43898305085	15.9310344828
775	0.3875	-3.40769230769	-0.413664596273	-1.43898305085	14.5103448276
776	0.388	0.810769230769	0.994409937888	-0.0228813559322	0.303448275862
777	0.3885	0.810769230769	19.299378882	1.39322033898	0.303448275862
778	0.389	-3.40769230769	0.994409937888	-0.0228813559322	3.14482758621
779	0.3895	-14.6569230769	-0.413664596273	-1.43898305085	3.14482758621
780	0.39	-9.03230769231	-0.413664596273	2.8093220339	0.303448275862
781	0.3905	-2.00153846154	-1.82173913043	18.386440678	0.303448275862
782	0.391	-0.595384615385	-3.2298136646	-0.0228813559322	-1.11724137931
783	0.3915	2.21692307692	-1.82173913043	-1.43898305085	0.303448275862
784	0.392	0.810769230769	-3.2298136646	2.8093220339	-1.11724137931
785	0.3925	16.2784615385	-1.82173913043	-0.0228813559322	1.72413793103
786	0.393	-3.40769230769	-0.413664596273	-1.43898305085	14.5103448276
787	0.3935	0.810769230769	-0.413664596273	-11.3516949153	-1.11724137931
788	0.394	-3.40769230769	-1.82173913043	-9.93559322034	-1.11724137931
789	0.3945	0.810769230769	13.6670807453	1.39322033898	-1.11724137931
790	0.395	-0.595384615385	-1.82173913043	1.39322033898	1.72413793103
791	0.3955	-13.2507692308	-1.82173913043	-1.43898305085	4.56551724138
792	0.396	-7.62615384615	-1.82173913043	1.39322033898	-2.53793103448
793	0.3965	-0.595384615385	-1.82173913043	-9.93559322034	-1.11724137931
794	0.397	2.21692307692	-3.2298136646	-5.68728813559	0.303448275862
795	0.3975	-0.595384615385	-11.6782608696	1.39322033898	0.303448275862
796	0.398	2.21692307692	-8.86211180124	-0.0228813559322	-1.11724137931
797	0.3985	21.9030769231	-1.82173913043	-0.0228813559322	1.72413793103
798	0.399	-6.22	-1.82173913043	-4.27118644068	14.5103448276
799	0.3995	3.62307692308	-1.82173913043	-0.0228813559322	15.9310344828
800	0.4	0.810769230769	2.40248447205	2.8093220339	0.303448275862
801	0.4005	5.02923076923	20.7074534161	1.39322033898	0.303448275862
802	0.401	3.62307692308	-3.2298136646	-0.0228813559322	0.303448275862
803	0.4015	-10.4384615385	-0.413664596273	4.22542372881	3.14482758621
804	0.402	-0.595384615385	-1.82173913043	2.8093220339	-1.11724137931
805	0.4025	-2.00153846154	0.994409937888	7.05762711864	-2.53793103448
806	0.403	3.62307692308	-1.82173913043	5.64152542373	0.303448275862
807	0.4035	2.21692307692	-10.2701863354	1.39322033898	0.303448275862
808	0.404	7.84153846154	-1.82173913043	4.22542372881	-1.11724137931
809	0.4045	-0.595384615385	0.994409937888	2.8093220339	-3.95862068966
810	0.405	-11.8446153846	0.994409937888	-1.43898305085	8.8275862069
811	0.4055	-4.81384615385	2.40248447205	-1.43898305085	14.5103448276
812	0.406	-4.81384615385	0.994409937888	-0.0228813559322	-1.11724137931
813	0.4065	-4.81384615385	0.994409937888	-0.0228813559322	-1.11724137931
814	0.407	-2.00153846154	-6.04596273292	2.8093220339	-2.53793103448
815	0.4075	2.21692307692	0.994409937888	2.8093220339	-2.53793103448
816	0.408	-2.00153846154	0.994409937888	4.22542372881	-1.11724137931
817	0.4085	0.810769230769	0.994409937888	2.8093220339	-1.11724137931
818	0.409	5.02923076923	0.994409937888	-7.10338983051	-1.11724137931
819	0.4095	0.810769230769	3.81055900621	-0.0228813559322	-1.11724137931
820	0.41	2.21692307692	0.994409937888	-0.0228813559322	-2.53793103448
821	0.4105	-6.22	-0.413664596273	2.8093220339	-1.11724137931
822	0.411	10.6538461538	-1.82173913043	-0.0228813559322	-2.53793103448
823	0.4115	3.62307692308	-1.82173913043	2.8093220339	3.14482758621
824	0.412	3.62307692308	-1.82173913043	18.386440678	-2.53793103448
825	0.4125	0.810769230769	-3.2298136646	16.9703389831	-2.53793103448
826	0.413	0.810769230769	-6.04596273292	-0.0228813559322	0.303448275862
827	0.4135	3.62307692308	-4.63788819876	1.39322033898	0.303448275862
828	0.414	7.84153846154	-4.63788819876	1.39322033898	-5.37931034483
829	0.4145	-7.62615384615	-1.82173913043	1.39322033898	0.303448275862
830	0.415	-2.00153846154	-0.413664596273	14.1381355932	-3.95862068966
831	0.4155	-2.00153846154	0.994409937888	1.39322033898	-3.95862068966
832	0.416	-2.00153846154	-10.2701863354	-0.0228813559322	-3.95862068966
833	0.4165	-4.81384615385	-7.45403726708	-0.0228813559322	-1.11724137931
834	0.417	13.4661538462	-1.82173913043	-0.0228813559322	-1.11724137931
835	0.4175	-6.22	0.994409937888	-2.85508474576	8.8275862069
836	0.418	-7.62615384615	-0.413664596273	2.8093220339	13.0896551724
837	0.4185	-3.40769230769	-1.82173913043	-0.0228813559322	-2.53793103448
838	0.419	-3.40769230769	-1.82173913043	-0.0228813559322	-1.11724137931
839	0.4195	2.21692307692	-4.63788819876	-0.0228813559322	-2.53793103448
840	0.42	13.4661538462	-1.82173913043	1.39322033898	-3.95862068966
841	0.4205	-2.00153846154	-1.82173913043	-0.0228813559322	13.0896551724
842	0.421	3.62307692308	-4.63788819876	-1.43898305085	13.0896551724
843	0.4215	-0.595384615385	0.994409937888	11.3059322034	-1.11724137931
844	0.422	2.21692307692	-7.45403726708	1.39322033898	-2.53793103448
845	0.4225	0.810769230769	-10.2701863354	-0.0228813559322	-2.53793103448
846	0.423	0.810769230769	-0.413664596273	1.39322033898	-2.53793103448
847	0.4235	-3.40769230769	-3.2298136646	-0.0228813559322	-13.9034482759
848	0.424	-3.40769230769	0.994409937888	-8.51949152542	-1.11724137931
849	0.4245	-0.595384615385	-3.2298136646	-9.93559322034	-5.37931034483
850	0.425	-2.00153846154	8.0347826087	-0.0228813559322	0.303448275862
851	0.4255	-2.00153846154	-4.63788819876	-0.0228813559322	1.72413793103
852	0.426	-3.40769230769	0.994409937888	-0.0228813559322	1.72413793103
853	0.4265	16.2784615385	-0.413664596273	-1.43898305085	-1.11724137931
854	0.427	-2.00153846154	0.994409937888	-12.7677966102	-1.11724137931
855	0.4275	0.810769230769	0.994409937888	-4.27118644068	-1.11724137931
856	0.428	-0.595384615385	0.994409937888	1.39322033898	0.303448275862
857	0.4285	0.810769230769	0.994409937888	-0.0228813559322	-1.11724137931
858	0.429	-7.62615384615	-0.413664596273	-2.85508474576	-1.11724137931
859	0.4295	2.21692307692	0.994409937888	-0.0228813559322	-1.11724137931
860	0.43	-4.81384615385	0.994409937888	-0.0228813559322	-8.22068965517
861	0.4305	-4.81384615385	0.994409937888	-4.27118644068	-6.8
862	0.431	-4.81384615385	0.994409937888	-8.51949152542	-1.11724137931
863	0.4315	-3.40769230769	17.8913043478	1.39322033898	-1.11724137931
864	0.432	-4.81384615385	-1.82173913043	-1.43898305085	-1.11724137931
865	0.4325	-10.4384615385	-1.82173913043	-0.0228813559322	0.303448275862
866	0.433	-2.00153846154	0.994409937888	-1.43898305085	3.14482758621
867	0.4335	2.21692307692	-0.413664596273	-1.43898305085	15.9310344828
868	0.434	-0.595384615385	-1.82173913043	4.22542372881	0.303448275862
869	0.4345	-3.40769230769	-1.82173913043	-2.85508474576	0.303448275862
870	0.435	0.810769230769	0.994409937888	2.8093220339	1.72413793103
871	0.4355	-2.00153846154	12.2590062112	-0.0228813559322	0.303448275862
872	0.436	-13.2507692308	-0.413664596273	2.8093220339	18.7724137931
873	0.4365	-3.40769230769	-0.413664596273	4.22542372881	7.40689655172
874	0.437	-3.40769230769	0.994409937888	7.05762711864	-1.11724137931
875	0.4375	-4.81384615385	0.994409937888	-7.10338983051	0.303448275862
876	0.438	-0.595384615385	15.0751552795	-0.0228813559322	-1.11724137931
877	0.4385	-4.81384615385	17.8913043478	1.39322033898	-1.11724137931
878	0.439	-16.0630769231	-0.413664596273	-1.43898305085	1.72413793103
879	0.4395	-0.595384615385	-0.413664596273	1.39322033898	1.72413793103
880	0.44	-3.40769230769	-0.413664596273	5.64152542373	-1.11724137931
881	0.4405	-2.00153846154	-1.82173913043	-1.43898305085	0.303448275862
882	0.441	-2.00153846154	-8.86211180124	-1.43898305085	-1.11724137931
883	0.4415	-2.00153846154	-13.0863354037	1.39322033898	0.303448275862
884	0.442	-3.40769230769	-0.413664596273	-1.43898305085	0.303448275862
885	0.4425	-3.40769230769	-0.413664596273	-1.43898305085	-6.8
886	0.443	-0.595384615385	-0.413664596273	-0.0228813559322	14.5103448276
887	0.4435	-3.40769230769	-1.82173913043	-2.85508474576	-6.8
888	0.444	-2.00153846154	-4.63788819876	-0.0228813559322	-1.11724137931
889	0.4445	0.810769230769	-10.2701863354	-1.43898305085	0.303448275862
890	0.445	0.810769230769	-0.413664596273	-0.0228813559322	0.303448275862
891	0.4455	-7.62615384615	0.994409937888	1.39322033898	4.56551724138
892	0.446	-2.00153846154	0.994409937888	-9.93559322034	-1.11724137931
893	0.4465	-2.00153846154	2.40248447205	-2.85508474576	-1.11724137931
894	0.447	2.21692307692	-3.2298136646	2.8093220339	-1.11724137931
895	0.4475	2.21692307692	-6.04596273292	1.39322033898	3.14482758621
896	0.448	-2.00153846154	-3.2298136646	1.39322033898	3.14482758621
897	0.4485	12.06	-1.82173913043	1.39322033898	-5.37931034483
898	0.449	0.810769230769	0.994409937888	1.39322033898	-9.64137931034
899	0.4495	-0.595384615385	2.40248447205	-7.10338983051	1.72413793103
900	0.45	-0.595384615385	0.994409937888	-7.10338983051	0.303448275862
901	0.4505	-2.00153846154	13.6670807453	-0.0228813559322	0.303448275862
902	0.451	-2.00153846154	-1.82173913043	-0.0228813559322	3.14482758621
903	0.4515	-3.40769230769	-0.413664596273	-0.0228813559322	-2.53793103448
904	0.452	-3.40769230769	-3.2298136646	-0.0228813559322	-8.22068965517
905	0.4525	-4.81384615385	2.40248447205	-9.93559322034	-9.64137931034
906	0.453	-6.22	-1.82173913043	-9.93559322034	0.303448275862
907	0.4535	-3.40769230769	16.4832298137	-0.0228813559322	-1.11724137931
908	0.454	-4.81384615385	-1.82173913043	1.39322033898	3.14482758621
909	0.4545	-13.2507692308	-4.63788819876	-0.0228813559322	-1.11724137931
910	0.455	-0.595384615385	-0.413664596273	4.22542372881	-1.11724137931
911	0.4555	-2.00153846154	-0.413664596273	7.05762711864	-2.53793103448
912	0.456	-2.00153846154	-0.413664596273	-2.85508474576	-1.11724137931
913	0.4565	-2.00153846154	0.994409937888	-7.10338983051	-2.53793103448
914	0.457	-0.595384615385	0.994409937888	-0.0228813559322	-1.11724137931
915	0.4575	-13.2507692308	-0.413664596273	1.39322033898	0.303448275862
916	0.458	-9.03230769231	-3.2298136646	1.39322033898	8.8275862069
917	0.4585	-0.595384615385	-1.82173913043	1.39322033898	0.303448275862
918	0.459	0.810769230769	-0.413664596273	-1.43898305085	0.303448275862
919	0.4595	0.810769230769	-1.82173913043	-0.0228813559322	-1.11724137931
920	0.46	-0.595384615385	16.4832298137	-0.0228813559322	0.303448275862
921	0.4605	-2.00153846154	15.0751552795	-1.43898305085	-3.95862068966
922	0.461	-4.81384615385	-1.82173913043	1.39322033898	-1.11724137931
923	0.4615	-2.00153846154	-0.413664596273	-1.43898305085	-8.22068965517
924	0.462	-2.00153846154	-0.413664596273	-2.85508474576	-11.0620689655
925	0.4625	2.21692307692	-0.413664596273	-7.10338983051	-2.53793103448
926	0.463	0.810769230769	19.299378882	-0.0228813559322	-1.11724137931
927	0.4635	0.810769230769	10.850931677	1.39322033898	-2.53793103448
928	0.464	-2.00153846154	0.994409937888	4.22542372881	8.8275862069
929	0.4645	7.84153846154	-1.82173913043	4.22542372881	3.14482758621
930	0.465	12.06	-1.82173913043	-0.0228813559322	4.56551724138
931	0.4655	7.84153846154	-10.2701863354	-0.0228813559322	-1.11724137931
932	0.466	5.02923076923	0.994409937888	1.39322033898	-1.11724137931
933	0.4665	0.810769230769	-3.2298136646	-0.0228813559322	1.72413793103
934	0.467	-6.22	-1.82173913043	-1.43898305085	-1.11724137931
935	0.4675	-2.00153846154	-0.413664596273	2.8093220339	-8.22068965517
936	0.468	-2.00153846154	0.994409937888	18.386440678	0.303448275862
937	0.4685	2.21692307692	-1.82173913043	1.39322033898	-1.11724137931
938	0.469	0.810769230769	-3.2298136646	-0.0228813559322	-1.11724137931
939	0.4695	5.02923076923	-1.82173913043	1.39322033898	-1.11724137931
940	0.47	19.0907692308	-3.2298136646	-0.0228813559322	-1.11724137931
941	0.4705	-2.00153846154	-0.413664596273	-1.43898305085	-1.11724137931
942	0.471	-2.00153846154	0.994409937888	7.05762711864	0.303448275862
943	0.4715	-7.62615384615	0.994409937888	-2.85508474576	-1.11724137931
944	0.472	-7.62615384615	-3.2298136646	-5.68728813559	-1.11724137931
945	0.4725	-3.40769230769	16.4832298137	-1.43898305085	0.303448275862
946	0.473	-9.03230769231	0.994409937888	-0.0228813559322	3.14482758621
947	0.4735	-7.62615384615	0.994409937888	-1.43898305085	20.1931034483
948	0.474	7.84153846154	-0.413664596273	-0.0228813559322	11.6689655172
949	0.4745	0.810769230769	0.994409937888	-4.27118644068	0.303448275862
950	0.475	-2.00153846154	-4.63788819876	-7.10338983051	0.303448275862
951	0.4755	-0.595384615385	16.4832298137	-0.0228813559322	0.303448275862
952	0.476	-13.2507692308	-1.82173913043	1.39322033898	-1.11724137931
953	0.4765	-4.81384615385	-1.82173913043	-1.43898305085	0.303448275862
954	0.477	-4.81384615385	-0.413664596273	-2.85508474576	-9.64137931034
955	0.4775	-4.81384615385	0.994409937888	2.8093220339	-9.64137931034
956	0.478	-6.22	-10.2701863354	-1.43898305085	1.72413793103
957	0.4785	2.21692307692	-8.86211180124	1.39322033898	-1.11724137931
958	0.479	3.62307692308	-1.82173913043	-1.43898305085	-1.11724137931
959	0.4795	2.21692307692	-3.2298136646	-1.43898305085	-1.11724137931
960	0.48	2.21692307692	-3.2298136646	-2.85508474576	-9.64137931034
961	0.4805	2.21692307692	-0.413664596273	2.8093220339	-9.64137931034
962	0.481	-0.595384615385	-4.63788819876	2.8093220339	0.303448275862
963	0.4815	0.810769230769	-8.86211180124	-0.0228813559322	-1.11724137931
964	0.482	3.62307692308	-0.413664596273	-1.43898305085	-1.11724137931
965	0.4825	13.4661538462	-1.82173913043	1.39322033898	-1.11724137931
966	0.483	-0.595384615385	-0.413664596273	1.39322033898	7.40689655172
967	0.4835	0.810769230769	-3.2298136646	-1.43898305085	-1.11724137931
968	0.484	-0.595384615385	-1.82173913043	-1.43898305085	-2.53793103448
969	0.4845	-2.00153846154	13.6670807453	1.39322033898	-1.11724137931
970	0.485	-3.40769230769	-0.413664596273	-1.43898305085	-1.11724137931
971	0.4855	-11.8446153846	-1.82173913043	2.8093220339	3.14482758621
972	0.486	-3.40769230769	-0.413664596273	2.8093220339	-6.8
973	0.4865	-3.40769230769	-1.82173913043	-0.0228813559322	5.98620689655
974	0.487	-6.22	0.994409937888	5.64152542373	-2.53793103448
975	0.4875	-0.595384615385	5.21863354037	-0.0228813559322	-1.11724137931
976	0.488	0.810769230769	-8.86211180124	-2.85508474576	-2.53793103448
977	0.4885	-4.81384615385	-0.413664596273	-0.0228813559322	0.303448275862
978	0.489	0.810769230769	0.994409937888	2.8093220339	-5.37931034483
979	0.4895	-2.00153846154	0.994409937888	-0.0228813559322	0.303448275862
980	0.49	-4.81384615385	-0.413664596273	-8.51949152542	0.303448275862
981	0.4905	-7.62615384615	0.994409937888	-7.10338983051	-1.11724137931
982	0.491	-4.81384615385	-1.82173913043	-1.43898305085	-1.11724137931
983	0.4915	-11.8446153846	-3.2298136646	-1.43898305085	0.303448275862
984	0.492	-10.4384615385	-0.413664596273	-0.0228813559322	0.303448275862
985	0.4925	-0.595384615385	-3.2298136646	-1.43898305085	-8.22068965517
986	0.493	-0.595384615385	-3.2298136646	-2.85508474576	0.303448275862
987	0.4935	-3.40769230769	-11.6782608696	2.8093220339	-1.11724137931
988	0.494	-0.595384615385	13.6670807453	-0.0228813559322	-2.53793103448
989	0.4945	-13.2507692308	-3.2298136646	-0.0228813559322	1.72413793103
990	0.495	3.62307692308	0.994409937888	1.39322033898	0.303448275862
991	0.4955	0.810769230769	-0.413664596273	-1.43898305085	-9.64137931034
992	0.496	0.810769230769	-0.413664596273	-7.10338983051	-1.11724137931
993	0.4965	0.810769230769	0.994409937888	-0.0228813559322	0.303448275862
994	0.497	-0.595384615385	0.994409937888	-0.0228813559322	-2.53793103448
995	0.4975	-13.2507692308	0.994409937888	-0.0228813559322	-1.11724137931
996	0.498	-4.81384615385	2.40248447205	-1.43898305085	-1.11724137931
997	0.4985	-4.81384615385	-0.413664596273	4.22542372881	4.56551724138
998	0.499	0.810769230769	-0.413664596273	8.47372881356	0.303448275862
999	0.4995	3.62307692308	-0.413664596273	1.39322033898	0.303448275862
1000	0.5	7.84153846154	-11.6782608696	-1.43898305085	0.303448275862
1001	0.5005	10.6538461538	-1.82173913043	2.8093220339	1.72413793103
1002	0.501	7.84153846154	-0.413664596273	1.39322033898	-2.53793103448
1003	0.5015	-6.22	-0.413664596273	1.39322033898	1.72413793103
1004	0.502	-3.40769230769	0.994409937888	-11.3516949153	-2.53793103448
1005	0.5025	-3.40769230769	3.81055900621	-1.43898305085	-1.11724137931
1006	0.503	-0.595384615385	8.0347826087	-1.43898305085	-2.53793103448
1007	0.5035	2.21692307692	-4.63788819876	-1.43898305085	-1.11724137931
1008	0.504	-0.595384615385	-3.2298136646	-0.0228813559322	-1.11724137931
1009	0.5045	-10.4384615385	-3.2298136646	-1.43898305085	1.72413793103
1010	0.505	0.810769230769	-3.2298136646	-9.93559322034	-3.95862068966
1011	0.5055	-2.00153846154	-0.413664596273	-5.68728813559	-1.11724137931
1012	0.506	-2.00153846154	-1.82173913043	-0.0228813559322	-3.95862068966
1013	0.5065	-7.62615384615	-6.04596273292	-0.0228813559322	-1.11724137931
1014	0.507	-11.8446153846	-3.2298136646	-0.0228813559322	-1.11724137931
1015	0.5075	3.62307692308	-1.82173913043	2.8093220339	-2.53793103448
1016	0.508	-3.40769230769	0.994409937888	1.39322033898	-11.0620689655
1017	0.5085	2.21692307692	0.994409937888	-7.10338983051	-1.11724137931
1018	0.509	3.62307692308	-0.413664596273	-7.10338983051	-2.53793103448
1019	0.5095	0.810769230769	17.8913043478	-1.43898305085	-2.53793103448
1020	0.51	-9.03230769231	-4.63788819876	-0.0228813559322	-1.11724137931
1021	0.5105	17.6846153846	-1.82173913043	1.39322033898	-11.0620689655
1022	0.511	-3.40769230769	0.994409937888	-0.0228813559322	-12.4827586207
1023	0.5115	-4.81384615385	0.994409937888	-9.93559322034	-1.11724137931
1024	0.512	-3.40769230769	0.994409937888	-1.43898305085	-1.11724137931
1025	0.5125	-2.00153846154	5.21863354037	1.39322033898	-3.95862068966
1026	0.513	-2.00153846154	-0.413664596273	-0.0228813559322	-2.53793103448
1027	0.5135	7.84153846154	-0.413664596273	-1.43898305085	-2.53793103448
1028	0.514	-3.40769230769	-1.82173913043	-1.43898305085	-11.0620689655
1029	0.5145	-0.595384615385	-0.413664596273	-9.93559322034	-1.11724137931
1030	0.515	3.62307692308	2.40248447205	2.8093220339	-1.11724137931
1031	0.5155	2.21692307692	15.0751552795	2.8093220339	-1.11724137931
1032	0.516	3.62307692308	2.40248447205	-0.0228813559322	-1.11724137931
1033	0.5165	-0.595384615385	-1.82173913043	-0.0228813559322	-3.95862068966
1034	0.517	0.810769230769	-0.413664596273	2.8093220339	-8.22068965517
1035	0.5175	-4.81384615385	-1.82173913043	4.22542372881	-2.53793103448
1036	0.518	-3.40769230769	-1.82173913043	-2.85508474576	0.303448275862
1037	0.5185	-0.595384615385	-1.82173913043	-5.68728813559	-2.53793103448
1038	0.519	-0.595384615385	-1.82173913043	1.39322033898	-1.11724137931
1039	0.5195	-13.2507692308	-1.82173913043	-0.0228813559322	0.303448275862
1040	0.52	-4.81384615385	-1.82173913043	4.22542372881	-1.11724137931
1041	0.5205	2.21692307692	0.994409937888	2.8093220339	-6.8
1042	0.521	5.02923076923	-1.82173913043	-5.68728813559	-1.11724137931
1043	0.5215	9.24769230769	0.994409937888	-0.0228813559322	-5.37931034483
1044	0.522	9.24769230769	3.81055900621	-0.0228813559322	-1.11724137931
1045	0.5225	-6.22	0.994409937888	-1.43898305085	0.303448275862
1046	0.523	7.84153846154	0.994409937888	1.39322033898	-3.95862068966
1047	0.5235	-2.00153846154	-0.413664596273	-0.0228813559322	-9.64137931034
1048	0.524	-0.595384615385	-1.82173913043	-7.10338983051	-1.11724137931
1049	0.5245	-4.81384615385	0.994409937888	-2.85508474576	-2.53793103448
1050	0.525	-4.81384615385	13.6670807453	-1.43898305085	-1.11724137931
1051	0.5255	-3.40769230769	2.40248447205	-0.0228813559322	-1.11724137931
1052	0.526	3.62307692308	-1.82173913043	2.8093220339	-6.8
1053	0.5265	-3.40769230769	-3.2298136646	4.22542372881	-8.22068965517
1054	0.527	-0.595384615385	0.994409937888	-9.93559322034	-1.11724137931
1055	0.5275	-2.00153846154	-1.82173913043	-2.85508474576	-1.11724137931
1056	0.528	-0.595384615385	10.850931677	1.39322033898	0.303448275862
1057	0.5285	-3.40769230769	-3.2298136646	2.8093220339	1.72413793103
1058	0.529	-6.22	-0.413664596273	-0.0228813559322	-1.11724137931
1059	0.5295	14.8723076923	-0.413664596273	2.8093220339	-2.53793103448
1060	0.53	2.21692307692	-1.82173913043	-9.93559322034	-9.64137931034
1061	0.5305	0.810769230769	-1.82173913043	-9.93559322034	-2.53793103448
1062	0.531	2.21692307692	2.40248447205	1.39322033898	-1.11724137931
1063	0.5315	2.21692307692	-7.45403726708	-0.0228813559322	-1.11724137931
1064	0.532	-2.00153846154	-0.413664596273	-2.85508474576	-1.11724137931
1065	0.5325	-7.62615384615	-1.82173913043	1.39322033898	3.14482758621
1066	0.533	2.21692307692	-0.413664596273	7.05762711864	14.5103448276
1067	0.5335	0.810769230769	0.994409937888	4.22542372881	-2.53793103448
1068	0.534	-2.00153846154	-1.82173913043	-0.0228813559322	-1.11724137931
1069	0.5345	0.810769230769	-6.04596273292	-0.0228813559322	-1.11724137931
1070	0.535	9.24769230769	-4.63788819876	1.39322033898	-2.53793103448
1071	0.5355	7.84153846154	-1.82173913043	1.39322033898	-2.53793103448
1072	0.536	3.62307692308	-1.82173913043	-2.85508474576	-8.22068965517
1073	0.5365	3.62307692308	-1.82173913043	15.5542372881	-2.53793103448
1074	0.537	3.62307692308	-0.413664596273	18.386440678	-2.53793103448
1075	0.5375	3.62307692308	-10.2701863354	1.39322033898	-1.11724137931
1076	0.538	2.21692307692	-3.2298136646	1.39322033898	-1.11724137931
1077	0.5385	19.0907692308	-0.413664596273	1.39322033898	-11.0620689655
1078	0.539	-0.595384615385	-1.82173913043	1.39322033898	-8.22068965517
1079	0.5395	-2.00153846154	-0.413664596273	-11.3516949153	-1.11724137931
1080	0.54	-0.595384615385	2.40248447205	-5.68728813559	1.72413793103
1081	0.5405	-0.595384615385	15.0751552795	1.39322033898	-1.11724137931
1082	0.541	-4.81384615385	-3.2298136646	-0.0228813559322	1.72413793103
1083	0.5415	-13.2507692308	-4.63788819876	-1.43898305085	-1.11724137931
1084	0.542	0.810769230769	-1.82173913043	2.8093220339	-1.11724137931
1085	0.5425	2.21692307692	0.994409937888	2.8093220339	-3.95862068966
1086	0.543	-2.00153846154	2.40248447205	-4.27118644068	-1.11724137931
1087	0.5435	-3.40769230769	-6.04596273292	-0.0228813559322	-2.53793103448
1088	0.544	-4.81384615385	-8.86211180124	-0.0228813559322	-1.11724137931
1089	0.5445	19.0907692308	-3.2298136646	2.8093220339	-2.53793103448
1090	0.545	-4.81384615385	-0.413664596273	-0.0228813559322	-8.22068965517
1091	0.5455	-3.40769230769	-0.413664596273	-2.85508474576	-6.8
1092	0.546	-0.595384615385	0.994409937888	-0.0228813559322	-1.11724137931
1093	0.5465	-6.22	-3.2298136646	-1.43898305085	0.303448275862
1094	0.547	-3.40769230769	-8.86211180124	-1.43898305085	-1.11724137931
1095	0.5475	0.810769230769	2.40248447205	1.39322033898	0.303448275862
1096	0.548	-3.40769230769	0.994409937888	-0.0228813559322	1.72413793103
1097	0.5485	-4.81384615385	-0.413664596273	4.22542372881	3.14482758621
1098	0.549	-3.40769230769	-3.2298136646	-1.43898305085	-2.53793103448
1099	0.5495	-2.00153846154	-1.82173913043	-1.43898305085	-1.11724137931
1100	0.55	0.810769230769	-0.413664596273	-0.0228813559322	-2.53793103448
1101	0.5505	12.06	-1.82173913043	1.39322033898	0.303448275862
1102	0.551	7.84153846154	-3.2298136646	-0.0228813559322	-1.11724137931
1103	0.5515	5.02923076923	-1.82173913043	-2.85508474576	-2.53793103448
1104	0.552	2.21692307692	0.994409937888	8.47372881356	-1.11724137931
1105	0.5525	2.21692307692	3.81055900621	-1.43898305085	0.303448275862
1106	0.553	3.62307692308	-4.63788819876	1.39322033898	-2.53793103448
1107	0.5535	-2.00153846154	-0.413664596273	1.39322033898	-1.11724137931
1108	0.554	12.06	-1.82173913043	1.39322033898	-2.53793103448
1109	0.5545	-0.595384615385	-1.82173913043	-0.0228813559322	14.5103448276
1110	0.555	-0.595384615385	2.40248447205	18.386440678	-1.11724137931
1111	0.5555	-2.00153846154	-4.63788819876	16.9703389831	-1.11724137931
1112	0.556	0.810769230769	-13.0863354037	-0.0228813559322	-2.53793103448
1113	0.5565	3.62307692308	0.994409937888	-0.0228813559322	0.303448275862
1114	0.557	16.2784615385	2.40248447205	-1.43898305085	0.303448275862
1115	0.5575	-0.595384615385	0.994409937888	2.8093220339	-5.37931034483
1116	0.558	-0.595384615385	-1.82173913043	-0.0228813559322	-8.22068965517
1117	0.5585	-3.40769230769	0.994409937888	-4.27118644068	0.303448275862
1118	0.559	-0.595384615385	9.44285714286	1.39322033898	-1.11724137931
1119	0.5595	-2.00153846154	-0.413664596273	2.8093220339	-2.53793103448
1120	0.56	-7.62615384615	0.994409937888	1.39322033898	-3.95862068966
1121	0.5605	-11.8446153846	0.994409937888	1.39322033898	14.5103448276
1122	0.561	-4.81384615385	-0.413664596273	5.64152542373	-8.22068965517
1123	0.5615	-0.595384615385	-1.82173913043	-8.51949152542	-1.11724137931
1124	0.562	5.02923076923	0.994409937888	-5.68728813559	0.303448275862
1125	0.5625	-0.595384615385	16.4832298137	2.8093220339	-2.53793103448
1126	0.563	-9.03230769231	-0.413664596273	-1.43898305085	-1.11724137931
1127	0.5635	9.24769230769	-0.413664596273	1.39322033898	-1.11724137931
1128	0.564	7.84153846154	-0.413664596273	-1.43898305085	-1.11724137931
1129	0.5645	5.02923076923	-3.2298136646	-7.10338983051	-1.11724137931
1130	0.565	0.810769230769	3.81055900621	1.39322033898	-2.53793103448
1131	0.5655	-2.00153846154	-0.413664596273	-1.43898305085	-1.11724137931
1132	0.566	-11.8446153846	0.994409937888	-0.0228813559322	3.14482758621
1133	0.5665	-4.81384615385	-0.413664596273	2.8093220339	4.56551724138
1134	0.567	-2.00153846154	-0.413664596273	1.39322033898	-2.53793103448
1135	0.5675	-4.81384615385	0.994409937888	-0.0228813559322	1.72413793103
1136	0.568	-4.81384615385	-0.413664596273	1.39322033898	0.303448275862
1137	0.5685	-4.81384615385	5.21863354037	1.39322033898	0.303448275862
1138	0.569	-16.0630769231	-0.413664596273	-2.85508474576	3.14482758621
1139	0.5695	-11.8446153846	-0.413664596273	2.8093220339	18.7724137931
1140	0.57	-2.00153846154	-0.413664596273	4.22542372881	14.5103448276
1141	0.5705	-2.00153846154	-1.82173913043	4.22542372881	0.303448275862
1142	0.571	-0.595384615385	-10.2701863354	-0.0228813559322	-1.11724137931
1143	0.5715	3.62307692308	-1.82173913043	-0.0228813559322	-1.11724137931
1144	0.572	3.62307692308	-6.04596273292	2.8093220339	-1.11724137931
1145	0.5725	12.06	-1.82173913043	-0.0228813559322	-3.95862068966
1146	0.573	2.21692307692	0.994409937888	1.39322033898	-8.22068965517
1147	0.5735	5.02923076923	0.994409937888	4.22542372881	-5.37931034483
1148	0.574	3.62307692308	-3.2298136646	-1.43898305085	-2.53793103448
1149	0.5745	5.02923076923	-3.2298136646	1.39322033898	-2.53793103448
1150	0.575	5.02923076923	-1.82173913043	-0.0228813559322	-1.11724137931
1151	0.5755	-3.40769230769	-7.45403726708	-1.43898305085	0.303448275862
1152	0.576	2.21692307692	-1.82173913043	-0.0228813559322	-8.22068965517
1153	0.5765	-3.40769230769	-1.82173913043	-7.10338983051	-1.11724137931
1154	0.577	-3.40769230769	-3.2298136646	-8.51949152542	-1.11724137931
1155	0.5775	-3.40769230769	-13.0863354037	1.39322033898	-1.11724137931
1156	0.578	2.21692307692	-1.82173913043	1.39322033898	-1.11724137931
1157	0.5785	9.24769230769	-1.82173913043	4.22542372881	-1.11724137931
1158	0.579	-4.81384615385	-1.82173913043	-0.0228813559322	-9.64137931034
1159	0.5795	3.62307692308	-1.82173913043	1.39322033898	-8.22068965517
1160	0.58	7.84153846154	-1.82173913043	-8.51949152542	0.303448275862
1161	0.5805	2.21692307692	-13.0863354037	-0.0228813559322	0.303448275862
1162	0.581	6.43538461538	-6.04596273292	-0.0228813559322	0.303448275862
1163	0.5815	6.43538461538	-6.04596273292	-0.0228813559322	-1.11724137931
1164	0.582	5.02923076923	-1.82173913043	-1.43898305085	-1.11724137931
1165	0.5825	0.810769230769	-1.82173913043	-0.0228813559322	-9.64137931034
1166	0.583	2.21692307692	-0.413664596273	-8.51949152542	-8.22068965517
1167	0.5835	-2.00153846154	0.994409937888	-7.10338983051	-1.11724137931
1168	0.584	0.810769230769	15.0751552795	-0.0228813559322	1.72413793103
1169	0.5845	-4.81384615385	-4.63788819876	-0.0228813559322	1.72413793103
1170	0.585	-2.00153846154	-0.413664596273	-0.0228813559322	-1.11724137931
1171	0.5855	0.810769230769	-3.2298136646	-1.43898305085	13.0896551724
1172	0.586	0.810769230769	-1.82173913043	-0.0228813559322	18.7724137931
1173	0.5865	0.810769230769	-0.413664596273	1.39322033898	0.303448275862
1174	0.587	0.810769230769	17.8913043478	-1.43898305085	1.72413793103
1175	0.5875	0.810769230769	-3.2298136646	4.22542372881	0.303448275862
1176	0.588	-7.62615384615	-1.82173913043	1.39322033898	-1.11724137931
1177	0.5885	0.810769230769	-1.82173913043	2.8093220339	15.9310344828
1178	0.589	0.810769230769	-1.82173913043	-1.43898305085	17.3517241379
1179	0.5895	0.810769230769	0.994409937888	-7.10338983051	-1.11724137931
1180	0.59	0.810769230769	0.994409937888	-0.0228813559322	0.303448275862
1181	0.5905	-2.00153846154	-0.413664596273	2.8093220339	0.303448275862
1182	0.591	-11.8446153846	-0.413664596273	-1.43898305085	0.303448275862
1183	0.5915	2.21692307692	-0.413664596273	1.39322033898	-1.11724137931
1184	0.592	-4.81384615385	-0.413664596273	-0.0228813559322	-8.22068965517
1185	0.5925	-6.22	-1.82173913043	-8.51949152542	3.14482758621
1186	0.593	-6.22	0.994409937888	1.39322033898	0.303448275862
1187	0.5935	-7.62615384615	20.7074534161	-0.0228813559322	1.72413793103
1188	0.594	-17.4692307692	0.994409937888	-1.43898305085	1.72413793103
1189	0.5945	-11.8446153846	-4.63788819876	4.22542372881	-9.64137931034
1190	0.595	-4.81384615385	0.994409937888	2.8093220339	-6.8
1191	0.5955	0.810769230769	-4.63788819876	-1.43898305085	0.303448275862
1192	0.596	-0.595384615385	-8.86211180124	-0.0228813559322	-1.11724137931
1193	0.5965	5.02923076923	9.44285714286	-0.0228813559322	-2.53793103448
1194	0.597	5.02923076923	-4.63788819876	-1.43898305085	-2.53793103448
1195	0.5975	3.62307692308	-0.413664596273	1.39322033898	-1.11724137931
1196	0.598	3.62307692308	-0.413664596273	2.8093220339	-6.8
1197	0.5985	5.02923076923	0.994409937888	4.22542372881	-1.11724137931
1198	0.599	2.21692307692	-0.413664596273	-4.27118644068	0.303448275862
1199	0.5995	-2.00153846154	8.0347826087	1.39322033898	-1.11724137931
1200	0.6	0.810769230769	9.44285714286	-0.0228813559322	-2.53793103448
1201	0.6005	-3.40769230769	-1.82173913043	1.39322033898	-1.11724137931
1202	0.601	-0.595384615385	-0.413664596273	1.39322033898	-6.8
1203	0.6015	-0.595384615385	-0.413664596273	19.8025423729	0.303448275862
1204	0.602	-2.00153846154	-1.82173913043	19.8025423729	-2.53793103448
1205	0.6025	-2.00153846154	-10.2701863354	2.8093220339	-5.37931034483
1206	0.603	3.62307692308	-1.82173913043	-1.43898305085	-2.53793103448
1207	0.6035	16.2784615385	-1.82173913043	-1.43898305085	-11.0620689655
1208	0.604	-0.595384615385	-1.82173913043	1.39322033898	-15.324137931
1209	0.6045	0.810769230769	-1.82173913043	-7.10338983051	-5.37931034483
1210	0.605	0.810769230769	2.40248447205	-1.43898305085	-3.95862068966
1211	0.6055	0.810769230769	9.44285714286	-0.0228813559322	3.14482758621
1212	0.606	-0.595384615385	-1.82173913043	-0.0228813559322	1.72413793103
1213	0.6065	-7.62615384615	-0.413664596273	-1.43898305085	1.72413793103
1214	0.607	-0.595384615385	-4.63788819876	1.39322033898	1.72413793103
1215	0.6075	-0.595384615385	-1.82173913043	2.8093220339	-1.11724137931
1216	0.608	-0.595384615385	-1.82173913043	4.22542372881	1.72413793103
1217	0.6085	-2.00153846154	-6.04596273292	-1.43898305085	-1.11724137931
1218	0.609	0.810769230769	-8.86211180124	-1.43898305085	1.72413793103
1219	0.6095	-4.81384615385	0.994409937888	-0.0228813559322	0.303448275862
1220	0.61	10.6538461538	0.994409937888	-0.0228813559322	-3.95862068966
1221	0.6105	-2.00153846154	-1.82173913043	-4.27118644068	-8.22068965517
1222	0.611	-3.40769230769	-0.413664596273	-5.68728813559	-1.11724137931
1223	0.6115	-4.81384615385	-4.63788819876	-4.27118644068	-1.11724137931
1224	0.612	0.810769230769	-6.04596273292	1.39322033898	-1.11724137931
1225	0.6125	14.8723076923	0.994409937888	-1.43898305085	-5.37931034483
1226	0.613	-3.40769230769	-4.63788819876	-0.0228813559322	4.56551724138
1227	0.6135	-0.595384615385	-0.413664596273	-4.27118644068	-1.11724137931
1228	0.614	0.810769230769	0.994409937888	14.1381355932	-1.11724137931
1229	0.6145	0.810769230769	-3.2298136646	-1.43898305085	-1.11724137931
1230	0.615	-0.595384615385	15.0751552795	-0.0228813559322	-2.53793103448
1231	0.6155	-7.62615384615	-1.82173913043	1.39322033898	-1.11724137931
1232	0.616	16.2784615385	-1.82173913043	2.8093220339	-2.53793103448
1233	0.6165	-2.00153846154	-0.413664596273	-1.43898305085	-2.53793103448
1234	0.617	-3.40769230769	0.994409937888	16.9703389831	-2.53793103448
1235	0.6175	-4.81384615385	-3.2298136646	-1.43898305085	-1.11724137931
1236	0.618	-4.81384615385	13.6670807453	1.39322033898	0.303448275862
1237	0.6185	-6.22	0.994409937888	2.8093220339	0.303448275862
1238	0.619	-16.0630769231	-0.413664596273	2.8093220339	-11.0620689655
1239	0.6195	-3.40769230769	-1.82173913043	2.8093220339	-12.4827586207
1240	0.62	-4.81384615385	-1.82173913043	-8.51949152542	-11.0620689655
1241	0.6205	3.62307692308	0.994409937888	-8.51949152542	-2.53793103448
1242	0.621	0.810769230769	17.8913043478	2.8093220339	-1.11724137931
1243	0.6215	0.810769230769	-8.86211180124	-1.43898305085	-1.11724137931
1244	0.622	24.7153846154	-1.82173913043	-1.43898305085	-1.11724137931
1245	0.6225	3.62307692308	-0.413664596273	-4.27118644068	-11.0620689655
1246	0.623	5.02923076923	-1.82173913043	-4.27118644068	14.5103448276
1247	0.6235	3.62307692308	3.81055900621	1.39322033898	-3.95862068966
1248	0.624	3.62307692308	-11.6782608696	-0.0228813559322	-1.11724137931
1249	0.6245	0.810769230769	-10.2701863354	2.8093220339	-1.11724137931
1250	0.625	17.6846153846	-3.2298136646	-0.0228813559322	-1.11724137931
1251	0.6255	-2.00153846154	-3.2298136646	-0.0228813559322	-1.11724137931
1252	0.626	2.21692307692	0.994409937888	7.05762711864	-1.11724137931
1253	0.6265	-2.00153846154	-0.413664596273	-5.68728813559	-1.11724137931
1254	0.627	-6.22	0.994409937888	1.39322033898	-1.11724137931
1255	0.6275	-10.4384615385	-4.63788819876	-0.0228813559322	-1.11724137931
1256	0.628	-7.62615384615	3.81055900621	-1.43898305085	-1.11724137931
1257	0.6285	5.02923076923	2.40248447205	-0.0228813559322	-11.0620689655
1258	0.629	-11.8446153846	0.994409937888	-2.85508474576	13.0896551724
1259	0.6295	-4.81384615385	2.40248447205	18.386440678	-2.53793103448
1260	0.63	-3.40769230769	-0.413664596273	15.5542372881	0.303448275862
1261	0.6305	5.02923076923	-6.04596273292	-0.0228813559322	-1.11724137931
1262	0.631	10.6538461538	0.994409937888	-1.43898305085	1.72413793103
1263	0.6315	3.62307692308	-0.413664596273	-0.0228813559322	0.303448275862
1264	0.632	-0.595384615385	0.994409937888	-1.43898305085	-6.8
1265	0.6325	-4.81384615385	-1.82173913043	2.8093220339	-6.8
1266	0.633	-6.22	-4.63788819876	-7.10338983051	0.303448275862
1267	0.6335	-3.40769230769	17.8913043478	-0.0228813559322	-1.11724137931
1268	0.634	-7.62615384615	13.6670807453	-0.0228813559322	-1.11724137931
1269	0.6345	-17.4692307692	-1.82173913043	-1.43898305085	-1.11724137931
1270	0.635	-3.40769230769	-1.82173913043	7.05762711864	-5.37931034483
1271	0.6355	-3.40769230769	-0.413664596273	2.8093220339	0.303448275862
1272	0.636	-0.595384615385	-3.2298136646	-1.43898305085	-1.11724137931
1273	0.6365	2.21692307692	5.21863354037	1.39322033898	-1.11724137931
1274	0.637	0.810769230769	-7.45403726708	-0.0228813559322	-2.53793103448
1275	0.6375	-2.00153846154	-0.413664596273	1.39322033898	-3.95862068966
1276	0.638	-4.81384615385	-3.2298136646	-0.0228813559322	-9.64137931034
1277	0.6385	-6.22	-1.82173913043	-8.51949152542	-1.11724137931
1278	0.639	-4.81384615385	-1.82173913043	-12.7677966102	-2.53793103448
1279	0.6395	-4.81384615385	15.0751552795	-0.0228813559322	1.72413793103
1280	0.64	-4.81384615385	-0.413664596273	2.8093220339	-1.11724137931
1281	0.6405	-14.6569230769	-0.413664596273	1.39322033898	1.72413793103
1282	0.641	0.810769230769	-1.82173913043	4.22542372881	5.98620689655
1283	0.6415	-3.40769230769	-1.82173913043	2.8093220339	-6.8
1284	0.642	-2.00153846154	0.994409937888	-1.43898305085	-2.53793103448
1285	0.6425	2.21692307692	-3.2298136646	-7.10338983051	-2.53793103448
1286	0.643	7.84153846154	10.850931677	-0.0228813559322	-2.53793103448
1287	0.6435	-2.00153846154	-10.2701863354	1.39322033898	-3.95862068966
1288	0.644	21.9030769231	-1.82173913043	2.8093220339	-9.64137931034
1289	0.6445	7.84153846154	-4.63788819876	-0.0228813559322	-9.64137931034
1290	0.645	7.84153846154	-3.2298136646	14.1381355932	-2.53793103448
1291	0.6455	5.02923076923	-3.2298136646	-1.43898305085	0.303448275862
1292	0.646	3.62307692308	-4.63788819876	1.39322033898	0.303448275862
1293	0.6465	0.810769230769	-1.82173913043	1.39322033898	-1.11724137931
1294	0.647	16.2784615385	-1.82173913043	-0.0228813559322	-8.22068965517
1295	0.6475	0.810769230769	0.994409937888	-1.43898305085	-8.22068965517
1296	0.648	-0.595384615385	-0.413664596273	-2.85508474576	-2.53793103448
1297	0.6485	-0.595384615385	-3.2298136646	-8.51949152542	-2.53793103448
1298	0.649	0.810769230769	15.0751552795	-0.0228813559322	-2.53793103448
1299	0.6495	-0.595384615385	17.8913043478	1.39322033898	-2.53793103448
1300	0.65	-11.8446153846	0.994409937888	-0.0228813559322	-1.11724137931
1301	0.6505	-0.595384615385	0.994409937888	-0.0228813559322	-12.4827586207
1302	0.651	-3.40769230769	-0.413664596273	-11.3516949153	-6.8
1303	0.6515	-3.40769230769	6.62670807453	-7.10338983051	0.303448275862
1304	0.652	-6.22	19.299378882	1.39322033898	-1.11724137931
1305	0.6525	-6.22	0.994409937888	1.39322033898	1.72413793103
1306	0.653	-18.8753846154	0.994409937888	-0.0228813559322	1.72413793103
1307	0.6535	-3.40769230769	-0.413664596273	-9.93559322034	0.303448275862
1308	0.654	-4.81384615385	-1.82173913043	-12.7677966102	-2.53793103448
1309	0.6545	0.810769230769	3.81055900621	-2.85508474576	-1.11724137931
1310	0.655	-2.00153846154	10.850931677	-0.0228813559322	-1.11724137931
1311	0.6555	-11.8446153846	-0.413664596273	1.39322033898	0.303448275862
1312	0.656	3.62307692308	-0.413664596273	1.39322033898	-2.53793103448
1313	0.6565	-9.03230769231	-0.413664596273	1.39322033898	1.72413793103
1314	0.657	0.810769230769	-1.82173913043	19.8025423729	-3.95862068966
1315	0.6575	0.810769230769	-0.413664596273	-1.43898305085	-1.11724137931
1316	0.658	0.810769230769	9.44285714286	-0.0228813559322	-1.11724137931
1317	0.6585	-2.00153846154	-6.04596273292	4.22542372881	0.303448275862
1318	0.659	-7.62615384615	-3.2298136646	-0.0228813559322	-1.11724137931
1319	0.6595	-0.595384615385	-0.413664596273	1.39322033898	-3.95862068966
1320	0.66	-3.40769230769	-0.413664596273	-1.43898305085	-1.11724137931
1321	0.6605	-3.40769230769	-0.413664596273	-5.68728813559	0.303448275862
1322	0.661	-3.40769230769	16.4832298137	-0.0228813559322	-2.53793103448
1323	0.6615	-4.81384615385	-0.413664596273	2.8093220339	-1.11724137931
1324	0.662	-14.6569230769	-3.2298136646	1.39322033898	0.303448275862
1325	0.6625	-7.62615384615	-3.2298136646	1.39322033898	14.5103448276
1326	0.663	0.810769230769	-3.2298136646	5.64152542373	11.6689655172
1327	0.6635	0.810769230769	-4.63788819876	-0.0228813559322	-1.11724137931
1328	0.664	-0.595384615385	-13.0863354037	2.8093220339	-1.11724137931
1329	0.6645	-0.595384615385	-15.902484472	1.39322033898	-2.53793103448
1330	0.665	16.2784615385	-1.82173913043	-1.43898305085	-12.4827586207
1331	0.6655	-3.40769230769	-1.82173913043	-4.27118644068	-11.0620689655
1332	0.666	-4.81384615385	-3.2298136646	-1.43898305085	0.303448275862
1333	0.6665	-3.40769230769	-0.413664596273	4.22542372881	-2.53793103448
1334	0.667	-2.00153846154	2.40248447205	-0.0228813559322	0.303448275862
1335	0.6675	-3.40769230769	-6.04596273292	-1.43898305085	-1.11724137931
1336	0.668	-4.81384615385	0.994409937888	2.8093220339	-3.95862068966
1337	0.6685	17.6846153846	-1.82173913043	1.39322033898	-12.4827586207
1338	0.669	-0.595384615385	-1.82173913043	-8.51949152542	-8.22068965517
1339	0.6695	0.810769230769	-1.82173913043	-7.10338983051	-1.11724137931
1340	0.67	2.21692307692	2.40248447205	-5.68728813559	0.303448275862
1341	0.6705	-0.595384615385	16.4832298137	-0.0228813559322	-1.11724137931
1342	0.671	-10.4384615385	-3.2298136646	2.8093220339	1.72413793103
1343	0.6715	-0.595384615385	-3.2298136646	-0.0228813559322	-1.11724137931
1344	0.672	0.810769230769	-1.82173913043	2.8093220339	-6.8
1345	0.6725	-0.595384615385	-1.82173913043	-7.10338983051	-1.11724137931
1346	0.673	-4.81384615385	-7.45403726708	-1.43898305085	-1.11724137931
1347	0.6735	-0.595384615385	-10.2701863354	2.8093220339	-2.53793103448
1348	0.674	3.62307692308	-4.63788819876	1.39322033898	-3.95862068966
1349	0.6745	-0.595384615385	-0.413664596273	-1.43898305085	13.0896551724
1350	0.675	-0.595384615385	-0.413664596273	-1.43898305085	4.56551724138
1351	0.6755	2.21692307692	-0.413664596273	2.8093220339	-1.11724137931
1352	0.676	-0.595384615385	0.994409937888	-0.0228813559322	-2.53793103448
1353	0.6765	3.62307692308	-8.86211180124	-1.43898305085	-2.53793103448
1354	0.677	2.21692307692	-0.413664596273	-0.0228813559322	-3.95862068966
1355	0.6775	20.4969230769	-1.82173913043	-0.0228813559322	-2.53793103448
1356	0.678	-2.00153846154	-0.413664596273	-5.68728813559	1.72413793103
1357	0.6785	0.810769230769	-0.413664596273	5.64152542373	-1.11724137931
1358	0.679	-2.00153846154	-1.82173913043	1.39322033898	-1.11724137931
1359	0.6795	0.810769230769	13.6670807453	1.39322033898	-1.11724137931
1360	0.68	-7.62615384615	-0.413664596273	2.8093220339	-1.11724137931
1361	0.6805	-9.03230769231	-1.82173913043	1.39322033898	-11.0620689655
1362	0.681	0.810769230769	-0.413664596273	4.22542372881	-12.4827586207
1363	0.6815	-0.595384615385	-4.63788819876	-7.10338983051	-1.11724137931
1364	0.682	-3.40769230769	0.994409937888	-5.68728813559	-1.11724137931
1365	0.6825	-4.81384615385	5.21863354037	-0.0228813559322	-2.53793103448
1366	0.683	-14.6569230769	-1.82173913043	1.39322033898	3.14482758621
1367	0.6835	-4.81384615385	-1.82173913043	4.22542372881	1.72413793103
1368	0.684	-3.40769230769	-0.413664596273	2.8093220339	-6.8
1369	0.6845	-0.595384615385	-0.413664596273	-1.43898305085	-9.64137931034
1370	0.685	-0.595384615385	-1.82173913043	-7.10338983051	0.303448275862
1371	0.6855	0.810769230769	10.850931677	-0.0228813559322	-1.11724137931
1372	0.686	-9.03230769231	-4.63788819876	-1.43898305085	-1.11724137931
1373	0.6865	16.2784615385	-1.82173913043	1.39322033898	-12.4827586207
1374	0.687	-4.81384615385	-3.2298136646	2.8093220339	-8.22068965517
1375	0.6875	-4.81384615385	-3.2298136646	-1.43898305085	-3.95862068966
1376	0.688	-2.00153846154	-10.2701863354	-0.0228813559322	-2.53793103448
1377	0.6885	-0.595384615385	9.44285714286	2.8093220339	-2.53793103448
1378	0.689	-2.00153846154	-4.63788819876	-1.43898305085	-2.53793103448
1379	0.6895	0.810769230769	-1.82173913043	-0.0228813559322	-1.11724137931
1380	0.69	-3.40769230769	-1.82173913043	-0.0228813559322	-6.8
1381	0.6905	-3.40769230769	-1.82173913043	-4.27118644068	-2.53793103448
1382	0.691	-2.00153846154	-3.2298136646	1.39322033898	-1.11724137931
1383	0.6915	7.84153846154	3.81055900621	-1.43898305085	0.303448275862
1384	0.692	9.24769230769	-1.82173913043	-0.0228813559322	-1.11724137931
1385	0.6925	5.02923076923	-3.2298136646	1.39322033898	-1.11724137931
1386	0.693	3.62307692308	0.994409937888	1.39322033898	-1.11724137931
1387	0.6935	0.810769230769	0.994409937888	7.05762711864	-1.11724137931
1388	0.694	0.810769230769	-0.413664596273	2.8093220339	-1.11724137931
1389	0.6945	-2.00153846154	-1.82173913043	1.39322033898	0.303448275862
1390	0.695	-3.40769230769	0.994409937888	-0.0228813559322	-1.11724137931
1391	0.6955	12.06	-1.82173913043	-0.0228813559322	-9.64137931034
1392	0.696	-2.00153846154	-0.413664596273	-4.27118644068	-9.64137931034
1393	0.6965	-3.40769230769	-1.82173913043	-8.51949152542	0.303448275862
1394	0.697	-4.81384615385	-1.82173913043	-8.51949152542	-1.11724137931
1395	0.6975	-3.40769230769	16.4832298137	1.39322033898	-1.11724137931
1396	0.698	-0.595384615385	15.0751552795	-1.43898305085	0.303448275862
1397	0.6985	-13.2507692308	-0.413664596273	-1.43898305085	3.14482758621
1398	0.699	0.810769230769	-1.82173913043	4.22542372881	11.6689655172
1399	0.6995	0.810769230769	-1.82173913043	1.39322033898	-6.8
1400	0.7	0.810769230769	-0.413664596273	1.39322033898	-2.53793103448
1401	0.7005	3.62307692308	5.21863354037	-0.0228813559322	-1.11724137931
1402	0.701	0.810769230769	-7.45403726708	-0.0228813559322	-1.11724137931
1403	0.7015	-6.22	-1.82173913043	1.39322033898	-2.53793103448
1404	0.702	2.21692307692	-1.82173913043	-1.43898305085	-12.4827586207
1405	0.7025	2.21692307692	0.994409937888	-8.51949152542	0.303448275862
1406	0.703	0.810769230769	-6.04596273292	-5.68728813559	-2.53793103448
1407	0.7035	2.21692307692	20.7074534161	-0.0228813559322	0.303448275862
1408	0.704	-0.595384615385	-1.82173913043	-0.0228813559322	0.303448275862
1409	0.7045	-10.4384615385	-1.82173913043	-0.0228813559322	0.303448275862
1410	0.705	2.21692307692	-1.82173913043	-1.43898305085	-1.11724137931
1411	0.7055	2.21692307692	-0.413664596273	-0.0228813559322	-3.95862068966
1412	0.706	0.810769230769	-0.413664596273	-4.27118644068	0.303448275862
1413	0.7065	0.810769230769	-1.82173913043	-0.0228813559322	-1.11724137931
1414	0.707	-2.00153846154	0.994409937888	-1.43898305085	0.303448275862
1415	0.7075	-6.22	2.40248447205	1.39322033898	-1.11724137931
1416	0.708	-10.4384615385	-1.82173913043	-1.43898305085	1.72413793103
1417	0.7085	-2.00153846154	0.994409937888	-8.51949152542	-1.11724137931
1418	0.709	-4.81384615385	2.40248447205	1.39322033898	-2.53793103448
1419	0.7095	-4.81384615385	20.7074534161	-1.43898305085	-1.11724137931
1420	0.71	-4.81384615385	-3.2298136646	1.39322033898	-1.11724137931
1421	0.7105	-11.8446153846	-0.413664596273	-0.0228813559322	-2.53793103448
1422	0.711	-0.595384615385	0.994409937888	2.8093220339	-3.95862068966
1423	0.7115	-0.595384615385	-0.413664596273	-1.43898305085	-2.53793103448
1424	0.712	2.21692307692	-3.2298136646	-8.51949152542	-2.53793103448
1425	0.7125	-0.595384615385	0.994409937888	2.8093220339	-2.53793103448
1426	0.713	-2.00153846154	-1.82173913043	1.39322033898	1.72413793103
1427	0.7135	-13.2507692308	-0.413664596273	-0.0228813559322	0.303448275862
1428	0.714	-4.81384615385	-3.2298136646	-1.43898305085	14.5103448276
1429	0.7145	0.810769230769	-1.82173913043	-0.0228813559322	11.6689655172
1430	0.715	5.02923076923	3.81055900621	-1.43898305085	-1.11724137931
1431	0.7155	3.62307692308	12.2590062112	-0.0228813559322	0.303448275862
1432	0.716	0.810769230769	-4.63788819876	1.39322033898	1.72413793103
1433	0.7165	-4.81384615385	0.994409937888	2.8093220339	1.72413793103
1434	0.717	-3.40769230769	0.994409937888	1.39322033898	-1.11724137931
1435	0.7175	-0.595384615385	-0.413664596273	-5.68728813559	-1.11724137931
1436	0.718	-2.00153846154	0.994409937888	-11.3516949153	-1.11724137931
1437	0.7185	-2.00153846154	17.8913043478	1.39322033898	-1.11724137931
1438	0.719	-4.81384615385	-1.82173913043	2.8093220339	0.303448275862
1439	0.7195	-13.2507692308	-1.82173913043	1.39322033898	1.72413793103
1440	0.72	2.21692307692	-4.63788819876	1.39322033898	-3.95862068966
1441	0.7205	0.810769230769	-4.63788819876	-4.27118644068	-1.11724137931
1442	0.721	2.21692307692	-0.413664596273	-5.68728813559	-1.11724137931
1443	0.7215	0.810769230769	0.994409937888	1.39322033898	0.303448275862
1444	0.722	-3.40769230769	0.994409937888	1.39322033898	0.303448275862
1445	0.7225	-10.4384615385	-0.413664596273	-1.43898305085	1.72413793103
1446	0.723	-4.81384615385	-1.82173913043	-0.0228813559322	-3.95862068966
1447	0.7235	-3.40769230769	-1.82173913043	-5.68728813559	8.8275862069
1448	0.724	-6.22	-0.413664596273	11.3059322034	3.14482758621
1449	0.7245	-0.595384615385	-6.04596273292	2.8093220339	1.72413793103
1450	0.725	2.21692307692	10.850931677	1.39322033898	-2.53793103448
1451	0.7255	0.810769230769	-1.82173913043	-1.43898305085	1.72413793103
1452	0.726	-7.62615384615	-0.413664596273	-0.0228813559322	-12.4827586207
1453	0.7265	-0.595384615385	-0.413664596273	2.8093220339	-11.0620689655
1454	0.727	2.21692307692	-1.82173913043	14.1381355932	0.303448275862
1455	0.7275	0.810769230769	-10.2701863354	1.39322033898	-2.53793103448
1456	0.728	2.21692307692	3.81055900621	1.39322033898	-1.11724137931
1457	0.7285	3.62307692308	9.44285714286	-0.0228813559322	-2.53793103448
1458	0.729	-6.22	0.994409937888	-0.0228813559322	0.303448275862
1459	0.7295	-9.03230769231	-0.413664596273	-1.43898305085	17.3517241379
1460	0.73	3.62307692308	-0.413664596273	-7.10338983051	-3.95862068966
1461	0.7305	0.810769230769	2.40248447205	-2.85508474576	-1.11724137931
1462	0.731	0.810769230769	15.0751552795	-0.0228813559322	-1.11724137931
1463	0.7315	0.810769230769	5.21863354037	-0.0228813559322	-2.53793103448
1464	0.732	7.84153846154	-0.413664596273	2.8093220339	-3.95862068966
1465	0.7325	0.810769230769	-1.82173913043	-0.0228813559322	-6.8
1466	0.733	0.810769230769	-0.413664596273	-7.10338983051	-1.11724137931
1467	0.7335	0.810769230769	3.81055900621	-0.0228813559322	-1.11724137931
1468	0.734	-3.40769230769	3.81055900621	2.8093220339	-1.11724137931
1469	0.7345	-3.40769230769	-3.2298136646	1.39322033898	0.303448275862
1470	0.735	-10.4384615385	2.40248447205	-1.43898305085	-3.95862068966
1471	0.7355	-0.595384615385	0.994409937888	1.39322033898	-2.53793103448
1472	0.736	-2.00153846154	-0.413664596273	-1.43898305085	-3.95862068966
1473	0.7365	-4.81384615385	0.994409937888	-7.10338983051	0.303448275862
1474	0.737	-0.595384615385	-3.2298136646	-0.0228813559322	-1.11724137931
1475	0.7375	-2.00153846154	-0.413664596273	-0.0228813559322	0.303448275862
1476	0.738	-11.8446153846	-0.413664596273	1.39322033898	0.303448275862
1477	0.7385	-10.4384615385	-1.82173913043	-0.0228813559322	-11.0620689655
1478	0.739	-0.595384615385	-0.413664596273	11.3059322034	-1.11724137931
1479	0.7395	-0.595384615385	-0.413664596273	-2.85508474576	1.72413793103
1480	0.74	-4.81384615385	0.994409937888	-8.51949152542	-1.11724137931
1481	0.7405	-2.00153846154	19.299378882	2.8093220339	-2.53793103448
1482	0.741	-6.22	15.0751552795	-0.0228813559322	-1.11724137931
1483	0.7415	-9.03230769231	-0.413664596273	1.39322033898	7.40689655172
1484	0.742	-3.40769230769	-0.413664596273	4.22542372881	1.72413793103
1485	0.7425	-6.22	-1.82173913043	-0.0228813559322	-6.8
1486	0.743	-4.81384615385	-0.413664596273	-0.0228813559322	3.14482758621
1487	0.7435	-6.22	0.994409937888	-0.0228813559322	-1.11724137931
1488	0.744	-4.81384615385	-0.413664596273	2.8093220339	1.72413793103
1489	0.7445	-13.2507692308	-1.82173913043	-0.0228813559322	4.56551724138
1490	0.745	0.810769230769	0.994409937888	1.39322033898	3.14482758621
1491	0.7455	2.21692307692	-0.413664596273	4.22542372881	-1.11724137931
1492	0.746	2.21692307692	0.994409937888	-5.68728813559	-1.11724137931
1493	0.7465	3.62307692308	2.40248447205	-8.51949152542	-1.11724137931
1494	0.747	2.21692307692	20.7074534161	2.8093220339	-1.11724137931
1495	0.7475	-7.62615384615	-0.413664596273	1.39322033898	1.72413793103
1496	0.748	0.810769230769	0.994409937888	1.39322033898	7.40689655172
1497	0.7485	5.02923076923	0.994409937888	-0.0228813559322	1.72413793103
1498	0.749	3.62307692308	-0.413664596273	-5.68728813559	-1.11724137931
1499	0.7495	2.21692307692	-1.82173913043	-7.10338983051	0.303448275862
1500	0.75	5.02923076923	17.8913043478	-0.0228813559322	-2.53793103448
1501	0.7505	-9.03230769231	0.994409937888	1.39322033898	4.56551724138
1502	0.751	-10.4384615385	-3.2298136646	-0.0228813559322	10.2482758621
1503	0.7515	-3.40769230769	-0.413664596273	-0.0228813559322	1.72413793103
1504	0.752	-3.40769230769	0.994409937888	9.88983050847	-2.53793103448
1505	0.7525	-2.00153846154	-3.2298136646	18.386440678	-1.11724137931
1506	0.753	0.810769230769	-10.2701863354	1.39322033898	0.303448275862
1507	0.7535	2.21692307692	-3.2298136646	-0.0228813559322	-1.11724137931
1508	0.754	14.8723076923	-1.82173913043	-0.0228813559322	1.72413793103
1509	0.7545	-6.22	-3.2298136646	-1.43898305085	-6.8
1510	0.755	-0.595384615385	0.994409937888	16.9703389831	0.303448275862
1511	0.7555	0.810769230769	-0.413664596273	18.386440678	-1.11724137931
1512	0.756	0.810769230769	-11.6782608696	-1.43898305085	0.303448275862
1513	0.7565	5.02923076923	-0.413664596273	1.39322033898	0.303448275862
1514	0.757	17.6846153846	-0.413664596273	1.39322033898	-5.37931034483
1515	0.7575	-0.595384615385	0.994409937888	1.39322033898	1.72413793103
1516	0.758	7.84153846154	-0.413664596273	2.8093220339	18.7724137931
1517	0.7585	2.21692307692	-3.2298136646	2.8093220339	-3.95862068966
1518	0.759	0.810769230769	-1.82173913043	2.8093220339	-1.11724137931
1519	0.7595	3.62307692308	-6.04596273292	1.39322033898	0.303448275862
1520	0.76	12.06	-0.413664596273	1.39322033898	-6.8
1521	0.7605	-4.81384615385	-0.413664596273	1.39322033898	7.40689655172
1522	0.761	-2.00153846154	0.994409937888	-1.43898305085	14.5103448276
1523	0.7615	-0.595384615385	2.40248447205	-8.51949152542	-1.11724137931
1524	0.762	2.21692307692	3.81055900621	-1.43898305085	-1.11724137931
1525	0.7625	-2.00153846154	-1.82173913043	-0.0228813559322	-1.11724137931
1526	0.763	-11.8446153846	-1.82173913043	-1.43898305085	1.72413793103
1527	0.7635	-11.8446153846	-0.413664596273	-1.43898305085	4.56551724138
1528	0.764	-6.22	-0.413664596273	-0.0228813559322	-1.11724137931
1529	0.7645	-6.22	-0.413664596273	7.05762711864	-3.95862068966
1530	0.765	-4.81384615385	-6.04596273292	-4.27118644068	-3.95862068966
1531	0.7655	-4.81384615385	5.21863354037	1.39322033898	-2.53793103448
1532	0.766	0.810769230769	15.0751552795	1.39322033898	-2.53793103448
1533	0.7665	-4.81384615385	2.40248447205	2.8093220339	-2.53793103448
1534	0.767	2.21692307692	2.40248447205	-1.43898305085	15.9310344828
1535	0.7675	5.02923076923	-0.413664596273	19.8025423729	-1.11724137931
1536	0.768	5.02923076923	-8.86211180124	-0.0228813559322	0.303448275862
1537	0.7685	5.02923076923	-8.86211180124	1.39322033898	-1.11724137931
1538	0.769	3.62307692308	-8.86211180124	-0.0228813559322	-2.53793103448
1539	0.7695	16.2784615385	-1.82173913043	-0.0228813559322	-12.4827586207
1540	0.77	-2.00153846154	-0.413664596273	-7.10338983051	-9.64137931034
1541	0.7705	-0.595384615385	-0.413664596273	-8.51949152542	-2.53793103448
1542	0.771	-2.00153846154	-10.2701863354	-0.0228813559322	-1.11724137931
1543	0.7715	2.21692307692	-8.86211180124	-0.0228813559322	-1.11724137931
1544	0.772	17.6846153846	-0.413664596273	1.39322033898	1.72413793103
1545	0.7725	-3.40769230769	0.994409937888	-0.0228813559322	-1.11724137931
1546	0.773	0.810769230769	2.40248447205	-5.68728813559	-3.95862068966
1547	0.7735	2.21692307692	-0.413664596273	5.64152542373	-1.11724137931
1548	0.774	-0.595384615385	-1.82173913043	2.8093220339	0.303448275862
1549	0.7745	0.810769230769	8.0347826087	-1.43898305085	0.303448275862
1550	0.775	-0.595384615385	-1.82173913043	1.39322033898	0.303448275862
1551	0.7755	-10.4384615385	2.40248447205	1.39322033898	4.56551724138
1552	0.776	0.810769230769	0.994409937888	4.22542372881	-1.11724137931
1553	0.7765	-4.81384615385	3.81055900621	11.3059322034	-2.53793103448
1554	0.777	-6.22	3.81055900621	-2.85508474576	-1.11724137931
1555	0.7775	-3.40769230769	2.40248447205	2.8093220339	-1.11724137931
1556	0.778	-0.595384615385	-0.413664596273	1.39322033898	-1.11724137931
1557	0.7785	-2.00153846154	-0.413664596273	1.39322033898	-1.11724137931
1558	0.779	-9.03230769231	-0.413664596273	-0.0228813559322	0.303448275862
1559	0.7795	-0.595384615385	-0.413664596273	16.9703389831	-2.53793103448
1560	0.78	-4.81384615385	0.994409937888	2.8093220339	0.303448275862
1561	0.7805	-6.22	17.8913043478	-0.0228813559322	-3.95862068966
1562	0.781	-7.62615384615	-1.82173913043	-1.43898305085	-1.11724137931
1563	0.7815	-7.62615384615	-0.413664596273	4.22542372881	-11.0620689655
1564	0.782	-3.40769230769	-1.82173913043	4.22542372881	3.14482758621
1565	0.7825	2.21692307692	-0.413664596273	1.39322033898	11.6689655172
1566	0.783	7.84153846154	0.994409937888	-7.10338983051	0.303448275862
1567	0.7835	5.02923076923	17.8913043478	-0.0228813559322	-1.11724137931
1568	0.784	0.810769230769	-0.413664596273	-0.0228813559322	0.303448275862
1569	0.7845	-10.4384615385	0.994409937888	1.39322033898	3.14482758621
1570	0.785	-2.00153846154	-1.82173913043	-0.0228813559322	1.72413793103
1571	0.7855	3.62307692308	-0.413664596273	2.8093220339	7.40689655172
1572	0.786	2.21692307692	0.994409937888	-5.68728813559	-2.53793103448
1573	0.7865	5.02923076923	2.40248447205	-0.0228813559322	-2.53793103448
1574	0.787	3.62307692308	2.40248447205	-1.43898305085	0.303448275862
1575	0.7875	-7.62615384615	2.40248447205	1.39322033898	-1.11724137931
1576	0.788	10.6538461538	0.994409937888	-0.0228813559322	-1.11724137931
1577	0.7885	0.810769230769	0.994409937888	-0.0228813559322	-8.22068965517
1578	0.789	2.21692307692	0.994409937888	-12.7677966102	-2.53793103448
1579	0.7895	0.810769230769	3.81055900621	1.39322033898	3.14482758621
1580	0.79	2.21692307692	10.850931677	2.8093220339	0.303448275862
1581	0.7905	-2.00153846154	-3.2298136646	-0.0228813559322	-1.11724137931
1582	0.791	10.6538461538	0.994409937888	1.39322033898	-3.95862068966
1583	0.7915	-2.00153846154	-0.413664596273	1.39322033898	-13.9034482759
1584	0.792	-2.00153846154	0.994409937888	1.39322033898	5.98620689655
1585	0.7925	-3.40769230769	5.21863354037	1.39322033898	1.72413793103
1586	0.793	-0.595384615385	10.850931677	-0.0228813559322	-1.11724137931
1587	0.7935	-0.595384615385	3.81055900621	4.22542372881	-1.11724137931
1588	0.794	2.21692307692	-3.2298136646	-0.0228813559322	0.303448275862
1589	0.7945	-11.8446153846	-0.413664596273	1.39322033898	-1.11724137931
1590	0.795	-2.00153846154	-1.82173913043	2.8093220339	0.303448275862
1591	0.7955	-3.40769230769	-4.63788819876	15.5542372881	1.72413793103
1592	0.796	-2.00153846154	-8.86211180124	1.39322033898	0.303448275862
1593	0.7965	2.21692307692	-8.86211180124	1.39322033898	-1.11724137931
1594	0.797	5.02923076923	0.994409937888	2.8093220339	-1.11724137931
1595	0.7975	0.810769230769	0.994409937888	4.22542372881	-6.8
1596	0.798	3.62307692308	-0.413664596273	16.9703389831	0.303448275862
1597	0.7985	3.62307692308	-0.413664596273	14.1381355932	-1.11724137931
1598	0.799	3.62307692308	-14.4944099379	-0.0228813559322	-1.11724137931
1599	0.7995	7.84153846154	-3.2298136646	-0.0228813559322	0.303448275862
1600	0.8	-7.62615384615	0.994409937888	2.8093220339	-1.11724137931
1601	0.8005	-4.81384615385	-0.413664596273	1.39322033898	4.56551724138
1602	0.801	2.21692307692	-0.413664596273	2.8093220339	-1.11724137931
1603	0.8015	2.21692307692	-1.82173913043	-0.0228813559322	-1.11724137931
1604	0.802	-0.595384615385	-7.45403726708	-0.0228813559322	-2.53793103448
1605	0.8025	-2.00153846154	-4.63788819876	2.8093220339	-3.95862068966
1606	0.803	-2.00153846154	-0.413664596273	2.8093220339	-1.11724137931
1607	0.8035	10.6538461538	-1.82173913043	-0.0228813559322	0.303448275862
1608	0.804	0.810769230769	-0.413664596273	-2.85508474576	1.72413793103
1609	0.8045	3.62307692308	-1.82173913043	12.7220338983	-1.11724137931
1610	0.805	-0.595384615385	-0.413664596273	12.7220338983	-2.53793103448
1611	0.8055	2.21692307692	-7.45403726708	1.39322033898	-1.11724137931
1612	0.806	2.21692307692	-0.413664596273	1.39322033898	-2.53793103448
1613	0.8065	20.4969230769	0.994409937888	1.39322033898	-12.4827586207
1614	0.807	0.810769230769	-0.413664596273	4.22542372881	-6.8
1615	0.8075	3.62307692308	-0.413664596273	18.386440678	0.303448275862
1616	0.808	3.62307692308	-1.82173913043	-1.43898305085	0.303448275862
1617	0.8085	9.24769230769	-3.2298136646	-0.0228813559322	-1.11724137931
1618	0.809	9.24769230769	-1.82173913043	-0.0228813559322	0.303448275862
1619	0.8095	12.06	0.994409937888	-1.43898305085	0.303448275862
1620	0.81	2.21692307692	0.994409937888	-0.0228813559322	1.72413793103
1621	0.8105	0.810769230769	0.994409937888	4.22542372881	0.303448275862
1622	0.811	-0.595384615385	-3.2298136646	-2.85508474576	-2.53793103448
1623	0.8115	-0.595384615385	-3.2298136646	-0.0228813559322	0.303448275862
1624	0.812	-0.595384615385	2.40248447205	-0.0228813559322	-1.11724137931
1625	0.8125	-13.2507692308	-0.413664596273	2.8093220339	-2.53793103448
1626	0.813	-9.03230769231	-0.413664596273	-2.85508474576	8.8275862069
1627	0.8135	3.62307692308	-1.82173913043	-5.68728813559	-6.8
1628	0.814	2.21692307692	3.81055900621	-1.43898305085	-1.11724137931
1629	0.8145	2.21692307692	6.62670807453	-0.0228813559322	-2.53793103448
1630	0.815	0.810769230769	-6.04596273292	-0.0228813559322	-3.95862068966
1631	0.8155	-4.81384615385	2.40248447205	-1.43898305085	-1.11724137931
1632	0.816	0.810769230769	-3.2298136646	-0.0228813559322	17.3517241379
1633	0.8165	-2.00153846154	-0.413664596273	-1.43898305085	18.7724137931
1634	0.817	-4.81384615385	0.994409937888	19.8025423729	-3.95862068966
1635	0.8175	-3.40769230769	-8.86211180124	-0.0228813559322	-1.11724137931
1636	0.818	-0.595384615385	-11.6782608696	-1.43898305085	-1.11724137931
1637	0.8185	-3.40769230769	-1.82173913043	-0.0228813559322	-1.11724137931
1638	0.819	-6.22	-0.413664596273	-0.0228813559322	-1.11724137931
1639	0.8195	-0.595384615385	-4.63788819876	-9.93559322034	-5.37931034483
1640	0.82	-2.00153846154	-0.413664596273	2.8093220339	-1.11724137931
1641	0.8205	-0.595384615385	0.994409937888	-1.43898305085	-2.53793103448
1642	0.821	0.810769230769	-6.04596273292	-0.0228813559322	-1.11724137931
1643	0.8215	-0.595384615385	-3.2298136646	1.39322033898	0.303448275862
1644	0.822	16.2784615385	-0.413664596273	-1.43898305085	-2.53793103448
1645	0.8225	0.810769230769	0.994409937888	-0.0228813559322	-12.4827586207
1646	0.823	5.02923076923	-0.413664596273	-8.51949152542	-1.11724137931
1647	0.8235	3.62307692308	-0.413664596273	-4.27118644068	-3.95862068966
1648	0.824	3.62307692308	16.4832298137	-1.43898305085	-1.11724137931
1649	0.8245	-6.22	-1.82173913043	-1.43898305085	0.303448275862
1650	0.825	12.06	-0.413664596273	1.39322033898	-5.37931034483
1651	0.8255	-0.595384615385	-3.2298136646	-0.0228813559322	8.8275862069
1652	0.826	9.24769230769	-1.82173913043	-2.85508474576	0.303448275862
1653	0.8265	9.24769230769	-4.63788819876	-2.85508474576	-2.53793103448
1654	0.827	2.21692307692	15.0751552795	2.8093220339	-1.11724137931
1655	0.8275	-0.595384615385	-1.82173913043	-1.43898305085	0.303448275862
1656	0.828	-7.62615384615	0.994409937888	-0.0228813559322	1.72413793103
1657	0.8285	-7.62615384615	-1.82173913043	2.8093220339	1.72413793103
1658	0.829	-0.595384615385	-1.82173913043	15.5542372881	-1.11724137931
1659	0.8295	-3.40769230769	-0.413664596273	-2.85508474576	-1.11724137931
1660	0.83	0.810769230769	-1.82173913043	-2.85508474576	-2.53793103448
1661	0.8305	7.84153846154	-1.82173913043	-0.0228813559322	-2.53793103448
1662	0.831	16.2784615385	-3.2298136646	-0.0228813559322	-6.8
1663	0.8315	2.21692307692	-1.82173913043	-0.0228813559322	-5.37931034483
1664	0.832	5.02923076923	-0.413664596273	-0.0228813559322	8.8275862069
1665	0.8325	3.62307692308	0.994409937888	-0.0228813559322	-2.53793103448
1666	0.833	0.810769230769	-0.413664596273	-1.43898305085	-2.53793103448
1667	0.8335	2.21692307692	-4.63788819876	-0.0228813559322	-1.11724137931
1668	0.834	2.21692307692	0.994409937888	-0.0228813559322	-2.53793103448
1669	0.8345	2.21692307692	-0.413664596273	1.39322033898	1.72413793103
1670	0.835	2.21692307692	0.994409937888	2.8093220339	15.9310344828
1671	0.8355	3.62307692308	0.994409937888	2.8093220339	-1.11724137931
1672	0.836	3.62307692308	-1.82173913043	-1.43898305085	-2.53793103448
1673	0.8365	3.62307692308	-1.82173913043	-0.0228813559322	-1.11724137931
1674	0.837	3.62307692308	-3.2298136646	-0.0228813559322	-1.11724137931
1675	0.8375	3.62307692308	-0.413664596273	2.8093220339	1.72413793103
1676	0.838	0.810769230769	-0.413664596273	-1.43898305085	-5.37931034483
1677	0.8385	-0.595384615385	0.994409937888	-1.43898305085	0.303448275862
1678	0.839	0.810769230769	-1.82173913043	-7.10338983051	0.303448275862
1679	0.8395	5.02923076923	16.4832298137	-0.0228813559322	-1.11724137931
1680	0.84	-0.595384615385	-1.82173913043	-0.0228813559322	0.303448275862
1681	0.8405	-10.4384615385	-4.63788819876	-1.43898305085	-1.11724137931
1682	0.841	0.810769230769	-1.82173913043	-2.85508474576	-2.53793103448
1683	0.8415	0.810769230769	-0.413664596273	-7.10338983051	-1.11724137931
1684	0.842	0.810769230769	-4.63788819876	-8.51949152542	-1.11724137931
1685	0.8425	0.810769230769	-10.2701863354	-0.0228813559322	-3.95862068966
1686	0.843	-0.595384615385	-4.63788819876	2.8093220339	0.303448275862
1687	0.8435	-10.4384615385	-3.2298136646	1.39322033898	-3.95862068966
1688	0.844	17.6846153846	-0.413664596273	1.39322033898	-2.53793103448
1689	0.8445	-2.00153846154	0.994409937888	-7.10338983051	4.56551724138
1690	0.845	-2.00153846154	-0.413664596273	14.1381355932	-1.11724137931
1691	0.8455	2.21692307692	0.994409937888	-0.0228813559322	-1.11724137931
1692	0.846	-2.00153846154	-10.2701863354	-1.43898305085	-2.53793103448
1693	0.8465	2.21692307692	-1.82173913043	-0.0228813559322	-2.53793103448
1694	0.847	13.4661538462	-0.413664596273	2.8093220339	-8.22068965517
1695	0.8475	-3.40769230769	-1.82173913043	-1.43898305085	14.5103448276
1696	0.848	3.62307692308	-0.413664596273	-0.0228813559322	18.7724137931
1697	0.8485	3.62307692308	0.994409937888	-1.43898305085	-1.11724137931
1698	0.849	3.62307692308	-10.2701863354	-1.43898305085	-1.11724137931
1699	0.8495	3.62307692308	-4.63788819876	-1.43898305085	-2.53793103448
1700	0.85	13.4661538462	-1.82173913043	2.8093220339	-1.11724137931
1701	0.8505	-6.22	-0.413664596273	-0.0228813559322	15.9310344828
1702	0.851	2.21692307692	-3.2298136646	-1.43898305085	17.3517241379
1703	0.8515	-0.595384615385	0.994409937888	-7.10338983051	0.303448275862
1704	0.852	0.810769230769	17.8913043478	-1.43898305085	1.72413793103
1705	0.8525	-4.81384615385	-6.04596273292	2.8093220339	-1.11724137931
1706	0.853	0.810769230769	-1.82173913043	-0.0228813559322	-1.11724137931
1707	0.8535	-3.40769230769	-0.413664596273	1.39322033898	-8.22068965517
1708	0.854	-0.595384615385	-0.413664596273	-1.43898305085	7.40689655172
1709	0.8545	-0.595384615385	-0.413664596273	9.88983050847	-2.53793103448
1710	0.855	-0.595384615385	-8.86211180124	2.8093220339	-1.11724137931
1711	0.8555	0.810769230769	-10.2701863354	-0.0228813559322	-5.37931034483
1712	0.856	5.02923076923	0.994409937888	-0.0228813559322	-1.11724137931
1713	0.8565	16.2784615385	-0.413664596273	1.39322033898	-3.95862068966
1714	0.857	-3.40769230769	0.994409937888	-0.0228813559322	-5.37931034483
1715	0.8575	0.810769230769	0.994409937888	1.39322033898	-1.11724137931
1716	0.858	-0.595384615385	0.994409937888	-0.0228813559322	-2.53793103448
1717	0.8585	0.810769230769	0.994409937888	-0.0228813559322	-1.11724137931
1718	0.859	-6.22	-0.413664596273	-0.0228813559322	1.72413793103
1719	0.8595	3.62307692308	-3.2298136646	4.22542372881	-3.95862068966
1720	0.86	-4.81384615385	-0.413664596273	-0.0228813559322	3.14482758621
1721	0.8605	3.62307692308	-1.82173913043	18.386440678	-1.11724137931
