	Time	Channel 1	Channel 2	Channel 3	Channel 4
0	0.0	-9.57777777778	-2.38076923077	0.3625	1.37586206897
1	0.0005	0.611111111111	-0.923076923077	-1.1	1.37586206897
2	0.001	-5.21111111111	-2.38076923077	-12.8	-4.43103448276
3	0.0015	0.611111111111	-2.38076923077	-4.025	-2.97931034483
4	0.002	-2.3	-0.923076923077	1.825	-1.5275862069
5	0.0025	-2.3	-0.923076923077	3.2875	-4.43103448276
6	0.003	0.611111111111	-11.1269230769	-1.1	7.18275862069
7	0.0035	-2.3	-5.29615384615	1.825	-1.5275862069
8	0.004	-8.12222222222	-0.923076923077	0.3625	-0.0758620689655
9	0.0045	-0.844444444444	-2.38076923077	-4.025	-2.97931034483
10	0.005	0.611111111111	-11.1269230769	3.2875	-5.88275862069
11	0.0055	9.34444444444	-0.923076923077	0.3625	-2.97931034483
12	0.006	-3.75555555556	-2.38076923077	0.3625	4.27931034483
13	0.0065	-0.844444444444	-0.923076923077	-1.1	-1.5275862069
14	0.007	-3.75555555556	1.99230769231	-2.5625	-1.5275862069
15	0.0075	-0.844444444444	4.90769230769	-1.1	-0.0758620689655
16	0.008	0.611111111111	6.36538461538	-1.1	-2.97931034483
17	0.0085	-6.66666666667	-3.83846153846	0.3625	-1.5275862069
18	0.009	-11.0333333333	-2.38076923077	-1.1	15.8931034483
19	0.0095	-3.75555555556	-2.38076923077	-1.1	14.4413793103
20	0.01	0.611111111111	-0.923076923077	-6.95	-1.5275862069
21	0.0105	-3.75555555556	18.0269230769	0.3625	-2.97931034483
22	0.011	-5.21111111111	-0.923076923077	0.3625	1.37586206897
23	0.0115	-12.4888888889	-3.83846153846	0.3625	1.37586206897
24	0.012	-8.12222222222	-0.923076923077	6.2125	-0.0758620689655
25	0.0125	0.611111111111	-0.923076923077	19.375	-2.97931034483
26	0.013	-0.844444444444	-2.38076923077	12.0625	-1.5275862069
27	0.0135	-0.844444444444	-11.1269230769	1.825	-1.5275862069
28	0.014	0.611111111111	-6.75384615385	-1.1	-1.5275862069
29	0.0145	7.88888888889	-2.38076923077	-1.1	-1.5275862069
30	0.015	7.88888888889	-2.38076923077	1.825	-1.5275862069
31	0.0155	-2.3	0.534615384615	-1.1	-2.97931034483
32	0.016	-2.3	-0.923076923077	-4.025	-2.97931034483
33	0.0165	-2.3	-5.29615384615	0.3625	-2.97931034483
34	0.017	-0.844444444444	-9.66923076923	-2.5625	-1.5275862069
35	0.0175	-0.844444444444	-2.38076923077	0.3625	-2.97931034483
36	0.018	0.611111111111	-0.923076923077	-1.1	17.3448275862
37	0.0185	0.611111111111	-0.923076923077	-1.1	14.4413793103
38	0.019	-0.844444444444	0.534615384615	19.375	-4.43103448276
39	0.0195	-2.3	-12.5846153846	0.3625	-1.5275862069
40	0.02	0.611111111111	-15.5	-1.1	-1.5275862069
41	0.0205	0.611111111111	-0.923076923077	1.825	-2.97931034483
42	0.021	-2.3	-0.923076923077	0.3625	-1.5275862069
43	0.0215	-2.3	-2.38076923077	4.75	12.9896551724
44	0.022	-0.844444444444	-2.38076923077	-1.1	-2.97931034483
45	0.0225	-0.844444444444	-3.83846153846	0.3625	-0.0758620689655
46	0.023	0.611111111111	-8.21153846154	0.3625	-1.5275862069
47	0.0235	3.52222222222	0.534615384615	-1.1	-0.0758620689655
48	0.024	-5.21111111111	-0.923076923077	1.825	4.27931034483
49	0.0245	0.611111111111	-0.923076923077	-4.025	-1.5275862069
50	0.025	-0.844444444444	-0.923076923077	7.675	-0.0758620689655
51	0.0255	0.611111111111	-6.75384615385	0.3625	-1.5275862069
52	0.026	0.611111111111	-6.75384615385	1.825	-0.0758620689655
53	0.0265	-0.844444444444	-11.1269230769	1.825	-1.5275862069
54	0.027	15.1666666667	-2.38076923077	0.3625	-11.6896551724
55	0.0275	-2.3	-2.38076923077	4.75	-5.88275862069
56	0.028	-2.3	-3.83846153846	0.3625	-1.5275862069
57	0.0285	-0.844444444444	-3.83846153846	-2.5625	-2.97931034483
58	0.029	2.06666666667	-5.29615384615	0.3625	-4.43103448276
59	0.0295	-2.3	-2.38076923077	-1.1	-4.43103448276
60	0.03	4.97777777778	-0.923076923077	0.3625	-4.43103448276
61	0.0305	-3.75555555556	-0.923076923077	-2.5625	8.63448275862
62	0.031	-0.844444444444	-5.29615384615	-1.1	-0.0758620689655
63	0.0315	0.611111111111	0.534615384615	3.2875	-2.97931034483
64	0.032	-0.844444444444	-5.29615384615	0.3625	-0.0758620689655
65	0.0325	-8.12222222222	-0.923076923077	1.825	-0.0758620689655
66	0.033	3.52222222222	-0.923076923077	1.825	-1.5275862069
67	0.0335	-0.844444444444	-3.83846153846	-2.5625	-8.78620689655
68	0.034	-2.3	-2.38076923077	0.3625	-1.5275862069
69	0.0345	-0.844444444444	0.534615384615	1.825	-2.97931034483
70	0.035	-2.3	-11.1269230769	-1.1	-2.97931034483
71	0.0355	3.52222222222	-12.5846153846	-1.1	-1.5275862069
72	0.036	-5.21111111111	-2.38076923077	-1.1	-10.2379310345
73	0.0365	-0.844444444444	0.534615384615	-11.3375	-8.78620689655
74	0.037	-2.3	-5.29615384615	-2.5625	-1.5275862069
75	0.0375	-0.844444444444	-14.0423076923	0.3625	-1.5275862069
76	0.038	0.611111111111	-5.29615384615	0.3625	-1.5275862069
77	0.0385	-12.4888888889	-6.75384615385	1.825	-2.97931034483
78	0.039	10.8	-5.29615384615	0.3625	-8.78620689655
79	0.0395	-2.3	-5.29615384615	1.825	-10.2379310345
80	0.04	-2.3	-2.38076923077	3.2875	-0.0758620689655
81	0.0405	0.611111111111	-5.29615384615	1.825	-1.5275862069
82	0.041	0.611111111111	-5.29615384615	1.825	-2.97931034483
83	0.0415	0.611111111111	-3.83846153846	-1.1	-2.97931034483
84	0.042	4.97777777778	-2.38076923077	-1.1	-1.5275862069
85	0.0425	-5.21111111111	-2.38076923077	-1.1	14.4413793103
86	0.043	-0.844444444444	0.534615384615	0.3625	-2.97931034483
87	0.0435	-0.844444444444	-2.38076923077	-1.1	-2.97931034483
88	0.044	-0.844444444444	-11.1269230769	0.3625	-4.43103448276
89	0.0445	3.52222222222	-6.75384615385	3.2875	-2.97931034483
90	0.045	4.97777777778	-2.38076923077	3.2875	-7.33448275862
91	0.0455	-9.57777777778	-2.38076923077	0.3625	5.73103448276
92	0.046	-2.3	0.534615384615	17.9125	-2.97931034483
93	0.0465	-0.844444444444	-0.923076923077	3.2875	-4.43103448276
94	0.047	0.611111111111	16.5692307692	-1.1	-1.5275862069
95	0.0475	-5.21111111111	-2.38076923077	1.825	-1.5275862069
96	0.048	-15.4	-2.38076923077	3.2875	-2.97931034483
97	0.0485	-3.75555555556	-3.83846153846	3.2875	-2.97931034483
98	0.049	-2.3	-3.83846153846	1.825	1.37586206897
99	0.0495	-0.844444444444	-3.83846153846	-2.5625	-1.5275862069
100	0.05	-0.844444444444	-2.38076923077	0.3625	-1.5275862069
101	0.0505	-0.844444444444	-2.38076923077	3.2875	-1.5275862069
102	0.051	-11.0333333333	0.534615384615	0.3625	-0.0758620689655
103	0.0515	-12.4888888889	-2.38076923077	3.2875	15.8931034483
104	0.052	-3.75555555556	-0.923076923077	4.75	-4.43103448276
105	0.0525	-3.75555555556	-3.83846153846	0.3625	-1.5275862069
106	0.053	-0.844444444444	-0.923076923077	-6.95	-0.0758620689655
107	0.0535	-5.21111111111	-3.83846153846	1.825	-1.5275862069
108	0.054	-9.57777777778	-2.38076923077	1.825	-0.0758620689655
109	0.0545	-9.57777777778	-2.38076923077	0.3625	-5.88275862069
110	0.055	-0.844444444444	-2.38076923077	-8.4125	-1.5275862069
111	0.0555	-2.3	-2.38076923077	0.3625	-2.97931034483
112	0.056	-2.3	-11.1269230769	-2.5625	-1.5275862069
113	0.0565	-0.844444444444	4.90769230769	-1.1	-2.97931034483
114	0.057	-0.844444444444	-3.83846153846	3.2875	-1.5275862069
115	0.0575	-9.57777777778	-5.29615384615	-1.1	-0.0758620689655
116	0.058	0.611111111111	-0.923076923077	0.3625	-16.0448275862
117	0.0585	-0.844444444444	-2.38076923077	-4.025	-5.88275862069
118	0.059	-2.3	-2.38076923077	4.75	-4.43103448276
119	0.0595	0.611111111111	3.45	1.825	-4.43103448276
120	0.06	-5.21111111111	-2.38076923077	0.3625	-5.88275862069
121	0.0605	12.2555555556	-2.38076923077	1.825	-11.6896551724
122	0.061	-2.3	-0.923076923077	-1.1	-13.1413793103
123	0.0615	-0.844444444444	0.534615384615	16.45	-1.5275862069
124	0.062	-2.3	-11.1269230769	0.3625	-2.97931034483
125	0.0625	-2.3	-5.29615384615	-1.1	-2.97931034483
126	0.063	2.06666666667	-2.38076923077	1.825	-2.97931034483
127	0.0635	-2.3	-0.923076923077	-1.1	-1.5275862069
128	0.064	-0.844444444444	-3.83846153846	4.75	17.3448275862
129	0.0645	-2.3	0.534615384615	6.2125	-5.88275862069
130	0.065	-2.3	-5.29615384615	-1.1	-2.97931034483
131	0.0655	2.06666666667	-5.29615384615	-1.1	-1.5275862069
132	0.066	-0.844444444444	0.534615384615	0.3625	-5.88275862069
133	0.0665	-5.21111111111	-2.38076923077	0.3625	-1.5275862069
134	0.067	-8.12222222222	0.534615384615	1.825	-0.0758620689655
135	0.0675	-0.844444444444	-0.923076923077	4.75	-2.97931034483
136	0.068	-2.3	-6.75384615385	-1.1	-1.5275862069
137	0.0685	-3.75555555556	-2.38076923077	-2.5625	-2.97931034483
138	0.069	0.611111111111	-0.923076923077	0.3625	-0.0758620689655
139	0.0695	-2.3	-2.38076923077	0.3625	-0.0758620689655
140	0.07	-13.9444444444	-2.38076923077	3.2875	-0.0758620689655
141	0.0705	-3.75555555556	-3.83846153846	4.75	-1.5275862069
142	0.071	-0.844444444444	-2.38076923077	-4.025	-0.0758620689655
143	0.0715	-0.844444444444	-2.38076923077	-6.95	-0.0758620689655
144	0.072	0.611111111111	-0.923076923077	0.3625	1.37586206897
145	0.0725	-5.21111111111	-3.83846153846	3.2875	-0.0758620689655
146	0.073	-9.57777777778	-0.923076923077	0.3625	17.3448275862
147	0.0735	-0.844444444444	0.534615384615	1.825	14.4413793103
148	0.074	-2.3	-2.38076923077	-1.1	-4.43103448276
149	0.0745	-2.3	-5.29615384615	-1.1	-2.97931034483
150	0.075	0.611111111111	-11.1269230769	-1.1	-2.97931034483
151	0.0755	0.611111111111	0.534615384615	-1.1	-2.97931034483
152	0.076	-5.21111111111	-2.38076923077	-1.1	2.8275862069
153	0.0765	-2.3	-3.83846153846	1.825	-2.97931034483
154	0.077	-2.3	1.99230769231	-6.95	-2.97931034483
155	0.0775	-0.844444444444	3.45	-1.1	-1.5275862069
156	0.078	-0.844444444444	-9.66923076923	3.2875	-0.0758620689655
157	0.0785	2.06666666667	-8.21153846154	0.3625	-2.97931034483
158	0.079	16.6222222222	-3.83846153846	-1.1	-1.5275862069
159	0.0795	-2.3	-2.38076923077	-11.3375	-2.97931034483
160	0.08	0.611111111111	-0.923076923077	-9.875	-2.97931034483
161	0.0805	0.611111111111	4.90769230769	0.3625	-4.43103448276
162	0.081	-0.844444444444	10.7384615385	1.825	-1.5275862069
163	0.0815	-11.0333333333	-2.38076923077	0.3625	-1.5275862069
164	0.082	3.52222222222	-0.923076923077	0.3625	-1.5275862069
165	0.0825	-2.3	0.534615384615	1.825	-5.88275862069
166	0.083	-0.844444444444	-2.38076923077	-1.1	-13.1413793103
167	0.0835	-0.844444444444	-0.923076923077	-9.875	-1.5275862069
168	0.084	-0.844444444444	16.5692307692	-1.1	-0.0758620689655
169	0.0845	-5.21111111111	-5.29615384615	0.3625	-2.97931034483
170	0.085	-0.844444444444	-3.83846153846	1.825	-4.43103448276
171	0.0855	-8.12222222222	-0.923076923077	-1.1	-0.0758620689655
172	0.086	-0.844444444444	-0.923076923077	-12.8	-2.97931034483
173	0.0865	-0.844444444444	0.534615384615	-1.1	-0.0758620689655
174	0.087	-2.3	-0.923076923077	1.825	-0.0758620689655
175	0.0875	0.611111111111	-9.66923076923	0.3625	-2.97931034483
176	0.088	3.52222222222	-12.5846153846	1.825	-2.97931034483
177	0.0885	-0.844444444444	0.534615384615	0.3625	-5.88275862069
178	0.089	-2.3	-0.923076923077	-4.025	-0.0758620689655
179	0.0895	-2.3	-3.83846153846	6.2125	-1.5275862069
180	0.09	0.611111111111	-2.38076923077	1.825	-1.5275862069
181	0.0905	-0.844444444444	-11.1269230769	-1.1	-0.0758620689655
182	0.091	2.06666666667	-9.66923076923	-1.1	-1.5275862069
183	0.0915	18.0777777778	-3.83846153846	-1.1	-7.33448275862
184	0.092	-5.21111111111	-0.923076923077	1.825	-7.33448275862
185	0.0925	-3.75555555556	-2.38076923077	1.825	-1.5275862069
186	0.093	-0.844444444444	0.534615384615	12.0625	-1.5275862069
187	0.0935	0.611111111111	-6.75384615385	1.825	-1.5275862069
188	0.094	-11.0333333333	0.534615384615	0.3625	-4.43103448276
189	0.0945	20.9888888889	-5.29615384615	-1.1	-1.5275862069
190	0.095	-0.844444444444	-3.83846153846	4.75	-2.97931034483
191	0.0955	-2.3	-2.38076923077	3.2875	1.37586206897
192	0.096	-0.844444444444	-9.66923076923	0.3625	1.37586206897
193	0.0965	0.611111111111	6.36538461538	0.3625	-1.5275862069
194	0.097	-2.3	0.534615384615	0.3625	-0.0758620689655
195	0.0975	-11.0333333333	-2.38076923077	3.2875	-11.6896551724
196	0.098	-2.3	-2.38076923077	0.3625	-7.33448275862
197	0.0985	-2.3	-2.38076923077	10.6	1.37586206897
198	0.099	-2.3	-0.923076923077	3.2875	-0.0758620689655
199	0.0995	-3.75555555556	7.82307692308	0.3625	-0.0758620689655
200	0.1	-2.3	-2.38076923077	0.3625	2.8275862069
201	0.1005	-13.9444444444	-0.923076923077	0.3625	1.37586206897
202	0.101	0.611111111111	-2.38076923077	3.2875	-7.33448275862
203	0.1015	-0.844444444444	-3.83846153846	7.675	1.37586206897
204	0.102	-2.3	-2.38076923077	-4.025	1.37586206897
205	0.1025	-2.3	-0.923076923077	-5.4875	1.37586206897
206	0.103	-5.21111111111	-0.923076923077	1.825	-1.5275862069
207	0.1035	-11.0333333333	-2.38076923077	-1.1	-0.0758620689655
208	0.104	-11.0333333333	-0.923076923077	1.825	-10.2379310345
209	0.1045	-0.844444444444	-0.923076923077	14.9875	-1.5275862069
210	0.105	-0.844444444444	0.534615384615	3.2875	-2.97931034483
211	0.1055	0.611111111111	-8.21153846154	1.825	-2.97931034483
212	0.106	-2.3	-6.75384615385	0.3625	-2.97931034483
213	0.1065	-5.21111111111	-0.923076923077	-1.1	-5.88275862069
214	0.107	16.6222222222	0.534615384615	0.3625	-2.97931034483
215	0.1075	-3.75555555556	-2.38076923077	-11.3375	-8.78620689655
216	0.108	0.611111111111	0.534615384615	-6.95	-2.97931034483
217	0.1085	-5.21111111111	1.99230769231	-1.1	-2.97931034483
218	0.109	-0.844444444444	3.45	-1.1	-1.5275862069
219	0.1095	-6.66666666667	-6.75384615385	-1.1	-4.43103448276
220	0.11	10.8	0.534615384615	1.825	-10.2379310345
221	0.1105	-0.844444444444	-0.923076923077	3.2875	-11.6896551724
222	0.111	-2.3	-0.923076923077	1.825	-0.0758620689655
223	0.1115	0.611111111111	-9.66923076923	3.2875	-1.5275862069
224	0.112	-3.75555555556	10.7384615385	-1.1	-0.0758620689655
225	0.1125	-5.21111111111	-0.923076923077	-1.1	-1.5275862069
226	0.113	-6.66666666667	-2.38076923077	1.825	1.37586206897
227	0.1135	0.611111111111	-2.38076923077	-1.1	-2.97931034483
228	0.114	-2.3	-3.83846153846	-4.025	-1.5275862069
229	0.1145	-0.844444444444	-0.923076923077	-12.8	-1.5275862069
230	0.115	-3.75555555556	16.5692307692	-2.5625	-4.43103448276
231	0.1155	-6.66666666667	-2.38076923077	1.825	-0.0758620689655
232	0.116	-15.4	-3.83846153846	3.2875	-1.5275862069
233	0.1165	-0.844444444444	-3.83846153846	4.75	-4.43103448276
234	0.117	-2.3	-2.38076923077	7.675	-2.97931034483
235	0.1175	-3.75555555556	-2.38076923077	1.825	-1.5275862069
236	0.118	0.611111111111	6.36538461538	3.2875	-2.97931034483
237	0.1185	-2.3	-2.38076923077	0.3625	-2.97931034483
238	0.119	-9.57777777778	-5.29615384615	0.3625	-1.5275862069
239	0.1195	-11.0333333333	-3.83846153846	3.2875	-4.43103448276
240	0.12	-0.844444444444	-0.923076923077	-9.875	-1.5275862069
241	0.1205	-0.844444444444	-2.38076923077	-8.4125	-2.97931034483
242	0.121	-0.844444444444	-12.5846153846	3.2875	-2.97931034483
243	0.1215	0.611111111111	-5.29615384615	-1.1	-4.43103448276
244	0.122	3.52222222222	-0.923076923077	0.3625	-4.43103448276
245	0.1225	15.1666666667	-0.923076923077	-1.1	-4.43103448276
246	0.123	-0.844444444444	-0.923076923077	-6.95	-13.1413793103
247	0.1235	0.611111111111	-2.38076923077	-6.95	-8.78620689655
248	0.124	0.611111111111	-12.5846153846	1.825	-10.2379310345
249	0.1245	0.611111111111	-6.75384615385	1.825	-7.33448275862
250	0.125	12.2555555556	-2.38076923077	0.3625	-13.1413793103
251	0.1255	-6.66666666667	-2.38076923077	1.825	-8.78620689655
252	0.126	-0.844444444444	-3.83846153846	0.3625	7.18275862069
253	0.1265	-0.844444444444	-2.38076923077	4.75	-16.0448275862
254	0.127	-0.844444444444	-14.0423076923	-1.1	-7.33448275862
255	0.1275	-0.844444444444	16.5692307692	-1.1	-10.2379310345
256	0.128	-13.9444444444	-0.923076923077	0.3625	-5.88275862069
257	0.1285	-8.12222222222	-2.38076923077	-1.1	-10.2379310345
258	0.129	-0.844444444444	-0.923076923077	-8.4125	-13.1413793103
259	0.1295	0.611111111111	-2.38076923077	-6.95	-14.5931034483
260	0.13	2.06666666667	9.28076923077	0.3625	-7.33448275862
261	0.1305	0.611111111111	-6.75384615385	-1.1	-5.88275862069
262	0.131	-3.75555555556	0.534615384615	0.3625	-7.33448275862
263	0.1315	15.1666666667	-0.923076923077	0.3625	-16.0448275862
264	0.132	-2.3	-0.923076923077	-1.1	-13.1413793103
265	0.1325	0.611111111111	0.534615384615	-8.4125	-5.88275862069
266	0.133	0.611111111111	1.99230769231	-6.95	-5.88275862069
267	0.1335	2.06666666667	18.0269230769	-1.1	-4.43103448276
268	0.134	-13.9444444444	0.534615384615	0.3625	-2.97931034483
269	0.1345	0.611111111111	-2.38076923077	1.825	-7.33448275862
270	0.135	-0.844444444444	-0.923076923077	0.3625	8.63448275862
271	0.1355	2.06666666667	0.534615384615	-8.4125	-7.33448275862
272	0.136	2.06666666667	0.534615384615	-6.95	-5.88275862069
273	0.1365	0.611111111111	1.99230769231	1.825	-7.33448275862
274	0.137	-11.0333333333	-0.923076923077	1.825	-5.88275862069
275	0.1375	0.611111111111	-0.923076923077	-1.1	-7.33448275862
276	0.138	0.611111111111	-0.923076923077	0.3625	-13.1413793103
277	0.1385	2.06666666667	0.534615384615	-6.95	-4.43103448276
278	0.139	0.611111111111	0.534615384615	-9.875	-5.88275862069
279	0.1395	0.611111111111	18.0269230769	0.3625	-7.33448275862
280	0.14	-11.0333333333	0.534615384615	0.3625	-7.33448275862
281	0.1405	-3.75555555556	-2.38076923077	-2.5625	-2.97931034483
282	0.141	3.52222222222	0.534615384615	0.3625	-7.33448275862
283	0.1415	0.611111111111	-0.923076923077	0.3625	-16.0448275862
284	0.142	2.06666666667	-0.923076923077	-6.95	-7.33448275862
285	0.1425	3.52222222222	7.82307692308	-1.1	-7.33448275862
286	0.143	-0.844444444444	0.534615384615	-1.1	-5.88275862069
287	0.1435	-8.12222222222	-2.38076923077	0.3625	-4.43103448276
288	0.144	3.52222222222	0.534615384615	1.825	-7.33448275862
289	0.1445	0.611111111111	1.99230769231	14.9875	-10.2379310345
290	0.145	0.611111111111	-0.923076923077	0.3625	-7.33448275862
291	0.1455	2.06666666667	-0.923076923077	0.3625	-5.88275862069
292	0.146	-2.3	-0.923076923077	-2.5625	-4.43103448276
293	0.1465	-11.0333333333	-2.38076923077	-1.1	-5.88275862069
294	0.147	-5.21111111111	-2.38076923077	-2.5625	-7.33448275862
295	0.1475	-0.844444444444	0.534615384615	-2.5625	-11.6896551724
296	0.148	0.611111111111	-2.38076923077	-6.95	-5.88275862069
297	0.1485	3.52222222222	1.99230769231	-8.4125	-4.43103448276
298	0.149	-3.75555555556	18.0269230769	-1.1	-2.97931034483
299	0.1495	-12.4888888889	0.534615384615	0.3625	-1.5275862069
300	0.15	-5.21111111111	0.534615384615	-1.1	-1.5275862069
301	0.1505	-0.844444444444	-0.923076923077	6.2125	-2.97931034483
302	0.151	0.611111111111	0.534615384615	-1.1	-4.43103448276
303	0.1515	0.611111111111	0.534615384615	-1.1	-2.97931034483
304	0.152	0.611111111111	0.534615384615	0.3625	-0.0758620689655
305	0.1525	-13.9444444444	-2.38076923077	1.825	4.27931034483
306	0.153	-5.21111111111	0.534615384615	-1.1	2.8275862069
307	0.1535	-0.844444444444	0.534615384615	3.2875	-7.33448275862
308	0.154	-0.844444444444	-5.29615384615	-6.95	-0.0758620689655
309	0.1545	2.06666666667	0.534615384615	3.2875	-1.5275862069
310	0.155	-2.3	18.0269230769	0.3625	-0.0758620689655
311	0.1555	-0.844444444444	0.534615384615	0.3625	1.37586206897
312	0.156	-8.12222222222	-2.38076923077	-1.1	4.27931034483
313	0.1565	3.52222222222	-0.923076923077	4.75	18.7965517241
314	0.157	0.611111111111	0.534615384615	4.75	-0.0758620689655
315	0.1575	0.611111111111	-0.923076923077	-2.5625	-0.0758620689655
316	0.158	0.611111111111	-5.29615384615	1.825	-1.5275862069
317	0.1585	0.611111111111	-2.38076923077	3.2875	-1.5275862069
318	0.159	2.06666666667	-0.923076923077	1.825	-1.5275862069
319	0.1595	-9.57777777778	-2.38076923077	-1.1	4.27931034483
320	0.16	0.611111111111	-0.923076923077	4.75	-4.43103448276
321	0.1605	2.06666666667	-2.38076923077	-1.1	-0.0758620689655
322	0.161	-0.844444444444	-0.923076923077	-2.5625	-0.0758620689655
323	0.1615	0.611111111111	-2.38076923077	1.825	2.8275862069
324	0.162	-5.21111111111	0.534615384615	0.3625	1.37586206897
325	0.1625	-9.57777777778	-2.38076923077	1.825	15.8931034483
326	0.163	-3.75555555556	-0.923076923077	-1.1	-0.0758620689655
327	0.1635	-0.844444444444	0.534615384615	17.9125	-0.0758620689655
328	0.164	-0.844444444444	-15.5	1.825	-0.0758620689655
329	0.1645	2.06666666667	-16.9576923077	0.3625	-0.0758620689655
330	0.165	3.52222222222	0.534615384615	0.3625	-0.0758620689655
331	0.1655	0.611111111111	0.534615384615	-1.1	-8.78620689655
332	0.166	0.611111111111	0.534615384615	-9.875	-0.0758620689655
333	0.1665	-0.844444444444	-2.38076923077	-5.4875	1.37586206897
334	0.167	-2.3	-11.1269230769	1.825	2.8275862069
335	0.1675	2.06666666667	-6.75384615385	3.2875	-1.5275862069
336	0.168	3.52222222222	0.534615384615	1.825	2.8275862069
337	0.1685	15.1666666667	-0.923076923077	0.3625	-7.33448275862
338	0.169	-2.3	-2.38076923077	-9.875	-1.5275862069
339	0.1695	0.611111111111	-2.38076923077	-2.5625	-0.0758620689655
340	0.17	0.611111111111	1.99230769231	6.2125	1.37586206897
341	0.1705	-2.3	3.45	3.2875	-0.0758620689655
342	0.171	-2.3	-2.38076923077	1.825	-1.5275862069
343	0.1715	12.2555555556	-2.38076923077	3.2875	-7.33448275862
344	0.172	-2.3	-0.923076923077	3.2875	-11.6896551724
345	0.1725	-2.3	0.534615384615	-5.4875	-0.0758620689655
346	0.173	0.611111111111	-11.1269230769	4.75	-0.0758620689655
347	0.1735	2.06666666667	9.28076923077	3.2875	1.37586206897
348	0.174	0.611111111111	-8.21153846154	1.825	-0.0758620689655
349	0.1745	10.8	-2.38076923077	0.3625	-2.97931034483
350	0.175	0.611111111111	-5.29615384615	0.3625	-5.88275862069
351	0.1755	-3.75555555556	0.534615384615	-11.3375	1.37586206897
352	0.176	2.06666666667	-3.83846153846	3.2875	2.8275862069
353	0.1765	-0.844444444444	4.90769230769	3.2875	-0.0758620689655
354	0.177	-2.3	-8.21153846154	0.3625	1.37586206897
355	0.1775	-5.21111111111	-9.66923076923	1.825	1.37586206897
356	0.178	-0.844444444444	-0.923076923077	-1.1	-5.88275862069
357	0.1785	2.06666666667	-3.83846153846	-8.4125	-1.5275862069
358	0.179	0.611111111111	-0.923076923077	-5.4875	2.8275862069
359	0.1795	2.06666666667	0.534615384615	1.825	2.8275862069
360	0.18	-3.75555555556	-6.75384615385	0.3625	4.27931034483
361	0.1805	-8.12222222222	-2.38076923077	4.75	-0.0758620689655
362	0.181	9.34444444444	-0.923076923077	3.2875	-0.0758620689655
363	0.1815	-2.3	-0.923076923077	-1.1	12.9896551724
364	0.182	-0.844444444444	-0.923076923077	12.0625	1.37586206897
365	0.1825	0.611111111111	-0.923076923077	3.2875	-1.5275862069
366	0.183	-2.3	9.28076923077	1.825	-0.0758620689655
367	0.1835	-6.66666666667	-2.38076923077	0.3625	-0.0758620689655
368	0.184	19.5333333333	0.534615384615	3.2875	-0.0758620689655
369	0.1845	0.611111111111	0.534615384615	-1.1	-2.97931034483
370	0.185	-0.844444444444	0.534615384615	-6.95	1.37586206897
371	0.1855	-2.3	0.534615384615	0.3625	-0.0758620689655
372	0.186	-3.75555555556	-0.923076923077	0.3625	-1.5275862069
373	0.1865	-5.21111111111	0.534615384615	0.3625	-1.5275862069
374	0.187	19.5333333333	-0.923076923077	3.2875	-1.5275862069
375	0.1875	-2.3	-2.38076923077	3.2875	-7.33448275862
376	0.188	-0.844444444444	0.534615384615	1.825	14.4413793103
377	0.1885	-0.844444444444	-0.923076923077	13.525	-0.0758620689655
378	0.189	-2.3	-14.0423076923	1.825	-1.5275862069
379	0.1895	0.611111111111	-11.1269230769	0.3625	1.37586206897
380	0.19	15.1666666667	-3.83846153846	-1.1	-0.0758620689655
381	0.1905	-3.75555555556	0.534615384615	1.825	-2.97931034483
382	0.191	-0.844444444444	-0.923076923077	1.825	-7.33448275862
383	0.1915	-2.3	-5.29615384615	-6.95	-0.0758620689655
384	0.192	0.611111111111	-14.0423076923	1.825	2.8275862069
385	0.1925	0.611111111111	-6.75384615385	1.825	-1.5275862069
386	0.193	3.52222222222	-5.29615384615	-1.1	-0.0758620689655
387	0.1935	-0.844444444444	0.534615384615	0.3625	-0.0758620689655
388	0.194	-2.3	-2.38076923077	-4.025	-4.43103448276
389	0.1945	-2.3	-0.923076923077	12.0625	2.8275862069
390	0.195	0.611111111111	-0.923076923077	16.45	4.27931034483
391	0.1955	-0.844444444444	-8.21153846154	0.3625	2.8275862069
392	0.196	-0.844444444444	-0.923076923077	0.3625	-0.0758620689655
393	0.1965	20.9888888889	-0.923076923077	-1.1	-0.0758620689655
394	0.197	-2.3	0.534615384615	-2.5625	7.18275862069
395	0.1975	-0.844444444444	-0.923076923077	3.2875	-0.0758620689655
396	0.198	0.611111111111	1.99230769231	3.2875	-0.0758620689655
397	0.1985	-0.844444444444	0.534615384615	0.3625	-0.0758620689655
398	0.199	-5.21111111111	0.534615384615	1.825	1.37586206897
399	0.1995	10.8	-0.923076923077	0.3625	-7.33448275862
400	0.2	-3.75555555556	-0.923076923077	1.825	-7.33448275862
401	0.2005	-2.3	0.534615384615	-8.4125	-0.0758620689655
402	0.201	-0.844444444444	1.99230769231	-5.4875	1.37586206897
403	0.2015	-0.844444444444	16.5692307692	0.3625	-0.0758620689655
404	0.202	-6.66666666667	18.0269230769	3.2875	2.8275862069
405	0.2025	-12.4888888889	0.534615384615	3.2875	2.8275862069
406	0.203	-2.3	-2.38076923077	3.2875	11.5379310345
407	0.2035	-3.75555555556	-2.38076923077	13.525	1.37586206897
408	0.204	-3.75555555556	-9.66923076923	0.3625	-1.5275862069
409	0.2045	-2.3	-5.29615384615	0.3625	-1.5275862069
410	0.205	0.611111111111	-0.923076923077	1.825	1.37586206897
411	0.2055	-8.12222222222	-0.923076923077	1.825	4.27931034483
412	0.206	0.611111111111	-0.923076923077	4.75	15.8931034483
413	0.2065	-0.844444444444	0.534615384615	13.525	-4.43103448276
414	0.207	0.611111111111	0.534615384615	-5.4875	2.8275862069
415	0.2075	0.611111111111	-2.38076923077	1.825	-0.0758620689655
416	0.208	-2.3	-2.38076923077	0.3625	-1.5275862069
417	0.2085	18.0777777778	0.534615384615	3.2875	-1.5275862069
418	0.209	0.611111111111	-0.923076923077	0.3625	-5.88275862069
419	0.2095	-0.844444444444	-0.923076923077	-9.875	-0.0758620689655
420	0.21	-0.844444444444	0.534615384615	1.825	-0.0758620689655
421	0.2105	-2.3	3.45	-1.1	-0.0758620689655
422	0.211	-0.844444444444	-5.29615384615	0.3625	-1.5275862069
423	0.2115	13.7111111111	-0.923076923077	0.3625	-2.97931034483
424	0.212	-3.75555555556	0.534615384615	-1.1	-2.97931034483
425	0.2125	-0.844444444444	-0.923076923077	-9.875	-1.5275862069
426	0.213	-2.3	-2.38076923077	-8.4125	-1.5275862069
427	0.2135	0.611111111111	0.534615384615	0.3625	-0.0758620689655
428	0.214	-2.3	-3.83846153846	4.75	-1.5275862069
429	0.2145	-5.21111111111	-2.38076923077	0.3625	1.37586206897
430	0.215	0.611111111111	1.99230769231	1.825	17.3448275862
431	0.2155	-0.844444444444	0.534615384615	-2.5625	15.8931034483
432	0.216	-2.3	-0.923076923077	-8.4125	-0.0758620689655
433	0.2165	-2.3	13.6538461538	1.825	-0.0758620689655
434	0.217	0.611111111111	3.45	4.75	-1.5275862069
435	0.2175	-3.75555555556	0.534615384615	-1.1	-0.0758620689655
436	0.218	-8.12222222222	-2.38076923077	1.825	-0.0758620689655
437	0.2185	-3.75555555556	-0.923076923077	0.3625	-1.5275862069
438	0.219	-0.844444444444	-3.83846153846	19.375	-1.5275862069
439	0.2195	-2.3	-5.29615384615	20.8375	-1.5275862069
440	0.22	-0.844444444444	-14.0423076923	0.3625	-0.0758620689655
441	0.2205	3.52222222222	-0.923076923077	0.3625	-1.5275862069
442	0.221	16.6222222222	-3.83846153846	0.3625	-0.0758620689655
443	0.2215	-0.844444444444	-0.923076923077	0.3625	5.73103448276
444	0.222	-0.844444444444	0.534615384615	7.675	-2.97931034483
445	0.2225	0.611111111111	-0.923076923077	-4.025	1.37586206897
446	0.223	0.611111111111	6.36538461538	-1.1	-0.0758620689655
447	0.2235	2.06666666667	0.534615384615	-1.1	1.37586206897
448	0.224	-15.4	-2.38076923077	-1.1	-0.0758620689655
449	0.2245	-0.844444444444	-0.923076923077	4.75	-2.97931034483
450	0.225	0.611111111111	0.534615384615	1.825	-4.43103448276
451	0.2255	-0.844444444444	-0.923076923077	-6.95	-0.0758620689655
452	0.226	0.611111111111	-11.1269230769	-1.1	-1.5275862069
453	0.2265	4.97777777778	-3.83846153846	-1.1	1.37586206897
454	0.227	-15.4	-3.83846153846	1.825	1.37586206897
455	0.2275	0.611111111111	-0.923076923077	0.3625	1.37586206897
456	0.228	-2.3	0.534615384615	0.3625	15.8931034483
457	0.2285	-0.844444444444	-0.923076923077	16.45	-1.5275862069
458	0.229	-0.844444444444	-2.38076923077	1.825	-1.5275862069
459	0.2295	-0.844444444444	-11.1269230769	1.825	-0.0758620689655
460	0.23	3.52222222222	-11.1269230769	1.825	-2.97931034483
461	0.2305	18.0777777778	-6.75384615385	4.75	-13.1413793103
462	0.231	-5.21111111111	-5.29615384615	3.2875	-7.33448275862
463	0.2315	-2.3	-5.29615384615	3.2875	-0.0758620689655
464	0.232	-0.844444444444	-8.21153846154	3.2875	-1.5275862069
465	0.2325	0.611111111111	7.82307692308	1.825	1.37586206897
466	0.233	0.611111111111	-2.38076923077	0.3625	-0.0758620689655
467	0.2335	-9.57777777778	0.534615384615	0.3625	-1.5275862069
468	0.234	0.611111111111	-2.38076923077	3.2875	2.8275862069
469	0.2345	0.611111111111	-0.923076923077	0.3625	11.5379310345
470	0.235	-2.3	-5.29615384615	-1.1	2.8275862069
471	0.2355	-2.3	10.7384615385	1.825	-1.5275862069
472	0.236	-2.3	-0.923076923077	3.2875	-0.0758620689655
473	0.2365	-13.9444444444	-0.923076923077	-1.1	4.27931034483
474	0.237	-5.21111111111	-0.923076923077	0.3625	1.37586206897
475	0.2375	-0.844444444444	0.534615384615	0.3625	14.4413793103
476	0.238	-0.844444444444	-2.38076923077	-5.4875	-1.5275862069
477	0.2385	-0.844444444444	-2.38076923077	-6.95	1.37586206897
478	0.239	-2.3	-2.38076923077	0.3625	-1.5275862069
479	0.2395	-13.9444444444	-2.38076923077	1.825	2.8275862069
480	0.24	-3.75555555556	-0.923076923077	0.3625	-0.0758620689655
481	0.2405	-3.75555555556	-2.38076923077	-4.025	14.4413793103
482	0.241	0.611111111111	0.534615384615	3.2875	-1.5275862069
483	0.2415	-2.3	-0.923076923077	0.3625	-0.0758620689655
484	0.242	-0.844444444444	-8.21153846154	-1.1	2.8275862069
485	0.2425	2.06666666667	-3.83846153846	1.825	1.37586206897
486	0.243	-5.21111111111	-2.38076923077	0.3625	-0.0758620689655
487	0.2435	0.611111111111	-5.29615384615	-1.1	-1.5275862069
488	0.244	0.611111111111	-0.923076923077	-8.4125	1.37586206897
489	0.2445	-0.844444444444	1.99230769231	0.3625	-0.0758620689655
490	0.245	-3.75555555556	-0.923076923077	0.3625	2.8275862069
491	0.2455	-6.66666666667	-0.923076923077	0.3625	1.37586206897
492	0.246	13.7111111111	-2.38076923077	1.825	-1.5275862069
493	0.2465	-0.844444444444	-2.38076923077	-1.1	-8.78620689655
494	0.247	-0.844444444444	0.534615384615	-4.025	-1.5275862069
495	0.2475	0.611111111111	-0.923076923077	16.45	-1.5275862069
496	0.248	0.611111111111	-9.66923076923	-1.1	-0.0758620689655
497	0.2485	2.06666666667	-2.38076923077	1.825	-0.0758620689655
498	0.249	18.0777777778	-3.83846153846	1.825	-8.78620689655
499	0.2495	-3.75555555556	0.534615384615	-1.1	-7.33448275862
500	0.25	-2.3	-0.923076923077	3.2875	-1.5275862069
501	0.2505	-2.3	0.534615384615	13.525	-1.5275862069
502	0.251	-0.844444444444	-5.29615384615	0.3625	1.37586206897
503	0.2515	-2.3	-14.0423076923	0.3625	1.37586206897
504	0.252	16.6222222222	-2.38076923077	0.3625	-8.78620689655
505	0.2525	-5.21111111111	-2.38076923077	0.3625	-5.88275862069
506	0.253	-0.844444444444	-0.923076923077	3.2875	11.5379310345
507	0.2535	-3.75555555556	-2.38076923077	7.675	-0.0758620689655
508	0.254	-0.844444444444	-6.75384615385	-1.1	-0.0758620689655
509	0.2545	-2.3	-12.5846153846	1.825	-1.5275862069
510	0.255	19.5333333333	-2.38076923077	-2.5625	4.27931034483
511	0.2555	-5.21111111111	-2.38076923077	1.825	2.8275862069
512	0.256	-2.3	-0.923076923077	1.825	-5.88275862069
513	0.2565	-0.844444444444	-3.83846153846	-9.875	-1.5275862069
514	0.257	-0.844444444444	3.45	1.825	-0.0758620689655
515	0.2575	-0.844444444444	1.99230769231	1.825	-1.5275862069
516	0.258	-12.4888888889	-5.29615384615	-1.1	-1.5275862069
517	0.2585	10.8	-2.38076923077	-2.5625	-10.2379310345
518	0.259	-0.844444444444	-2.38076923077	-1.1	-11.6896551724
519	0.2595	-2.3	-3.83846153846	-8.4125	-1.5275862069
520	0.26	-3.75555555556	0.534615384615	1.825	-1.5275862069
521	0.2605	-0.844444444444	9.28076923077	3.2875	-0.0758620689655
522	0.261	-5.21111111111	-6.75384615385	3.2875	1.37586206897
523	0.2615	-9.57777777778	-8.21153846154	1.825	-1.5275862069
524	0.262	-2.3	-0.923076923077	1.825	-7.33448275862
525	0.2625	-0.844444444444	0.534615384615	-5.4875	-2.97931034483
526	0.263	-2.3	-3.83846153846	-8.4125	-1.5275862069
527	0.2635	-2.3	-2.38076923077	-5.4875	-2.97931034483
528	0.264	-5.21111111111	-3.83846153846	3.2875	-1.5275862069
529	0.2645	-16.8555555556	-5.29615384615	-1.1	-0.0758620689655
530	0.265	-6.66666666667	-2.38076923077	4.75	1.37586206897
531	0.2655	-0.844444444444	-0.923076923077	3.2875	-4.43103448276
532	0.266	0.611111111111	-2.38076923077	-5.4875	-0.0758620689655
533	0.2665	0.611111111111	1.99230769231	-5.4875	-1.5275862069
534	0.267	-3.75555555556	-2.38076923077	1.825	-2.97931034483
535	0.2675	-15.4	-0.923076923077	3.2875	-1.5275862069
536	0.268	-3.75555555556	-0.923076923077	3.2875	-7.33448275862
537	0.2685	-2.3	-3.83846153846	6.2125	-0.0758620689655
538	0.269	-0.844444444444	-3.83846153846	-2.5625	-1.5275862069
539	0.2695	-3.75555555556	-2.38076923077	-6.95	-0.0758620689655
540	0.27	0.611111111111	0.534615384615	1.825	-0.0758620689655
541	0.2705	-3.75555555556	-0.923076923077	0.3625	-0.0758620689655
542	0.271	-12.4888888889	-2.38076923077	0.3625	1.37586206897
543	0.2715	-2.3	-2.38076923077	1.825	15.8931034483
544	0.272	-3.75555555556	-2.38076923077	16.45	-0.0758620689655
545	0.2725	-0.844444444444	-11.1269230769	0.3625	-0.0758620689655
546	0.273	2.06666666667	-9.66923076923	-1.1	-0.0758620689655
547	0.2735	3.52222222222	0.534615384615	0.3625	-0.0758620689655
548	0.274	-3.75555555556	-2.38076923077	0.3625	8.63448275862
549	0.2745	3.52222222222	-2.38076923077	-1.1	1.37586206897
550	0.275	2.06666666667	0.534615384615	7.675	-5.88275862069
551	0.2755	0.611111111111	-12.5846153846	-4.025	-1.5275862069
552	0.276	-2.3	3.45	0.3625	-0.0758620689655
553	0.2765	-2.3	15.1115384615	3.2875	1.37586206897
554	0.277	-11.0333333333	-2.38076923077	1.825	2.8275862069
555	0.2775	-0.844444444444	-0.923076923077	4.75	15.8931034483
556	0.278	-0.844444444444	-2.38076923077	17.9125	-1.5275862069
557	0.2785	0.611111111111	-14.0423076923	-1.1	-1.5275862069
558	0.279	0.611111111111	-6.75384615385	1.825	-1.5275862069
559	0.2795	3.52222222222	-2.38076923077	1.825	-2.97931034483
560	0.28	16.6222222222	-2.38076923077	1.825	-1.5275862069
561	0.2805	-0.844444444444	-2.38076923077	-8.4125	-0.0758620689655
562	0.281	-2.3	-5.29615384615	-6.95	-1.5275862069
563	0.2815	-0.844444444444	-14.0423076923	0.3625	-0.0758620689655
564	0.282	2.06666666667	-11.1269230769	1.825	-1.5275862069
565	0.2825	0.611111111111	-0.923076923077	0.3625	-1.5275862069
566	0.283	-12.4888888889	-0.923076923077	-1.1	17.3448275862
567	0.2835	-0.844444444444	-2.38076923077	4.75	-0.0758620689655
568	0.284	0.611111111111	-0.923076923077	19.375	-0.0758620689655
569	0.2845	0.611111111111	1.99230769231	1.825	-1.5275862069
570	0.285	-3.75555555556	-6.75384615385	3.2875	-1.5275862069
571	0.2855	0.611111111111	-8.21153846154	-1.1	-1.5275862069
572	0.286	15.1666666667	-2.38076923077	-1.1	-2.97931034483
573	0.2865	-0.844444444444	-0.923076923077	0.3625	2.8275862069
574	0.287	-2.3	0.534615384615	7.675	-1.5275862069
575	0.2875	-3.75555555556	-2.38076923077	1.825	-0.0758620689655
576	0.288	0.611111111111	-11.1269230769	1.825	-0.0758620689655
577	0.2885	4.97777777778	-9.66923076923	3.2875	-0.0758620689655
578	0.289	15.1666666667	-5.29615384615	1.825	-4.43103448276
579	0.2895	-9.57777777778	-3.83846153846	1.825	2.8275862069
580	0.29	0.611111111111	-0.923076923077	17.9125	2.8275862069
581	0.2905	0.611111111111	0.534615384615	0.3625	-1.5275862069
582	0.291	-0.844444444444	15.1115384615	1.825	-0.0758620689655
583	0.2915	-2.3	-5.29615384615	1.825	-1.5275862069
584	0.292	0.611111111111	0.534615384615	3.2875	-2.97931034483
585	0.2925	-5.21111111111	0.534615384615	1.825	-1.5275862069
586	0.293	-0.844444444444	-0.923076923077	-1.1	12.9896551724
587	0.2935	-2.3	0.534615384615	9.1375	-1.5275862069
588	0.294	-2.3	-6.75384615385	1.825	-1.5275862069
589	0.2945	-2.3	-6.75384615385	4.75	-4.43103448276
590	0.295	18.0777777778	-3.83846153846	0.3625	-11.6896551724
591	0.2955	-2.3	-0.923076923077	3.2875	-7.33448275862
592	0.296	-0.844444444444	-0.923076923077	6.2125	1.37586206897
593	0.2965	-0.844444444444	-5.29615384615	-1.1	-1.5275862069
594	0.297	-0.844444444444	-8.21153846154	0.3625	-0.0758620689655
595	0.2975	0.611111111111	-3.83846153846	3.2875	1.37586206897
596	0.298	-5.21111111111	-0.923076923077	3.2875	1.37586206897
597	0.2985	-9.57777777778	-2.38076923077	0.3625	14.4413793103
598	0.299	-0.844444444444	0.534615384615	-8.4125	-1.5275862069
599	0.2995	-3.75555555556	-2.38076923077	-12.8	-1.5275862069
600	0.3	0.611111111111	19.4846153846	0.3625	1.37586206897
601	0.3005	-5.21111111111	-5.29615384615	6.2125	-0.0758620689655
602	0.301	-12.4888888889	-0.923076923077	1.825	-2.97931034483
603	0.3015	-8.12222222222	-2.38076923077	1.825	2.8275862069
604	0.302	-3.75555555556	0.534615384615	4.75	-1.5275862069
605	0.3025	-2.3	-2.38076923077	-6.95	-0.0758620689655
606	0.303	-2.3	-9.66923076923	1.825	-1.5275862069
607	0.3035	-0.844444444444	-6.75384615385	0.3625	-0.0758620689655
608	0.304	-15.4	0.534615384615	1.825	-1.5275862069
609	0.3045	-6.66666666667	-2.38076923077	1.825	11.5379310345
610	0.305	-3.75555555556	-2.38076923077	1.825	17.3448275862
611	0.3055	0.611111111111	0.534615384615	-6.95	-1.5275862069
612	0.306	2.06666666667	0.534615384615	-4.025	-0.0758620689655
613	0.3065	-3.75555555556	-3.83846153846	-1.1	2.8275862069
614	0.307	-9.57777777778	-2.38076923077	0.3625	4.27931034483
615	0.3075	9.34444444444	-0.923076923077	3.2875	-2.97931034483
616	0.308	-0.844444444444	-2.38076923077	4.75	-2.97931034483
617	0.3085	-3.75555555556	-2.38076923077	-2.5625	1.37586206897
618	0.309	0.611111111111	-8.21153846154	0.3625	-1.5275862069
619	0.3095	0.611111111111	15.1115384615	0.3625	-1.5275862069
620	0.31	-15.4	-0.923076923077	1.825	-1.5275862069
621	0.3105	2.06666666667	0.534615384615	1.825	-0.0758620689655
622	0.311	-0.844444444444	-2.38076923077	3.2875	-8.78620689655
623	0.3115	-0.844444444444	-2.38076923077	-9.875	-1.5275862069
624	0.312	-5.21111111111	0.534615384615	0.3625	-0.0758620689655
625	0.3125	-0.844444444444	0.534615384615	3.2875	-0.0758620689655
626	0.313	-5.21111111111	-2.38076923077	0.3625	-1.5275862069
627	0.3135	16.6222222222	-0.923076923077	1.825	-2.97931034483
628	0.314	-2.3	-2.38076923077	-2.5625	-8.78620689655
629	0.3145	-2.3	-2.38076923077	16.45	-1.5275862069
630	0.315	-3.75555555556	-3.83846153846	-2.5625	-1.5275862069
631	0.3155	-0.844444444444	-0.923076923077	-1.1	-1.5275862069
632	0.316	-0.844444444444	10.7384615385	-1.1	-1.5275862069
633	0.3165	-2.3	0.534615384615	3.2875	-0.0758620689655
634	0.317	-11.0333333333	-2.38076923077	-1.1	1.37586206897
635	0.3175	-2.3	-2.38076923077	17.9125	-2.97931034483
636	0.318	-0.844444444444	1.99230769231	-1.1	-1.5275862069
637	0.3185	-0.844444444444	0.534615384615	3.2875	-1.5275862069
638	0.319	-3.75555555556	-0.923076923077	1.825	-4.43103448276
639	0.3195	18.0777777778	-0.923076923077	0.3625	-2.97931034483
640	0.32	-5.21111111111	-0.923076923077	-1.1	7.18275862069
641	0.3205	-0.844444444444	-0.923076923077	1.825	-5.88275862069
642	0.321	0.611111111111	-2.38076923077	-8.4125	-0.0758620689655
643	0.3215	-0.844444444444	-9.66923076923	3.2875	-2.97931034483
644	0.322	3.52222222222	-8.21153846154	0.3625	-0.0758620689655
645	0.3225	16.6222222222	-2.38076923077	1.825	-1.5275862069
646	0.323	3.52222222222	-0.923076923077	0.3625	-0.0758620689655
647	0.3235	0.611111111111	-2.38076923077	-2.5625	-7.33448275862
648	0.324	-0.844444444444	0.534615384615	1.825	-7.33448275862
649	0.3245	0.611111111111	-11.1269230769	0.3625	-0.0758620689655
650	0.325	0.611111111111	-3.83846153846	1.825	-1.5275862069
651	0.3255	3.52222222222	-0.923076923077	1.825	-1.5275862069
652	0.326	3.52222222222	-2.38076923077	-1.1	-1.5275862069
653	0.3265	-2.3	-3.83846153846	0.3625	-10.2379310345
654	0.327	0.611111111111	-2.38076923077	1.825	-10.2379310345
655	0.3275	-2.3	-3.83846153846	-6.95	-1.5275862069
656	0.328	0.611111111111	16.5692307692	3.2875	-0.0758620689655
657	0.3285	-0.844444444444	6.36538461538	0.3625	-4.43103448276
658	0.329	-8.12222222222	0.534615384615	0.3625	-0.0758620689655
659	0.3295	0.611111111111	-2.38076923077	-1.1	14.4413793103
660	0.33	-0.844444444444	0.534615384615	-8.4125	-1.5275862069
661	0.3305	-0.844444444444	-0.923076923077	-9.875	-1.5275862069
662	0.331	-0.844444444444	-12.5846153846	-1.1	-1.5275862069
663	0.3315	-5.21111111111	-11.1269230769	1.825	-1.5275862069
664	0.332	3.52222222222	-2.38076923077	1.825	-2.97931034483
665	0.3325	18.0777777778	-3.83846153846	3.2875	-1.5275862069
666	0.333	-2.3	-0.923076923077	-6.95	-0.0758620689655
667	0.3335	0.611111111111	-0.923076923077	-6.95	-1.5275862069
668	0.334	-0.844444444444	-0.923076923077	13.525	-1.5275862069
669	0.3345	-2.3	-9.66923076923	3.2875	-0.0758620689655
670	0.335	0.611111111111	-2.38076923077	0.3625	-1.5275862069
671	0.3355	19.5333333333	-2.38076923077	3.2875	-2.97931034483
672	0.336	-0.844444444444	-0.923076923077	-6.95	-2.97931034483
673	0.3365	-0.844444444444	-0.923076923077	-5.4875	-4.43103448276
674	0.337	-2.3	0.534615384615	-1.1	-2.97931034483
675	0.3375	-0.844444444444	-6.75384615385	0.3625	-1.5275862069
676	0.338	-6.66666666667	-2.38076923077	-1.1	-1.5275862069
677	0.3385	0.611111111111	-0.923076923077	0.3625	-7.33448275862
678	0.339	0.611111111111	-2.38076923077	9.1375	-2.97931034483
679	0.3395	0.611111111111	-3.83846153846	-2.5625	-1.5275862069
680	0.34	0.611111111111	-2.38076923077	-1.1	-1.5275862069
681	0.3405	2.06666666667	4.90769230769	3.2875	-2.97931034483
682	0.341	2.06666666667	-2.38076923077	1.825	-0.0758620689655
683	0.3415	-6.66666666667	-0.923076923077	0.3625	-0.0758620689655
684	0.342	3.52222222222	-0.923076923077	1.825	17.3448275862
685	0.3425	0.611111111111	-2.38076923077	3.2875	-1.5275862069
686	0.343	0.611111111111	-2.38076923077	0.3625	-1.5275862069
687	0.3435	2.06666666667	-12.5846153846	0.3625	-0.0758620689655
688	0.344	2.06666666667	-0.923076923077	-1.1	-1.5275862069
689	0.3445	19.5333333333	-5.29615384615	3.2875	-11.6896551724
690	0.345	-2.3	-2.38076923077	1.825	-8.78620689655
691	0.3455	-0.844444444444	-5.29615384615	-6.95	-0.0758620689655
692	0.346	-2.3	1.99230769231	-9.875	-1.5275862069
693	0.3465	2.06666666667	19.4846153846	1.825	-1.5275862069
694	0.347	-12.4888888889	-2.38076923077	0.3625	-1.5275862069
695	0.3475	-6.66666666667	-0.923076923077	0.3625	-2.97931034483
696	0.348	0.611111111111	-2.38076923077	-1.1	-11.6896551724
697	0.3485	-2.3	1.99230769231	-6.95	-1.5275862069
698	0.349	-2.3	0.534615384615	-5.4875	-0.0758620689655
699	0.3495	0.611111111111	19.4846153846	0.3625	-2.97931034483
700	0.35	-13.9444444444	-2.38076923077	-1.1	-0.0758620689655
701	0.3505	19.5333333333	-0.923076923077	1.825	-1.5275862069
702	0.351	0.611111111111	-0.923076923077	1.825	1.37586206897
703	0.3515	0.611111111111	-0.923076923077	12.0625	-2.97931034483
704	0.352	0.611111111111	-2.38076923077	3.2875	-0.0758620689655
705	0.3525	2.06666666667	-5.29615384615	0.3625	-0.0758620689655
706	0.353	2.06666666667	-0.923076923077	-1.1	-0.0758620689655
707	0.3535	15.1666666667	-0.923076923077	0.3625	-7.33448275862
708	0.354	-5.21111111111	-0.923076923077	1.825	-8.78620689655
709	0.3545	-2.3	-2.38076923077	0.3625	1.37586206897
710	0.355	0.611111111111	-3.83846153846	-2.5625	-1.5275862069
711	0.3555	0.611111111111	-3.83846153846	-6.95	-1.5275862069
712	0.356	0.611111111111	15.1115384615	0.3625	-0.0758620689655
713	0.3565	-9.57777777778	-0.923076923077	0.3625	1.37586206897
714	0.357	-8.12222222222	0.534615384615	-1.1	15.8931034483
715	0.3575	-0.844444444444	-2.38076923077	-9.875	-4.43103448276
716	0.358	0.611111111111	-2.38076923077	-8.4125	-4.43103448276
717	0.3585	-0.844444444444	13.6538461538	0.3625	-1.5275862069
718	0.359	-2.3	-6.75384615385	0.3625	-0.0758620689655
719	0.3595	-11.0333333333	-0.923076923077	-1.1	-1.5275862069
720	0.36	9.34444444444	-0.923076923077	-1.1	-4.43103448276
721	0.3605	-0.844444444444	-0.923076923077	-1.1	11.5379310345
722	0.361	0.611111111111	0.534615384615	-6.95	-4.43103448276
723	0.3615	2.06666666667	3.45	0.3625	-1.5275862069
724	0.362	0.611111111111	0.534615384615	0.3625	-0.0758620689655
725	0.3625	-15.4	-0.923076923077	1.825	-0.0758620689655
726	0.363	2.06666666667	0.534615384615	4.75	-0.0758620689655
727	0.3635	0.611111111111	-2.38076923077	1.825	-7.33448275862
728	0.364	-2.3	-0.923076923077	-4.025	-1.5275862069
729	0.3645	0.611111111111	-0.923076923077	-5.4875	-2.97931034483
730	0.365	-2.3	16.5692307692	1.825	-4.43103448276
731	0.3655	-3.75555555556	9.28076923077	0.3625	-1.5275862069
732	0.366	-0.844444444444	-0.923076923077	6.2125	-5.88275862069
733	0.3665	0.611111111111	-0.923076923077	1.825	-10.2379310345
734	0.367	-0.844444444444	0.534615384615	-8.4125	-8.78620689655
735	0.3675	0.611111111111	0.534615384615	1.825	-0.0758620689655
736	0.368	0.611111111111	1.99230769231	-1.1	1.37586206897
737	0.3685	-3.75555555556	-5.29615384615	0.3625	-1.5275862069
738	0.369	2.06666666667	0.534615384615	0.3625	-2.97931034483
739	0.3695	-11.0333333333	-2.38076923077	-1.1	17.3448275862
740	0.37	-0.844444444444	-2.38076923077	-11.3375	-1.5275862069
741	0.3705	-2.3	1.99230769231	-5.4875	-0.0758620689655
742	0.371	2.06666666667	16.5692307692	0.3625	-4.43103448276
743	0.3715	-2.3	-6.75384615385	1.825	-1.5275862069
744	0.372	-5.21111111111	-8.21153846154	1.825	-1.5275862069
745	0.3725	10.8	-0.923076923077	1.825	-7.33448275862
746	0.373	-0.844444444444	-0.923076923077	6.2125	-14.5931034483
747	0.3735	-0.844444444444	-2.38076923077	-6.95	-1.5275862069
748	0.374	-0.844444444444	-12.5846153846	1.825	-1.5275862069
749	0.3745	2.06666666667	0.534615384615	0.3625	-2.97931034483
750	0.375	-3.75555555556	-9.66923076923	1.825	-4.43103448276
751	0.3755	16.6222222222	-2.38076923077	3.2875	-13.1413793103
752	0.376	-2.3	-2.38076923077	4.75	-10.2379310345
753	0.3765	0.611111111111	-2.38076923077	7.675	-1.5275862069
754	0.377	0.611111111111	-12.5846153846	3.2875	-1.5275862069
755	0.3775	-0.844444444444	0.534615384615	1.825	-2.97931034483
756	0.378	0.611111111111	-0.923076923077	-1.1	-1.5275862069
757	0.3785	-2.3	-0.923076923077	1.825	-0.0758620689655
758	0.379	-0.844444444444	-2.38076923077	0.3625	-7.33448275862
759	0.3795	0.611111111111	0.534615384615	1.825	-11.6896551724
760	0.38	2.06666666667	-3.83846153846	-6.95	2.8275862069
761	0.3805	-0.844444444444	16.5692307692	0.3625	-2.97931034483
762	0.381	-0.844444444444	-2.38076923077	1.825	-1.5275862069
763	0.3815	-11.0333333333	-0.923076923077	0.3625	1.37586206897
764	0.382	2.06666666667	-0.923076923077	3.2875	-13.1413793103
765	0.3825	0.611111111111	-0.923076923077	17.9125	-2.97931034483
766	0.383	-3.75555555556	-2.38076923077	3.2875	-0.0758620689655
767	0.3835	-2.3	-0.923076923077	-4.025	-2.97931034483
768	0.384	3.52222222222	-0.923076923077	1.825	-2.97931034483
769	0.3845	10.8	1.99230769231	0.3625	-4.43103448276
770	0.385	-6.66666666667	-2.38076923077	0.3625	8.63448275862
771	0.3855	-0.844444444444	-0.923076923077	3.2875	-0.0758620689655
772	0.386	-2.3	-3.83846153846	1.825	-1.5275862069
773	0.3865	-0.844444444444	18.0269230769	0.3625	-0.0758620689655
774	0.387	-0.844444444444	-3.83846153846	-1.1	-1.5275862069
775	0.3875	-8.12222222222	-0.923076923077	-1.1	-1.5275862069
776	0.388	-9.57777777778	-2.38076923077	3.2875	4.27931034483
777	0.3885	0.611111111111	-0.923076923077	6.2125	15.8931034483
778	0.389	2.06666666667	0.534615384615	19.375	-1.5275862069
779	0.3895	-0.844444444444	-14.0423076923	0.3625	-0.0758620689655
780	0.39	0.611111111111	-5.29615384615	3.2875	-0.0758620689655
781	0.3905	2.06666666667	0.534615384615	3.2875	-1.5275862069
782	0.391	4.97777777778	-5.29615384615	0.3625	-7.33448275862
783	0.3915	0.611111111111	-2.38076923077	-5.4875	14.4413793103
784	0.392	0.611111111111	-0.923076923077	0.3625	-0.0758620689655
785	0.3925	-0.844444444444	-3.83846153846	1.825	1.37586206897
786	0.393	2.06666666667	-9.66923076923	1.825	-0.0758620689655
787	0.3935	3.52222222222	0.534615384615	1.825	-1.5275862069
788	0.394	18.0777777778	-0.923076923077	0.3625	-13.1413793103
789	0.3945	0.611111111111	-0.923076923077	-2.5625	-4.43103448276
790	0.395	0.611111111111	-2.38076923077	-8.4125	-1.5275862069
791	0.3955	0.611111111111	0.534615384615	7.675	-0.0758620689655
792	0.396	0.611111111111	4.90769230769	3.2875	-1.5275862069
793	0.3965	0.611111111111	-0.923076923077	-1.1	-0.0758620689655
794	0.397	10.8	-2.38076923077	1.825	-8.78620689655
795	0.3975	0.611111111111	-3.83846153846	-1.1	-11.6896551724
796	0.398	0.611111111111	0.534615384615	-8.4125	-0.0758620689655
797	0.3985	0.611111111111	-2.38076923077	-9.875	-1.5275862069
798	0.399	-2.3	-12.5846153846	-1.1	-1.5275862069
799	0.3995	3.52222222222	-2.38076923077	0.3625	-1.5275862069
800	0.4	-15.4	0.534615384615	1.825	-1.5275862069
801	0.4005	0.611111111111	-0.923076923077	-1.1	-1.5275862069
802	0.401	-2.3	0.534615384615	12.0625	-1.5275862069
803	0.4015	0.611111111111	-2.38076923077	19.375	-1.5275862069
804	0.402	-3.75555555556	-11.1269230769	0.3625	-1.5275862069
805	0.4025	0.611111111111	-8.21153846154	-1.1	-1.5275862069
806	0.403	0.611111111111	-9.66923076923	0.3625	-2.97931034483
807	0.4035	-0.844444444444	0.534615384615	0.3625	-11.6896551724
808	0.404	-2.3	-2.38076923077	-6.95	1.37586206897
809	0.4045	-2.3	-0.923076923077	9.1375	-0.0758620689655
810	0.405	0.611111111111	-5.29615384615	3.2875	-0.0758620689655
811	0.4055	-0.844444444444	-11.1269230769	-1.1	-1.5275862069
812	0.406	2.06666666667	-0.923076923077	3.2875	-1.5275862069
813	0.4065	20.9888888889	-2.38076923077	3.2875	-8.78620689655
814	0.407	-0.844444444444	-0.923076923077	16.45	-0.0758620689655
815	0.4075	0.611111111111	-2.38076923077	6.2125	1.37586206897
816	0.408	-0.844444444444	-11.1269230769	0.3625	2.8275862069
817	0.4085	4.97777777778	-6.75384615385	-1.1	-0.0758620689655
818	0.409	-5.21111111111	0.534615384615	1.825	1.37586206897
819	0.4095	-8.12222222222	0.534615384615	3.2875	2.8275862069
820	0.41	-2.3	-0.923076923077	6.2125	-1.5275862069
821	0.4105	0.611111111111	0.534615384615	14.9875	-5.88275862069
822	0.411	0.611111111111	-14.0423076923	0.3625	-2.97931034483
823	0.4115	3.52222222222	-5.29615384615	0.3625	-1.5275862069
824	0.412	7.88888888889	-0.923076923077	-1.1	-1.5275862069
825	0.4125	10.8	-0.923076923077	4.75	-4.43103448276
826	0.413	0.611111111111	-2.38076923077	-1.1	-2.97931034483
827	0.4135	0.611111111111	0.534615384615	-6.95	-2.97931034483
828	0.414	-0.844444444444	-0.923076923077	-9.875	-0.0758620689655
829	0.4145	-0.844444444444	15.1115384615	0.3625	-4.43103448276
830	0.415	-12.4888888889	0.534615384615	0.3625	-0.0758620689655
831	0.4155	18.0777777778	-2.38076923077	3.2875	-13.1413793103
832	0.416	0.611111111111	-2.38076923077	4.75	-5.88275862069
833	0.4165	0.611111111111	-0.923076923077	4.75	-0.0758620689655
834	0.417	-2.3	-11.1269230769	1.825	-0.0758620689655
835	0.4175	-0.844444444444	1.99230769231	0.3625	-0.0758620689655
836	0.418	-2.3	-6.75384615385	3.2875	-2.97931034483
837	0.4185	13.7111111111	-3.83846153846	1.825	-4.43103448276
838	0.419	-0.844444444444	-2.38076923077	1.825	-14.5931034483
839	0.4195	0.611111111111	-5.29615384615	-1.1	-7.33448275862
840	0.42	-0.844444444444	0.534615384615	-4.025	1.37586206897
841	0.4205	-0.844444444444	16.5692307692	1.825	1.37586206897
842	0.421	-2.3	-2.38076923077	1.825	-2.97931034483
843	0.4215	-5.21111111111	-0.923076923077	-1.1	-1.5275862069
844	0.422	-3.75555555556	-0.923076923077	-1.1	-2.97931034483
845	0.4225	-2.3	-2.38076923077	-4.025	-1.5275862069
846	0.423	0.611111111111	-0.923076923077	12.0625	-0.0758620689655
847	0.4235	0.611111111111	0.534615384615	3.2875	1.37586206897
848	0.424	0.611111111111	-8.21153846154	1.825	1.37586206897
849	0.4245	0.611111111111	-0.923076923077	-1.1	-1.5275862069
850	0.425	0.611111111111	0.534615384615	1.825	-10.2379310345
851	0.4255	-0.844444444444	-0.923076923077	-8.4125	-2.97931034483
852	0.426	-0.844444444444	-0.923076923077	-4.025	-1.5275862069
853	0.4265	-0.844444444444	-11.1269230769	-1.1	1.37586206897
854	0.427	3.52222222222	-5.29615384615	0.3625	1.37586206897
855	0.4275	-9.57777777778	-5.29615384615	-1.1	-1.5275862069
856	0.428	12.2555555556	-0.923076923077	3.2875	-8.78620689655
857	0.4285	-2.3	1.99230769231	0.3625	-10.2379310345
858	0.429	2.06666666667	-5.29615384615	-6.95	-1.5275862069
859	0.4295	2.06666666667	-14.0423076923	0.3625	-1.5275862069
860	0.43	-0.844444444444	-2.38076923077	-2.5625	-1.5275862069
861	0.4305	2.06666666667	-0.923076923077	3.2875	-2.97931034483
862	0.431	-5.21111111111	-3.83846153846	0.3625	-1.5275862069
863	0.4315	0.611111111111	-0.923076923077	-1.1	-8.78620689655
864	0.432	-0.844444444444	-2.38076923077	3.2875	-5.88275862069
865	0.4325	3.52222222222	-12.5846153846	-2.5625	-1.5275862069
866	0.433	0.611111111111	-2.38076923077	-1.1	-0.0758620689655
867	0.4335	0.611111111111	1.99230769231	-1.1	-1.5275862069
868	0.434	-5.21111111111	-0.923076923077	0.3625	-1.5275862069
869	0.4345	-0.844444444444	-0.923076923077	1.825	15.8931034483
870	0.435	0.611111111111	1.99230769231	19.375	-1.5275862069
871	0.4355	0.611111111111	-0.923076923077	13.525	-2.97931034483
872	0.436	0.611111111111	3.45	0.3625	-4.43103448276
873	0.4365	-0.844444444444	-0.923076923077	-1.1	-1.5275862069
874	0.437	-6.66666666667	-0.923076923077	0.3625	-1.5275862069
875	0.4375	-9.57777777778	-2.38076923077	3.2875	17.3448275862
876	0.438	-0.844444444444	-0.923076923077	17.9125	-2.97931034483
877	0.4385	-3.75555555556	0.534615384615	-1.1	-4.43103448276
878	0.439	-0.844444444444	6.36538461538	0.3625	-0.0758620689655
879	0.4395	-0.844444444444	-6.75384615385	-2.5625	-0.0758620689655
880	0.44	9.34444444444	-2.38076923077	-2.5625	-2.97931034483
881	0.4405	-2.3	-0.923076923077	-1.1	14.4413793103
882	0.441	-0.844444444444	-3.83846153846	-1.1	17.3448275862
883	0.4415	-2.3	0.534615384615	0.3625	-1.5275862069
884	0.442	-2.3	16.5692307692	0.3625	-2.97931034483
885	0.4425	-2.3	-0.923076923077	1.825	-1.5275862069
886	0.443	-12.4888888889	-0.923076923077	0.3625	2.8275862069
887	0.4435	-2.3	-0.923076923077	1.825	1.37586206897
888	0.444	-0.844444444444	-3.83846153846	1.825	-7.33448275862
889	0.4445	-5.21111111111	-3.83846153846	-6.95	-1.5275862069
890	0.445	-0.844444444444	7.82307692308	0.3625	2.8275862069
891	0.4455	-0.844444444444	13.6538461538	-1.1	-1.5275862069
892	0.446	-6.66666666667	-0.923076923077	-1.1	1.37586206897
893	0.4465	-8.12222222222	-0.923076923077	-2.5625	17.3448275862
894	0.447	0.611111111111	-2.38076923077	1.825	11.5379310345
895	0.4475	-2.3	0.534615384615	-1.1	-1.5275862069
896	0.448	-2.3	10.7384615385	0.3625	-1.5275862069
897	0.4485	-0.844444444444	-6.75384615385	-1.1	-0.0758620689655
898	0.449	-0.844444444444	-9.66923076923	-1.1	-1.5275862069
899	0.4495	-0.844444444444	-2.38076923077	-2.5625	-13.1413793103
900	0.45	-2.3	-2.38076923077	-9.875	-0.0758620689655
901	0.4505	0.611111111111	-3.83846153846	0.3625	-1.5275862069
902	0.451	0.611111111111	4.90769230769	-1.1	-0.0758620689655
903	0.4515	-3.75555555556	-8.21153846154	1.825	-2.97931034483
904	0.452	-0.844444444444	-9.66923076923	-1.1	-4.43103448276
905	0.4525	-5.21111111111	0.534615384615	-1.1	-7.33448275862
906	0.453	-3.75555555556	-2.38076923077	-11.3375	-5.88275862069
907	0.4535	-2.3	0.534615384615	-8.4125	-1.5275862069
908	0.454	-3.75555555556	0.534615384615	0.3625	-1.5275862069
909	0.4545	-2.3	-6.75384615385	1.825	-1.5275862069
910	0.455	-5.21111111111	0.534615384615	0.3625	-1.5275862069
911	0.4555	19.5333333333	-0.923076923077	1.825	-2.97931034483
912	0.456	-2.3	-2.38076923077	4.75	2.8275862069
913	0.4565	-0.844444444444	-2.38076923077	-1.1	1.37586206897
914	0.457	0.611111111111	-0.923076923077	-4.025	-0.0758620689655
915	0.4575	-0.844444444444	10.7384615385	-2.5625	-1.5275862069
916	0.458	-3.75555555556	-2.38076923077	0.3625	-1.5275862069
917	0.4585	-12.4888888889	-3.83846153846	1.825	-0.0758620689655
918	0.459	0.611111111111	0.534615384615	-5.4875	-5.88275862069
919	0.4595	0.611111111111	0.534615384615	13.525	-0.0758620689655
920	0.46	0.611111111111	-0.923076923077	22.3	-2.97931034483
921	0.4605	0.611111111111	-11.1269230769	0.3625	-1.5275862069
922	0.461	2.06666666667	-0.923076923077	1.825	-1.5275862069
923	0.4615	13.7111111111	-5.29615384615	-1.1	-1.5275862069
924	0.462	-8.12222222222	-3.83846153846	1.825	-8.78620689655
925	0.4625	0.611111111111	-2.38076923077	14.9875	-2.97931034483
926	0.463	-0.844444444444	0.534615384615	17.9125	-1.5275862069
927	0.4635	-0.844444444444	-14.0423076923	0.3625	-2.97931034483
928	0.464	3.52222222222	-2.38076923077	0.3625	-0.0758620689655
929	0.4645	13.7111111111	-2.38076923077	0.3625	-1.5275862069
930	0.465	4.97777777778	0.534615384615	0.3625	-0.0758620689655
931	0.4655	-0.844444444444	-0.923076923077	-4.025	-7.33448275862
932	0.466	-3.75555555556	0.534615384615	-8.4125	-1.5275862069
933	0.4665	-2.3	1.99230769231	0.3625	-2.97931034483
934	0.467	-5.21111111111	-0.923076923077	0.3625	-0.0758620689655
935	0.4675	-5.21111111111	-6.75384615385	1.825	-2.97931034483
936	0.468	12.2555555556	-2.38076923077	3.2875	-13.1413793103
937	0.4685	-2.3	0.534615384615	3.2875	-13.1413793103
938	0.469	0.611111111111	-2.38076923077	0.3625	-1.5275862069
939	0.4695	0.611111111111	-8.21153846154	3.2875	-0.0758620689655
940	0.47	0.611111111111	4.90769230769	0.3625	-1.5275862069
941	0.4705	-0.844444444444	-9.66923076923	1.825	-0.0758620689655
942	0.471	19.5333333333	-2.38076923077	0.3625	-1.5275862069
943	0.4715	-0.844444444444	-2.38076923077	3.2875	-2.97931034483
944	0.472	0.611111111111	-3.83846153846	4.75	8.63448275862
945	0.4725	0.611111111111	-12.5846153846	1.825	-0.0758620689655
946	0.473	-2.3	-5.29615384615	-1.1	-1.5275862069
947	0.4735	-5.21111111111	-12.5846153846	-1.1	2.8275862069
948	0.474	-12.4888888889	1.99230769231	1.825	-1.5275862069
949	0.4745	-3.75555555556	-3.83846153846	0.3625	-1.5275862069
950	0.475	-0.844444444444	-0.923076923077	-4.025	-1.5275862069
951	0.4755	-0.844444444444	-2.38076923077	-11.3375	-2.97931034483
952	0.476	0.611111111111	16.5692307692	0.3625	-1.5275862069
953	0.4765	-2.3	-5.29615384615	0.3625	1.37586206897
954	0.477	-9.57777777778	-8.21153846154	1.825	-1.5275862069
955	0.4775	3.52222222222	0.534615384615	3.2875	-8.78620689655
956	0.478	-2.3	-2.38076923077	3.2875	-8.78620689655
957	0.4785	-2.3	-5.29615384615	-8.4125	-1.5275862069
958	0.479	-2.3	-11.1269230769	0.3625	-1.5275862069
959	0.4795	0.611111111111	-9.66923076923	1.825	1.37586206897
960	0.48	19.5333333333	-2.38076923077	0.3625	2.8275862069
961	0.4805	-3.75555555556	-2.38076923077	3.2875	-1.5275862069
962	0.481	0.611111111111	-2.38076923077	0.3625	-4.43103448276
963	0.4815	-0.844444444444	-0.923076923077	-6.95	1.37586206897
964	0.482	-0.844444444444	0.534615384615	-6.95	-0.0758620689655
965	0.4825	-0.844444444444	-2.38076923077	-1.1	1.37586206897
966	0.483	-16.8555555556	-3.83846153846	-1.1	1.37586206897
967	0.4835	-0.844444444444	-2.38076923077	1.825	-2.97931034483
968	0.484	0.611111111111	-2.38076923077	1.825	-11.6896551724
969	0.4845	0.611111111111	3.45	-9.875	-1.5275862069
970	0.485	-0.844444444444	3.45	3.2875	-2.97931034483
971	0.4855	-0.844444444444	0.534615384615	1.825	-1.5275862069
972	0.486	-6.66666666667	0.534615384615	1.825	-1.5275862069
973	0.4865	16.6222222222	-0.923076923077	-1.1	-2.97931034483
974	0.487	-3.75555555556	-0.923076923077	-4.025	-1.5275862069
975	0.4875	-0.844444444444	-2.38076923077	7.675	1.37586206897
976	0.488	-0.844444444444	-3.83846153846	16.45	-1.5275862069
977	0.4885	-0.844444444444	-14.0423076923	0.3625	-0.0758620689655
978	0.489	2.06666666667	-2.38076923077	3.2875	-0.0758620689655
979	0.4895	3.52222222222	-2.38076923077	0.3625	-1.5275862069
980	0.49	-5.21111111111	-0.923076923077	0.3625	-0.0758620689655
981	0.4905	-0.844444444444	0.534615384615	-9.875	-1.5275862069
982	0.491	-0.844444444444	1.99230769231	0.3625	-0.0758620689655
983	0.4915	-0.844444444444	-2.38076923077	3.2875	-0.0758620689655
984	0.492	-0.844444444444	-8.21153846154	0.3625	1.37586206897
985	0.4925	2.06666666667	-8.21153846154	-1.1	-0.0758620689655
986	0.493	-5.21111111111	0.534615384615	3.2875	7.18275862069
987	0.4935	-0.844444444444	0.534615384615	-4.025	-1.5275862069
988	0.494	0.611111111111	-0.923076923077	-6.95	-0.0758620689655
989	0.4945	-2.3	-0.923076923077	-1.1	-1.5275862069
990	0.495	-3.75555555556	-5.29615384615	-1.1	1.37586206897
991	0.4955	-2.3	-9.66923076923	0.3625	1.37586206897
992	0.496	16.6222222222	-0.923076923077	1.825	-11.6896551724
993	0.4965	0.611111111111	0.534615384615	3.2875	-8.78620689655
994	0.497	-0.844444444444	-6.75384615385	-4.025	-1.5275862069
995	0.4975	-2.3	3.45	-1.1	-0.0758620689655
996	0.498	-0.844444444444	10.7384615385	0.3625	-0.0758620689655
997	0.4985	-13.9444444444	-2.38076923077	0.3625	2.8275862069
998	0.499	4.97777777778	-2.38076923077	1.825	-4.43103448276
999	0.4995	-0.844444444444	-2.38076923077	1.825	-8.78620689655
1000	0.5	-0.844444444444	-0.923076923077	19.375	1.37586206897
1001	0.5005	-2.3	-2.38076923077	19.375	-0.0758620689655
1002	0.501	-0.844444444444	-8.21153846154	0.3625	1.37586206897
1003	0.5015	2.06666666667	-0.923076923077	1.825	-0.0758620689655
1004	0.502	3.52222222222	-0.923076923077	0.3625	1.37586206897
1005	0.5025	-2.3	0.534615384615	-4.025	-8.78620689655
1006	0.503	-3.75555555556	-0.923076923077	3.2875	-5.88275862069
1007	0.5035	-2.3	-5.29615384615	0.3625	-0.0758620689655
1008	0.504	-2.3	-3.83846153846	-2.5625	-1.5275862069
1009	0.5045	2.06666666667	-0.923076923077	3.2875	-1.5275862069
1010	0.505	-12.4888888889	-2.38076923077	1.825	-0.0758620689655
1011	0.5055	-5.21111111111	-0.923076923077	-1.1	5.73103448276
1012	0.506	0.611111111111	-2.38076923077	0.3625	-2.97931034483
1013	0.5065	0.611111111111	-3.83846153846	-4.025	-0.0758620689655
1014	0.507	0.611111111111	-8.21153846154	-1.1	-0.0758620689655
1015	0.5075	0.611111111111	-12.5846153846	1.825	-0.0758620689655
1016	0.508	0.611111111111	-2.38076923077	1.825	-1.5275862069
1017	0.5085	-0.844444444444	-0.923076923077	3.2875	11.5379310345
1018	0.509	2.06666666667	-0.923076923077	-6.95	-1.5275862069
1019	0.5095	0.611111111111	-2.38076923077	-6.95	-7.33448275862
1020	0.51	-2.3	1.99230769231	0.3625	-0.0758620689655
1021	0.5105	2.06666666667	13.6538461538	0.3625	-1.5275862069
1022	0.511	-2.3	0.534615384615	1.825	4.27931034483
1023	0.5115	-12.4888888889	-2.38076923077	-1.1	15.8931034483
1024	0.512	-2.3	-2.38076923077	0.3625	2.8275862069
1025	0.5125	0.611111111111	-0.923076923077	7.675	-1.5275862069
1026	0.513	-0.844444444444	-2.38076923077	1.825	-2.97931034483
1027	0.5135	0.611111111111	-3.83846153846	-1.1	-1.5275862069
1028	0.514	4.97777777778	-0.923076923077	0.3625	-0.0758620689655
1029	0.5145	3.52222222222	-2.38076923077	0.3625	-0.0758620689655
1030	0.515	-6.66666666667	-0.923076923077	1.825	-13.1413793103
1031	0.5155	0.611111111111	-2.38076923077	17.9125	-1.5275862069
1032	0.516	-0.844444444444	-2.38076923077	-4.025	-0.0758620689655
1033	0.5165	-2.3	-2.38076923077	-6.95	-1.5275862069
1034	0.517	2.06666666667	19.4846153846	0.3625	-2.97931034483
1035	0.5175	-11.0333333333	-2.38076923077	-1.1	-0.0758620689655
1036	0.518	2.06666666667	-0.923076923077	4.75	-1.5275862069
1037	0.5185	-5.21111111111	-2.38076923077	0.3625	-8.78620689655
1038	0.519	-0.844444444444	-0.923076923077	-11.3375	-0.0758620689655
1039	0.5195	-0.844444444444	3.45	-1.1	-0.0758620689655
1040	0.52	-5.21111111111	-0.923076923077	-1.1	-1.5275862069
1041	0.5205	2.06666666667	-6.75384615385	3.2875	-0.0758620689655
1042	0.521	18.0777777778	-3.83846153846	-1.1	-4.43103448276
1043	0.5215	0.611111111111	-0.923076923077	-1.1	-5.88275862069
1044	0.522	2.06666666667	-2.38076923077	-9.875	-0.0758620689655
1045	0.5225	-3.75555555556	0.534615384615	3.2875	-2.97931034483
1046	0.523	2.06666666667	6.36538461538	1.825	-0.0758620689655
1047	0.5235	0.611111111111	-5.29615384615	0.3625	-0.0758620689655
1048	0.524	-5.21111111111	-9.66923076923	-1.1	-0.0758620689655
1049	0.5245	0.611111111111	-2.38076923077	0.3625	-13.1413793103
1050	0.525	-0.844444444444	0.534615384615	-12.8	-1.5275862069
1051	0.5255	-2.3	-0.923076923077	6.2125	-2.97931034483
1052	0.526	-0.844444444444	0.534615384615	-1.1	-1.5275862069
1053	0.5265	-0.844444444444	-8.21153846154	0.3625	-1.5275862069
1054	0.527	2.06666666667	-8.21153846154	0.3625	-1.5275862069
1055	0.5275	-2.3	-0.923076923077	-2.5625	-8.78620689655
1056	0.528	-2.3	-0.923076923077	-8.4125	-0.0758620689655
1057	0.5285	-2.3	0.534615384615	16.45	-1.5275862069
1058	0.529	-2.3	0.534615384615	3.2875	-0.0758620689655
1059	0.5295	-2.3	-9.66923076923	0.3625	1.37586206897
1060	0.53	3.52222222222	-0.923076923077	1.825	-0.0758620689655
1061	0.5305	13.7111111111	-2.38076923077	0.3625	-0.0758620689655
1062	0.531	-0.844444444444	-0.923076923077	-1.1	15.8931034483
1063	0.5315	0.611111111111	0.534615384615	19.375	-1.5275862069
1064	0.532	-0.844444444444	4.90769230769	-1.1	-0.0758620689655
1065	0.5325	-3.75555555556	9.28076923077	-1.1	-1.5275862069
1066	0.533	-11.0333333333	-2.38076923077	0.3625	-2.97931034483
1067	0.5335	10.8	0.534615384615	1.825	1.37586206897
1068	0.534	-9.57777777778	-2.38076923077	-1.1	17.3448275862
1069	0.5345	0.611111111111	0.534615384615	19.375	-2.97931034483
1070	0.535	-0.844444444444	-0.923076923077	0.3625	-0.0758620689655
1071	0.5355	-0.844444444444	-0.923076923077	1.825	-2.97931034483
1072	0.536	0.611111111111	-8.21153846154	1.825	-1.5275862069
1073	0.5365	19.5333333333	-3.83846153846	1.825	-1.5275862069
1074	0.537	-2.3	-0.923076923077	0.3625	2.8275862069
1075	0.5375	-2.3	-2.38076923077	-4.025	-4.43103448276
1076	0.538	-2.3	-0.923076923077	-2.5625	-1.5275862069
1077	0.5385	-3.75555555556	-3.83846153846	0.3625	-0.0758620689655
1078	0.539	3.52222222222	-9.66923076923	3.2875	-1.5275862069
1079	0.5395	3.52222222222	-0.923076923077	1.825	-0.0758620689655
1080	0.54	-2.3	-0.923076923077	0.3625	-2.97931034483
1081	0.5405	2.06666666667	-0.923076923077	-4.025	-8.78620689655
1082	0.541	0.611111111111	-2.38076923077	-1.1	-10.2379310345
1083	0.5415	0.611111111111	-9.66923076923	-1.1	-1.5275862069
1084	0.542	2.06666666667	-11.1269230769	1.825	-0.0758620689655
1085	0.5425	2.06666666667	0.534615384615	1.825	-0.0758620689655
1086	0.543	-5.21111111111	-0.923076923077	0.3625	-0.0758620689655
1087	0.5435	3.52222222222	-0.923076923077	1.825	14.4413793103
1088	0.544	0.611111111111	-0.923076923077	3.2875	-8.78620689655
1089	0.5445	0.611111111111	-2.38076923077	-8.4125	-1.5275862069
1090	0.545	-0.844444444444	19.4846153846	1.825	-0.0758620689655
1091	0.5455	-5.21111111111	1.99230769231	1.825	-0.0758620689655
1092	0.546	13.7111111111	-3.83846153846	1.825	-0.0758620689655
1093	0.5465	-0.844444444444	-2.38076923077	1.825	-7.33448275862
1094	0.547	0.611111111111	-3.83846153846	-1.1	-1.5275862069
1095	0.5475	0.611111111111	-2.38076923077	17.9125	-1.5275862069
1096	0.548	0.611111111111	-14.0423076923	1.825	-0.0758620689655
1097	0.5485	2.06666666667	-5.29615384615	1.825	-1.5275862069
1098	0.549	9.34444444444	0.534615384615	0.3625	-2.97931034483
1099	0.5495	-8.12222222222	-0.923076923077	0.3625	2.8275862069
1100	0.55	0.611111111111	0.534615384615	6.2125	11.5379310345
1101	0.5505	2.06666666667	-2.38076923077	6.2125	-1.5275862069
1102	0.551	2.06666666667	-2.38076923077	-6.95	-1.5275862069
1103	0.5515	0.611111111111	15.1115384615	0.3625	-1.5275862069
1104	0.552	-12.4888888889	0.534615384615	0.3625	4.27931034483
1105	0.5525	-0.844444444444	-0.923076923077	0.3625	-1.5275862069
1106	0.553	-0.844444444444	-0.923076923077	1.825	-11.6896551724
1107	0.5535	-2.3	-0.923076923077	0.3625	-0.0758620689655
1108	0.554	-0.844444444444	-2.38076923077	1.825	-0.0758620689655
1109	0.5545	-0.844444444444	15.1115384615	3.2875	-1.5275862069
1110	0.555	-0.844444444444	-6.75384615385	1.825	-0.0758620689655
1111	0.5555	13.7111111111	-2.38076923077	0.3625	-1.5275862069
1112	0.556	0.611111111111	-3.83846153846	1.825	-8.78620689655
1113	0.5565	-2.3	-2.38076923077	-4.025	-2.97931034483
1114	0.557	-0.844444444444	0.534615384615	1.825	-0.0758620689655
1115	0.5575	3.52222222222	0.534615384615	1.825	-1.5275862069
1116	0.558	3.52222222222	-9.66923076923	3.2875	1.37586206897
1117	0.5585	12.2555555556	-3.83846153846	1.825	2.8275862069
1118	0.559	-8.12222222222	-0.923076923077	3.2875	1.37586206897
1119	0.5595	0.611111111111	-5.29615384615	-11.3375	-0.0758620689655
1120	0.56	2.06666666667	0.534615384615	-5.4875	-0.0758620689655
1121	0.5605	-0.844444444444	13.6538461538	-1.1	-1.5275862069
1122	0.561	0.611111111111	-0.923076923077	-1.1	2.8275862069
1123	0.5615	-5.21111111111	-2.38076923077	0.3625	-1.5275862069
1124	0.562	16.6222222222	-2.38076923077	1.825	-4.43103448276
1125	0.5625	0.611111111111	-5.29615384615	-6.95	5.73103448276
1126	0.563	0.611111111111	-2.38076923077	14.9875	-2.97931034483
1127	0.5635	-0.844444444444	3.45	0.3625	-4.43103448276
1128	0.564	-0.844444444444	7.82307692308	1.825	-1.5275862069
1129	0.5645	-5.21111111111	-0.923076923077	1.825	-2.97931034483
1130	0.565	18.0777777778	-0.923076923077	1.825	-11.6896551724
1131	0.5655	-0.844444444444	-2.38076923077	6.2125	-2.97931034483
1132	0.566	0.611111111111	-3.83846153846	4.75	-1.5275862069
1133	0.5665	-0.844444444444	0.534615384615	-8.4125	2.8275862069
1134	0.567	0.611111111111	-11.1269230769	0.3625	-1.5275862069
1135	0.5675	4.97777777778	-0.923076923077	1.825	1.37586206897
1136	0.568	0.611111111111	0.534615384615	0.3625	-0.0758620689655
1137	0.5685	-8.12222222222	-2.38076923077	1.825	4.27931034483
1138	0.569	0.611111111111	-2.38076923077	3.2875	-1.5275862069
1139	0.5695	-0.844444444444	-3.83846153846	16.45	-0.0758620689655
1140	0.57	0.611111111111	-2.38076923077	0.3625	-0.0758620689655
1141	0.5705	2.06666666667	-0.923076923077	-1.1	-1.5275862069
1142	0.571	-0.844444444444	-2.38076923077	0.3625	-1.5275862069
1143	0.5715	-9.57777777778	-2.38076923077	0.3625	-4.43103448276
1144	0.572	-2.3	-0.923076923077	-8.4125	-2.97931034483
1145	0.5725	-0.844444444444	0.534615384615	-8.4125	-0.0758620689655
1146	0.573	2.06666666667	0.534615384615	3.2875	-0.0758620689655
1147	0.5735	0.611111111111	-6.75384615385	-1.1	2.8275862069
1148	0.574	-3.75555555556	-2.38076923077	0.3625	-2.97931034483
1149	0.5745	19.5333333333	-2.38076923077	1.825	-4.43103448276
1150	0.575	0.611111111111	-0.923076923077	-6.95	-1.5275862069
1151	0.5755	0.611111111111	-2.38076923077	-5.4875	-1.5275862069
1152	0.576	-0.844444444444	3.45	4.75	-1.5275862069
1153	0.5765	2.06666666667	0.534615384615	0.3625	-2.97931034483
1154	0.577	-0.844444444444	0.534615384615	3.2875	-1.5275862069
1155	0.5775	19.5333333333	-3.83846153846	-1.1	-1.5275862069
1156	0.578	-0.844444444444	0.534615384615	6.2125	-4.43103448276
1157	0.5785	-0.844444444444	-2.38076923077	12.0625	-4.43103448276
1158	0.579	-0.844444444444	-9.66923076923	1.825	-2.97931034483
1159	0.5795	-0.844444444444	-0.923076923077	3.2875	-2.97931034483
1160	0.58	-3.75555555556	-2.38076923077	0.3625	1.37586206897
1161	0.5805	-15.4	-6.75384615385	0.3625	1.37586206897
1162	0.581	-0.844444444444	-2.38076923077	4.75	-5.88275862069
1163	0.5815	-0.844444444444	-2.38076923077	-4.025	-7.33448275862
1164	0.582	-0.844444444444	-3.83846153846	-8.4125	-1.5275862069
1165	0.5825	-0.844444444444	-12.5846153846	1.825	2.8275862069
1166	0.583	0.611111111111	-3.83846153846	-1.1	1.37586206897
1167	0.5835	10.8	-2.38076923077	0.3625	-0.0758620689655
1168	0.584	7.88888888889	-2.38076923077	1.825	2.8275862069
1169	0.5845	-0.844444444444	-3.83846153846	1.825	-4.43103448276
1170	0.585	0.611111111111	-3.83846153846	-6.95	1.37586206897
1171	0.5855	-2.3	-12.5846153846	0.3625	2.8275862069
1172	0.586	-0.844444444444	-3.83846153846	3.2875	-1.5275862069
1173	0.5865	0.611111111111	-2.38076923077	1.825	-0.0758620689655
1174	0.587	-5.21111111111	-2.38076923077	1.825	-8.78620689655
1175	0.5875	0.611111111111	0.534615384615	3.2875	-13.1413793103
1176	0.588	0.611111111111	-5.29615384615	-5.4875	1.37586206897
1177	0.5885	0.611111111111	-12.5846153846	1.825	-0.0758620689655
1178	0.589	-0.844444444444	6.36538461538	3.2875	-0.0758620689655
1179	0.5895	-0.844444444444	-2.38076923077	0.3625	-1.5275862069
1180	0.59	-8.12222222222	-2.38076923077	-1.1	1.37586206897
1181	0.5905	-2.3	0.534615384615	4.75	5.73103448276
1182	0.591	-0.844444444444	-0.923076923077	-1.1	15.8931034483
1183	0.5915	-2.3	-0.923076923077	3.2875	-2.97931034483
1184	0.592	0.611111111111	15.1115384615	-1.1	1.37586206897
1185	0.5925	-3.75555555556	-3.83846153846	1.825	2.8275862069
1186	0.593	-6.66666666667	-3.83846153846	3.2875	-1.5275862069
1187	0.5935	0.611111111111	0.534615384615	0.3625	-8.78620689655
1188	0.594	0.611111111111	-2.38076923077	-11.3375	-8.78620689655
1189	0.5945	-0.844444444444	-3.83846153846	-1.1	-0.0758620689655
1190	0.595	0.611111111111	3.45	3.2875	-0.0758620689655
1191	0.5955	-3.75555555556	-8.21153846154	-1.1	-1.5275862069
1192	0.596	-8.12222222222	-0.923076923077	3.2875	1.37586206897
1193	0.5965	-6.66666666667	-0.923076923077	-1.1	-2.97931034483
1194	0.597	2.06666666667	-3.83846153846	-4.025	14.4413793103
1195	0.5975	-0.844444444444	-0.923076923077	14.9875	-1.5275862069
1196	0.598	-2.3	-0.923076923077	0.3625	-1.5275862069
1197	0.5985	-3.75555555556	-9.66923076923	1.825	-0.0758620689655
1198	0.599	-12.4888888889	-2.38076923077	-1.1	-0.0758620689655
1199	0.5995	3.52222222222	-2.38076923077	1.825	1.37586206897
1200	0.6	-0.844444444444	-0.923076923077	3.2875	18.7965517241
1201	0.6005	0.611111111111	0.534615384615	19.375	-1.5275862069
1202	0.601	-0.844444444444	1.99230769231	-1.1	-0.0758620689655
1203	0.6015	-2.3	-6.75384615385	1.825	-0.0758620689655
1204	0.602	-0.844444444444	-11.1269230769	0.3625	-1.5275862069
1205	0.6025	18.0777777778	0.534615384615	1.825	-13.1413793103
1206	0.603	-5.21111111111	-2.38076923077	0.3625	-7.33448275862
1207	0.6035	0.611111111111	-2.38076923077	-2.5625	-1.5275862069
1208	0.604	-2.3	-5.29615384615	1.825	-4.43103448276
1209	0.6045	-0.844444444444	0.534615384615	0.3625	-2.97931034483
1210	0.605	-0.844444444444	-2.38076923077	0.3625	-0.0758620689655
1211	0.6055	-5.21111111111	0.534615384615	0.3625	-4.43103448276
1212	0.606	-2.3	-2.38076923077	3.2875	-0.0758620689655
1213	0.6065	0.611111111111	-0.923076923077	17.9125	-5.88275862069
1214	0.607	-0.844444444444	0.534615384615	-4.025	-2.97931034483
1215	0.6075	0.611111111111	0.534615384615	0.3625	-1.5275862069
1216	0.608	0.611111111111	-6.75384615385	3.2875	-0.0758620689655
1217	0.6085	19.5333333333	-0.923076923077	1.825	-13.1413793103
1218	0.609	-2.3	0.534615384615	1.825	-5.88275862069
1219	0.6095	-2.3	-2.38076923077	3.2875	-11.6896551724
1220	0.61	-0.844444444444	-2.38076923077	-9.875	-0.0758620689655
1221	0.6105	0.611111111111	-12.5846153846	0.3625	-1.5275862069
1222	0.611	2.06666666667	-8.21153846154	0.3625	-0.0758620689655
1223	0.6115	4.97777777778	0.534615384615	1.825	-1.5275862069
1224	0.612	-5.21111111111	-0.923076923077	0.3625	-0.0758620689655
1225	0.6125	-0.844444444444	-0.923076923077	0.3625	-7.33448275862
1226	0.613	0.611111111111	0.534615384615	3.2875	-10.2379310345
1227	0.6135	0.611111111111	-9.66923076923	0.3625	1.37586206897
1228	0.614	4.97777777778	-9.66923076923	3.2875	-1.5275862069
1229	0.6145	3.52222222222	-3.83846153846	0.3625	-1.5275862069
1230	0.615	-2.3	-0.923076923077	1.825	-0.0758620689655
1231	0.6155	2.06666666667	0.534615384615	-2.5625	-7.33448275862
1232	0.616	0.611111111111	-2.38076923077	-1.1	-8.78620689655
1233	0.6165	-0.844444444444	-5.29615384615	1.825	-1.5275862069
1234	0.617	-0.844444444444	13.6538461538	-1.1	-1.5275862069
1235	0.6175	-3.75555555556	-2.38076923077	0.3625	-0.0758620689655
1236	0.618	-12.4888888889	-2.38076923077	4.75	1.37586206897
1237	0.6185	-0.844444444444	-3.83846153846	4.75	11.5379310345
1238	0.619	-0.844444444444	0.534615384615	4.75	-1.5275862069
1239	0.6195	-2.3	-0.923076923077	-6.95	-1.5275862069
1240	0.62	2.06666666667	16.5692307692	-1.1	-0.0758620689655
1241	0.6205	7.88888888889	-0.923076923077	3.2875	-0.0758620689655
1242	0.621	-9.57777777778	-2.38076923077	3.2875	1.37586206897
1243	0.6215	-2.3	-2.38076923077	0.3625	-7.33448275862
1244	0.622	2.06666666667	-0.923076923077	-5.4875	-8.78620689655
1245	0.6225	-0.844444444444	-3.83846153846	-6.95	-0.0758620689655
1246	0.623	0.611111111111	-6.75384615385	1.825	-1.5275862069
1247	0.6235	-0.844444444444	-2.38076923077	0.3625	-2.97931034483
1248	0.624	-8.12222222222	-0.923076923077	1.825	4.27931034483
1249	0.6245	-6.66666666667	-2.38076923077	3.2875	2.8275862069
1250	0.625	-0.844444444444	-0.923076923077	4.75	-0.0758620689655
1251	0.6255	0.611111111111	-2.38076923077	3.2875	-0.0758620689655
1252	0.626	-2.3	-5.29615384615	-1.1	-1.5275862069
1253	0.6265	2.06666666667	-12.5846153846	1.825	-1.5275862069
1254	0.627	9.34444444444	0.534615384615	1.825	1.37586206897
1255	0.6275	-5.21111111111	-2.38076923077	3.2875	-1.5275862069
1256	0.628	-0.844444444444	-0.923076923077	1.825	14.4413793103
1257	0.6285	-0.844444444444	-6.75384615385	14.9875	1.37586206897
1258	0.629	-2.3	-8.21153846154	-2.5625	-1.5275862069
1259	0.6295	-2.3	-2.38076923077	-1.1	-1.5275862069
1260	0.63	-8.12222222222	-2.38076923077	1.825	1.37586206897
1261	0.6305	-8.12222222222	-0.923076923077	4.75	10.0862068966
1262	0.631	-0.844444444444	-3.83846153846	1.825	-5.88275862069
1263	0.6315	-0.844444444444	-0.923076923077	-6.95	-0.0758620689655
1264	0.632	0.611111111111	1.99230769231	1.825	-1.5275862069
1265	0.6325	-2.3	1.99230769231	1.825	-1.5275862069
1266	0.633	-12.4888888889	-0.923076923077	-2.5625	-0.0758620689655
1267	0.6335	12.2555555556	-0.923076923077	-1.1	-11.6896551724
1268	0.634	-0.844444444444	-0.923076923077	0.3625	-11.6896551724
1269	0.6345	-2.3	0.534615384615	-8.4125	-2.97931034483
1270	0.635	0.611111111111	0.534615384615	1.825	-0.0758620689655
1271	0.6355	-2.3	-11.1269230769	0.3625	-1.5275862069
1272	0.636	-3.75555555556	-8.21153846154	1.825	-4.43103448276
1273	0.6365	10.8	0.534615384615	1.825	-0.0758620689655
1274	0.637	-8.12222222222	-2.38076923077	4.75	14.4413793103
1275	0.6375	-3.75555555556	-2.38076923077	6.2125	15.8931034483
1276	0.638	-0.844444444444	-3.83846153846	-1.1	-1.5275862069
1277	0.6385	-0.844444444444	-0.923076923077	-2.5625	-1.5275862069
1278	0.639	-2.3	13.6538461538	0.3625	-0.0758620689655
1279	0.6395	-12.4888888889	-2.38076923077	1.825	2.8275862069
1280	0.64	-0.844444444444	-3.83846153846	0.3625	4.27931034483
1281	0.6405	0.611111111111	-0.923076923077	3.2875	-7.33448275862
1282	0.641	0.611111111111	-0.923076923077	17.9125	1.37586206897
1283	0.6415	-0.844444444444	-14.0423076923	1.825	-1.5275862069
1284	0.642	3.52222222222	-9.66923076923	-1.1	-1.5275862069
1285	0.6425	0.611111111111	-2.38076923077	0.3625	-0.0758620689655
1286	0.643	13.7111111111	-2.38076923077	-1.1	4.27931034483
1287	0.6435	0.611111111111	-2.38076923077	-9.875	-1.5275862069
1288	0.644	-0.844444444444	-5.29615384615	-9.875	-4.43103448276
1289	0.6445	-0.844444444444	-0.923076923077	16.45	-0.0758620689655
1290	0.645	-2.3	-12.5846153846	0.3625	-1.5275862069
1291	0.6455	3.52222222222	-2.38076923077	-1.1	-2.97931034483
1292	0.646	16.6222222222	-0.923076923077	3.2875	-1.5275862069
1293	0.6465	-8.12222222222	-2.38076923077	3.2875	14.4413793103
1294	0.647	-2.3	-0.923076923077	0.3625	14.4413793103
1295	0.6475	-0.844444444444	1.99230769231	1.825	-1.5275862069
1296	0.648	-0.844444444444	-3.83846153846	0.3625	-1.5275862069
1297	0.6485	3.52222222222	-9.66923076923	0.3625	-0.0758620689655
1298	0.649	6.43333333333	-8.21153846154	0.3625	-0.0758620689655
1299	0.6495	-2.3	-5.29615384615	1.825	-7.33448275862
1300	0.65	-0.844444444444	-2.38076923077	-1.1	12.9896551724
1301	0.6505	-0.844444444444	1.99230769231	19.375	-4.43103448276
1302	0.651	-3.75555555556	-11.1269230769	-1.1	-1.5275862069
1303	0.6515	2.06666666667	-6.75384615385	3.2875	-1.5275862069
1304	0.652	3.52222222222	-5.29615384615	0.3625	-2.97931034483
1305	0.6525	-2.3	0.534615384615	-1.1	-2.97931034483
1306	0.653	-3.75555555556	-3.83846153846	-5.4875	-0.0758620689655
1307	0.6535	-0.844444444444	0.534615384615	17.9125	-2.97931034483
1308	0.654	-0.844444444444	0.534615384615	-1.1	-1.5275862069
1309	0.6545	-2.3	-9.66923076923	-1.1	-4.43103448276
1310	0.655	-8.12222222222	-2.38076923077	1.825	-1.5275862069
1311	0.6555	12.2555555556	-2.38076923077	0.3625	-13.1413793103
1312	0.656	2.06666666667	-2.38076923077	-1.1	-4.43103448276
1313	0.6565	0.611111111111	0.534615384615	-1.1	-1.5275862069
1314	0.657	-0.844444444444	-6.75384615385	1.825	-1.5275862069
1315	0.6575	0.611111111111	15.1115384615	0.3625	-2.97931034483
1316	0.658	-11.0333333333	0.534615384615	1.825	-2.97931034483
1317	0.6585	19.5333333333	-0.923076923077	0.3625	-10.2379310345
1318	0.659	-5.21111111111	0.534615384615	3.2875	-5.88275862069
1319	0.6595	0.611111111111	-0.923076923077	9.1375	-1.5275862069
1320	0.66	-2.3	-2.38076923077	1.825	-0.0758620689655
1321	0.6605	-0.844444444444	16.5692307692	1.825	-1.5275862069
1322	0.661	-5.21111111111	-5.29615384615	3.2875	-2.97931034483
1323	0.6615	-3.75555555556	-3.83846153846	1.825	-1.5275862069
1324	0.662	-0.844444444444	0.534615384615	4.75	-0.0758620689655
1325	0.6625	-2.3	0.534615384615	22.3	-2.97931034483
1326	0.663	-0.844444444444	0.534615384615	4.75	-0.0758620689655
1327	0.6635	-0.844444444444	10.7384615385	4.75	-0.0758620689655
1328	0.664	-0.844444444444	-8.21153846154	4.75	-1.5275862069
1329	0.6645	4.97777777778	-5.29615384615	4.75	-0.0758620689655
1330	0.665	-6.66666666667	-2.38076923077	1.825	15.8931034483
1331	0.6655	-2.3	-2.38076923077	-1.1	14.4413793103
1332	0.666	-0.844444444444	1.99230769231	0.3625	-1.5275862069
1333	0.6665	-0.844444444444	4.90769230769	1.825	-0.0758620689655
1334	0.667	0.611111111111	-6.75384615385	1.825	-4.43103448276
1335	0.6675	15.1666666667	-0.923076923077	-1.1	-4.43103448276
1336	0.668	-0.844444444444	-0.923076923077	-2.5625	-11.6896551724
1337	0.6685	-2.3	0.534615384615	1.825	-2.97931034483
1338	0.669	-0.844444444444	-0.923076923077	1.825	1.37586206897
1339	0.6695	2.06666666667	10.7384615385	3.2875	-1.5275862069
1340	0.67	-2.3	0.534615384615	0.3625	-0.0758620689655
1341	0.6705	-3.75555555556	-0.923076923077	0.3625	-4.43103448276
1342	0.671	20.9888888889	-0.923076923077	4.75	-4.43103448276
1343	0.6715	-2.3	-2.38076923077	-6.95	-0.0758620689655
1344	0.672	-2.3	-2.38076923077	12.0625	-2.97931034483
1345	0.6725	-0.844444444444	0.534615384615	4.75	-2.97931034483
1346	0.673	-2.3	-11.1269230769	3.2875	-1.5275862069
1347	0.6735	-13.9444444444	-0.923076923077	1.825	-1.5275862069
1348	0.674	-2.3	-0.923076923077	-1.1	-10.2379310345
1349	0.6745	-3.75555555556	-0.923076923077	-6.95	-0.0758620689655
1350	0.675	-0.844444444444	-0.923076923077	13.525	-5.88275862069
1351	0.6755	3.52222222222	-2.38076923077	0.3625	-4.43103448276
1352	0.676	-0.844444444444	-0.923076923077	1.825	-1.5275862069
1353	0.6765	-13.9444444444	0.534615384615	3.2875	-1.5275862069
1354	0.677	-5.21111111111	0.534615384615	-1.1	-1.5275862069
1355	0.6775	-0.844444444444	0.534615384615	0.3625	-1.5275862069
1356	0.678	0.611111111111	-0.923076923077	16.45	-0.0758620689655
1357	0.6785	-2.3	0.534615384615	19.375	-0.0758620689655
1358	0.679	0.611111111111	-9.66923076923	0.3625	-1.5275862069
1359	0.6795	2.06666666667	0.534615384615	-1.1	-2.97931034483
1360	0.68	19.5333333333	-0.923076923077	0.3625	-2.97931034483
1361	0.6805	-0.844444444444	-0.923076923077	0.3625	-8.78620689655
1362	0.681	-3.75555555556	-3.83846153846	-6.95	-1.5275862069
1363	0.6815	-2.3	-11.1269230769	-1.1	-1.5275862069
1364	0.682	-0.844444444444	-9.66923076923	1.825	1.37586206897
1365	0.6825	3.52222222222	0.534615384615	-1.1	-1.5275862069
1366	0.683	-5.21111111111	-2.38076923077	-1.1	-7.33448275862
1367	0.6835	-0.844444444444	0.534615384615	3.2875	-1.5275862069
1368	0.684	-0.844444444444	0.534615384615	12.0625	-0.0758620689655
1369	0.6845	0.611111111111	-2.38076923077	1.825	2.8275862069
1370	0.685	0.611111111111	-11.1269230769	0.3625	-1.5275862069
1371	0.6855	2.06666666667	-3.83846153846	-1.1	-0.0758620689655
1372	0.686	4.97777777778	-0.923076923077	1.825	-2.97931034483
1373	0.6865	-0.844444444444	-2.38076923077	0.3625	-10.2379310345
1374	0.687	-0.844444444444	-2.38076923077	16.45	-2.97931034483
1375	0.6875	-0.844444444444	-5.29615384615	1.825	-1.5275862069
1376	0.688	0.611111111111	-5.29615384615	-1.1	-1.5275862069
1377	0.6885	2.06666666667	1.99230769231	1.825	1.37586206897
1378	0.689	3.52222222222	-0.923076923077	-1.1	1.37586206897
1379	0.6895	-6.66666666667	-2.38076923077	1.825	-0.0758620689655
1380	0.69	0.611111111111	-2.38076923077	0.3625	-10.2379310345
1381	0.6905	-2.3	-2.38076923077	0.3625	-2.97931034483
1382	0.691	0.611111111111	-5.29615384615	-1.1	-1.5275862069
1383	0.6915	3.52222222222	-3.83846153846	0.3625	-1.5275862069
1384	0.692	19.5333333333	-0.923076923077	3.2875	-4.43103448276
1385	0.6925	-2.3	-0.923076923077	0.3625	2.8275862069
1386	0.693	0.611111111111	-0.923076923077	4.75	-1.5275862069
1387	0.6935	-0.844444444444	0.534615384615	0.3625	-1.5275862069
1388	0.694	-0.844444444444	-6.75384615385	-1.1	-1.5275862069
1389	0.6945	-2.3	-9.66923076923	0.3625	-2.97931034483
1390	0.695	16.6222222222	0.534615384615	0.3625	-1.5275862069
1391	0.6955	-2.3	-2.38076923077	0.3625	-5.88275862069
1392	0.696	2.06666666667	0.534615384615	-9.875	-4.43103448276
1393	0.6965	-0.844444444444	-3.83846153846	1.825	-0.0758620689655
1394	0.697	0.611111111111	4.90769230769	-1.1	-1.5275862069
1395	0.6975	0.611111111111	-8.21153846154	1.825	-2.97931034483
1396	0.698	-0.844444444444	-0.923076923077	1.825	-4.43103448276
1397	0.6985	-0.844444444444	-0.923076923077	1.825	-7.33448275862
1398	0.699	-0.844444444444	-2.38076923077	16.45	-0.0758620689655
1399	0.6995	-3.75555555556	-0.923076923077	13.525	-2.97931034483
1400	0.7	0.611111111111	-9.66923076923	-1.1	-4.43103448276
1401	0.7005	0.611111111111	0.534615384615	1.825	-0.0758620689655
1402	0.701	3.52222222222	-0.923076923077	3.2875	-1.5275862069
1403	0.7015	-9.57777777778	-0.923076923077	0.3625	20.2482758621
1404	0.702	-2.3	0.534615384615	-1.1	14.4413793103
1405	0.7025	-0.844444444444	-3.83846153846	-4.025	-1.5275862069
1406	0.703	-0.844444444444	0.534615384615	0.3625	-1.5275862069
1407	0.7035	-2.3	-3.83846153846	-1.1	-1.5275862069
1408	0.704	-12.4888888889	-2.38076923077	1.825	-0.0758620689655
1409	0.7045	3.52222222222	-0.923076923077	0.3625	-2.97931034483
1410	0.705	-0.844444444444	-2.38076923077	3.2875	-7.33448275862
1411	0.7055	-0.844444444444	-0.923076923077	-9.875	-1.5275862069
1412	0.706	-0.844444444444	0.534615384615	-9.875	-1.5275862069
1413	0.7065	-2.3	18.0269230769	-1.1	-1.5275862069
1414	0.707	-13.9444444444	0.534615384615	-1.1	-1.5275862069
1415	0.7075	-6.66666666667	-2.38076923077	1.825	8.63448275862
1416	0.708	0.611111111111	-0.923076923077	3.2875	-7.33448275862
1417	0.7085	-0.844444444444	0.534615384615	-1.1	-8.78620689655
1418	0.709	-0.844444444444	-0.923076923077	-4.025	-1.5275862069
1419	0.7095	-0.844444444444	18.0269230769	0.3625	-1.5275862069
1420	0.71	-3.75555555556	18.0269230769	0.3625	-0.0758620689655
1421	0.7105	-6.66666666667	-0.923076923077	-1.1	-0.0758620689655
1422	0.711	-0.844444444444	-2.38076923077	1.825	-8.78620689655
1423	0.7115	-2.3	-0.923076923077	-8.4125	-8.78620689655
1424	0.712	-5.21111111111	-0.923076923077	-4.025	-2.97931034483
1425	0.7125	0.611111111111	13.6538461538	0.3625	-1.5275862069
1426	0.713	2.06666666667	-6.75384615385	0.3625	-1.5275862069
1427	0.7135	2.06666666667	-0.923076923077	1.825	-2.97931034483
1428	0.714	-0.844444444444	-2.38076923077	0.3625	-11.6896551724
1429	0.7145	-0.844444444444	-0.923076923077	19.375	-1.5275862069
1430	0.715	-3.75555555556	-0.923076923077	-1.1	-0.0758620689655
1431	0.7155	-0.844444444444	-2.38076923077	-1.1	-1.5275862069
1432	0.716	2.06666666667	0.534615384615	0.3625	-1.5275862069
1433	0.7165	2.06666666667	-2.38076923077	1.825	-0.0758620689655
1434	0.717	-8.12222222222	-2.38076923077	-1.1	2.8275862069
1435	0.7175	-0.844444444444	-2.38076923077	6.2125	-2.97931034483
1436	0.718	0.611111111111	-5.29615384615	-2.5625	-2.97931034483
1437	0.7185	0.611111111111	-0.923076923077	-2.5625	-0.0758620689655
1438	0.719	-0.844444444444	7.82307692308	1.825	2.8275862069
1439	0.7195	-5.21111111111	0.534615384615	0.3625	-1.5275862069
1440	0.72	-11.0333333333	-3.83846153846	1.825	18.7965517241
1441	0.7205	-0.844444444444	-2.38076923077	4.75	12.9896551724
1442	0.721	-3.75555555556	-2.38076923077	7.675	-0.0758620689655
1443	0.7215	-2.3	-8.21153846154	-4.025	-0.0758620689655
1444	0.722	0.611111111111	15.1115384615	-1.1	2.8275862069
1445	0.7225	-3.75555555556	-0.923076923077	0.3625	1.37586206897
1446	0.723	-9.57777777778	0.534615384615	-1.1	12.9896551724
1447	0.7235	-2.3	0.534615384615	-1.1	-5.88275862069
1448	0.724	-0.844444444444	-0.923076923077	17.9125	-1.5275862069
1449	0.7245	-2.3	-0.923076923077	14.9875	-4.43103448276
1450	0.725	3.52222222222	-2.38076923077	1.825	-2.97931034483
1451	0.7255	-0.844444444444	-0.923076923077	1.825	-1.5275862069
1452	0.726	-8.12222222222	-0.923076923077	3.2875	-1.5275862069
1453	0.7265	0.611111111111	-5.29615384615	3.2875	15.8931034483
1454	0.727	-3.75555555556	-2.38076923077	17.9125	-1.5275862069
1455	0.7275	-2.3	-3.83846153846	0.3625	-4.43103448276
1456	0.728	-5.21111111111	-2.38076923077	0.3625	1.37586206897
1457	0.7285	0.611111111111	-0.923076923077	1.825	-0.0758620689655
1458	0.729	15.1666666667	0.534615384615	0.3625	-0.0758620689655
1459	0.7295	-5.21111111111	-0.923076923077	1.825	-0.0758620689655
1460	0.73	-0.844444444444	-0.923076923077	-1.1	-1.5275862069
1461	0.7305	-2.3	-2.38076923077	-8.4125	1.37586206897
1462	0.731	-2.3	-12.5846153846	1.825	1.37586206897
1463	0.7315	3.52222222222	-2.38076923077	0.3625	-0.0758620689655
1464	0.732	16.6222222222	-3.83846153846	0.3625	-4.43103448276
1465	0.7325	-5.21111111111	-2.38076923077	1.825	-0.0758620689655
1466	0.733	-2.3	-0.923076923077	3.2875	-11.6896551724
1467	0.7335	-3.75555555556	-5.29615384615	-4.025	2.8275862069
1468	0.734	-3.75555555556	-9.66923076923	0.3625	1.37586206897
1469	0.7345	-0.844444444444	6.36538461538	0.3625	-1.5275862069
1470	0.735	-6.66666666667	-0.923076923077	1.825	1.37586206897
1471	0.7355	-11.0333333333	0.534615384615	1.825	18.7965517241
1472	0.736	-3.75555555556	-0.923076923077	0.3625	5.73103448276
1473	0.7365	-0.844444444444	-0.923076923077	4.75	8.63448275862
1474	0.737	-0.844444444444	-6.75384615385	0.3625	-1.5275862069
1475	0.7375	0.611111111111	15.1115384615	1.825	-0.0758620689655
1476	0.738	-2.3	-2.38076923077	1.825	-0.0758620689655
1477	0.7385	-11.0333333333	-2.38076923077	4.75	-10.2379310345
1478	0.739	-2.3	0.534615384615	0.3625	-4.43103448276
1479	0.7395	0.611111111111	-3.83846153846	1.825	-0.0758620689655
1480	0.74	-2.3	-3.83846153846	1.825	1.37586206897
1481	0.7405	0.611111111111	-0.923076923077	0.3625	-1.5275862069
1482	0.741	-2.3	-0.923076923077	0.3625	-0.0758620689655
1483	0.7415	-12.4888888889	-0.923076923077	-1.1	-0.0758620689655
1484	0.742	-0.844444444444	0.534615384615	4.75	-4.43103448276
1485	0.7425	-2.3	0.534615384615	9.1375	-7.33448275862
1486	0.743	-0.844444444444	-0.923076923077	-4.025	-0.0758620689655
1487	0.7435	-0.844444444444	-0.923076923077	0.3625	-1.5275862069
1488	0.744	-0.844444444444	-9.66923076923	1.825	-1.5275862069
1489	0.7445	15.1666666667	-2.38076923077	-1.1	-0.0758620689655
1490	0.745	-8.12222222222	-0.923076923077	-1.1	15.8931034483
1491	0.7455	-2.3	-2.38076923077	0.3625	7.18275862069
1492	0.746	0.611111111111	0.534615384615	-2.5625	-2.97931034483
1493	0.7465	-2.3	-0.923076923077	0.3625	-1.5275862069
1494	0.747	2.06666666667	16.5692307692	-1.1	-2.97931034483
1495	0.7475	-9.57777777778	-2.38076923077	1.825	-0.0758620689655
1496	0.748	-8.12222222222	-2.38076923077	3.2875	-0.0758620689655
1497	0.7485	0.611111111111	1.99230769231	3.2875	5.73103448276
1498	0.749	0.611111111111	-2.38076923077	-1.1	-1.5275862069
1499	0.7495	-2.3	0.534615384615	-5.4875	1.37586206897
1500	0.75	0.611111111111	13.6538461538	0.3625	-0.0758620689655
1501	0.7505	-11.0333333333	-0.923076923077	0.3625	-0.0758620689655
1502	0.751	-8.12222222222	0.534615384615	1.825	1.37586206897
1503	0.7515	-0.844444444444	-0.923076923077	4.75	7.18275862069
1504	0.752	-0.844444444444	-0.923076923077	4.75	-0.0758620689655
1505	0.7525	-3.75555555556	-6.75384615385	3.2875	1.37586206897
1506	0.753	0.611111111111	13.6538461538	0.3625	-0.0758620689655
1507	0.7535	-5.21111111111	18.0269230769	0.3625	-1.5275862069
1508	0.754	-9.57777777778	-2.38076923077	0.3625	17.3448275862
1509	0.7545	0.611111111111	-2.38076923077	4.75	14.4413793103
1510	0.755	2.06666666667	0.534615384615	3.2875	-1.5275862069
1511	0.7555	-0.844444444444	-12.5846153846	0.3625	-4.43103448276
1512	0.756	2.06666666667	-5.29615384615	1.825	-1.5275862069
1513	0.7565	2.06666666667	-0.923076923077	0.3625	-1.5275862069
1514	0.757	7.88888888889	-0.923076923077	3.2875	-4.43103448276
1515	0.7575	-5.21111111111	-0.923076923077	1.825	-0.0758620689655
1516	0.758	-0.844444444444	-2.38076923077	4.75	-10.2379310345
1517	0.7585	2.06666666667	-5.29615384615	0.3625	-2.97931034483
1518	0.759	0.611111111111	-5.29615384615	-1.1	-0.0758620689655
1519	0.7595	2.06666666667	-9.66923076923	-1.1	-1.5275862069
1520	0.76	22.4444444444	0.534615384615	-1.1	-2.97931034483
1521	0.7605	-0.844444444444	-2.38076923077	0.3625	2.8275862069
1522	0.761	-0.844444444444	-0.923076923077	-9.875	-2.97931034483
1523	0.7615	0.611111111111	3.45	-1.1	-1.5275862069
1524	0.762	0.611111111111	-14.0423076923	-2.5625	1.37586206897
1525	0.7625	-2.3	-2.38076923077	0.3625	-1.5275862069
1526	0.763	7.88888888889	-2.38076923077	3.2875	-4.43103448276
1527	0.7635	-5.21111111111	-5.29615384615	0.3625	11.5379310345
1528	0.764	0.611111111111	-2.38076923077	-6.95	-1.5275862069
1529	0.7645	2.06666666667	-0.923076923077	-12.8	-1.5275862069
1530	0.765	-0.844444444444	0.534615384615	1.825	-1.5275862069
1531	0.7655	-2.3	0.534615384615	-2.5625	-1.5275862069
1532	0.766	-13.9444444444	-0.923076923077	1.825	2.8275862069
1533	0.7665	-2.3	-2.38076923077	3.2875	1.37586206897
1534	0.767	-0.844444444444	-2.38076923077	0.3625	-2.97931034483
1535	0.7675	-0.844444444444	-0.923076923077	-1.1	-0.0758620689655
1536	0.768	0.611111111111	-0.923076923077	3.2875	1.37586206897
1537	0.7685	0.611111111111	16.5692307692	0.3625	-1.5275862069
1538	0.769	-2.3	15.1115384615	1.825	-1.5275862069
1539	0.7695	-8.12222222222	-0.923076923077	4.75	17.3448275862
1540	0.77	-2.3	0.534615384615	3.2875	7.18275862069
1541	0.7705	-0.844444444444	-0.923076923077	9.1375	-1.5275862069
1542	0.771	-2.3	0.534615384615	-5.4875	-1.5275862069
1543	0.7715	-2.3	6.36538461538	0.3625	-1.5275862069
1544	0.772	-5.21111111111	-0.923076923077	0.3625	-0.0758620689655
1545	0.7725	16.6222222222	-0.923076923077	3.2875	-10.2379310345
1546	0.773	-2.3	-3.83846153846	0.3625	-8.78620689655
1547	0.7735	0.611111111111	-2.38076923077	-5.4875	-7.33448275862
1548	0.774	-2.3	-0.923076923077	12.0625	-1.5275862069
1549	0.7745	-0.844444444444	-6.75384615385	0.3625	-1.5275862069
1550	0.775	0.611111111111	-2.38076923077	-1.1	-1.5275862069
1551	0.7755	19.5333333333	-0.923076923077	0.3625	-13.1413793103
1552	0.776	-2.3	-0.923076923077	-1.1	-13.1413793103
1553	0.7765	0.611111111111	-2.38076923077	-6.95	-1.5275862069
1554	0.777	0.611111111111	0.534615384615	16.45	-2.97931034483
1555	0.7775	0.611111111111	-12.5846153846	1.825	-5.88275862069
1556	0.778	0.611111111111	-11.1269230769	0.3625	-4.43103448276
1557	0.7785	15.1666666667	-0.923076923077	-1.1	-2.97931034483
1558	0.779	-5.21111111111	-2.38076923077	0.3625	11.5379310345
1559	0.7795	-0.844444444444	-2.38076923077	4.75	11.5379310345
1560	0.78	0.611111111111	0.534615384615	13.525	-7.33448275862
1561	0.7805	-0.844444444444	-12.5846153846	-1.1	-1.5275862069
1562	0.781	-3.75555555556	6.36538461538	0.3625	-2.97931034483
1563	0.7815	2.06666666667	-2.38076923077	0.3625	-2.97931034483
1564	0.782	-9.57777777778	-2.38076923077	1.825	1.37586206897
1565	0.7825	-0.844444444444	-2.38076923077	4.75	-4.43103448276
1566	0.783	-0.844444444444	-0.923076923077	3.2875	-8.78620689655
1567	0.7835	-0.844444444444	-3.83846153846	-6.95	-2.97931034483
1568	0.784	-2.3	13.6538461538	1.825	-1.5275862069
1569	0.7845	-3.75555555556	15.1115384615	0.3625	-2.97931034483
1570	0.785	-2.3	-0.923076923077	1.825	-1.5275862069
1571	0.7855	-3.75555555556	-0.923076923077	1.825	-13.1413793103
1572	0.786	-2.3	-0.923076923077	20.8375	-2.97931034483
1573	0.7865	-3.75555555556	-2.38076923077	14.9875	-1.5275862069
1574	0.787	2.06666666667	-2.38076923077	0.3625	-4.43103448276
1575	0.7875	0.611111111111	-2.38076923077	0.3625	-2.97931034483
1576	0.788	-9.57777777778	-3.83846153846	-1.1	-1.5275862069
1577	0.7885	-8.12222222222	0.534615384615	3.2875	-2.97931034483
1578	0.789	-0.844444444444	-0.923076923077	4.75	-8.78620689655
1579	0.7895	2.06666666667	-5.29615384615	-1.1	-4.43103448276
1580	0.79	-2.3	-8.21153846154	0.3625	-2.97931034483
1581	0.7905	3.52222222222	-2.38076923077	0.3625	-7.33448275862
1582	0.791	0.611111111111	-0.923076923077	0.3625	-2.97931034483
1583	0.7915	-9.57777777778	-3.83846153846	3.2875	-0.0758620689655
1584	0.792	2.06666666667	-2.38076923077	4.75	7.18275862069
1585	0.7925	-2.3	-5.29615384615	13.525	-7.33448275862
1586	0.793	2.06666666667	-9.66923076923	0.3625	-5.88275862069
1587	0.7935	0.611111111111	-2.38076923077	0.3625	-8.78620689655
1588	0.794	12.2555555556	0.534615384615	-1.1	-10.2379310345
1589	0.7945	-6.66666666667	-3.83846153846	-1.1	2.8275862069
1590	0.795	-0.844444444444	-0.923076923077	0.3625	8.63448275862
1591	0.7955	0.611111111111	0.534615384615	17.9125	-10.2379310345
1592	0.796	-0.844444444444	-12.5846153846	-1.1	-8.78620689655
1593	0.7965	-2.3	-6.75384615385	1.825	-8.78620689655
1594	0.797	3.52222222222	-0.923076923077	0.3625	-10.2379310345
1595	0.7975	-3.75555555556	-5.29615384615	-2.5625	-1.5275862069
1596	0.798	-0.844444444444	-3.83846153846	-2.5625	4.27931034483
1597	0.7985	-0.844444444444	-2.38076923077	3.2875	-7.33448275862
1598	0.799	-0.844444444444	-3.83846153846	16.45	-5.88275862069
1599	0.7995	2.06666666667	-8.21153846154	0.3625	-7.33448275862
1600	0.8	3.52222222222	0.534615384615	-1.1	-7.33448275862
1601	0.8005	10.8	-2.38076923077	0.3625	-2.97931034483
1602	0.801	0.611111111111	-3.83846153846	-1.1	-11.6896551724
1603	0.8015	2.06666666667	0.534615384615	3.2875	-14.5931034483
1604	0.802	-0.844444444444	-5.29615384615	3.2875	-4.43103448276
1605	0.8025	0.611111111111	-2.38076923077	-1.1	-2.97931034483
1606	0.803	4.97777777778	-0.923076923077	1.825	-1.5275862069
1607	0.8035	13.7111111111	-2.38076923077	0.3625	-2.97931034483
1608	0.804	-3.75555555556	-0.923076923077	0.3625	-5.88275862069
1609	0.8045	0.611111111111	-2.38076923077	-4.025	-11.6896551724
1610	0.805	2.06666666667	0.534615384615	-8.4125	-4.43103448276
1611	0.8055	0.611111111111	0.534615384615	1.825	-5.88275862069
1612	0.806	-2.3	-5.29615384615	0.3625	-4.43103448276
1613	0.8065	-13.9444444444	-3.83846153846	-1.1	-2.97931034483
1614	0.807	0.611111111111	0.534615384615	-1.1	-5.88275862069
1615	0.8075	0.611111111111	-2.38076923077	1.825	-11.6896551724
1616	0.808	0.611111111111	0.534615384615	-2.5625	-4.43103448276
1617	0.8085	2.06666666667	-0.923076923077	-8.4125	-2.97931034483
1618	0.809	0.611111111111	0.534615384615	-2.5625	-0.0758620689655
1619	0.8095	-9.57777777778	0.534615384615	0.3625	-1.5275862069
1620	0.81	-3.75555555556	-0.923076923077	-1.1	-2.97931034483
1621	0.8105	0.611111111111	-2.38076923077	13.525	-1.5275862069
1622	0.811	-0.844444444444	-5.29615384615	-2.5625	-4.43103448276
1623	0.8115	0.611111111111	-3.83846153846	-1.1	-2.97931034483
1624	0.812	4.97777777778	-2.38076923077	-1.1	-2.97931034483
1625	0.8125	15.1666666667	-0.923076923077	1.825	-5.88275862069
1626	0.813	-0.844444444444	-0.923076923077	-1.1	-2.97931034483
1627	0.8135	3.52222222222	1.99230769231	-8.4125	1.37586206897
1628	0.814	-0.844444444444	0.534615384615	-1.1	-2.97931034483
1629	0.8145	0.611111111111	1.99230769231	-1.1	-5.88275862069
1630	0.815	0.611111111111	-3.83846153846	-1.1	-2.97931034483
1631	0.8155	7.88888888889	0.534615384615	-1.1	-5.88275862069
1632	0.816	-5.21111111111	-0.923076923077	3.2875	-2.97931034483
1633	0.8165	-2.3	-2.38076923077	-8.4125	-4.43103448276
1634	0.817	-0.844444444444	-0.923076923077	-9.875	-5.88275862069
1635	0.8175	0.611111111111	19.4846153846	-1.1	-2.97931034483
1636	0.818	0.611111111111	0.534615384615	3.2875	-0.0758620689655
1637	0.8185	-12.4888888889	-2.38076923077	-1.1	1.37586206897
1638	0.819	-5.21111111111	0.534615384615	-2.5625	14.4413793103
1639	0.8195	-0.844444444444	-0.923076923077	4.75	14.4413793103
1640	0.82	0.611111111111	-5.29615384615	19.375	-2.97931034483
1641	0.8205	0.611111111111	-15.5	1.825	2.8275862069
1642	0.821	2.06666666667	-11.1269230769	-1.1	-0.0758620689655
1643	0.8215	4.97777777778	0.534615384615	-1.1	-1.5275862069
1644	0.822	0.611111111111	-0.923076923077	-1.1	-10.2379310345
1645	0.8225	2.06666666667	-0.923076923077	-2.5625	-1.5275862069
1646	0.823	0.611111111111	-0.923076923077	-5.4875	-0.0758620689655
1647	0.8235	0.611111111111	15.1115384615	-2.5625	-1.5275862069
1648	0.824	0.611111111111	-2.38076923077	0.3625	1.37586206897
1649	0.8245	-6.66666666667	-0.923076923077	1.825	1.37586206897
1650	0.825	6.43333333333	-2.38076923077	0.3625	2.8275862069
1651	0.8255	0.611111111111	-2.38076923077	3.2875	1.37586206897
1652	0.826	0.611111111111	-2.38076923077	-5.4875	1.37586206897
1653	0.8265	-0.844444444444	-0.923076923077	-1.1	-0.0758620689655
1654	0.827	0.611111111111	0.534615384615	-1.1	-0.0758620689655
1655	0.8275	-12.4888888889	-0.923076923077	-1.1	1.37586206897
1656	0.828	-6.66666666667	0.534615384615	0.3625	8.63448275862
1657	0.8285	0.611111111111	-0.923076923077	3.2875	-1.5275862069
1658	0.829	0.611111111111	-0.923076923077	-4.025	-0.0758620689655
1659	0.8295	2.06666666667	-3.83846153846	-1.1	-1.5275862069
1660	0.83	0.611111111111	1.99230769231	1.825	2.8275862069
1661	0.8305	-12.4888888889	-5.29615384615	-1.1	1.37586206897
1662	0.831	-5.21111111111	-3.83846153846	1.825	2.8275862069
1663	0.8315	-0.844444444444	-2.38076923077	3.2875	5.73103448276
1664	0.832	-2.3	-2.38076923077	-5.4875	-1.5275862069
1665	0.8325	-2.3	0.534615384615	-1.1	-1.5275862069
1666	0.833	-0.844444444444	0.534615384615	-1.1	-2.97931034483
1667	0.8335	-3.75555555556	-2.38076923077	-2.5625	-0.0758620689655
1668	0.834	-15.4	-3.83846153846	-1.1	-1.5275862069
1669	0.8345	-2.3	-0.923076923077	4.75	-4.43103448276
1670	0.835	-3.75555555556	0.534615384615	0.3625	-1.5275862069
1671	0.8355	-2.3	0.534615384615	-5.4875	-1.5275862069
1672	0.836	-3.75555555556	-0.923076923077	-5.4875	-1.5275862069
1673	0.8365	-5.21111111111	18.0269230769	1.825	1.37586206897
1674	0.837	-16.8555555556	-2.38076923077	-1.1	-1.5275862069
1675	0.8375	-8.12222222222	-0.923076923077	0.3625	-0.0758620689655
1676	0.838	0.611111111111	-2.38076923077	0.3625	11.5379310345
1677	0.8385	-0.844444444444	-3.83846153846	-4.025	1.37586206897
1678	0.839	-2.3	-5.29615384615	0.3625	-1.5275862069
1679	0.8395	-0.844444444444	0.534615384615	3.2875	-0.0758620689655
1680	0.84	-15.4	-3.83846153846	-1.1	1.37586206897
1681	0.8405	-5.21111111111	-0.923076923077	0.3625	5.73103448276
1682	0.841	-0.844444444444	-0.923076923077	3.2875	-7.33448275862
1683	0.8415	0.611111111111	-0.923076923077	-6.95	-1.5275862069
1684	0.842	-0.844444444444	-2.38076923077	-6.95	1.37586206897
1685	0.8425	-0.844444444444	15.1115384615	-2.5625	1.37586206897
1686	0.843	-5.21111111111	-5.29615384615	1.825	2.8275862069
1687	0.8435	-2.3	-3.83846153846	-1.1	-1.5275862069
1688	0.844	0.611111111111	-3.83846153846	0.3625	-7.33448275862
1689	0.8445	-2.3	-0.923076923077	1.825	-8.78620689655
1690	0.845	-0.844444444444	-5.29615384615	-1.1	-1.5275862069
1691	0.8455	-2.3	-14.0423076923	1.825	1.37586206897
1692	0.846	2.06666666667	-0.923076923077	-1.1	-1.5275862069
1693	0.8465	13.7111111111	-3.83846153846	0.3625	1.37586206897
1694	0.847	-8.12222222222	-2.38076923077	0.3625	14.4413793103
1695	0.8475	-0.844444444444	-5.29615384615	-4.025	18.7965517241
1696	0.848	-3.75555555556	-0.923076923077	-6.95	1.37586206897
1697	0.8485	-2.3	-14.0423076923	-5.4875	-1.5275862069
1698	0.849	-5.21111111111	-9.66923076923	-2.5625	2.8275862069
1699	0.8495	-15.4	0.534615384615	3.2875	-0.0758620689655
1700	0.85	-3.75555555556	-2.38076923077	4.75	-10.2379310345
1701	0.8505	-2.3	-0.923076923077	16.45	1.37586206897
1702	0.851	-2.3	-0.923076923077	9.1375	1.37586206897
1703	0.8515	0.611111111111	0.534615384615	4.75	-1.5275862069
1704	0.852	-2.3	-2.38076923077	1.825	-0.0758620689655
1705	0.8525	-11.0333333333	-0.923076923077	1.825	4.27931034483
1706	0.853	-13.9444444444	-0.923076923077	3.2875	15.8931034483
1707	0.8535	-3.75555555556	0.534615384615	3.2875	-8.78620689655
1708	0.854	-2.3	-5.29615384615	1.825	-0.0758620689655
1709	0.8545	-5.21111111111	-12.5846153846	0.3625	-1.5275862069
1710	0.855	-0.844444444444	-14.0423076923	4.75	-1.5275862069
1711	0.8555	19.5333333333	-0.923076923077	0.3625	-2.97931034483
1712	0.856	-3.75555555556	-3.83846153846	1.825	-8.78620689655
1713	0.8565	-0.844444444444	-2.38076923077	-6.95	-2.97931034483
1714	0.857	-0.844444444444	1.99230769231	-1.1	-1.5275862069
1715	0.8575	2.06666666667	0.534615384615	-1.1	-1.5275862069
1716	0.858	2.06666666667	-6.75384615385	0.3625	-0.0758620689655
1717	0.8585	-3.75555555556	-0.923076923077	0.3625	-4.43103448276
1718	0.859	-0.844444444444	0.534615384615	6.2125	-7.33448275862
1719	0.8595	-3.75555555556	-2.38076923077	3.2875	-1.5275862069
1720	0.86	-0.844444444444	-0.923076923077	-2.5625	-1.5275862069
1721	0.8605	-0.844444444444	-11.1269230769	1.825	1.37586206897
1722	0.861	-0.844444444444	-9.66923076923	0.3625	-1.5275862069
1723	0.8615	7.88888888889	-2.38076923077	4.75	2.8275862069
1724	0.862	-5.21111111111	-0.923076923077	0.3625	-0.0758620689655
1725	0.8625	-2.3	-0.923076923077	-1.1	-5.88275862069
1726	0.863	-0.844444444444	-2.38076923077	1.825	1.37586206897
1727	0.8635	0.611111111111	-3.83846153846	4.75	2.8275862069
1728	0.864	0.611111111111	-11.1269230769	1.825	1.37586206897
1729	0.8645	3.52222222222	-8.21153846154	3.2875	-1.5275862069
1730	0.865	-3.75555555556	-3.83846153846	-1.1	-10.2379310345
1731	0.8655	-0.844444444444	-2.38076923077	0.3625	2.8275862069
1732	0.866	-0.844444444444	-0.923076923077	-6.95	-7.33448275862
1733	0.8665	-2.3	9.28076923077	-1.1	-0.0758620689655
1734	0.867	-3.75555555556	0.534615384615	0.3625	1.37586206897
1735	0.8675	6.43333333333	-2.38076923077	0.3625	-0.0758620689655
1736	0.868	-8.12222222222	-0.923076923077	1.825	-2.97931034483
1737	0.8685	-2.3	-0.923076923077	0.3625	-1.5275862069
1738	0.869	-2.3	0.534615384615	-2.5625	-1.5275862069
1739	0.8695	-2.3	13.6538461538	1.825	-0.0758620689655
1740	0.87	-0.844444444444	0.534615384615	0.3625	-0.0758620689655
1741	0.8705	-13.9444444444	0.534615384615	-1.1	-1.5275862069
1742	0.871	-0.844444444444	-3.83846153846	0.3625	-11.6896551724
1743	0.8715	-2.3	-2.38076923077	13.525	-1.5275862069
1744	0.872	-0.844444444444	-2.38076923077	-4.025	-1.5275862069
1745	0.8725	-0.844444444444	-2.38076923077	-5.4875	-1.5275862069
1746	0.873	-0.844444444444	-2.38076923077	0.3625	-0.0758620689655
1747	0.8735	-9.57777777778	0.534615384615	-1.1	4.27931034483
1748	0.874	-9.57777777778	-3.83846153846	1.825	-11.6896551724
1749	0.8745	-0.844444444444	-2.38076923077	14.9875	-2.97931034483
1750	0.875	-2.3	-0.923076923077	3.2875	-0.0758620689655
1751	0.8755	-0.844444444444	-6.75384615385	1.825	-0.0758620689655
1752	0.876	-2.3	10.7384615385	0.3625	-1.5275862069
1753	0.8765	-3.75555555556	18.0269230769	-1.1	-1.5275862069
1754	0.877	-11.0333333333	-0.923076923077	3.2875	4.27931034483
1755	0.8775	0.611111111111	-0.923076923077	1.825	-1.5275862069
1756	0.878	-2.3	1.99230769231	6.2125	-5.88275862069
1757	0.8785	-0.844444444444	-12.5846153846	1.825	-0.0758620689655
1758	0.879	0.611111111111	-8.21153846154	-1.1	1.37586206897
1759	0.8795	-0.844444444444	-0.923076923077	1.825	1.37586206897
1760	0.88	-5.21111111111	-0.923076923077	3.2875	1.37586206897
1761	0.8805	-0.844444444444	-0.923076923077	-8.4125	-2.97931034483
1762	0.881	-0.844444444444	-2.38076923077	-8.4125	-1.5275862069
1763	0.8815	-2.3	-0.923076923077	-8.4125	1.37586206897
1764	0.882	-0.844444444444	16.5692307692	-1.1	1.37586206897
1765	0.8825	-5.21111111111	13.6538461538	0.3625	-1.5275862069
1766	0.883	-2.3	-0.923076923077	0.3625	-1.5275862069
1767	0.8835	-3.75555555556	-0.923076923077	1.825	-4.43103448276
1768	0.884	-0.844444444444	-0.923076923077	12.0625	-2.97931034483
1769	0.8845	-3.75555555556	0.534615384615	0.3625	2.8275862069
1770	0.885	-0.844444444444	-6.75384615385	-1.1	-1.5275862069
1771	0.8855	-5.21111111111	-2.38076923077	0.3625	-1.5275862069
1772	0.886	16.6222222222	-3.83846153846	3.2875	-1.5275862069
1773	0.8865	-2.3	-2.38076923077	-1.1	-7.33448275862
1774	0.887	-2.3	-2.38076923077	-12.8	-2.97931034483
1775	0.8875	-2.3	3.45	-6.95	-0.0758620689655
1776	0.888	-0.844444444444	15.1115384615	0.3625	-1.5275862069
1777	0.8885	-13.9444444444	-0.923076923077	0.3625	1.37586206897
1778	0.889	-2.3	-0.923076923077	1.825	8.63448275862
1779	0.8895	-2.3	-2.38076923077	3.2875	-4.43103448276
1780	0.89	-0.844444444444	0.534615384615	13.525	-4.43103448276
1781	0.8905	-0.844444444444	-12.5846153846	0.3625	-2.97931034483
1782	0.891	0.611111111111	-8.21153846154	-1.1	-2.97931034483
1783	0.8915	0.611111111111	-0.923076923077	-1.1	-1.5275862069
1784	0.892	-0.844444444444	-0.923076923077	0.3625	-2.97931034483
1785	0.8925	-0.844444444444	-2.38076923077	-2.5625	12.9896551724
1786	0.893	-2.3	-2.38076923077	9.1375	1.37586206897
1787	0.8935	-0.844444444444	-0.923076923077	1.825	-1.5275862069
1788	0.894	0.611111111111	-8.21153846154	0.3625	-1.5275862069
1789	0.8945	0.611111111111	-11.1269230769	-1.1	-1.5275862069
1790	0.895	22.4444444444	0.534615384615	0.3625	-8.78620689655
1791	0.8955	-0.844444444444	-2.38076923077	6.2125	-7.33448275862
1792	0.896	-3.75555555556	0.534615384615	4.75	-4.43103448276
1793	0.8965	-0.844444444444	-14.0423076923	1.825	1.37586206897
1794	0.897	-0.844444444444	-8.21153846154	0.3625	-0.0758620689655
1795	0.8975	3.52222222222	-0.923076923077	-1.1	1.37586206897
1796	0.898	-5.21111111111	-0.923076923077	1.825	-1.5275862069
1797	0.8985	-2.3	-0.923076923077	1.825	-4.43103448276
1798	0.899	0.611111111111	0.534615384615	12.0625	-2.97931034483
1799	0.8995	-0.844444444444	-0.923076923077	0.3625	-4.43103448276
1800	0.9	0.611111111111	-11.1269230769	1.825	-1.5275862069
1801	0.9005	2.06666666667	-8.21153846154	1.825	-1.5275862069
1802	0.901	18.0777777778	-0.923076923077	1.825	-7.33448275862
1803	0.9015	-5.21111111111	0.534615384615	1.825	-5.88275862069
1804	0.902	-2.3	-0.923076923077	9.1375	-0.0758620689655
1805	0.9025	-2.3	-0.923076923077	-1.1	-1.5275862069
1806	0.903	-3.75555555556	-9.66923076923	-1.1	1.37586206897
1807	0.9035	0.611111111111	-11.1269230769	-1.1	1.37586206897
1808	0.904	16.6222222222	-0.923076923077	0.3625	-8.78620689655
1809	0.9045	0.611111111111	-2.38076923077	0.3625	-10.2379310345
1810	0.905	0.611111111111	-0.923076923077	19.375	1.37586206897
1811	0.9055	-2.3	-14.0423076923	3.2875	-0.0758620689655
1812	0.906	0.611111111111	-5.29615384615	1.825	-0.0758620689655
1813	0.9065	-11.0333333333	-0.923076923077	1.825	-0.0758620689655
1814	0.907	-3.75555555556	-0.923076923077	1.825	1.37586206897
1815	0.9075	-2.3	-2.38076923077	3.2875	18.7965517241
1816	0.908	-0.844444444444	0.534615384615	19.375	-1.5275862069
1817	0.9085	-2.3	1.99230769231	0.3625	-2.97931034483
1818	0.909	-2.3	6.36538461538	-1.1	-0.0758620689655
1819	0.9095	-12.4888888889	-2.38076923077	3.2875	2.8275862069
1820	0.91	0.611111111111	0.534615384615	0.3625	-4.43103448276
1821	0.9105	-3.75555555556	-3.83846153846	1.825	-5.88275862069
1822	0.911	-0.844444444444	-3.83846153846	7.675	-2.97931034483
1823	0.9115	-2.3	0.534615384615	1.825	-1.5275862069
1824	0.912	-2.3	18.0269230769	-1.1	2.8275862069
1825	0.9125	-5.21111111111	-3.83846153846	0.3625	-2.97931034483
1826	0.913	-9.57777777778	-3.83846153846	0.3625	-2.97931034483
1827	0.9135	-2.3	-0.923076923077	1.825	-2.97931034483
1828	0.914	-3.75555555556	-3.83846153846	14.9875	-1.5275862069
1829	0.9145	-2.3	-2.38076923077	-1.1	-1.5275862069
1830	0.915	-0.844444444444	-0.923076923077	-1.1	-1.5275862069
1831	0.9155	-0.844444444444	-2.38076923077	-1.1	-0.0758620689655
1832	0.916	-5.21111111111	-2.38076923077	3.2875	-1.5275862069
1833	0.9165	-11.0333333333	-3.83846153846	-1.1	18.7965517241
1834	0.917	-2.3	-2.38076923077	-6.95	-0.0758620689655
1835	0.9175	-2.3	1.99230769231	1.825	-0.0758620689655
1836	0.918	-3.75555555556	-16.9576923077	1.825	-1.5275862069
1837	0.9185	-2.3	-2.38076923077	0.3625	-1.5275862069
1838	0.919	2.06666666667	-2.38076923077	-1.1	-1.5275862069
1839	0.9195	-11.0333333333	-2.38076923077	0.3625	17.3448275862
1840	0.92	-3.75555555556	0.534615384615	-1.1	12.9896551724
1841	0.9205	-3.75555555556	1.99230769231	-4.025	-0.0758620689655
1842	0.921	-0.844444444444	10.7384615385	1.825	2.8275862069
1843	0.9215	-2.3	-5.29615384615	0.3625	1.37586206897
1844	0.922	-0.844444444444	-2.38076923077	3.2875	-5.88275862069
1845	0.9225	18.0777777778	-0.923076923077	0.3625	-1.5275862069
1846	0.923	-2.3	-0.923076923077	-9.875	-4.43103448276
1847	0.9235	-2.3	-2.38076923077	-1.1	1.37586206897
1848	0.924	-0.844444444444	0.534615384615	6.2125	-0.0758620689655
1849	0.9245	-2.3	-3.83846153846	-1.1	-1.5275862069
1850	0.925	-0.844444444444	-0.923076923077	0.3625	-2.97931034483
1851	0.9255	19.5333333333	-0.923076923077	1.825	-0.0758620689655
1852	0.926	-5.21111111111	-3.83846153846	3.2875	4.27931034483
1853	0.9265	-3.75555555556	-2.38076923077	-5.4875	-2.97931034483
1854	0.927	-2.3	0.534615384615	-6.95	-1.5275862069
1855	0.9275	-3.75555555556	9.28076923077	1.825	-1.5275862069
1856	0.928	-0.844444444444	-2.38076923077	-1.1	-1.5275862069
1857	0.9285	15.1666666667	-3.83846153846	1.825	-13.1413793103
1858	0.929	-0.844444444444	-2.38076923077	-1.1	-10.2379310345
1859	0.9295	-2.3	-0.923076923077	-5.4875	8.63448275862
1860	0.93	-0.844444444444	0.534615384615	4.75	-0.0758620689655
1861	0.9305	0.611111111111	-2.38076923077	1.825	-1.5275862069
1862	0.931	0.611111111111	-11.1269230769	0.3625	-0.0758620689655
1863	0.9315	2.06666666667	-9.66923076923	-1.1	-1.5275862069
1864	0.932	-0.844444444444	-2.38076923077	0.3625	-2.97931034483
1865	0.9325	-2.3	-0.923076923077	-6.95	5.73103448276
1866	0.933	-2.3	-2.38076923077	7.675	-0.0758620689655
1867	0.9335	0.611111111111	-3.83846153846	-1.1	-0.0758620689655
1868	0.934	0.611111111111	-6.75384615385	0.3625	-1.5275862069
1869	0.9345	2.06666666667	-2.38076923077	-1.1	-2.97931034483
1870	0.935	18.0777777778	-2.38076923077	0.3625	-2.97931034483
1871	0.9355	3.52222222222	-3.83846153846	-1.1	-0.0758620689655
1872	0.936	-0.844444444444	-0.923076923077	19.375	-1.5275862069
1873	0.9365	0.611111111111	4.90769230769	0.3625	-0.0758620689655
1874	0.937	-3.75555555556	-0.923076923077	0.3625	-0.0758620689655
1875	0.9375	2.06666666667	10.7384615385	3.2875	-1.5275862069
1876	0.938	-5.21111111111	-0.923076923077	0.3625	2.8275862069
1877	0.9385	-0.844444444444	-3.83846153846	-9.875	-0.0758620689655
1878	0.939	-3.75555555556	-3.83846153846	-8.4125	-2.97931034483
1879	0.9395	0.611111111111	0.534615384615	1.825	-1.5275862069
1880	0.94	-2.3	0.534615384615	0.3625	-1.5275862069
1881	0.9405	-3.75555555556	-0.923076923077	1.825	-2.97931034483
1882	0.941	16.6222222222	-0.923076923077	0.3625	-2.97931034483
1883	0.9415	-3.75555555556	0.534615384615	-2.5625	-10.2379310345
1884	0.942	0.611111111111	-0.923076923077	-8.4125	-5.88275862069
1885	0.9425	-0.844444444444	1.99230769231	1.825	-0.0758620689655
1886	0.943	-0.844444444444	-0.923076923077	4.75	-0.0758620689655
1887	0.9435	-0.844444444444	-6.75384615385	1.825	1.37586206897
1888	0.944	10.8	-2.38076923077	3.2875	-1.5275862069
1889	0.9445	0.611111111111	-3.83846153846	-1.1	-8.78620689655
1890	0.945	3.52222222222	-3.83846153846	-11.3375	-0.0758620689655
1891	0.9455	0.611111111111	-3.83846153846	-4.025	-1.5275862069
1892	0.946	0.611111111111	9.28076923077	3.2875	-1.5275862069
1893	0.9465	2.06666666667	-6.75384615385	1.825	-1.5275862069
1894	0.947	-3.75555555556	-2.38076923077	1.825	-4.43103448276
1895	0.9475	19.5333333333	-2.38076923077	3.2875	-4.43103448276
1896	0.948	4.97777777778	0.534615384615	-8.4125	-2.97931034483
1897	0.9485	0.611111111111	-3.83846153846	-1.1	-1.5275862069
1898	0.949	-2.3	-14.0423076923	0.3625	-1.5275862069
1899	0.9495	2.06666666667	-3.83846153846	1.825	1.37586206897
1900	0.95	-5.21111111111	-8.21153846154	4.75	-2.97931034483
1901	0.9505	12.2555555556	-2.38076923077	1.825	-2.97931034483
1902	0.951	0.611111111111	-2.38076923077	0.3625	17.3448275862
1903	0.9515	0.611111111111	0.534615384615	-6.95	-1.5275862069
1904	0.952	-2.3	-0.923076923077	-1.1	-1.5275862069
1905	0.9525	-0.844444444444	0.534615384615	0.3625	1.37586206897
1906	0.953	-8.12222222222	-0.923076923077	0.3625	-0.0758620689655
1907	0.9535	20.9888888889	-0.923076923077	0.3625	-11.6896551724
1908	0.954	-2.3	-2.38076923077	-1.1	-7.33448275862
1909	0.9545	-0.844444444444	-2.38076923077	12.0625	-2.97931034483
1910	0.955	-2.3	-0.923076923077	19.375	-1.5275862069
1911	0.9555	-2.3	-12.5846153846	0.3625	-0.0758620689655
1912	0.956	2.06666666667	-2.38076923077	-1.1	-1.5275862069
1913	0.9565	12.2555555556	-5.29615384615	4.75	-4.43103448276
1914	0.957	-6.66666666667	-0.923076923077	3.2875	-1.5275862069
1915	0.9575	0.611111111111	-2.38076923077	-6.95	1.37586206897
1916	0.958	2.06666666667	-2.38076923077	-8.4125	-4.43103448276
1917	0.9585	-0.844444444444	4.90769230769	1.825	-1.5275862069
1918	0.959	2.06666666667	-11.1269230769	1.825	-0.0758620689655
1919	0.9595	0.611111111111	-3.83846153846	1.825	-1.5275862069
1920	0.96	-2.3	-2.38076923077	-1.1	11.5379310345
1921	0.9605	-0.844444444444	-2.38076923077	0.3625	17.3448275862
1922	0.961	-3.75555555556	-0.923076923077	19.375	-0.0758620689655
1923	0.9615	-0.844444444444	1.99230769231	0.3625	1.37586206897
1924	0.962	-2.3	-0.923076923077	-1.1	-2.97931034483
1925	0.9625	0.611111111111	-3.83846153846	0.3625	-0.0758620689655
1926	0.963	-11.0333333333	-0.923076923077	0.3625	2.8275862069
1927	0.9635	0.611111111111	-2.38076923077	1.825	-1.5275862069
1928	0.964	-0.844444444444	-0.923076923077	-4.025	-10.2379310345
1929	0.9645	0.611111111111	-3.83846153846	-9.875	-0.0758620689655
1930	0.965	0.611111111111	-12.5846153846	0.3625	-1.5275862069
1931	0.9655	2.06666666667	-5.29615384615	-1.1	-1.5275862069
1932	0.966	-0.844444444444	-2.38076923077	0.3625	2.8275862069
1933	0.9665	-11.0333333333	-2.38076923077	1.825	-1.5275862069
1934	0.967	-2.3	-2.38076923077	-9.875	-1.5275862069
1935	0.9675	0.611111111111	-3.83846153846	-1.1	-0.0758620689655
1936	0.968	-0.844444444444	-8.21153846154	1.825	-1.5275862069
1937	0.9685	-0.844444444444	6.36538461538	1.825	-1.5275862069
1938	0.969	-3.75555555556	0.534615384615	0.3625	1.37586206897
1939	0.9695	-11.0333333333	0.534615384615	1.825	-0.0758620689655
1940	0.97	-0.844444444444	0.534615384615	-6.95	7.18275862069
1941	0.9705	-3.75555555556	0.534615384615	14.9875	-0.0758620689655
1942	0.971	-0.844444444444	-3.83846153846	20.8375	-1.5275862069
1943	0.9715	3.52222222222	-11.1269230769	0.3625	-2.97931034483
1944	0.972	-0.844444444444	-2.38076923077	0.3625	-1.5275862069
1945	0.9725	-8.12222222222	-0.923076923077	0.3625	1.37586206897
1946	0.973	2.06666666667	-2.38076923077	6.2125	-2.97931034483
1947	0.9735	-0.844444444444	3.45	6.2125	-2.97931034483
1948	0.974	0.611111111111	-3.83846153846	-5.4875	-0.0758620689655
1949	0.9745	0.611111111111	-11.1269230769	1.825	-1.5275862069
1950	0.975	3.52222222222	-3.83846153846	-1.1	-1.5275862069
1951	0.9755	7.88888888889	-2.38076923077	0.3625	-0.0758620689655
1952	0.976	-11.0333333333	-0.923076923077	0.3625	-1.5275862069
1953	0.9765	-0.844444444444	0.534615384615	-11.3375	-1.5275862069
1954	0.977	0.611111111111	-2.38076923077	6.2125	-0.0758620689655
1955	0.9775	2.06666666667	-2.38076923077	1.825	-0.0758620689655
1956	0.978	-0.844444444444	-9.66923076923	1.825	-1.5275862069
1957	0.9785	-13.9444444444	-2.38076923077	1.825	-1.5275862069
1958	0.979	6.43333333333	-3.83846153846	0.3625	-1.5275862069
1959	0.9795	0.611111111111	-0.923076923077	3.2875	-8.78620689655
1960	0.98	0.611111111111	-3.83846153846	19.375	-1.5275862069
1961	0.9805	-0.844444444444	-2.38076923077	14.9875	-0.0758620689655
1962	0.981	0.611111111111	-3.83846153846	0.3625	-0.0758620689655
1963	0.9815	0.611111111111	-3.83846153846	-1.1	-0.0758620689655
1964	0.982	-8.12222222222	-0.923076923077	0.3625	1.37586206897
1965	0.9825	-2.3	-0.923076923077	1.825	-4.43103448276
1966	0.983	-0.844444444444	-0.923076923077	3.2875	5.73103448276
1967	0.9835	-0.844444444444	-2.38076923077	-4.025	-0.0758620689655
1968	0.984	0.611111111111	-2.38076923077	-6.95	-0.0758620689655
1969	0.9845	-0.844444444444	-0.923076923077	0.3625	1.37586206897
1970	0.985	-13.9444444444	-2.38076923077	0.3625	-0.0758620689655
1971	0.9855	0.611111111111	-2.38076923077	3.2875	-1.5275862069
1972	0.986	-2.3	0.534615384615	-2.5625	1.37586206897
1973	0.9865	-0.844444444444	-3.83846153846	-9.875	-1.5275862069
1974	0.987	-2.3	1.99230769231	1.825	-0.0758620689655
1975	0.9875	0.611111111111	1.99230769231	0.3625	1.37586206897
1976	0.988	-5.21111111111	-0.923076923077	0.3625	-2.97931034483
1977	0.9885	18.0777777778	-3.83846153846	4.75	-11.6896551724
1978	0.989	0.611111111111	-0.923076923077	1.825	-8.78620689655
1979	0.9895	2.06666666667	-0.923076923077	6.2125	-1.5275862069
1980	0.99	0.611111111111	-0.923076923077	1.825	1.37586206897
