	Time	Channel 1	Channel 2	Channel 3	Channel 4
0	0.0	0.560144927536	-3.79024390244	0.6	-1.44897959184
1	0.0005	3.37826086957	3.27073170732	0.6	-0.0163265306122
2	0.001	4.78731884058	0.446341463415	0.6	-1.44897959184
3	0.0015	1.96920289855	-12.2634146341	2.02962962963	-2.88163265306
4	0.002	-6.48514492754	-0.965853658537	-2.25925925926	-1.44897959184
5	0.0025	-0.848913043478	0.446341463415	-5.11851851852	-0.0163265306122
6	0.003	-5.07608695652	4.68292682927	-0.82962962963	-2.88163265306
7	0.0035	0.560144927536	1.85853658537	-3.68888888889	-0.0163265306122
8	0.004	0.560144927536	3.27073170732	-2.25925925926	-1.44897959184
9	0.0045	0.560144927536	0.446341463415	2.02962962963	-2.88163265306
10	0.005	-3.66702898551	0.446341463415	-10.837037037	-2.88163265306
11	0.0055	-0.848913043478	1.85853658537	9.17777777778	-0.0163265306122
12	0.006	-2.25797101449	3.27073170732	0.6	1.41632653061
13	0.0065	-5.07608695652	15.9804878049	2.02962962963	-1.44897959184
14	0.007	0.560144927536	-0.965853658537	-2.25925925926	4.28163265306
15	0.0075	-12.1213768116	-2.37804878049	2.02962962963	2.84897959184
16	0.008	-9.30326086957	-0.965853658537	2.02962962963	-5.74693877551
17	0.0085	-0.848913043478	-2.37804878049	-0.82962962963	-7.17959183673
18	0.009	-2.25797101449	0.446341463415	13.4666666667	-0.0163265306122
19	0.0095	-0.848913043478	0.446341463415	0.6	-0.0163265306122
20	0.01	-0.848913043478	-3.79024390244	-0.82962962963	-1.44897959184
21	0.0105	0.560144927536	15.9804878049	0.6	-2.88163265306
22	0.011	-5.07608695652	0.446341463415	-0.82962962963	-0.0163265306122
23	0.0115	-6.48514492754	1.85853658537	0.6	-10.0448979592
24	0.012	0.560144927536	0.446341463415	-0.82962962963	-8.61224489796
25	0.0125	3.37826086957	1.85853658537	-0.82962962963	-2.88163265306
26	0.013	1.96920289855	0.446341463415	6.31851851852	-1.44897959184
27	0.0135	3.37826086957	6.09512195122	0.6	-2.88163265306
28	0.014	4.78731884058	-5.20243902439	2.02962962963	-2.88163265306
29	0.0145	10.4235507246	-0.965853658537	0.6	-1.44897959184
30	0.015	-10.7123188406	1.85853658537	2.02962962963	-1.44897959184
31	0.0155	-0.848913043478	1.85853658537	-2.25925925926	-12.9102040816
32	0.016	-2.25797101449	0.446341463415	-0.82962962963	14.3102040816
33	0.0165	0.560144927536	0.446341463415	16.3259259259	-2.88163265306
34	0.017	-0.848913043478	-8.02682926829	-0.82962962963	-2.88163265306
35	0.0175	-2.25797101449	15.9804878049	-0.82962962963	-1.44897959184
36	0.018	1.96920289855	-6.61463414634	0.6	-2.88163265306
37	0.0185	0.560144927536	0.446341463415	-0.82962962963	-1.44897959184
38	0.019	16.0597826087	-0.965853658537	0.6	-1.44897959184
39	0.0195	1.96920289855	0.446341463415	-0.82962962963	-7.17959183673
40	0.02	3.37826086957	3.27073170732	2.02962962963	-1.44897959184
41	0.0205	3.37826086957	0.446341463415	-0.82962962963	-1.44897959184
42	0.021	3.37826086957	-6.61463414634	2.02962962963	-2.88163265306
43	0.0215	4.78731884058	8.91951219512	2.02962962963	-1.44897959184
44	0.022	-6.48514492754	1.85853658537	0.6	-0.0163265306122
45	0.0225	1.96920289855	0.446341463415	-0.82962962963	-11.4775510204
46	0.023	3.37826086957	0.446341463415	0.6	10.012244898
47	0.0235	3.37826086957	0.446341463415	2.02962962963	-1.44897959184
48	0.024	7.60543478261	0.446341463415	17.7555555556	-2.88163265306
49	0.0245	4.78731884058	-9.43902439024	0.6	-1.44897959184
50	0.025	4.78731884058	15.9804878049	-0.82962962963	-2.88163265306
51	0.0255	3.37826086957	-9.43902439024	0.6	-0.0163265306122
52	0.026	7.60543478261	-0.965853658537	-0.82962962963	-1.44897959184
53	0.0265	-10.7123188406	-2.37804878049	2.02962962963	-0.0163265306122
54	0.027	-3.66702898551	-5.20243902439	2.02962962963	-10.0448979592
55	0.0275	-2.25797101449	-5.20243902439	-6.54814814815	-2.88163265306
56	0.028	-3.66702898551	0.446341463415	-7.97777777778	-1.44897959184
57	0.0285	0.560144927536	-0.965853658537	0.6	-2.88163265306
58	0.029	-2.25797101449	-9.43902439024	-0.82962962963	-2.88163265306
59	0.0295	0.560144927536	-0.965853658537	-0.82962962963	-1.44897959184
60	0.03	-3.66702898551	0.446341463415	-0.82962962963	-1.44897959184
61	0.0305	-6.48514492754	-2.37804878049	-2.25925925926	1.41632653061
62	0.031	0.560144927536	0.446341463415	7.74814814815	-1.44897959184
63	0.0315	1.96920289855	0.446341463415	-0.82962962963	-1.44897959184
64	0.032	3.37826086957	-9.43902439024	0.6	-1.44897959184
65	0.0325	3.37826086957	17.3926829268	-0.82962962963	-1.44897959184
66	0.033	-2.25797101449	0.446341463415	0.6	-1.44897959184
67	0.0335	17.4688405797	0.446341463415	-2.25925925926	-2.88163265306
68	0.034	0.560144927536	1.85853658537	-2.25925925926	14.3102040816
69	0.0345	-2.25797101449	1.85853658537	-3.68888888889	-2.88163265306
70	0.035	-2.25797101449	1.85853658537	4.88888888889	-1.44897959184
71	0.0355	-0.848913043478	0.446341463415	-2.25925925926	-1.44897959184
72	0.036	3.37826086957	-10.8512195122	-0.82962962963	-2.88163265306
73	0.0365	-0.848913043478	14.5682926829	-2.25925925926	-0.0163265306122
74	0.037	16.0597826087	0.446341463415	2.02962962963	-12.9102040816
75	0.0375	-2.25797101449	-0.965853658537	0.6	1.41632653061
76	0.038	0.560144927536	1.85853658537	4.88888888889	-2.88163265306
77	0.0385	-0.848913043478	1.85853658537	16.3259259259	-1.44897959184
78	0.039	-2.25797101449	-2.37804878049	-6.54814814815	-1.44897959184
79	0.0395	-3.66702898551	1.85853658537	2.02962962963	-1.44897959184
80	0.04	-3.66702898551	-5.20243902439	0.6	-1.44897959184
81	0.0405	1.96920289855	0.446341463415	0.6	-0.0163265306122
82	0.041	11.8326086957	1.85853658537	-0.82962962963	-2.88163265306
83	0.0415	0.560144927536	-0.965853658537	0.6	-2.88163265306
84	0.042	1.96920289855	1.85853658537	4.88888888889	1.41632653061
85	0.0425	0.560144927536	0.446341463415	-2.25925925926	-1.44897959184
86	0.043	0.560144927536	-12.2634146341	0.6	-2.88163265306
87	0.0435	0.560144927536	15.9804878049	-2.25925925926	-2.88163265306
88	0.044	-10.7123188406	0.446341463415	2.02962962963	2.84897959184
89	0.0445	21.6960144928	1.85853658537	0.6	-11.4775510204
90	0.045	-2.25797101449	1.85853658537	0.6	14.3102040816
91	0.0455	-0.848913043478	-0.965853658537	2.02962962963	-2.88163265306
92	0.046	-0.848913043478	0.446341463415	12.037037037	-0.0163265306122
93	0.0465	-5.07608695652	1.85853658537	-0.82962962963	-1.44897959184
94	0.047	-2.25797101449	7.50731707317	2.02962962963	-1.44897959184
95	0.0475	-0.848913043478	-0.965853658537	-0.82962962963	-1.44897959184
96	0.048	-12.1213768116	3.27073170732	-0.82962962963	-1.44897959184
97	0.0485	-9.30326086957	0.446341463415	2.02962962963	-8.61224489796
98	0.049	-0.848913043478	0.446341463415	-7.97777777778	-7.17959183673
99	0.0495	0.560144927536	0.446341463415	0.6	-7.17959183673
100	0.05	0.560144927536	-2.37804878049	-5.11851851852	-1.44897959184
101	0.0505	0.560144927536	0.446341463415	2.02962962963	-1.44897959184
102	0.051	-2.25797101449	-6.61463414634	2.02962962963	-1.44897959184
103	0.0515	1.96920289855	-0.965853658537	0.6	-1.44897959184
104	0.052	10.4235507246	0.446341463415	0.6	-1.44897959184
105	0.0525	-0.848913043478	-0.965853658537	0.6	5.71428571429
106	0.053	-0.848913043478	-2.37804878049	-0.82962962963	-0.0163265306122
107	0.0535	0.560144927536	-2.37804878049	9.17777777778	-0.0163265306122
108	0.054	-0.848913043478	0.446341463415	-0.82962962963	-0.0163265306122
109	0.0545	1.96920289855	-2.37804878049	-0.82962962963	-0.0163265306122
110	0.055	3.37826086957	1.85853658537	-0.82962962963	-0.0163265306122
111	0.0555	-12.1213768116	1.85853658537	-2.25925925926	-0.0163265306122
112	0.056	-2.25797101449	1.85853658537	-0.82962962963	-10.0448979592
113	0.0565	-2.25797101449	0.446341463415	-0.82962962963	14.3102040816
114	0.057	-0.848913043478	4.68292682927	9.17777777778	-1.44897959184
115	0.0575	-3.66702898551	3.27073170732	-5.11851851852	-2.88163265306
116	0.058	0.560144927536	-8.02682926829	-2.25925925926	-1.44897959184
117	0.0585	1.96920289855	-0.965853658537	-0.82962962963	-0.0163265306122
118	0.059	-10.7123188406	1.85853658537	-0.82962962963	1.41632653061
119	0.0595	-5.07608695652	3.27073170732	0.6	-8.61224489796
120	0.06	-0.848913043478	-0.965853658537	-0.82962962963	8.57959183673
121	0.0605	-0.848913043478	0.446341463415	12.037037037	-1.44897959184
122	0.061	-2.25797101449	-0.965853658537	-2.25925925926	-0.0163265306122
123	0.0615	0.560144927536	-13.6756097561	-0.82962962963	-1.44897959184
124	0.062	-3.66702898551	-2.37804878049	-0.82962962963	-0.0163265306122
125	0.0625	-12.1213768116	0.446341463415	-0.82962962963	-1.44897959184
126	0.063	18.8778985507	-2.37804878049	-2.25925925926	-11.4775510204
127	0.0635	-0.848913043478	-0.965853658537	-3.68888888889	14.3102040816
128	0.064	-2.25797101449	0.446341463415	3.45925925926	-1.44897959184
129	0.0645	0.560144927536	0.446341463415	13.4666666667	-1.44897959184
130	0.065	4.78731884058	6.09512195122	-0.82962962963	2.84897959184
131	0.0655	0.560144927536	15.9804878049	0.6	-1.44897959184
132	0.066	-0.848913043478	-9.43902439024	-0.82962962963	-0.0163265306122
133	0.0665	3.37826086957	-2.37804878049	-2.25925925926	-1.44897959184
134	0.067	-12.1213768116	-0.965853658537	-0.82962962963	1.41632653061
135	0.0675	0.560144927536	-2.37804878049	0.6	-7.17959183673
136	0.068	3.37826086957	-0.965853658537	-13.6962962963	-1.44897959184
137	0.0685	-0.848913043478	0.446341463415	-9.40740740741	-1.44897959184
138	0.069	0.560144927536	-9.43902439024	-2.25925925926	-1.44897959184
139	0.0695	0.560144927536	-9.43902439024	0.6	-1.44897959184
140	0.07	1.96920289855	0.446341463415	0.6	2.84897959184
141	0.0705	-7.89420289855	0.446341463415	0.6	1.41632653061
142	0.071	-7.89420289855	1.85853658537	3.45925925926	-11.4775510204
143	0.0715	3.37826086957	0.446341463415	-2.25925925926	18.6081632653
144	0.072	0.560144927536	-0.965853658537	16.3259259259	-1.44897959184
145	0.0725	0.560144927536	0.446341463415	0.6	-0.0163265306122
146	0.073	0.560144927536	0.446341463415	0.6	-0.0163265306122
147	0.0735	1.96920289855	-5.20243902439	0.6	-1.44897959184
148	0.074	-10.7123188406	0.446341463415	-0.82962962963	1.41632653061
149	0.0745	-0.848913043478	-2.37804878049	-0.82962962963	-8.61224489796
150	0.075	-2.25797101449	-0.965853658537	-0.82962962963	-7.17959183673
151	0.0755	0.560144927536	-0.965853658537	6.31851851852	-5.74693877551
152	0.076	0.560144927536	0.446341463415	-6.54814814815	-1.44897959184
153	0.0765	0.560144927536	0.446341463415	7.74814814815	-4.31428571429
154	0.077	4.78731884058	-2.37804878049	-0.82962962963	-1.44897959184
155	0.0775	4.78731884058	-0.965853658537	0.6	4.28163265306
156	0.078	-12.1213768116	0.446341463415	-2.25925925926	-0.0163265306122
157	0.0785	-6.48514492754	-0.965853658537	-0.82962962963	-7.17959183673
158	0.079	1.96920289855	-2.37804878049	-6.54814814815	-0.0163265306122
159	0.0795	1.96920289855	-0.965853658537	9.17777777778	-1.44897959184
160	0.08	3.37826086957	0.446341463415	0.6	-0.0163265306122
161	0.0805	7.60543478261	4.68292682927	-0.82962962963	-1.44897959184
162	0.081	3.37826086957	1.85853658537	0.6	-0.0163265306122
163	0.0815	17.4688405797	-0.965853658537	2.02962962963	-10.0448979592
164	0.082	0.560144927536	0.446341463415	0.6	4.28163265306
165	0.0825	0.560144927536	0.446341463415	4.88888888889	4.28163265306
166	0.083	3.37826086957	0.446341463415	7.74814814815	-0.0163265306122
167	0.0835	3.37826086957	-2.37804878049	2.02962962963	-1.44897959184
168	0.084	4.78731884058	0.446341463415	-3.68888888889	-1.44897959184
169	0.0845	9.01449275362	-5.20243902439	-2.25925925926	-1.44897959184
170	0.085	-3.66702898551	0.446341463415	2.02962962963	-2.88163265306
171	0.0855	9.01449275362	0.446341463415	-0.82962962963	-4.31428571429
172	0.086	-7.89420289855	-0.965853658537	2.02962962963	5.71428571429
173	0.0865	-0.848913043478	1.85853658537	-5.11851851852	-7.17959183673
174	0.087	-3.66702898551	1.85853658537	7.74814814815	-4.31428571429
175	0.0875	-2.25797101449	-0.965853658537	-0.82962962963	-1.44897959184
176	0.088	-2.25797101449	17.3926829268	-0.82962962963	-2.88163265306
177	0.0885	-2.25797101449	-9.43902439024	0.6	-2.88163265306
178	0.089	18.8778985507	1.85853658537	0.6	1.41632653061
179	0.0895	-7.89420289855	1.85853658537	2.02962962963	12.8775510204
180	0.09	-0.848913043478	1.85853658537	0.6	-12.9102040816
181	0.0905	0.560144927536	0.446341463415	-9.40740740741	-2.88163265306
182	0.091	1.96920289855	6.09512195122	-0.82962962963	1.41632653061
183	0.0915	3.37826086957	-9.43902439024	-0.82962962963	-2.88163265306
184	0.092	4.78731884058	21.6292682927	-0.82962962963	-0.0163265306122
185	0.0925	3.37826086957	3.27073170732	3.45925925926	-1.44897959184
186	0.093	20.2869565217	0.446341463415	0.6	-4.31428571429
187	0.0935	-5.07608695652	0.446341463415	-0.82962962963	-0.0163265306122
188	0.094	3.37826086957	0.446341463415	0.6	-8.61224489796
189	0.0945	4.78731884058	0.446341463415	-0.82962962963	-1.44897959184
190	0.095	4.78731884058	-2.37804878049	2.02962962963	-1.44897959184
191	0.0955	4.78731884058	7.50731707317	-0.82962962963	1.41632653061
192	0.096	-0.848913043478	-2.37804878049	2.02962962963	-4.31428571429
193	0.0965	17.4688405797	-2.37804878049	-0.82962962963	1.41632653061
194	0.097	-7.89420289855	-2.37804878049	2.02962962963	-8.61224489796
195	0.0975	-0.848913043478	-3.79024390244	-0.82962962963	-11.4775510204
196	0.098	-2.25797101449	-3.79024390244	-2.25925925926	-0.0163265306122
197	0.0985	0.560144927536	0.446341463415	2.02962962963	-1.44897959184
198	0.099	0.560144927536	8.91951219512	3.45925925926	-1.44897959184
199	0.0995	0.560144927536	-5.20243902439	0.6	-2.88163265306
200	0.1	9.01449275362	-5.20243902439	2.02962962963	-1.44897959184
201	0.1005	-3.66702898551	-2.37804878049	3.45925925926	-1.44897959184
202	0.101	7.60543478261	-3.79024390244	2.02962962963	-8.61224489796
203	0.1015	4.78731884058	-3.79024390244	-9.40740740741	-2.88163265306
204	0.102	0.560144927536	-2.37804878049	-2.25925925926	-2.88163265306
205	0.1025	1.96920289855	0.446341463415	-2.25925925926	-1.44897959184
206	0.103	7.60543478261	15.9804878049	-0.82962962963	-1.44897959184
207	0.1035	-0.848913043478	-0.965853658537	2.02962962963	-2.88163265306
208	0.104	-0.848913043478	-2.37804878049	0.6	-2.88163265306
209	0.1045	-9.30326086957	-3.79024390244	0.6	-1.44897959184
210	0.105	0.560144927536	-0.965853658537	0.6	-1.44897959184
211	0.1055	0.560144927536	-0.965853658537	-3.68888888889	4.28163265306
212	0.106	-0.848913043478	0.446341463415	-0.82962962963	-4.31428571429
213	0.1065	0.560144927536	-12.2634146341	-0.82962962963	-1.44897959184
214	0.107	0.560144927536	-8.02682926829	0.6	-2.88163265306
215	0.1075	-3.66702898551	0.446341463415	0.6	-1.44897959184
216	0.108	17.4688405797	-2.37804878049	3.45925925926	-2.88163265306
217	0.1085	1.96920289855	-2.37804878049	-0.82962962963	15.7428571429
218	0.109	0.560144927536	-2.37804878049	0.6	1.41632653061
219	0.1095	1.96920289855	-0.965853658537	16.3259259259	-4.31428571429
220	0.11	0.560144927536	-3.79024390244	-7.97777777778	-1.44897959184
221	0.1105	1.96920289855	-0.965853658537	-0.82962962963	-0.0163265306122
222	0.111	0.560144927536	-6.61463414634	-0.82962962963	-0.0163265306122
223	0.1115	-7.89420289855	0.446341463415	0.6	-4.31428571429
224	0.112	16.0597826087	0.446341463415	0.6	-14.3428571429
225	0.1125	-0.848913043478	-0.965853658537	-3.68888888889	15.7428571429
226	0.113	-2.25797101449	-2.37804878049	17.7555555556	-1.44897959184
227	0.1135	-2.25797101449	-5.20243902439	-6.54814814815	-2.88163265306
228	0.114	-2.25797101449	0.446341463415	0.6	-1.44897959184
229	0.1145	-2.25797101449	13.156097561	0.6	-0.0163265306122
230	0.115	-7.89420289855	-2.37804878049	3.45925925926	-2.88163265306
231	0.1155	7.60543478261	-2.37804878049	0.6	-7.17959183673
232	0.116	-3.66702898551	-3.79024390244	-0.82962962963	5.71428571429
233	0.1165	-2.25797101449	-6.61463414634	0.6	-5.74693877551
234	0.117	-2.25797101449	-5.20243902439	-0.82962962963	-0.0163265306122
235	0.1175	-0.848913043478	-13.6756097561	0.6	-1.44897959184
236	0.118	0.560144927536	14.5682926829	-0.82962962963	-1.44897959184
237	0.1185	-2.25797101449	-10.8512195122	0.6	-2.88163265306
238	0.119	3.37826086957	-3.79024390244	-0.82962962963	-2.88163265306
239	0.1195	-10.7123188406	-3.79024390244	2.02962962963	-0.0163265306122
240	0.12	-2.25797101449	-0.965853658537	2.02962962963	-14.3428571429
241	0.1205	-2.25797101449	-3.79024390244	-7.97777777778	-7.17959183673
242	0.121	0.560144927536	-0.965853658537	0.6	-2.88163265306
243	0.1215	0.560144927536	-2.37804878049	0.6	-1.44897959184
244	0.122	1.96920289855	7.50731707317	2.02962962963	-4.31428571429
245	0.1225	3.37826086957	1.85853658537	0.6	-2.88163265306
246	0.123	6.19637681159	-0.965853658537	2.02962962963	-2.88163265306
247	0.1235	-3.66702898551	-2.37804878049	2.02962962963	2.84897959184
248	0.124	-0.848913043478	0.446341463415	-9.40740740741	4.28163265306
249	0.1245	-0.848913043478	-3.79024390244	2.02962962963	2.84897959184
250	0.125	-0.848913043478	-12.2634146341	0.6	-1.44897959184
251	0.1255	-0.848913043478	15.9804878049	-0.82962962963	-1.44897959184
252	0.126	-5.07608695652	-0.965853658537	-0.82962962963	-1.44897959184
253	0.1265	-12.1213768116	-0.965853658537	-0.82962962963	-5.74693877551
254	0.127	18.8778985507	-0.965853658537	2.02962962963	-12.9102040816
255	0.1275	1.96920289855	0.446341463415	-2.25925925926	14.3102040816
256	0.128	1.96920289855	0.446341463415	17.7555555556	-0.0163265306122
257	0.1285	0.560144927536	0.446341463415	-6.54814814815	-1.44897959184
258	0.129	0.560144927536	0.446341463415	2.02962962963	-4.31428571429
259	0.1295	0.560144927536	7.50731707317	0.6	-1.44897959184
260	0.13	-6.48514492754	-9.43902439024	0.6	-0.0163265306122
261	0.1305	7.60543478261	-3.79024390244	3.45925925926	-5.74693877551
262	0.131	-6.48514492754	-2.37804878049	0.6	-5.74693877551
263	0.1315	-2.25797101449	-0.965853658537	0.6	-4.31428571429
264	0.132	-0.848913043478	0.446341463415	-3.68888888889	-2.88163265306
265	0.1325	0.560144927536	-9.43902439024	0.6	-2.88163265306
266	0.133	3.37826086957	13.156097561	0.6	-1.44897959184
267	0.1335	-2.25797101449	-5.20243902439	2.02962962963	-1.44897959184
268	0.134	-13.5304347826	-3.79024390244	-0.82962962963	-1.44897959184
269	0.1345	-5.07608695652	-0.965853658537	-0.82962962963	-1.44897959184
270	0.135	-2.25797101449	-0.965853658537	2.02962962963	-5.74693877551
271	0.1355	-2.25797101449	0.446341463415	-0.82962962963	-1.44897959184
272	0.136	-0.848913043478	-0.965853658537	-2.25925925926	-2.88163265306
273	0.1365	0.560144927536	-8.02682926829	0.6	-1.44897959184
274	0.137	-0.848913043478	6.09512195122	-0.82962962963	-1.44897959184
275	0.1375	0.560144927536	1.85853658537	0.6	-1.44897959184
276	0.138	7.60543478261	1.85853658537	3.45925925926	1.41632653061
277	0.1385	0.560144927536	0.446341463415	4.88888888889	4.28163265306
278	0.139	1.96920289855	-0.965853658537	-2.25925925926	-2.88163265306
279	0.1395	3.37826086957	0.446341463415	-3.68888888889	-0.0163265306122
280	0.14	-0.848913043478	-6.61463414634	-0.82962962963	-1.44897959184
281	0.1405	-0.848913043478	-9.43902439024	0.6	-0.0163265306122
282	0.141	0.560144927536	-6.61463414634	2.02962962963	-1.44897959184
283	0.1415	11.8326086957	-2.37804878049	-0.82962962963	-2.88163265306
284	0.142	-7.89420289855	-0.965853658537	-0.82962962963	-0.0163265306122
285	0.1425	-0.848913043478	0.446341463415	2.02962962963	-14.3428571429
286	0.143	-0.848913043478	-2.37804878049	-6.54814814815	-2.88163265306
287	0.1435	-2.25797101449	0.446341463415	-0.82962962963	-2.88163265306
288	0.144	0.560144927536	-2.37804878049	-0.82962962963	-2.88163265306
289	0.1445	1.96920289855	13.156097561	-0.82962962963	-2.88163265306
290	0.145	-9.30326086957	-3.79024390244	-0.82962962963	-1.44897959184
291	0.1455	16.0597826087	-3.79024390244	-0.82962962963	-11.4775510204
292	0.146	-2.25797101449	-2.37804878049	0.6	15.7428571429
293	0.1465	0.560144927536	-0.965853658537	20.6148148148	-2.88163265306
294	0.147	-2.25797101449	-6.61463414634	-0.82962962963	-5.74693877551
295	0.1475	-2.25797101449	-15.087804878	-0.82962962963	-4.31428571429
296	0.148	-2.25797101449	10.3317073171	-0.82962962963	-5.74693877551
297	0.1485	-6.48514492754	-3.79024390244	-0.82962962963	-2.88163265306
298	0.149	16.0597826087	-0.965853658537	3.45925925926	-2.88163265306
299	0.1495	-3.66702898551	-0.965853658537	-0.82962962963	14.3102040816
300	0.15	-3.66702898551	-2.37804878049	0.6	-1.44897959184
301	0.1505	-5.07608695652	-2.37804878049	4.88888888889	-8.61224489796
302	0.151	-5.07608695652	-0.965853658537	-6.54814814815	-0.0163265306122
303	0.1515	-3.66702898551	-10.8512195122	2.02962962963	-0.0163265306122
304	0.152	-6.48514492754	0.446341463415	0.6	-1.44897959184
305	0.1525	-13.5304347826	-2.37804878049	-0.82962962963	-0.0163265306122
306	0.153	-12.1213768116	-2.37804878049	-2.25925925926	-2.88163265306
307	0.1535	-3.66702898551	-0.965853658537	-13.6962962963	-2.88163265306
308	0.154	-5.07608695652	0.446341463415	9.17777777778	-5.74693877551
309	0.1545	-2.25797101449	-2.37804878049	-3.68888888889	-2.88163265306
310	0.155	-5.07608695652	-13.6756097561	0.6	-1.44897959184
311	0.1555	-5.07608695652	-2.37804878049	-0.82962962963	-1.44897959184
312	0.156	0.560144927536	-8.02682926829	0.6	-2.88163265306
313	0.1565	21.6960144928	-2.37804878049	-0.82962962963	1.41632653061
314	0.157	3.37826086957	-2.37804878049	3.45925925926	-8.61224489796
315	0.1575	3.37826086957	-3.79024390244	-7.97777777778	-1.44897959184
316	0.158	3.37826086957	-0.965853658537	-6.54814814815	-4.31428571429
317	0.1585	3.37826086957	-3.79024390244	0.6	-0.0163265306122
318	0.159	1.96920289855	-5.20243902439	2.02962962963	-1.44897959184
319	0.1595	-3.66702898551	-3.79024390244	2.02962962963	-1.44897959184
320	0.16	9.01449275362	-2.37804878049	-2.25925925926	-7.17959183673
321	0.1605	-2.25797101449	-0.965853658537	-2.25925925926	5.71428571429
322	0.161	-0.848913043478	1.85853658537	2.02962962963	8.57959183673
323	0.1615	-2.25797101449	-0.965853658537	-2.25925925926	1.41632653061
324	0.162	-0.848913043478	0.446341463415	0.6	2.84897959184
325	0.1625	-2.25797101449	10.3317073171	2.02962962963	-1.44897959184
326	0.163	-5.07608695652	0.446341463415	0.6	-4.31428571429
327	0.1635	0.560144927536	-0.965853658537	0.6	-2.88163265306
328	0.164	-5.07608695652	0.446341463415	-0.82962962963	17.1755102041
329	0.1645	0.560144927536	1.85853658537	0.6	-2.88163265306
330	0.165	1.96920289855	-0.965853658537	16.3259259259	-1.44897959184
331	0.1655	3.37826086957	0.446341463415	-9.40740740741	-1.44897959184
332	0.166	0.560144927536	0.446341463415	0.6	-1.44897959184
333	0.1665	1.96920289855	4.68292682927	-0.82962962963	-1.44897959184
334	0.167	-10.7123188406	0.446341463415	0.6	-2.88163265306
335	0.1675	20.2869565217	1.85853658537	0.6	-12.9102040816
336	0.168	-0.848913043478	1.85853658537	-2.25925925926	17.1755102041
337	0.1685	0.560144927536	3.27073170732	0.6	-1.44897959184
338	0.169	-2.25797101449	3.27073170732	13.4666666667	-1.44897959184
339	0.1695	-0.848913043478	-0.965853658537	0.6	-1.44897959184
340	0.17	-0.848913043478	8.91951219512	2.02962962963	-4.31428571429
341	0.1705	0.560144927536	0.446341463415	2.02962962963	-1.44897959184
342	0.171	-7.89420289855	1.85853658537	2.02962962963	-1.44897959184
343	0.1715	-5.07608695652	1.85853658537	-0.82962962963	-8.61224489796
344	0.172	-2.25797101449	4.68292682927	0.6	5.71428571429
345	0.1725	-0.848913043478	4.68292682927	17.7555555556	-2.88163265306
346	0.173	-0.848913043478	-10.8512195122	2.02962962963	-4.31428571429
347	0.1735	-2.25797101449	23.0414634146	0.6	-4.31428571429
348	0.174	-5.07608695652	1.85853658537	0.6	-1.44897959184
349	0.1745	-12.1213768116	4.68292682927	2.02962962963	-4.31428571429
350	0.175	16.0597826087	1.85853658537	2.02962962963	-8.61224489796
351	0.1755	-0.848913043478	0.446341463415	2.02962962963	7.14693877551
352	0.176	-0.848913043478	3.27073170732	-5.11851851852	-7.17959183673
353	0.1765	-2.25797101449	6.09512195122	0.6	-1.44897959184
354	0.177	-0.848913043478	-9.43902439024	2.02962962963	-0.0163265306122
355	0.1775	0.560144927536	-2.37804878049	-0.82962962963	1.41632653061
356	0.178	4.78731884058	1.85853658537	4.88888888889	-0.0163265306122
357	0.1785	-3.66702898551	1.85853658537	3.45925925926	-4.31428571429
358	0.179	0.560144927536	0.446341463415	0.6	-2.88163265306
359	0.1795	-0.848913043478	1.85853658537	0.6	-1.44897959184
360	0.18	1.96920289855	1.85853658537	-2.25925925926	1.41632653061
361	0.1805	-0.848913043478	-5.20243902439	2.02962962963	-0.0163265306122
362	0.181	1.96920289855	6.09512195122	0.6	-0.0163265306122
363	0.1815	4.78731884058	-0.965853658537	3.45925925926	-0.0163265306122
364	0.182	-7.89420289855	3.27073170732	0.6	-2.88163265306
365	0.1825	-5.07608695652	3.27073170732	3.45925925926	-0.0163265306122
366	0.183	0.560144927536	1.85853658537	3.45925925926	-7.17959183673
367	0.1835	0.560144927536	1.85853658537	4.88888888889	1.41632653061
368	0.184	-2.25797101449	3.27073170732	7.74814814815	-0.0163265306122
369	0.1845	1.96920289855	4.68292682927	0.6	-1.44897959184
370	0.185	-0.848913043478	1.85853658537	3.45925925926	-1.44897959184
371	0.1855	0.560144927536	0.446341463415	0.6	-1.44897959184
372	0.186	9.01449275362	-0.965853658537	-0.82962962963	-0.0163265306122
373	0.1865	-0.848913043478	1.85853658537	3.45925925926	11.4448979592
374	0.187	-2.25797101449	-0.965853658537	3.45925925926	-4.31428571429
375	0.1875	-2.25797101449	0.446341463415	-9.40740740741	-2.88163265306
376	0.188	0.560144927536	-0.965853658537	16.3259259259	-1.44897959184
377	0.1885	-2.25797101449	0.446341463415	-7.97777777778	-0.0163265306122
378	0.189	-3.66702898551	0.446341463415	2.02962962963	-1.44897959184
379	0.1895	-7.89420289855	1.85853658537	3.45925925926	-2.88163265306
380	0.19	9.01449275362	-0.965853658537	2.02962962963	-7.17959183673
381	0.1905	-5.07608695652	0.446341463415	-0.82962962963	-1.44897959184
382	0.191	-0.848913043478	-0.965853658537	-7.97777777778	-7.17959183673
383	0.1915	-2.25797101449	4.68292682927	-0.82962962963	-1.44897959184
384	0.192	-2.25797101449	-10.8512195122	2.02962962963	-1.44897959184
385	0.1925	-0.848913043478	17.3926829268	3.45925925926	-4.31428571429
386	0.193	-5.07608695652	1.85853658537	-0.82962962963	-1.44897959184
387	0.1935	-12.1213768116	0.446341463415	0.6	-4.31428571429
388	0.194	-0.848913043478	-2.37804878049	3.45925925926	1.41632653061
389	0.1945	-2.25797101449	1.85853658537	0.6	-2.88163265306
390	0.195	-0.848913043478	3.27073170732	14.8962962963	-1.44897959184
391	0.1955	-2.25797101449	3.27073170732	-7.97777777778	-4.31428571429
392	0.196	-5.07608695652	4.68292682927	2.02962962963	-1.44897959184
393	0.1965	-5.07608695652	-5.20243902439	2.02962962963	-4.31428571429
394	0.197	-0.848913043478	0.446341463415	-0.82962962963	-4.31428571429
395	0.1975	-0.848913043478	1.85853658537	2.02962962963	-0.0163265306122
396	0.198	-3.66702898551	3.27073170732	-0.82962962963	-1.44897959184
397	0.1985	-0.848913043478	6.09512195122	4.88888888889	-1.44897959184
398	0.199	0.560144927536	3.27073170732	0.6	-2.88163265306
399	0.1995	-2.25797101449	8.91951219512	3.45925925926	-1.44897959184
400	0.2	-3.66702898551	-3.79024390244	2.02962962963	-2.88163265306
401	0.2005	-0.848913043478	4.68292682927	2.02962962963	-0.0163265306122
402	0.201	-12.1213768116	6.09512195122	2.02962962963	1.41632653061
403	0.2015	-12.1213768116	6.09512195122	0.6	-5.74693877551
404	0.202	-0.848913043478	6.09512195122	3.45925925926	-10.0448979592
405	0.2025	-0.848913043478	1.85853658537	4.88888888889	15.7428571429
406	0.203	-0.848913043478	3.27073170732	-7.97777777778	-11.4775510204
407	0.2035	0.560144927536	20.2170731707	0.6	-1.44897959184
408	0.204	-2.25797101449	-3.79024390244	6.31851851852	-0.0163265306122
409	0.2045	-2.25797101449	4.68292682927	3.45925925926	-1.44897959184
410	0.205	4.78731884058	4.68292682927	3.45925925926	-1.44897959184
411	0.2055	0.560144927536	3.27073170732	-2.25925925926	-5.74693877551
412	0.206	-0.848913043478	6.09512195122	12.037037037	-1.44897959184
413	0.2065	-0.848913043478	3.27073170732	0.6	-2.88163265306
414	0.207	-2.25797101449	-8.02682926829	2.02962962963	-1.44897959184
415	0.2075	3.37826086957	21.6292682927	3.45925925926	-2.88163265306
416	0.208	-10.7123188406	6.09512195122	4.88888888889	-1.44897959184
417	0.2085	16.0597826087	3.27073170732	2.02962962963	-1.44897959184
418	0.209	-0.848913043478	3.27073170732	3.45925925926	1.41632653061
419	0.2095	-0.848913043478	4.68292682927	-6.54814814815	-4.31428571429
420	0.21	0.560144927536	1.85853658537	19.1851851852	-4.31428571429
421	0.2105	0.560144927536	-5.20243902439	2.02962962963	-1.44897959184
422	0.211	0.560144927536	25.8658536585	3.45925925926	-4.31428571429
423	0.2115	-0.848913043478	6.09512195122	4.88888888889	-1.44897959184
424	0.212	0.560144927536	6.09512195122	4.88888888889	-1.44897959184
425	0.2125	-0.848913043478	4.68292682927	6.31851851852	-5.74693877551
426	0.213	-0.848913043478	4.68292682927	-5.11851851852	-2.88163265306
427	0.2135	-0.848913043478	6.09512195122	-0.82962962963	-1.44897959184
428	0.214	-0.848913043478	7.50731707317	3.45925925926	-0.0163265306122
429	0.2145	-0.848913043478	-6.61463414634	3.45925925926	-2.88163265306
430	0.215	7.60543478261	6.09512195122	3.45925925926	-1.44897959184
431	0.2155	-12.1213768116	4.68292682927	6.31851851852	-0.0163265306122
432	0.216	-7.89420289855	3.27073170732	6.31851851852	-10.0448979592
433	0.2165	-0.848913043478	4.68292682927	4.88888888889	-8.61224489796
434	0.217	-0.848913043478	3.27073170732	3.45925925926	-0.0163265306122
435	0.2175	0.560144927536	8.91951219512	2.02962962963	-0.0163265306122
436	0.218	1.96920289855	20.2170731707	2.02962962963	-1.44897959184
437	0.2185	-0.848913043478	-5.20243902439	2.02962962963	-1.44897959184
438	0.219	4.78731884058	4.68292682927	4.88888888889	-2.88163265306
439	0.2195	-9.30326086957	7.50731707317	4.88888888889	-1.44897959184
440	0.22	0.560144927536	7.50731707317	3.45925925926	-1.44897959184
441	0.2205	0.560144927536	6.09512195122	0.6	12.8775510204
442	0.221	0.560144927536	4.68292682927	4.88888888889	-1.44897959184
443	0.2215	-0.848913043478	-2.37804878049	3.45925925926	-1.44897959184
444	0.222	-0.848913043478	21.6292682927	2.02962962963	-2.88163265306
445	0.2225	-0.848913043478	3.27073170732	-0.82962962963	1.41632653061
446	0.223	16.0597826087	4.68292682927	3.45925925926	-14.3428571429
447	0.2235	-3.66702898551	3.27073170732	-0.82962962963	14.3102040816
448	0.224	-5.07608695652	7.50731707317	7.74814814815	-4.31428571429
449	0.2245	-0.848913043478	3.27073170732	20.6148148148	-1.44897959184
450	0.225	-0.848913043478	4.68292682927	-7.97777777778	-0.0163265306122
451	0.2255	0.560144927536	10.3317073171	-0.82962962963	-1.44897959184
452	0.226	-7.89420289855	4.68292682927	0.6	-1.44897959184
453	0.2265	1.96920289855	6.09512195122	0.6	-1.44897959184
454	0.227	-12.1213768116	6.09512195122	4.88888888889	-0.0163265306122
455	0.2275	-2.25797101449	6.09512195122	4.88888888889	-10.0448979592
456	0.228	-0.848913043478	4.68292682927	-2.25925925926	-4.31428571429
457	0.2285	-2.25797101449	6.09512195122	7.74814814815	-2.88163265306
458	0.229	-3.66702898551	7.50731707317	2.02962962963	-2.88163265306
459	0.2295	-3.66702898551	21.6292682927	2.02962962963	-1.44897959184
460	0.23	-0.848913043478	-5.20243902439	2.02962962963	-5.74693877551
461	0.2305	-10.7123188406	3.27073170732	2.02962962963	-1.44897959184
462	0.231	-2.25797101449	1.85853658537	0.6	-10.0448979592
463	0.2315	-2.25797101449	4.68292682927	-2.25925925926	-2.88163265306
464	0.232	1.96920289855	4.68292682927	16.3259259259	-0.0163265306122
465	0.2325	-2.25797101449	4.68292682927	3.45925925926	-2.88163265306
466	0.233	-2.25797101449	1.85853658537	4.88888888889	-0.0163265306122
467	0.2335	0.560144927536	6.09512195122	3.45925925926	-2.88163265306
468	0.234	-5.07608695652	4.68292682927	3.45925925926	-1.44897959184
469	0.2345	0.560144927536	4.68292682927	4.88888888889	-7.17959183673
470	0.235	7.60543478261	3.27073170732	-0.82962962963	8.57959183673
471	0.2355	7.60543478261	4.68292682927	20.6148148148	-1.44897959184
472	0.236	7.60543478261	1.85853658537	0.6	-2.88163265306
473	0.2365	4.78731884058	-3.79024390244	2.02962962963	-1.44897959184
474	0.237	7.60543478261	21.6292682927	4.88888888889	-0.0163265306122
475	0.2375	1.96920289855	4.68292682927	4.88888888889	-1.44897959184
476	0.238	10.4235507246	4.68292682927	2.02962962963	-1.44897959184
477	0.2385	-5.07608695652	6.09512195122	2.02962962963	2.84897959184
478	0.239	0.560144927536	8.91951219512	3.45925925926	8.57959183673
479	0.2395	-2.25797101449	4.68292682927	-0.82962962963	1.41632653061
480	0.24	0.560144927536	8.91951219512	20.6148148148	-2.88163265306
481	0.2405	0.560144927536	-5.20243902439	2.02962962963	-2.88163265306
482	0.241	-5.07608695652	4.68292682927	4.88888888889	-1.44897959184
483	0.2415	0.560144927536	4.68292682927	4.88888888889	-1.44897959184
484	0.242	3.37826086957	7.50731707317	4.88888888889	-4.31428571429
485	0.2425	7.60543478261	6.09512195122	13.4666666667	-1.44897959184
486	0.243	0.560144927536	7.50731707317	3.45925925926	-4.31428571429
487	0.2435	3.37826086957	6.09512195122	2.02962962963	-2.88163265306
488	0.244	1.96920289855	21.6292682927	3.45925925926	-2.88163265306
489	0.2445	1.96920289855	-3.79024390244	4.88888888889	-4.31428571429
490	0.245	16.0597826087	6.09512195122	7.74814814815	-4.31428571429
491	0.2455	-5.07608695652	3.27073170732	4.88888888889	-4.31428571429
492	0.246	1.96920289855	3.27073170732	4.88888888889	-1.44897959184
493	0.2465	4.78731884058	1.85853658537	0.6	-0.0163265306122
494	0.247	3.37826086957	6.09512195122	3.45925925926	-1.44897959184
495	0.2475	-2.25797101449	21.6292682927	4.88888888889	-1.44897959184
496	0.248	0.560144927536	-6.61463414634	4.88888888889	-4.31428571429
497	0.2485	13.2416666667	3.27073170732	6.31851851852	1.41632653061
498	0.249	-6.48514492754	1.85853658537	4.88888888889	1.41632653061
499	0.2495	0.560144927536	4.68292682927	4.88888888889	-5.74693877551
500	0.25	0.560144927536	3.27073170732	16.3259259259	-1.44897959184
501	0.2505	3.37826086957	-10.8512195122	6.31851851852	-1.44897959184
502	0.251	0.560144927536	17.3926829268	2.02962962963	-0.0163265306122
503	0.2515	-2.25797101449	-3.79024390244	0.6	-1.44897959184
504	0.252	7.60543478261	3.27073170732	2.02962962963	-2.88163265306
505	0.2525	-5.07608695652	3.27073170732	3.45925925926	11.4448979592
506	0.253	0.560144927536	1.85853658537	0.6	-7.17959183673
507	0.2535	1.96920289855	3.27073170732	-2.25925925926	-4.31428571429
508	0.254	3.37826086957	1.85853658537	-3.68888888889	-0.0163265306122
509	0.2545	0.560144927536	-5.20243902439	3.45925925926	-2.88163265306
510	0.255	1.96920289855	14.5682926829	2.02962962963	-2.88163265306
511	0.2555	-10.7123188406	4.68292682927	2.02962962963	-1.44897959184
512	0.256	18.8778985507	4.68292682927	3.45925925926	4.28163265306
513	0.2565	-7.89420289855	3.27073170732	4.88888888889	18.6081632653
514	0.257	0.560144927536	4.68292682927	3.45925925926	-10.0448979592
515	0.2575	-0.848913043478	6.09512195122	-7.97777777778	-2.88163265306
516	0.258	0.560144927536	1.85853658537	3.45925925926	-2.88163265306
517	0.2585	0.560144927536	11.743902439	2.02962962963	-1.44897959184
518	0.259	-0.848913043478	0.446341463415	2.02962962963	-1.44897959184
519	0.2595	16.0597826087	4.68292682927	2.02962962963	4.28163265306
520	0.26	-3.66702898551	11.743902439	2.02962962963	11.4448979592
521	0.2605	0.560144927536	6.09512195122	2.02962962963	-1.44897959184
522	0.261	1.96920289855	4.68292682927	-6.54814814815	-5.74693877551
523	0.2615	3.37826086957	8.91951219512	4.88888888889	-1.44897959184
524	0.262	1.96920289855	-6.61463414634	3.45925925926	-1.44897959184
525	0.2625	0.560144927536	-5.20243902439	4.88888888889	-1.44897959184
526	0.263	0.560144927536	4.68292682927	2.02962962963	-1.44897959184
527	0.2635	3.37826086957	3.27073170732	2.02962962963	-2.88163265306
528	0.264	0.560144927536	4.68292682927	6.31851851852	4.28163265306
529	0.2645	1.96920289855	4.68292682927	-7.97777777778	-1.44897959184
530	0.265	-0.848913043478	4.68292682927	-0.82962962963	-1.44897959184
531	0.2655	-3.66702898551	6.09512195122	2.02962962963	-1.44897959184
532	0.266	1.96920289855	-6.61463414634	3.45925925926	-1.44897959184
533	0.2665	-0.848913043478	1.85853658537	4.88888888889	-4.31428571429
534	0.267	-7.89420289855	4.68292682927	2.02962962963	-2.88163265306
535	0.2675	0.560144927536	4.68292682927	3.45925925926	-1.44897959184
536	0.268	-0.848913043478	4.68292682927	0.6	-11.4775510204
537	0.2685	-2.25797101449	3.27073170732	6.31851851852	-4.31428571429
538	0.269	-0.848913043478	3.27073170732	-0.82962962963	-2.88163265306
539	0.2695	1.96920289855	20.2170731707	2.02962962963	-2.88163265306
540	0.27	-0.848913043478	6.09512195122	2.02962962963	-0.0163265306122
541	0.2705	-13.5304347826	6.09512195122	4.88888888889	-2.88163265306
542	0.271	18.8778985507	1.85853658537	3.45925925926	-12.9102040816
543	0.2715	0.560144927536	6.09512195122	3.45925925926	12.8775510204
544	0.272	-2.25797101449	4.68292682927	0.6	-8.61224489796
545	0.2725	-2.25797101449	8.91951219512	-2.25925925926	-2.88163265306
546	0.273	-0.848913043478	-6.61463414634	0.6	1.41632653061
547	0.2735	-0.848913043478	-2.37804878049	2.02962962963	-5.74693877551
548	0.274	-3.66702898551	6.09512195122	3.45925925926	-2.88163265306
549	0.2745	0.560144927536	4.68292682927	3.45925925926	-12.9102040816
550	0.275	-0.848913043478	0.446341463415	-0.82962962963	-10.0448979592
551	0.2755	-0.848913043478	3.27073170732	-2.25925925926	-1.44897959184
552	0.276	-2.25797101449	4.68292682927	4.88888888889	-2.88163265306
553	0.2765	0.560144927536	8.91951219512	3.45925925926	-1.44897959184
554	0.277	0.560144927536	-0.965853658537	2.02962962963	-2.88163265306
555	0.2775	0.560144927536	-0.965853658537	0.6	-1.44897959184
556	0.278	-0.848913043478	4.68292682927	3.45925925926	5.71428571429
557	0.2785	0.560144927536	3.27073170732	7.74814814815	-7.17959183673
558	0.279	-0.848913043478	6.09512195122	-7.97777777778	-2.88163265306
559	0.2795	0.560144927536	6.09512195122	-7.97777777778	-4.31428571429
560	0.28	-2.25797101449	3.27073170732	0.6	-4.31428571429
561	0.2805	0.560144927536	3.27073170732	3.45925925926	-1.44897959184
562	0.281	-9.30326086957	4.68292682927	2.02962962963	-2.88163265306
563	0.2815	13.2416666667	3.27073170732	0.6	-11.4775510204
564	0.282	-2.25797101449	6.09512195122	-0.82962962963	7.14693877551
565	0.2825	-0.848913043478	4.68292682927	9.17777777778	-4.31428571429
566	0.283	-0.848913043478	8.91951219512	20.6148148148	-0.0163265306122
567	0.2835	-0.848913043478	8.91951219512	-2.25925925926	-4.31428571429
568	0.284	0.560144927536	-5.20243902439	0.6	-1.44897959184
569	0.2845	3.37826086957	-5.20243902439	3.45925925926	-1.44897959184
570	0.285	-0.848913043478	0.446341463415	3.45925925926	-1.44897959184
571	0.2855	-5.07608695652	1.85853658537	2.02962962963	-1.44897959184
572	0.286	0.560144927536	4.68292682927	2.02962962963	-7.17959183673
573	0.2865	0.560144927536	4.68292682927	3.45925925926	-1.44897959184
574	0.287	-0.848913043478	-0.965853658537	3.45925925926	-0.0163265306122
575	0.2875	0.560144927536	10.3317073171	4.88888888889	-0.0163265306122
576	0.288	0.560144927536	13.156097561	3.45925925926	-1.44897959184
577	0.2885	1.96920289855	6.09512195122	6.31851851852	-1.44897959184
578	0.289	4.78731884058	4.68292682927	2.02962962963	-0.0163265306122
579	0.2895	-3.66702898551	4.68292682927	0.6	-8.61224489796
580	0.29	0.560144927536	3.27073170732	-6.54814814815	-4.31428571429
581	0.2905	1.96920289855	4.68292682927	16.3259259259	-2.88163265306
582	0.291	-0.848913043478	-3.79024390244	2.02962962963	-0.0163265306122
583	0.2915	4.78731884058	24.4536585366	2.02962962963	-1.44897959184
584	0.292	1.96920289855	6.09512195122	0.6	-1.44897959184
585	0.2925	23.1050724638	4.68292682927	-0.82962962963	-4.31428571429
586	0.293	4.78731884058	6.09512195122	3.45925925926	7.14693877551
587	0.2935	3.37826086957	4.68292682927	-0.82962962963	-2.88163265306
588	0.294	0.560144927536	6.09512195122	7.74814814815	-2.88163265306
589	0.2945	0.560144927536	4.68292682927	-7.97777777778	-1.44897959184
590	0.295	0.560144927536	18.8048780488	3.45925925926	-2.88163265306
591	0.2955	3.37826086957	-2.37804878049	4.88888888889	-2.88163265306
592	0.296	-5.07608695652	6.09512195122	4.88888888889	-1.44897959184
593	0.2965	1.96920289855	6.09512195122	3.45925925926	-8.61224489796
594	0.297	0.560144927536	4.68292682927	0.6	8.57959183673
595	0.2975	0.560144927536	8.91951219512	17.7555555556	-0.0163265306122
596	0.298	-2.25797101449	4.68292682927	0.6	1.41632653061
597	0.2985	0.560144927536	-3.79024390244	-0.82962962963	-1.44897959184
598	0.299	3.37826086957	20.2170731707	3.45925925926	-2.88163265306
599	0.2995	0.560144927536	7.50731707317	0.6	-1.44897959184
600	0.3	14.6507246377	4.68292682927	4.88888888889	-1.44897959184
601	0.3005	0.560144927536	6.09512195122	-0.82962962963	14.3102040816
602	0.301	-3.66702898551	3.27073170732	2.02962962963	14.3102040816
603	0.3015	-5.07608695652	4.68292682927	-2.25925925926	-0.0163265306122
604	0.302	-0.848913043478	0.446341463415	3.45925925926	-2.88163265306
605	0.3025	0.560144927536	6.09512195122	0.6	-2.88163265306
606	0.303	0.560144927536	1.85853658537	0.6	-2.88163265306
607	0.3035	-12.1213768116	6.09512195122	0.6	-1.44897959184
608	0.304	-2.25797101449	4.68292682927	-0.82962962963	-12.9102040816
609	0.3045	0.560144927536	3.27073170732	-9.40740740741	-4.31428571429
610	0.305	1.96920289855	6.09512195122	19.1851851852	-1.44897959184
611	0.3055	1.96920289855	6.09512195122	2.02962962963	-2.88163265306
612	0.306	3.37826086957	0.446341463415	0.6	-2.88163265306
613	0.3065	-0.848913043478	4.68292682927	0.6	-0.0163265306122
614	0.307	-14.9394927536	3.27073170732	0.6	-2.88163265306
615	0.3075	17.4688405797	4.68292682927	0.6	1.41632653061
616	0.308	-3.66702898551	4.68292682927	6.31851851852	-2.88163265306
617	0.3085	-2.25797101449	1.85853658537	20.6148148148	-1.44897959184
618	0.309	-3.66702898551	0.446341463415	-7.97777777778	-1.44897959184
619	0.3095	-0.848913043478	8.91951219512	2.02962962963	-1.44897959184
620	0.31	-0.848913043478	21.6292682927	3.45925925926	-1.44897959184
621	0.3105	-13.5304347826	1.85853658537	4.88888888889	-1.44897959184
622	0.311	17.4688405797	4.68292682927	2.02962962963	-12.9102040816
623	0.3115	-5.07608695652	0.446341463415	2.02962962963	14.3102040816
624	0.312	-3.66702898551	3.27073170732	3.45925925926	-1.44897959184
625	0.3125	-2.25797101449	4.68292682927	16.3259259259	-2.88163265306
626	0.313	-2.25797101449	3.27073170732	-7.97777777778	-2.88163265306
627	0.3135	-2.25797101449	11.743902439	-0.82962962963	-0.0163265306122
628	0.314	-0.848913043478	-8.02682926829	3.45925925926	-1.44897959184
629	0.3145	-16.3485507246	6.09512195122	-0.82962962963	-1.44897959184
630	0.315	-10.7123188406	6.09512195122	3.45925925926	-12.9102040816
631	0.3155	-0.848913043478	4.68292682927	-0.82962962963	-8.61224489796
632	0.316	0.560144927536	6.09512195122	-9.40740740741	-0.0163265306122
633	0.3165	-0.848913043478	3.27073170732	19.1851851852	-0.0163265306122
634	0.317	0.560144927536	3.27073170732	0.6	-1.44897959184
635	0.3175	1.96920289855	13.156097561	-0.82962962963	-0.0163265306122
636	0.318	4.78731884058	1.85853658537	-0.82962962963	-1.44897959184
637	0.3185	14.6507246377	1.85853658537	0.6	2.84897959184
638	0.319	-2.25797101449	1.85853658537	3.45925925926	12.8775510204
639	0.3195	1.96920289855	3.27073170732	2.02962962963	-11.4775510204
640	0.32	0.560144927536	4.68292682927	-7.97777777778	-1.44897959184
641	0.3205	0.560144927536	4.68292682927	14.8962962963	-4.31428571429
642	0.321	-0.848913043478	3.27073170732	2.02962962963	-2.88163265306
643	0.3215	-0.848913043478	6.09512195122	-0.82962962963	-0.0163265306122
644	0.322	-13.5304347826	6.09512195122	0.6	2.84897959184
645	0.3225	-12.1213768116	4.68292682927	3.45925925926	-11.4775510204
646	0.323	-5.07608695652	1.85853658537	-0.82962962963	-2.88163265306
647	0.3235	-2.25797101449	3.27073170732	20.6148148148	-2.88163265306
648	0.324	-3.66702898551	3.27073170732	-0.82962962963	-1.44897959184
649	0.3245	-3.66702898551	0.446341463415	2.02962962963	-0.0163265306122
650	0.325	-3.66702898551	14.5682926829	0.6	-1.44897959184
651	0.3255	-10.7123188406	4.68292682927	0.6	-0.0163265306122
652	0.326	-2.25797101449	4.68292682927	0.6	-12.9102040816
653	0.3265	-0.848913043478	4.68292682927	-0.82962962963	12.8775510204
654	0.327	-0.848913043478	6.09512195122	17.7555555556	-2.88163265306
655	0.3275	0.560144927536	4.68292682927	2.02962962963	-1.44897959184
656	0.328	-0.848913043478	-0.965853658537	0.6	-1.44897959184
657	0.3285	-0.848913043478	7.50731707317	0.6	-2.88163265306
658	0.329	-5.07608695652	8.91951219512	0.6	-1.44897959184
659	0.3295	10.4235507246	8.91951219512	3.45925925926	-5.74693877551
660	0.33	0.560144927536	6.09512195122	0.6	7.14693877551
661	0.3305	-2.25797101449	7.50731707317	-6.54814814815	1.41632653061
662	0.331	0.560144927536	13.156097561	-2.25925925926	-2.88163265306
663	0.3315	3.37826086957	-6.61463414634	0.6	-2.88163265306
664	0.332	1.96920289855	-0.965853658537	0.6	-2.88163265306
665	0.3325	-0.848913043478	25.8658536585	2.02962962963	-5.74693877551
666	0.333	21.6960144928	6.09512195122	0.6	-2.88163265306
667	0.3335	0.560144927536	4.68292682927	-0.82962962963	18.6081632653
668	0.334	1.96920289855	4.68292682927	2.02962962963	14.3102040816
669	0.3345	0.560144927536	1.85853658537	-5.11851851852	-0.0163265306122
670	0.335	3.37826086957	0.446341463415	0.6	-2.88163265306
671	0.3355	0.560144927536	13.156097561	0.6	-0.0163265306122
672	0.336	3.37826086957	4.68292682927	2.02962962963	-0.0163265306122
673	0.3365	-12.1213768116	4.68292682927	2.02962962963	1.41632653061
674	0.337	-7.89420289855	6.09512195122	3.45925925926	-11.4775510204
675	0.3375	0.560144927536	1.85853658537	-0.82962962963	15.7428571429
676	0.338	0.560144927536	4.68292682927	-0.82962962963	-8.61224489796
677	0.3385	0.560144927536	6.09512195122	-5.11851851852	-0.0163265306122
678	0.339	1.96920289855	-5.20243902439	0.6	-1.44897959184
679	0.3395	7.60543478261	6.09512195122	3.45925925926	-0.0163265306122
680	0.34	-12.1213768116	6.09512195122	-0.82962962963	-1.44897959184
681	0.3405	17.4688405797	8.91951219512	0.6	-1.44897959184
682	0.341	1.96920289855	4.68292682927	-5.11851851852	-0.0163265306122
683	0.3415	4.78731884058	6.09512195122	3.45925925926	-0.0163265306122
684	0.342	3.37826086957	10.3317073171	-0.82962962963	-2.88163265306
685	0.3425	0.560144927536	-3.79024390244	0.6	-1.44897959184
686	0.343	3.37826086957	-0.965853658537	0.6	-1.44897959184
687	0.3435	-7.89420289855	6.09512195122	-3.68888888889	-0.0163265306122
688	0.344	-5.07608695652	8.91951219512	3.45925925926	-12.9102040816
689	0.3445	1.96920289855	7.50731707317	-0.82962962963	17.1755102041
690	0.345	0.560144927536	6.09512195122	3.45925925926	-1.44897959184
691	0.3455	0.560144927536	6.09512195122	-10.837037037	-8.61224489796
692	0.346	0.560144927536	10.3317073171	-0.82962962963	-1.44897959184
693	0.3465	0.560144927536	7.50731707317	-7.97777777778	-2.88163265306
694	0.347	-2.25797101449	7.50731707317	0.6	-5.74693877551
695	0.3475	1.96920289855	10.3317073171	-0.82962962963	1.41632653061
696	0.348	-6.48514492754	10.3317073171	0.6	-2.88163265306
697	0.3485	-5.07608695652	6.09512195122	-0.82962962963	8.57959183673
698	0.349	-5.07608695652	8.91951219512	16.3259259259	-2.88163265306
699	0.3495	-6.48514492754	4.68292682927	-0.82962962963	-2.88163265306
700	0.35	-2.25797101449	-5.20243902439	0.6	-2.88163265306
701	0.3505	0.560144927536	24.4536585366	0.6	-1.44897959184
702	0.351	-12.1213768116	7.50731707317	-0.82962962963	-1.44897959184
703	0.3515	17.4688405797	6.09512195122	3.45925925926	-10.0448979592
704	0.352	0.560144927536	4.68292682927	-0.82962962963	15.7428571429
705	0.3525	0.560144927536	6.09512195122	-0.82962962963	-2.88163265306
706	0.353	1.96920289855	4.68292682927	3.45925925926	-2.88163265306
707	0.3535	4.78731884058	-5.20243902439	-2.25925925926	-4.31428571429
708	0.354	9.01449275362	15.9804878049	-0.82962962963	-2.88163265306
709	0.3545	1.96920289855	3.27073170732	0.6	-4.31428571429
710	0.355	25.9231884058	4.68292682927	0.6	1.41632653061
711	0.3555	-0.848913043478	4.68292682927	6.31851851852	1.41632653061
712	0.356	9.01449275362	6.09512195122	4.88888888889	-12.9102040816
713	0.3565	7.60543478261	3.27073170732	-10.837037037	-4.31428571429
714	0.357	4.78731884058	4.68292682927	0.6	-2.88163265306
715	0.3575	0.560144927536	-6.61463414634	3.45925925926	-4.31428571429
716	0.358	3.37826086957	21.6292682927	2.02962962963	-2.88163265306
717	0.3585	-14.9394927536	3.27073170732	2.02962962963	-4.31428571429
718	0.359	14.6507246377	0.446341463415	0.6	-12.9102040816
719	0.3595	-2.25797101449	3.27073170732	-0.82962962963	11.4448979592
720	0.36	-2.25797101449	3.27073170732	0.6	-2.88163265306
721	0.3605	0.560144927536	4.68292682927	14.8962962963	-1.44897959184
722	0.361	1.96920289855	4.68292682927	0.6	-1.44897959184
723	0.3615	-0.848913043478	0.446341463415	-0.82962962963	-0.0163265306122
724	0.362	7.60543478261	0.446341463415	-0.82962962963	-1.44897959184
725	0.3625	18.8778985507	0.446341463415	0.6	1.41632653061
726	0.363	-7.89420289855	1.85853658537	2.02962962963	12.8775510204
727	0.3635	-3.66702898551	1.85853658537	3.45925925926	-8.61224489796
728	0.364	-5.07608695652	3.27073170732	-7.97777777778	1.41632653061
729	0.3645	1.96920289855	1.85853658537	-2.25925925926	-0.0163265306122
730	0.365	0.560144927536	10.3317073171	0.6	-2.88163265306
731	0.3655	-2.25797101449	1.85853658537	-0.82962962963	-0.0163265306122
732	0.366	-6.48514492754	6.09512195122	-0.82962962963	-2.88163265306
733	0.3665	-3.66702898551	8.91951219512	-2.25925925926	-1.44897959184
734	0.367	-2.25797101449	10.3317073171	6.31851851852	-4.31428571429
735	0.3675	-0.848913043478	8.91951219512	19.1851851852	-1.44897959184
736	0.368	-2.25797101449	7.50731707317	-7.97777777778	-2.88163265306
737	0.3685	-5.07608695652	15.9804878049	-0.82962962963	-4.31428571429
738	0.369	-3.66702898551	10.3317073171	-0.82962962963	-0.0163265306122
739	0.3695	-2.25797101449	10.3317073171	-0.82962962963	-1.44897959184
740	0.37	7.60543478261	6.09512195122	-0.82962962963	-1.44897959184
741	0.3705	0.560144927536	8.91951219512	-0.82962962963	2.84897959184
742	0.371	0.560144927536	7.50731707317	-7.97777777778	-2.88163265306
743	0.3715	0.560144927536	6.09512195122	-0.82962962963	-0.0163265306122
744	0.372	-2.25797101449	20.2170731707	0.6	-2.88163265306
745	0.3725	-3.66702898551	1.85853658537	-0.82962962963	-1.44897959184
746	0.373	3.37826086957	7.50731707317	-0.82962962963	-2.88163265306
747	0.3735	20.2869565217	4.68292682927	-0.82962962963	2.84897959184
748	0.374	-6.48514492754	7.50731707317	0.6	15.7428571429
749	0.3745	3.37826086957	6.09512195122	0.6	-10.0448979592
750	0.375	1.96920289855	7.50731707317	-7.97777777778	-1.44897959184
751	0.3755	0.560144927536	3.27073170732	-0.82962962963	-0.0163265306122
752	0.376	4.78731884058	7.50731707317	0.6	-1.44897959184
753	0.3765	-0.848913043478	6.09512195122	-0.82962962963	1.41632653061
754	0.377	-10.7123188406	6.09512195122	0.6	-4.31428571429
755	0.3775	-2.25797101449	8.91951219512	-0.82962962963	11.4448979592
756	0.378	1.96920289855	7.50731707317	4.88888888889	18.6081632653
757	0.3785	-0.848913043478	6.09512195122	6.31851851852	-8.61224489796
758	0.379	1.96920289855	8.91951219512	-6.54814814815	-0.0163265306122
759	0.3795	0.560144927536	0.446341463415	2.02962962963	-2.88163265306
760	0.38	0.560144927536	-2.37804878049	-0.82962962963	-2.88163265306
761	0.3805	0.560144927536	6.09512195122	0.6	-1.44897959184
762	0.381	-6.48514492754	6.09512195122	2.02962962963	-2.88163265306
763	0.3815	3.37826086957	8.91951219512	0.6	-7.17959183673
764	0.382	0.560144927536	6.09512195122	-0.82962962963	-2.88163265306
765	0.3825	1.96920289855	6.09512195122	13.4666666667	-2.88163265306
766	0.383	3.37826086957	6.09512195122	2.02962962963	-1.44897959184
767	0.3835	-0.848913043478	4.68292682927	2.02962962963	-5.74693877551
768	0.384	-0.848913043478	7.50731707317	2.02962962963	-1.44897959184
769	0.3845	-7.89420289855	6.09512195122	2.02962962963	-0.0163265306122
770	0.385	-3.66702898551	6.09512195122	0.6	-4.31428571429
771	0.3855	-0.848913043478	8.91951219512	3.45925925926	1.41632653061
772	0.386	-0.848913043478	8.91951219512	-6.54814814815	-2.88163265306
773	0.3865	1.96920289855	14.5682926829	2.02962962963	-1.44897959184
774	0.387	0.560144927536	21.6292682927	-0.82962962963	-1.44897959184
775	0.3875	3.37826086957	11.743902439	-0.82962962963	-4.31428571429
776	0.388	13.2416666667	7.50731707317	0.6	-4.31428571429
777	0.3885	-0.848913043478	7.50731707317	2.02962962963	-0.0163265306122
778	0.389	1.96920289855	7.50731707317	-10.837037037	1.41632653061
779	0.3895	0.560144927536	10.3317073171	-6.54814814815	-2.88163265306
780	0.39	1.96920289855	3.27073170732	0.6	-0.0163265306122
781	0.3905	0.560144927536	10.3317073171	0.6	-1.44897959184
782	0.391	-3.66702898551	3.27073170732	0.6	-1.44897959184
783	0.3915	-10.7123188406	6.09512195122	-0.82962962963	-2.88163265306
784	0.392	0.560144927536	4.68292682927	-2.25925925926	-7.17959183673
785	0.3925	1.96920289855	6.09512195122	-10.837037037	-4.31428571429
786	0.393	1.96920289855	7.50731707317	17.7555555556	-2.88163265306
787	0.3935	0.560144927536	3.27073170732	0.6	-1.44897959184
788	0.394	1.96920289855	-3.79024390244	-0.82962962963	-1.44897959184
789	0.3945	0.560144927536	6.09512195122	0.6	-4.31428571429
790	0.395	-5.07608695652	0.446341463415	-0.82962962963	-1.44897959184
791	0.3955	1.96920289855	8.91951219512	-2.25925925926	-10.0448979592
792	0.396	0.560144927536	7.50731707317	-2.25925925926	-7.17959183673
793	0.3965	3.37826086957	8.91951219512	-6.54814814815	-2.88163265306
794	0.397	0.560144927536	1.85853658537	-0.82962962963	-4.31428571429
795	0.3975	1.96920289855	14.5682926829	0.6	-1.44897959184
796	0.398	4.78731884058	-0.965853658537	-0.82962962963	-2.88163265306
797	0.3985	-13.5304347826	7.50731707317	-0.82962962963	-0.0163265306122
798	0.399	-6.48514492754	8.91951219512	0.6	-8.61224489796
799	0.3995	1.96920289855	6.09512195122	0.6	5.71428571429
800	0.4	0.560144927536	3.27073170732	-5.11851851852	-2.88163265306
801	0.4005	3.37826086957	8.91951219512	-3.68888888889	-1.44897959184
802	0.401	0.560144927536	-0.965853658537	0.6	-2.88163265306
803	0.4015	1.96920289855	-0.965853658537	-2.25925925926	-1.44897959184
804	0.402	-5.07608695652	7.50731707317	-2.25925925926	-2.88163265306
805	0.4025	3.37826086957	6.09512195122	-2.25925925926	8.57959183673
806	0.403	1.96920289855	6.09512195122	2.02962962963	-2.88163265306
807	0.4035	0.560144927536	6.09512195122	16.3259259259	-4.31428571429
808	0.404	0.560144927536	6.09512195122	-7.97777777778	-0.0163265306122
809	0.4045	-2.25797101449	1.85853658537	-0.82962962963	-4.31428571429
810	0.405	1.96920289855	3.27073170732	-0.82962962963	-0.0163265306122
811	0.4055	-14.9394927536	7.50731707317	-0.82962962963	-0.0163265306122
812	0.406	-9.30326086957	6.09512195122	-0.82962962963	-12.9102040816
813	0.4065	-2.25797101449	6.09512195122	-3.68888888889	-11.4775510204
814	0.407	0.560144927536	7.50731707317	2.02962962963	-1.44897959184
815	0.4075	0.560144927536	13.156097561	-2.25925925926	-0.0163265306122
816	0.408	0.560144927536	25.8658536585	2.02962962963	-2.88163265306
817	0.4085	0.560144927536	-0.965853658537	2.02962962963	-1.44897959184
818	0.409	-9.30326086957	6.09512195122	3.45925925926	-1.44897959184
819	0.4095	-5.07608695652	6.09512195122	3.45925925926	-12.9102040816
820	0.41	-2.25797101449	6.09512195122	-3.68888888889	-8.61224489796
821	0.4105	0.560144927536	6.09512195122	2.02962962963	15.7428571429
822	0.411	0.560144927536	7.50731707317	-6.54814814815	-2.88163265306
823	0.4115	-0.848913043478	-0.965853658537	2.02962962963	-1.44897959184
824	0.412	1.96920289855	0.446341463415	0.6	-1.44897959184
825	0.4125	-13.5304347826	8.91951219512	0.6	-0.0163265306122
826	0.413	-5.07608695652	7.50731707317	-0.82962962963	-12.9102040816
827	0.4135	0.560144927536	6.09512195122	-0.82962962963	-10.0448979592
828	0.414	-3.66702898551	7.50731707317	-5.11851851852	-1.44897959184
829	0.4145	-2.25797101449	8.91951219512	12.037037037	-2.88163265306
830	0.415	-3.66702898551	8.91951219512	0.6	-4.31428571429
831	0.4155	-2.25797101449	10.3317073171	3.45925925926	-1.44897959184
832	0.416	4.78731884058	8.91951219512	-0.82962962963	-2.88163265306
833	0.4165	20.2869565217	3.27073170732	-0.82962962963	-0.0163265306122
834	0.417	0.560144927536	6.09512195122	-0.82962962963	-12.9102040816
835	0.4175	3.37826086957	8.91951219512	-0.82962962963	-2.88163265306
836	0.418	1.96920289855	10.3317073171	-5.11851851852	-5.74693877551
837	0.4185	-0.848913043478	0.446341463415	-0.82962962963	-4.31428571429
838	0.419	-2.25797101449	8.91951219512	-0.82962962963	-1.44897959184
839	0.4195	1.96920289855	7.50731707317	-0.82962962963	-4.31428571429
840	0.42	17.4688405797	7.50731707317	-0.82962962963	-2.88163265306
841	0.4205	-6.48514492754	7.50731707317	0.6	5.71428571429
842	0.421	-3.66702898551	10.3317073171	-7.97777777778	-7.17959183673
843	0.4215	-2.25797101449	6.09512195122	13.4666666667	-5.74693877551
844	0.422	-0.848913043478	-2.37804878049	-0.82962962963	-2.88163265306
845	0.4225	1.96920289855	23.0414634146	-2.25925925926	-1.44897959184
846	0.423	-0.848913043478	0.446341463415	0.6	-4.31428571429
847	0.4235	14.6507246377	10.3317073171	-2.25925925926	-2.88163265306
848	0.424	-7.89420289855	7.50731707317	0.6	7.14693877551
849	0.4245	1.96920289855	11.743902439	-6.54814814815	-5.74693877551
850	0.425	1.96920289855	10.3317073171	12.037037037	-2.88163265306
851	0.4255	3.37826086957	-0.965853658537	-0.82962962963	-4.31428571429
852	0.426	1.96920289855	24.4536585366	3.45925925926	-1.44897959184
853	0.4265	1.96920289855	8.91951219512	-0.82962962963	-0.0163265306122
854	0.427	17.4688405797	6.09512195122	0.6	4.28163265306
855	0.4275	-6.48514492754	6.09512195122	-0.82962962963	-10.0448979592
856	0.428	-0.848913043478	6.09512195122	-0.82962962963	-7.17959183673
857	0.4285	0.560144927536	6.09512195122	9.17777777778	-2.88163265306
858	0.429	-2.25797101449	10.3317073171	-2.25925925926	-2.88163265306
859	0.4295	-0.848913043478	21.6292682927	-2.25925925926	-2.88163265306
860	0.43	-2.25797101449	1.85853658537	-2.25925925926	-0.0163265306122
861	0.4305	-9.30326086957	7.50731707317	-2.25925925926	-2.88163265306
862	0.431	16.0597826087	8.91951219512	-0.82962962963	-1.44897959184
863	0.4315	-0.848913043478	8.91951219512	2.02962962963	-10.0448979592
864	0.432	0.560144927536	7.50731707317	-2.25925925926	-1.44897959184
865	0.4325	-2.25797101449	6.09512195122	-0.82962962963	-1.44897959184
866	0.433	-0.848913043478	-3.79024390244	-3.68888888889	-1.44897959184
867	0.4335	1.96920289855	0.446341463415	-0.82962962963	-0.0163265306122
868	0.434	-0.848913043478	6.09512195122	-0.82962962963	-0.0163265306122
869	0.4345	11.8326086957	6.09512195122	-0.82962962963	-1.44897959184
870	0.435	-6.48514492754	8.91951219512	-0.82962962963	-0.0163265306122
871	0.4355	1.96920289855	8.91951219512	3.45925925926	8.57959183673
872	0.436	1.96920289855	6.09512195122	-7.97777777778	-1.44897959184
873	0.4365	3.37826086957	15.9804878049	-3.68888888889	-0.0163265306122
874	0.437	1.96920289855	27.2780487805	-2.25925925926	-1.44897959184
875	0.4375	0.560144927536	0.446341463415	0.6	-5.74693877551
876	0.438	10.4235507246	7.50731707317	-3.68888888889	-1.44897959184
877	0.4385	-5.07608695652	6.09512195122	0.6	-11.4775510204
878	0.439	-0.848913043478	6.09512195122	-0.82962962963	12.8775510204
879	0.4395	-0.848913043478	8.91951219512	-5.11851851852	-5.74693877551
880	0.44	0.560144927536	4.68292682927	14.8962962963	-1.44897959184
881	0.4405	-2.25797101449	8.91951219512	-9.40740740741	-1.44897959184
882	0.441	-0.848913043478	-0.965853658537	-0.82962962963	-1.44897959184
883	0.4415	-6.48514492754	6.09512195122	0.6	-4.31428571429
884	0.442	10.4235507246	3.27073170732	-0.82962962963	-1.44897959184
885	0.4425	-0.848913043478	7.50731707317	-0.82962962963	-11.4775510204
886	0.443	-0.848913043478	10.3317073171	-2.25925925926	-1.44897959184
887	0.4435	-2.25797101449	6.09512195122	-2.25925925926	-1.44897959184
888	0.444	-2.25797101449	-0.965853658537	-2.25925925926	-0.0163265306122
889	0.4445	-3.66702898551	0.446341463415	-2.25925925926	-2.88163265306
890	0.445	-7.89420289855	7.50731707317	-0.82962962963	-2.88163265306
891	0.4455	10.4235507246	7.50731707317	-2.25925925926	1.41632653061
892	0.446	-3.66702898551	6.09512195122	-3.68888888889	-8.61224489796
893	0.4465	-2.25797101449	8.91951219512	-3.68888888889	-2.88163265306
894	0.447	-3.66702898551	7.50731707317	2.02962962963	-4.31428571429
895	0.4475	-0.848913043478	-0.965853658537	-3.68888888889	-4.31428571429
896	0.448	-0.848913043478	27.2780487805	-2.25925925926	-1.44897959184
897	0.4485	-2.25797101449	10.3317073171	-3.68888888889	-1.44897959184
898	0.449	0.560144927536	8.91951219512	-0.82962962963	-2.88163265306
899	0.4495	0.560144927536	6.09512195122	-0.82962962963	14.3102040816
900	0.45	1.96920289855	8.91951219512	0.6	-2.88163265306
901	0.4505	7.60543478261	8.91951219512	-6.54814814815	-8.61224489796
902	0.451	3.37826086957	0.446341463415	-0.82962962963	-2.88163265306
903	0.4515	7.60543478261	21.6292682927	-0.82962962963	-1.44897959184
904	0.452	3.37826086957	6.09512195122	-2.25925925926	-2.88163265306
905	0.4525	23.1050724638	10.3317073171	-0.82962962963	-2.88163265306
906	0.453	-2.25797101449	8.91951219512	-0.82962962963	-7.17959183673
907	0.4535	1.96920289855	10.3317073171	-0.82962962963	-1.44897959184
908	0.454	0.560144927536	8.91951219512	-9.40740740741	-1.44897959184
909	0.4545	0.560144927536	8.91951219512	-0.82962962963	-1.44897959184
910	0.455	-0.848913043478	1.85853658537	-2.25925925926	-2.88163265306
911	0.4555	-5.07608695652	7.50731707317	0.6	-1.44897959184
912	0.456	10.4235507246	8.91951219512	0.6	-1.44897959184
913	0.4565	-9.30326086957	7.50731707317	2.02962962963	-12.9102040816
914	0.457	-2.25797101449	7.50731707317	-0.82962962963	15.7428571429
915	0.4575	-3.66702898551	6.09512195122	4.88888888889	-2.88163265306
916	0.458	-0.848913043478	10.3317073171	-5.11851851852	-2.88163265306
917	0.4585	-0.848913043478	-6.61463414634	-0.82962962963	-1.44897959184
918	0.459	1.96920289855	4.68292682927	-2.25925925926	-1.44897959184
919	0.4595	-10.7123188406	6.09512195122	2.02962962963	-0.0163265306122
920	0.46	-9.30326086957	4.68292682927	-2.25925925926	-1.44897959184
921	0.4605	-0.848913043478	8.91951219512	2.02962962963	-12.9102040816
922	0.461	-3.66702898551	6.09512195122	-12.2666666667	-1.44897959184
923	0.4615	-3.66702898551	7.50731707317	6.31851851852	-5.74693877551
924	0.462	-2.25797101449	17.3926829268	-0.82962962963	-2.88163265306
925	0.4625	0.560144927536	6.09512195122	-2.25925925926	-2.88163265306
926	0.463	-9.30326086957	10.3317073171	-0.82962962963	-1.44897959184
927	0.4635	16.0597826087	10.3317073171	0.6	-7.17959183673
928	0.464	-3.66702898551	10.3317073171	-0.82962962963	7.14693877551
929	0.4645	0.560144927536	10.3317073171	3.45925925926	-8.61224489796
930	0.465	0.560144927536	8.91951219512	-9.40740740741	-2.88163265306
931	0.4655	1.96920289855	1.85853658537	-2.25925925926	-1.44897959184
932	0.466	-2.25797101449	20.2170731707	0.6	-1.44897959184
933	0.4665	4.78731884058	8.91951219512	-0.82962962963	-2.88163265306
934	0.467	14.6507246377	10.3317073171	0.6	-5.74693877551
935	0.4675	-6.48514492754	6.09512195122	-3.68888888889	5.71428571429
936	0.468	-0.848913043478	7.50731707317	3.45925925926	-8.61224489796
937	0.4685	0.560144927536	3.27073170732	-7.97777777778	-1.44897959184
938	0.469	0.560144927536	-0.965853658537	-2.25925925926	1.41632653061
939	0.4695	-2.25797101449	4.68292682927	-0.82962962963	-1.44897959184
940	0.47	1.96920289855	7.50731707317	0.6	-2.88163265306
941	0.4705	-10.7123188406	8.91951219512	-0.82962962963	-1.44897959184
942	0.471	-2.25797101449	6.09512195122	-2.25925925926	-1.44897959184
943	0.4715	-3.66702898551	6.09512195122	-12.2666666667	-2.88163265306
944	0.472	-0.848913043478	7.50731707317	-10.837037037	-2.88163265306
945	0.4725	-5.07608695652	6.09512195122	7.74814814815	-1.44897959184
946	0.473	-5.07608695652	1.85853658537	-3.68888888889	-1.44897959184
947	0.4735	3.37826086957	6.09512195122	-0.82962962963	-2.88163265306
948	0.474	-3.66702898551	6.09512195122	-2.25925925926	-2.88163265306
949	0.4745	-0.848913043478	7.50731707317	-2.25925925926	-1.44897959184
950	0.475	-0.848913043478	7.50731707317	-2.25925925926	17.1755102041
951	0.4755	-3.66702898551	7.50731707317	6.31851851852	-1.44897959184
952	0.476	-3.66702898551	-2.37804878049	-2.25925925926	-4.31428571429
953	0.4765	0.560144927536	25.8658536585	-5.11851851852	-2.88163265306
954	0.477	-3.66702898551	8.91951219512	-0.82962962963	-1.44897959184
955	0.4775	-5.07608695652	10.3317073171	-2.25925925926	-4.31428571429
956	0.478	-0.848913043478	10.3317073171	-3.68888888889	2.84897959184
957	0.4785	-0.848913043478	10.3317073171	-3.68888888889	-8.61224489796
958	0.479	-0.848913043478	7.50731707317	3.45925925926	-2.88163265306
959	0.4795	1.96920289855	-3.79024390244	0.6	1.41632653061
960	0.48	-2.25797101449	24.4536585366	-0.82962962963	1.41632653061
961	0.4805	-2.25797101449	-2.37804878049	-0.82962962963	-1.44897959184
962	0.481	13.2416666667	4.68292682927	-2.25925925926	-5.74693877551
963	0.4815	-3.66702898551	4.68292682927	-2.25925925926	7.14693877551
964	0.482	-0.848913043478	6.09512195122	2.02962962963	-7.17959183673
965	0.4825	1.96920289855	8.91951219512	-9.40740740741	-4.31428571429
966	0.483	0.560144927536	8.91951219512	4.88888888889	-2.88163265306
967	0.4835	-2.25797101449	-3.79024390244	-6.54814814815	-1.44897959184
968	0.484	0.560144927536	28.6902439024	-3.68888888889	-2.88163265306
969	0.4845	-7.89420289855	7.50731707317	-3.68888888889	-2.88163265306
970	0.485	13.2416666667	10.3317073171	-3.68888888889	2.84897959184
971	0.4855	0.560144927536	11.743902439	0.6	-5.74693877551
972	0.486	0.560144927536	8.91951219512	-3.68888888889	14.3102040816
973	0.4865	-2.25797101449	10.3317073171	-0.82962962963	-1.44897959184
974	0.487	0.560144927536	21.6292682927	-2.25925925926	-0.0163265306122
975	0.4875	3.37826086957	0.446341463415	-2.25925925926	2.84897959184
976	0.488	-0.848913043478	8.91951219512	-0.82962962963	-1.44897959184
977	0.4885	4.78731884058	6.09512195122	-0.82962962963	4.28163265306
978	0.489	-0.848913043478	4.68292682927	-0.82962962963	-12.9102040816
979	0.4895	-0.848913043478	8.91951219512	-6.54814814815	-1.44897959184
980	0.49	1.96920289855	8.91951219512	-0.82962962963	-1.44897959184
981	0.4905	-0.848913043478	-2.37804878049	-2.25925925926	-1.44897959184
982	0.491	1.96920289855	-0.965853658537	-2.25925925926	-0.0163265306122
983	0.4915	-0.848913043478	7.50731707317	-0.82962962963	-1.44897959184
984	0.492	9.01449275362	6.09512195122	-0.82962962963	-0.0163265306122
985	0.4925	-0.848913043478	7.50731707317	-0.82962962963	-10.0448979592
986	0.493	1.96920289855	10.3317073171	3.45925925926	-1.44897959184
987	0.4935	3.37826086957	8.91951219512	-3.68888888889	-1.44897959184
988	0.494	0.560144927536	8.91951219512	-12.2666666667	-1.44897959184
989	0.4945	0.560144927536	8.91951219512	-0.82962962963	-1.44897959184
990	0.495	-12.1213768116	8.91951219512	-2.25925925926	-1.44897959184
991	0.4955	16.0597826087	7.50731707317	-2.25925925926	-1.44897959184
992	0.496	-10.7123188406	7.50731707317	-2.25925925926	-2.88163265306
993	0.4965	-0.848913043478	8.91951219512	0.6	-1.44897959184
994	0.497	0.560144927536	6.09512195122	-6.54814814815	-1.44897959184
995	0.4975	1.96920289855	8.91951219512	-0.82962962963	-2.88163265306
996	0.498	0.560144927536	3.27073170732	0.6	-5.74693877551
997	0.4985	3.37826086957	10.3317073171	-3.68888888889	-1.44897959184
998	0.499	-10.7123188406	8.91951219512	-2.25925925926	-1.44897959184
999	0.4995	0.560144927536	10.3317073171	-0.82962962963	-4.31428571429
1000	0.5	-2.25797101449	7.50731707317	-7.97777777778	-0.0163265306122
1001	0.5005	-0.848913043478	8.91951219512	-5.11851851852	-2.88163265306
1002	0.501	-0.848913043478	6.09512195122	16.3259259259	-1.44897959184
1003	0.5015	-2.25797101449	18.8048780488	-0.82962962963	-2.88163265306
1004	0.502	-0.848913043478	8.91951219512	0.6	-1.44897959184
1005	0.5025	14.6507246377	8.91951219512	-0.82962962963	-1.44897959184
1006	0.503	-14.9394927536	14.5682926829	-0.82962962963	-5.74693877551
1007	0.5035	-6.48514492754	13.156097561	2.02962962963	-4.31428571429
1008	0.504	-2.25797101449	13.156097561	-6.54814814815	-1.44897959184
1009	0.5045	-2.25797101449	15.9804878049	-0.82962962963	-4.31428571429
1010	0.505	-2.25797101449	28.6902439024	-3.68888888889	-5.74693877551
1011	0.5055	-5.07608695652	1.85853658537	-2.25925925926	-0.0163265306122
1012	0.506	-12.1213768116	10.3317073171	0.6	-0.0163265306122
1013	0.5065	-2.25797101449	8.91951219512	-3.68888888889	-2.88163265306
1014	0.507	-0.848913043478	8.91951219512	-2.25925925926	8.57959183673
1015	0.5075	0.560144927536	13.156097561	-2.25925925926	-4.31428571429
1016	0.508	1.96920289855	1.85853658537	-2.25925925926	-5.74693877551
1017	0.5085	1.96920289855	28.6902439024	-2.25925925926	-2.88163265306
1018	0.509	0.560144927536	10.3317073171	-2.25925925926	-1.44897959184
1019	0.5095	17.4688405797	13.156097561	-2.25925925926	-2.88163265306
1020	0.51	-2.25797101449	10.3317073171	-2.25925925926	1.41632653061
1021	0.5105	1.96920289855	10.3317073171	-6.54814814815	-4.31428571429
1022	0.511	4.78731884058	10.3317073171	13.4666666667	-2.88163265306
1023	0.5115	1.96920289855	-2.37804878049	0.6	-4.31428571429
1024	0.512	4.78731884058	27.2780487805	-0.82962962963	-2.88163265306
1025	0.5125	4.78731884058	3.27073170732	-2.25925925926	-4.31428571429
1026	0.513	-2.25797101449	10.3317073171	-0.82962962963	-1.44897959184
1027	0.5135	6.19637681159	10.3317073171	-2.25925925926	-8.61224489796
1028	0.514	0.560144927536	8.91951219512	-3.68888888889	8.57959183673
1029	0.5145	0.560144927536	11.743902439	17.7555555556	-7.17959183673
1030	0.515	0.560144927536	7.50731707317	-10.837037037	-4.31428571429
1031	0.5155	-2.25797101449	15.9804878049	-0.82962962963	-4.31428571429
1032	0.516	-3.66702898551	10.3317073171	-0.82962962963	-1.44897959184
1033	0.5165	-9.30326086957	7.50731707317	-0.82962962963	-1.44897959184
1034	0.517	-2.25797101449	7.50731707317	3.45925925926	-11.4775510204
1035	0.5175	-5.07608695652	10.3317073171	-0.82962962963	-5.74693877551
1036	0.518	-5.07608695652	13.156097561	-12.2666666667	-2.88163265306
1037	0.5185	-0.848913043478	6.09512195122	17.7555555556	-1.44897959184
1038	0.519	-2.25797101449	1.85853658537	-0.82962962963	-5.74693877551
1039	0.5195	-2.25797101449	21.6292682927	-0.82962962963	-5.74693877551
1040	0.52	0.560144927536	14.5682926829	-0.82962962963	-4.31428571429
1041	0.5205	4.78731884058	8.91951219512	-0.82962962963	-2.88163265306
1042	0.521	0.560144927536	10.3317073171	0.6	-8.61224489796
1043	0.5215	0.560144927536	10.3317073171	-10.837037037	-2.88163265306
1044	0.522	-0.848913043478	8.91951219512	-10.837037037	-2.88163265306
1045	0.5225	-2.25797101449	4.68292682927	0.6	-0.0163265306122
1046	0.523	0.560144927536	7.50731707317	0.6	-1.44897959184
1047	0.5235	1.96920289855	8.91951219512	0.6	-8.61224489796
1048	0.524	18.8778985507	8.91951219512	-0.82962962963	-0.0163265306122
1049	0.5245	-7.89420289855	8.91951219512	0.6	11.4448979592
1050	0.525	1.96920289855	8.91951219512	2.02962962963	-8.61224489796
1051	0.5255	-0.848913043478	13.156097561	-9.40740740741	-1.44897959184
1052	0.526	0.560144927536	13.156097561	0.6	-4.31428571429
1053	0.5265	1.96920289855	6.09512195122	-0.82962962963	-4.31428571429
1054	0.527	1.96920289855	4.68292682927	-0.82962962963	-2.88163265306
1055	0.5275	9.01449275362	7.50731707317	-0.82962962963	-2.88163265306
1056	0.528	-5.07608695652	10.3317073171	-0.82962962963	-0.0163265306122
1057	0.5285	0.560144927536	10.3317073171	2.02962962963	-2.88163265306
1058	0.529	0.560144927536	8.91951219512	-12.2666666667	-1.44897959184
1059	0.5295	0.560144927536	14.5682926829	-2.25925925926	-8.61224489796
1060	0.53	-3.66702898551	24.4536585366	0.6	-1.44897959184
1061	0.5305	-2.25797101449	0.446341463415	-0.82962962963	-4.31428571429
1062	0.531	-5.07608695652	10.3317073171	-0.82962962963	-4.31428571429
1063	0.5315	-7.89420289855	7.50731707317	-0.82962962963	-5.74693877551
1064	0.532	-3.66702898551	10.3317073171	-3.68888888889	-10.0448979592
1065	0.5325	-0.848913043478	13.156097561	-3.68888888889	-4.31428571429
1066	0.533	-2.25797101449	13.156097561	-6.54814814815	-2.88163265306
1067	0.5335	-0.848913043478	8.91951219512	-2.25925925926	-4.31428571429
1068	0.534	-0.848913043478	8.91951219512	-0.82962962963	-1.44897959184
1069	0.5345	-2.25797101449	6.09512195122	-2.25925925926	-1.44897959184
1070	0.535	7.60543478261	13.156097561	-0.82962962963	-1.44897959184
1071	0.5355	-0.848913043478	13.156097561	-0.82962962963	-0.0163265306122
1072	0.536	-3.66702898551	10.3317073171	-13.6962962963	-2.88163265306
1073	0.5365	-3.66702898551	8.91951219512	14.8962962963	-2.88163265306
1074	0.537	-2.25797101449	7.50731707317	-2.25925925926	-1.44897959184
1075	0.5375	-3.66702898551	1.85853658537	-3.68888888889	-1.44897959184
1076	0.538	-0.848913043478	27.2780487805	-0.82962962963	-2.88163265306
1077	0.5385	-6.48514492754	10.3317073171	-0.82962962963	-2.88163265306
1078	0.539	14.6507246377	7.50731707317	0.6	-8.61224489796
1079	0.5395	-5.07608695652	8.91951219512	-3.68888888889	14.3102040816
1080	0.54	-6.48514492754	7.50731707317	-5.11851851852	-1.44897959184
1081	0.5405	-7.89420289855	10.3317073171	4.88888888889	-1.44897959184
1082	0.541	-5.07608695652	4.68292682927	-6.54814814815	-1.44897959184
1083	0.5415	-6.48514492754	7.50731707317	-3.68888888889	-1.44897959184
1084	0.542	-0.848913043478	4.68292682927	-3.68888888889	-1.44897959184
1085	0.5425	-17.7576086957	7.50731707317	-3.68888888889	-2.88163265306
1086	0.543	-5.07608695652	10.3317073171	-5.11851851852	8.57959183673
1087	0.5435	-3.66702898551	14.5682926829	-3.68888888889	-1.44897959184
1088	0.544	-3.66702898551	10.3317073171	14.8962962963	-5.74693877551
1089	0.5445	-0.848913043478	8.91951219512	-12.2666666667	-5.74693877551
1090	0.545	-2.25797101449	8.91951219512	-5.11851851852	-5.74693877551
1091	0.5455	-0.848913043478	1.85853658537	-2.25925925926	-1.44897959184
1092	0.546	-0.848913043478	7.50731707317	-3.68888888889	-4.31428571429
1093	0.5465	14.6507246377	8.91951219512	-3.68888888889	-4.31428571429
1094	0.547	-3.66702898551	7.50731707317	-3.68888888889	-4.31428571429
1095	0.5475	0.560144927536	7.50731707317	-3.68888888889	-4.31428571429
1096	0.548	3.37826086957	6.09512195122	-2.25925925926	-1.44897959184
1097	0.5485	0.560144927536	8.91951219512	-3.68888888889	-2.88163265306
1098	0.549	-2.25797101449	23.0414634146	-3.68888888889	-4.31428571429
1099	0.5495	-0.848913043478	-3.79024390244	-6.54814814815	-1.44897959184
1100	0.55	17.4688405797	4.68292682927	-6.54814814815	-2.88163265306
1101	0.5505	-9.30326086957	0.446341463415	-6.54814814815	-1.44897959184
1102	0.551	-0.848913043478	3.27073170732	-3.68888888889	-7.17959183673
1103	0.5515	-2.25797101449	3.27073170732	4.88888888889	-5.74693877551
1104	0.552	-0.848913043478	4.68292682927	-6.54814814815	-4.31428571429
1105	0.5525	-2.25797101449	17.3926829268	-3.68888888889	-7.17959183673
1106	0.553	-0.848913043478	-5.20243902439	-5.11851851852	-5.74693877551
1107	0.5535	-7.89420289855	1.85853658537	-3.68888888889	-2.88163265306
1108	0.554	10.4235507246	1.85853658537	-7.97777777778	-2.88163265306
1109	0.5545	-2.25797101449	1.85853658537	-2.25925925926	-11.4775510204
1110	0.555	0.560144927536	0.446341463415	-17.9851851852	-4.31428571429
1111	0.5555	0.560144927536	6.09512195122	-15.1259259259	-2.88163265306
1112	0.556	0.560144927536	1.85853658537	-7.97777777778	-4.31428571429
1113	0.5565	0.560144927536	-2.37804878049	-7.97777777778	-2.88163265306
1114	0.557	0.560144927536	3.27073170732	-6.54814814815	-4.31428571429
1115	0.5575	-10.7123188406	-2.37804878049	-3.68888888889	-5.74693877551
1116	0.558	3.37826086957	0.446341463415	-7.97777777778	-11.4775510204
1117	0.5585	3.37826086957	1.85853658537	-15.1259259259	-5.74693877551
1118	0.559	4.78731884058	0.446341463415	7.74814814815	-5.74693877551
1119	0.5595	4.78731884058	0.446341463415	-3.68888888889	-7.17959183673
1120	0.56	3.37826086957	8.91951219512	-5.11851851852	-8.61224489796
1121	0.5605	10.4235507246	-0.965853658537	-3.68888888889	-8.61224489796
1122	0.561	-0.848913043478	0.446341463415	-3.68888888889	-5.74693877551
1123	0.5615	3.37826086957	0.446341463415	-3.68888888889	-18.6408163265
1124	0.562	11.8326086957	-3.79024390244	-3.68888888889	-0.0163265306122
1125	0.5625	11.8326086957	-3.79024390244	-2.25925925926	-12.9102040816
1126	0.563	10.4235507246	-2.37804878049	-10.837037037	-10.0448979592
1127	0.5635	3.37826086957	1.85853658537	-2.25925925926	-10.0448979592
1128	0.564	4.78731884058	-9.43902439024	-6.54814814815	-8.61224489796
1129	0.5645	0.560144927536	14.5682926829	-2.25925925926	-10.0448979592
1130	0.565	-7.89420289855	-0.965853658537	-3.68888888889	-11.4775510204
1131	0.5655	0.560144927536	0.446341463415	-3.68888888889	-12.9102040816
1132	0.566	-3.66702898551	3.27073170732	4.88888888889	-8.61224489796
1133	0.5665	-2.25797101449	0.446341463415	-7.97777777778	-8.61224489796
1134	0.567	-2.25797101449	7.50731707317	-2.25925925926	-7.17959183673
1135	0.5675	-3.66702898551	-3.79024390244	0.6	-7.17959183673
1136	0.568	0.560144927536	4.68292682927	2.02962962963	-11.4775510204
1137	0.5685	16.0597826087	6.09512195122	2.02962962963	-12.9102040816
1138	0.569	-2.25797101449	4.68292682927	3.45925925926	-2.88163265306
1139	0.5695	1.96920289855	6.09512195122	-6.54814814815	-8.61224489796
1140	0.57	1.96920289855	4.68292682927	17.7555555556	-10.0448979592
1141	0.5705	0.560144927536	-5.20243902439	-0.82962962963	-11.4775510204
1142	0.571	0.560144927536	28.6902439024	3.45925925926	-10.0448979592
1143	0.5715	-2.25797101449	0.446341463415	2.02962962963	-11.4775510204
1144	0.572	17.4688405797	8.91951219512	2.02962962963	-11.4775510204
1145	0.5725	-9.30326086957	13.156097561	7.74814814815	-1.44897959184
1146	0.573	-2.25797101449	8.91951219512	0.6	-20.0734693878
1147	0.5735	-3.66702898551	13.156097561	14.8962962963	-14.3428571429
1148	0.574	-3.66702898551	13.156097561	3.45925925926	-15.7755102041
1149	0.5745	-3.66702898551	30.1024390244	7.74814814815	-17.2081632653
1150	0.575	-7.89420289855	15.9804878049	4.88888888889	-14.3428571429
1151	0.5755	-5.07608695652	13.156097561	7.74814814815	-17.2081632653
1152	0.576	1.96920289855	15.9804878049	6.31851851852	-18.6408163265
1153	0.5765	-6.48514492754	15.9804878049	-2.25925925926	-17.2081632653
1154	0.577	-6.48514492754	20.2170731707	22.0444444444	-14.3428571429
1155	0.5775	-6.48514492754	13.156097561	12.037037037	-15.7755102041
1156	0.578	-7.89420289855	8.91951219512	7.74814814815	-14.3428571429
1157	0.5785	-5.07608695652	24.4536585366	9.17777777778	-15.7755102041
1158	0.579	-16.3485507246	15.9804878049	9.17777777778	-15.7755102041
1159	0.5795	10.4235507246	17.3926829268	9.17777777778	-15.7755102041
1160	0.58	-12.1213768116	15.9804878049	7.74814814815	-8.61224489796
1161	0.5805	-3.66702898551	20.2170731707	9.17777777778	-22.9387755102
1162	0.581	-5.07608695652	18.8048780488	-2.25925925926	-12.9102040816
1163	0.5815	-5.07608695652	13.156097561	7.74814814815	-10.0448979592
1164	0.582	-5.07608695652	13.156097561	9.17777777778	-10.0448979592
1165	0.5825	-6.48514492754	15.9804878049	9.17777777778	-10.0448979592
1166	0.583	0.560144927536	17.3926829268	6.31851851852	-17.2081632653
1167	0.5835	-6.48514492754	15.9804878049	4.88888888889	-2.88163265306
1168	0.584	-2.25797101449	15.9804878049	12.037037037	-14.3428571429
1169	0.5845	-0.848913043478	14.5682926829	23.4740740741	-10.0448979592
1170	0.585	-3.66702898551	17.3926829268	7.74814814815	-8.61224489796
1171	0.5855	-0.848913043478	28.6902439024	7.74814814815	-11.4775510204
1172	0.586	-5.07608695652	8.91951219512	6.31851851852	-7.17959183673
1173	0.5865	-13.5304347826	13.156097561	7.74814814815	-8.61224489796
1174	0.587	-9.30326086957	14.5682926829	7.74814814815	4.28163265306
1175	0.5875	-5.07608695652	15.9804878049	7.74814814815	-7.17959183673
1176	0.588	-5.07608695652	17.3926829268	24.9037037037	-8.61224489796
1177	0.5885	-3.66702898551	15.9804878049	-0.82962962963	-5.74693877551
1178	0.589	-3.66702898551	20.2170731707	6.31851851852	-5.74693877551
1179	0.5895	-5.07608695652	6.09512195122	4.88888888889	-5.74693877551
1180	0.59	-5.07608695652	13.156097561	4.88888888889	-4.31428571429
1181	0.5905	-10.7123188406	14.5682926829	6.31851851852	-4.31428571429
1182	0.591	-5.07608695652	15.9804878049	9.17777777778	1.41632653061
1183	0.5915	-6.48514492754	15.9804878049	7.74814814815	-7.17959183673
1184	0.592	-2.25797101449	17.3926829268	-2.25925925926	-4.31428571429
1185	0.5925	-3.66702898551	4.68292682927	3.45925925926	-4.31428571429
1186	0.593	-3.66702898551	11.743902439	3.45925925926	-4.31428571429
1187	0.5935	-10.7123188406	14.5682926829	3.45925925926	-7.17959183673
1188	0.594	9.01449275362	14.5682926829	2.02962962963	-0.0163265306122
1189	0.5945	-5.07608695652	14.5682926829	4.88888888889	-11.4775510204
1190	0.595	-5.07608695652	17.3926829268	-5.11851851852	-4.31428571429
1191	0.5955	-3.66702898551	17.3926829268	-7.97777777778	-4.31428571429
1192	0.596	-5.07608695652	8.91951219512	-0.82962962963	-4.31428571429
1193	0.5965	-5.07608695652	23.0414634146	0.6	-2.88163265306
1194	0.597	-14.9394927536	17.3926829268	-0.82962962963	-1.44897959184
1195	0.5975	14.6507246377	14.5682926829	0.6	-0.0163265306122
1196	0.598	-12.1213768116	17.3926829268	2.02962962963	7.14693877551
1197	0.5985	-0.848913043478	15.9804878049	-9.40740740741	-5.74693877551
1198	0.599	-2.25797101449	14.5682926829	9.17777777778	-1.44897959184
1199	0.5995	-3.66702898551	18.8048780488	-5.11851851852	-2.88163265306
1200	0.6	-3.66702898551	30.1024390244	0.6	-1.44897959184
1201	0.6005	-6.48514492754	13.156097561	-0.82962962963	-1.44897959184
1202	0.601	-0.848913043478	11.743902439	-5.11851851852	-10.0448979592
1203	0.6015	-6.48514492754	15.9804878049	-5.11851851852	8.57959183673
1204	0.602	-3.66702898551	13.156097561	-2.25925925926	-2.88163265306
1205	0.6025	-2.25797101449	13.156097561	-12.2666666667	-11.4775510204
1206	0.603	-3.66702898551	14.5682926829	6.31851851852	-2.88163265306
1207	0.6035	-2.25797101449	7.50731707317	-2.25925925926	1.41632653061
1208	0.604	-13.5304347826	11.743902439	-0.82962962963	-4.31428571429
1209	0.6045	14.6507246377	10.3317073171	-3.68888888889	-0.0163265306122
1210	0.605	-10.7123188406	8.91951219512	-2.25925925926	12.8775510204
1211	0.6055	-2.25797101449	10.3317073171	-7.97777777778	-5.74693877551
1212	0.606	-3.66702898551	8.91951219512	9.17777777778	-1.44897959184
1213	0.6065	-3.66702898551	14.5682926829	-10.837037037	-1.44897959184
1214	0.607	-3.66702898551	25.8658536585	-3.68888888889	-1.44897959184
1215	0.6075	-9.30326086957	7.50731707317	-6.54814814815	-0.0163265306122
1216	0.608	11.8326086957	6.09512195122	-3.68888888889	2.84897959184
1217	0.6085	-2.25797101449	10.3317073171	-2.25925925926	1.41632653061
1218	0.609	-2.25797101449	8.91951219512	9.17777777778	-1.44897959184
1219	0.6095	-3.66702898551	7.50731707317	-9.40740740741	-0.0163265306122
1220	0.61	-3.66702898551	3.27073170732	-5.11851851852	-1.44897959184
1221	0.6105	-0.848913043478	10.3317073171	-3.68888888889	-0.0163265306122
1222	0.611	-14.9394927536	8.91951219512	-5.11851851852	1.41632653061
1223	0.6115	18.8778985507	8.91951219512	-6.54814814815	-0.0163265306122
1224	0.612	-7.89420289855	7.50731707317	-3.68888888889	4.28163265306
1225	0.6125	-2.25797101449	8.91951219512	0.6	2.84897959184
1226	0.613	0.560144927536	6.09512195122	-7.97777777778	-1.44897959184
1227	0.6135	-0.848913043478	-5.20243902439	-3.68888888889	2.84897959184
1228	0.614	3.37826086957	24.4536585366	-6.54814814815	-1.44897959184
1229	0.6145	-10.7123188406	8.91951219512	-3.68888888889	-1.44897959184
1230	0.615	17.4688405797	7.50731707317	-5.11851851852	1.41632653061
1231	0.6155	4.78731884058	8.91951219512	-0.82962962963	1.41632653061
1232	0.616	4.78731884058	10.3317073171	-12.2666666667	-1.44897959184
1233	0.6165	4.78731884058	10.3317073171	-13.6962962963	-1.44897959184
1234	0.617	0.560144927536	1.85853658537	-3.68888888889	1.41632653061
1235	0.6175	7.60543478261	3.27073170732	-2.25925925926	1.41632653061
1236	0.618	-5.07608695652	8.91951219512	-2.25925925926	-2.88163265306
1237	0.6185	17.4688405797	8.91951219512	-2.25925925926	-1.44897959184
1238	0.619	-0.848913043478	8.91951219512	-3.68888888889	15.7428571429
1239	0.6195	-2.25797101449	8.91951219512	-2.25925925926	-0.0163265306122
1240	0.62	-0.848913043478	10.3317073171	-13.6962962963	-2.88163265306
1241	0.6205	-2.25797101449	25.8658536585	-3.68888888889	-1.44897959184
1242	0.621	-3.66702898551	1.85853658537	-3.68888888889	1.41632653061
1243	0.6215	-6.48514492754	7.50731707317	-6.54814814815	1.41632653061
1244	0.622	0.560144927536	8.91951219512	-2.25925925926	-7.17959183673
1245	0.6225	-3.66702898551	8.91951219512	-6.54814814815	11.4448979592
1246	0.623	-5.07608695652	7.50731707317	13.4666666667	-1.44897959184
1247	0.6235	-2.25797101449	6.09512195122	-5.11851851852	-0.0163265306122
1248	0.624	-0.848913043478	8.91951219512	-5.11851851852	-1.44897959184
1249	0.6245	0.560144927536	4.68292682927	-3.68888888889	-0.0163265306122
1250	0.625	-13.5304347826	10.3317073171	-5.11851851852	-1.44897959184
1251	0.6255	17.4688405797	8.91951219512	-3.68888888889	-11.4775510204
1252	0.626	0.560144927536	8.91951219512	0.6	-0.0163265306122
1253	0.6265	-0.848913043478	10.3317073171	-5.11851851852	-7.17959183673
1254	0.627	-0.848913043478	7.50731707317	-12.2666666667	-0.0163265306122
1255	0.6275	-3.66702898551	24.4536585366	-6.54814814815	-1.44897959184
1256	0.628	-2.25797101449	-0.965853658537	-9.40740740741	-1.44897959184
1257	0.6285	0.560144927536	7.50731707317	-2.25925925926	-1.44897959184
1258	0.629	13.2416666667	6.09512195122	-3.68888888889	-0.0163265306122
1259	0.6295	-0.848913043478	10.3317073171	-12.2666666667	-1.44897959184
1260	0.63	0.560144927536	13.156097561	-9.40740740741	-1.44897959184
1261	0.6305	-0.848913043478	13.156097561	-3.68888888889	-0.0163265306122
1262	0.631	1.96920289855	0.446341463415	-7.97777777778	-1.44897959184
1263	0.6315	0.560144927536	18.8048780488	-10.837037037	-1.44897959184
1264	0.632	13.2416666667	6.09512195122	-3.68888888889	-0.0163265306122
1265	0.6325	-6.48514492754	7.50731707317	-5.11851851852	-5.74693877551
1266	0.633	0.560144927536	8.91951219512	-7.97777777778	-8.61224489796
1267	0.6335	1.96920289855	10.3317073171	-3.68888888889	-4.31428571429
1268	0.634	1.96920289855	10.3317073171	-0.82962962963	-4.31428571429
1269	0.6345	0.560144927536	-0.965853658537	-3.68888888889	-0.0163265306122
1270	0.635	-3.66702898551	8.91951219512	-5.11851851852	-1.44897959184
1271	0.6355	-7.89420289855	7.50731707317	-7.97777777778	-5.74693877551
1272	0.636	10.4235507246	6.09512195122	-3.68888888889	-7.17959183673
1273	0.6365	-2.25797101449	7.50731707317	-3.68888888889	-4.31428571429
1274	0.637	1.96920289855	7.50731707317	12.037037037	-1.44897959184
1275	0.6375	3.37826086957	10.3317073171	-7.97777777778	-7.17959183673
1276	0.638	3.37826086957	6.09512195122	-6.54814814815	-4.31428571429
1277	0.6385	0.560144927536	24.4536585366	-7.97777777778	-2.88163265306
1278	0.639	4.78731884058	13.156097561	-3.68888888889	-2.88163265306
1279	0.6395	-5.07608695652	13.156097561	-5.11851851852	-1.44897959184
1280	0.64	3.37826086957	10.3317073171	-2.25925925926	-4.31428571429
1281	0.6405	3.37826086957	8.91951219512	13.4666666667	-1.44897959184
1282	0.641	3.37826086957	4.68292682927	-12.2666666667	-2.88163265306
1283	0.6415	3.37826086957	17.3926829268	-6.54814814815	-2.88163265306
1284	0.642	-0.848913043478	4.68292682927	-5.11851851852	-0.0163265306122
1285	0.6425	-10.7123188406	10.3317073171	-5.11851851852	-2.88163265306
1286	0.643	16.0597826087	7.50731707317	-3.68888888889	-8.61224489796
1287	0.6435	-0.848913043478	8.91951219512	-6.54814814815	5.71428571429
1288	0.644	-0.848913043478	11.743902439	-10.837037037	-5.74693877551
1289	0.6445	-0.848913043478	6.09512195122	6.31851851852	1.41632653061
1290	0.645	0.560144927536	-2.37804878049	-3.68888888889	-1.44897959184
1291	0.6455	-3.66702898551	28.6902439024	-2.25925925926	-2.88163265306
1292	0.646	-0.848913043478	10.3317073171	-2.25925925926	1.41632653061
1293	0.6465	3.37826086957	8.91951219512	-2.25925925926	-1.44897959184
1294	0.647	-0.848913043478	7.50731707317	-0.82962962963	-4.31428571429
1295	0.6475	-0.848913043478	6.09512195122	12.037037037	-1.44897959184
1296	0.648	-0.848913043478	7.50731707317	-15.1259259259	-0.0163265306122
1297	0.6485	-2.25797101449	13.156097561	-3.68888888889	-1.44897959184
1298	0.649	0.560144927536	3.27073170732	-3.68888888889	-2.88163265306
1299	0.6495	-12.1213768116	8.91951219512	-3.68888888889	1.41632653061
1300	0.65	-6.48514492754	10.3317073171	-2.25925925926	-10.0448979592
1301	0.6505	0.560144927536	8.91951219512	-5.11851851852	-8.61224489796
1302	0.651	0.560144927536	4.68292682927	-9.40740740741	-0.0163265306122
1303	0.6515	0.560144927536	-2.37804878049	-3.68888888889	-1.44897959184
1304	0.652	-2.25797101449	20.2170731707	-3.68888888889	-2.88163265306
1305	0.6525	-5.07608695652	-0.965853658537	-5.11851851852	-0.0163265306122
1306	0.653	-3.66702898551	1.85853658537	-3.68888888889	1.41632653061
1307	0.6535	-9.30326086957	3.27073170732	-6.54814814815	1.41632653061
1308	0.654	-0.848913043478	3.27073170732	-0.82962962963	4.28163265306
1309	0.6545	-0.848913043478	4.68292682927	-12.2666666667	-1.44897959184
1310	0.655	-3.66702898551	4.68292682927	-9.40740740741	-1.44897959184
1311	0.6555	0.560144927536	21.6292682927	-6.54814814815	-1.44897959184
1312	0.656	1.96920289855	-5.20243902439	-2.25925925926	-1.44897959184
1313	0.6565	3.37826086957	4.68292682927	-3.68888888889	-0.0163265306122
1314	0.657	-12.1213768116	4.68292682927	-5.11851851852	-0.0163265306122
1315	0.6575	-0.848913043478	7.50731707317	-3.68888888889	12.8775510204
1316	0.658	0.560144927536	4.68292682927	-9.40740740741	-1.44897959184
1317	0.6585	-2.25797101449	6.09512195122	-5.11851851852	-1.44897959184
1318	0.659	-0.848913043478	8.91951219512	-5.11851851852	-0.0163265306122
1319	0.6595	1.96920289855	-8.02682926829	-0.82962962963	-0.0163265306122
1320	0.66	-0.848913043478	4.68292682927	-3.68888888889	-1.44897959184
1321	0.6605	-3.66702898551	-0.965853658537	-3.68888888889	-1.44897959184
1322	0.661	-3.66702898551	6.09512195122	-6.54814814815	-2.88163265306
1323	0.6615	-0.848913043478	6.09512195122	-15.1259259259	-2.88163265306
1324	0.662	-0.848913043478	8.91951219512	9.17777777778	1.41632653061
1325	0.6625	-0.848913043478	4.68292682927	-2.25925925926	-1.44897959184
1326	0.663	-0.848913043478	-0.965853658537	-3.68888888889	1.41632653061
1327	0.6635	-7.89420289855	6.09512195122	-3.68888888889	-1.44897959184
1328	0.664	7.60543478261	3.27073170732	-3.68888888889	-7.17959183673
1329	0.6645	-0.848913043478	7.50731707317	-5.11851851852	5.71428571429
1330	0.665	3.37826086957	10.3317073171	-0.82962962963	12.8775510204
1331	0.6655	0.560144927536	6.09512195122	-12.2666666667	-1.44897959184
1332	0.666	-0.848913043478	6.09512195122	-5.11851851852	-2.88163265306
1333	0.6665	0.560144927536	18.8048780488	-3.68888888889	-1.44897959184
1334	0.667	1.96920289855	4.68292682927	-6.54814814815	1.41632653061
1335	0.6675	-16.3485507246	7.50731707317	-3.68888888889	4.28163265306
1336	0.668	-13.5304347826	7.50731707317	-2.25925925926	-7.17959183673
1337	0.6685	-2.25797101449	10.3317073171	0.6	-1.44897959184
1338	0.669	0.560144927536	8.91951219512	-9.40740740741	-0.0163265306122
1339	0.6695	0.560144927536	13.156097561	-3.68888888889	-1.44897959184
1340	0.67	0.560144927536	17.3926829268	-3.68888888889	-4.31428571429
1341	0.6705	0.560144927536	4.68292682927	-2.25925925926	-0.0163265306122
1342	0.671	-6.48514492754	10.3317073171	-3.68888888889	-4.31428571429
1343	0.6715	-0.848913043478	10.3317073171	-3.68888888889	14.3102040816
1344	0.672	1.96920289855	8.91951219512	-3.68888888889	-1.44897959184
1345	0.6725	1.96920289855	6.09512195122	-2.25925925926	-2.88163265306
1346	0.673	0.560144927536	-2.37804878049	-7.97777777778	-0.0163265306122
1347	0.6735	4.78731884058	-2.37804878049	-6.54814814815	-2.88163265306
1348	0.674	7.60543478261	6.09512195122	-3.68888888889	-0.0163265306122
1349	0.6745	-5.07608695652	7.50731707317	-5.11851851852	-2.88163265306
1350	0.675	-5.07608695652	8.91951219512	-6.54814814815	-2.88163265306
1351	0.6755	3.37826086957	6.09512195122	0.6	-1.44897959184
1352	0.676	0.560144927536	13.156097561	-13.6962962963	-4.31428571429
1353	0.6765	1.96920289855	10.3317073171	-3.68888888889	-2.88163265306
1354	0.677	-2.25797101449	-2.37804878049	-2.25925925926	-1.44897959184
1355	0.6775	-6.48514492754	10.3317073171	-2.25925925926	-0.0163265306122
1356	0.678	-6.48514492754	7.50731707317	-3.68888888889	-2.88163265306
1357	0.6785	-9.30326086957	10.3317073171	-3.68888888889	1.41632653061
1358	0.679	-3.66702898551	7.50731707317	-2.25925925926	-4.31428571429
1359	0.6795	-0.848913043478	4.68292682927	4.88888888889	-2.88163265306
1360	0.68	-0.848913043478	-5.20243902439	-3.68888888889	-0.0163265306122
1361	0.6805	0.560144927536	21.6292682927	-3.68888888889	-1.44897959184
1362	0.681	0.560144927536	-3.79024390244	-2.25925925926	-1.44897959184
1363	0.6815	16.0597826087	4.68292682927	-2.25925925926	-1.44897959184
1364	0.682	-7.89420289855	6.09512195122	-3.68888888889	14.3102040816
1365	0.6825	0.560144927536	6.09512195122	-3.68888888889	-8.61224489796
1366	0.683	-2.25797101449	7.50731707317	-7.97777777778	-2.88163265306
1367	0.6835	-0.848913043478	6.09512195122	-9.40740740741	-1.44897959184
1368	0.684	-0.848913043478	1.85853658537	-6.54814814815	-1.44897959184
1369	0.6845	-2.25797101449	6.09512195122	-3.68888888889	-1.44897959184
1370	0.685	-12.1213768116	7.50731707317	-3.68888888889	-1.44897959184
1371	0.6855	21.6960144928	8.91951219512	-3.68888888889	-2.88163265306
1372	0.686	-6.48514492754	6.09512195122	-3.68888888889	12.8775510204
1373	0.6865	1.96920289855	6.09512195122	-3.68888888889	-10.0448979592
1374	0.687	0.560144927536	6.09512195122	6.31851851852	-2.88163265306
1375	0.6875	-0.848913043478	7.50731707317	-5.11851851852	-2.88163265306
1376	0.688	-0.848913043478	7.50731707317	-6.54814814815	-2.88163265306
1377	0.6885	3.37826086957	4.68292682927	-3.68888888889	-2.88163265306
1378	0.689	18.8778985507	6.09512195122	-0.82962962963	2.84897959184
1379	0.6895	-6.48514492754	7.50731707317	-0.82962962963	14.3102040816
1380	0.69	-0.848913043478	6.09512195122	-5.11851851852	-8.61224489796
1381	0.6905	-2.25797101449	4.68292682927	-5.11851851852	-2.88163265306
1382	0.691	0.560144927536	-3.79024390244	-3.68888888889	-1.44897959184
1383	0.6915	0.560144927536	23.0414634146	-2.25925925926	-0.0163265306122
1384	0.692	-2.25797101449	-2.37804878049	-2.25925925926	-1.44897959184
1385	0.6925	17.4688405797	4.68292682927	-2.25925925926	1.41632653061
1386	0.693	-5.07608695652	4.68292682927	-0.82962962963	8.57959183673
1387	0.6935	0.560144927536	3.27073170732	-7.97777777778	-7.17959183673
1388	0.694	0.560144927536	6.09512195122	4.88888888889	-2.88163265306
1389	0.6945	-3.66702898551	1.85853658537	-3.68888888889	-0.0163265306122
1390	0.695	-2.25797101449	-6.61463414634	-3.68888888889	-0.0163265306122
1391	0.6955	-3.66702898551	-5.20243902439	-3.68888888889	-1.44897959184
1392	0.696	-2.25797101449	4.68292682927	-6.54814814815	-1.44897959184
1393	0.6965	0.560144927536	4.68292682927	-3.68888888889	-10.0448979592
1394	0.697	-5.07608695652	6.09512195122	-7.97777777778	-1.44897959184
1395	0.6975	-0.848913043478	6.09512195122	14.8962962963	-1.44897959184
1396	0.698	-3.66702898551	1.85853658537	-13.6962962963	-8.61224489796
1397	0.6985	-3.66702898551	6.09512195122	9.17777777778	-1.44897959184
1398	0.699	-0.848913043478	0.446341463415	-2.25925925926	-1.44897959184
1399	0.6995	-12.1213768116	4.68292682927	-3.68888888889	-4.31428571429
1400	0.7	11.8326086957	6.09512195122	-3.68888888889	-12.9102040816
1401	0.7005	-5.07608695652	7.50731707317	-5.11851851852	14.3102040816
1402	0.701	-5.07608695652	7.50731707317	-5.11851851852	-11.4775510204
1403	0.7015	-5.07608695652	6.09512195122	-7.97777777778	-1.44897959184
1404	0.702	-5.07608695652	-0.965853658537	-0.82962962963	-1.44897959184
1405	0.7025	0.560144927536	20.2170731707	-3.68888888889	-2.88163265306
1406	0.703	-5.07608695652	-3.79024390244	-3.68888888889	-4.31428571429
1407	0.7035	16.0597826087	6.09512195122	-3.68888888889	-1.44897959184
1408	0.704	-9.30326086957	6.09512195122	-5.11851851852	-4.31428571429
1409	0.7045	-2.25797101449	7.50731707317	-0.82962962963	4.28163265306
1410	0.705	-2.25797101449	6.09512195122	-6.54814814815	-1.44897959184
1411	0.7055	-2.25797101449	7.50731707317	-5.11851851852	-1.44897959184
1412	0.706	-0.848913043478	-0.965853658537	-5.11851851852	-0.0163265306122
1413	0.7065	0.560144927536	13.156097561	-5.11851851852	-1.44897959184
1414	0.707	-9.30326086957	4.68292682927	-5.11851851852	-0.0163265306122
1415	0.7075	-3.66702898551	6.09512195122	-5.11851851852	-12.9102040816
1416	0.708	-0.848913043478	6.09512195122	-6.54814814815	-10.0448979592
1417	0.7085	3.37826086957	6.09512195122	-5.11851851852	15.7428571429
1418	0.709	0.560144927536	4.68292682927	-15.1259259259	-1.44897959184
1419	0.7095	0.560144927536	-5.20243902439	-7.97777777778	-1.44897959184
1420	0.71	3.37826086957	0.446341463415	-2.25925925926	1.41632653061
1421	0.7105	-9.30326086957	3.27073170732	-3.68888888889	1.41632653061
1422	0.711	-7.89420289855	4.68292682927	-5.11851851852	-12.9102040816
1423	0.7115	0.560144927536	6.09512195122	-5.11851851852	-8.61224489796
1424	0.712	1.96920289855	6.09512195122	-6.54814814815	-1.44897959184
1425	0.7125	1.96920289855	-0.965853658537	-3.68888888889	-0.0163265306122
1426	0.713	-0.848913043478	17.3926829268	-6.54814814815	-2.88163265306
1427	0.7135	-5.07608695652	4.68292682927	-6.54814814815	-1.44897959184
1428	0.714	1.96920289855	6.09512195122	-5.11851851852	-4.31428571429
1429	0.7145	18.8778985507	6.09512195122	-6.54814814815	-0.0163265306122
1430	0.715	0.560144927536	4.68292682927	-3.68888888889	-7.17959183673
1431	0.7155	0.560144927536	6.09512195122	0.6	-2.88163265306
1432	0.716	0.560144927536	3.27073170732	-6.54814814815	-2.88163265306
1433	0.7165	-0.848913043478	10.3317073171	-5.11851851852	-1.44897959184
1434	0.717	-2.25797101449	4.68292682927	-3.68888888889	-4.31428571429
1435	0.7175	4.78731884058	8.91951219512	-2.25925925926	-4.31428571429
1436	0.718	18.8778985507	6.09512195122	-7.97777777778	-1.44897959184
1437	0.7185	-10.7123188406	10.3317073171	-3.68888888889	-11.4775510204
1438	0.719	-0.848913043478	4.68292682927	-7.97777777778	-2.88163265306
1439	0.7195	3.37826086957	3.27073170732	-3.68888888889	-1.44897959184
1440	0.72	-3.66702898551	10.3317073171	-2.25925925926	-2.88163265306
1441	0.7205	-0.848913043478	23.0414634146	-5.11851851852	-1.44897959184
1442	0.721	-3.66702898551	7.50731707317	-2.25925925926	-2.88163265306
1443	0.7215	7.60543478261	7.50731707317	-5.11851851852	-0.0163265306122
1444	0.722	-12.1213768116	8.91951219512	-3.68888888889	15.7428571429
1445	0.7225	-2.25797101449	8.91951219512	-3.68888888889	-10.0448979592
1446	0.723	-5.07608695652	7.50731707317	-9.40740740741	-0.0163265306122
1447	0.7235	-0.848913043478	0.446341463415	-6.54814814815	-1.44897959184
1448	0.724	0.560144927536	27.2780487805	-6.54814814815	-0.0163265306122
1449	0.7245	-3.66702898551	1.85853658537	-6.54814814815	-2.88163265306
1450	0.725	1.96920289855	10.3317073171	-6.54814814815	-0.0163265306122
1451	0.7255	-9.30326086957	7.50731707317	-7.97777777778	-0.0163265306122
1452	0.726	3.37826086957	4.68292682927	-6.54814814815	-7.17959183673
1453	0.7265	7.60543478261	4.68292682927	-5.11851851852	-2.88163265306
1454	0.727	7.60543478261	6.09512195122	-0.82962962963	-2.88163265306
1455	0.7275	7.60543478261	13.156097561	-7.97777777778	-1.44897959184
1456	0.728	4.78731884058	7.50731707317	-5.11851851852	-1.44897959184
1457	0.7285	3.37826086957	20.2170731707	-3.68888888889	-1.44897959184
1458	0.729	23.1050724638	6.09512195122	-5.11851851852	-15.7755102041
1459	0.7295	4.78731884058	6.09512195122	-6.54814814815	15.7428571429
1460	0.73	4.78731884058	7.50731707317	-2.25925925926	-1.44897959184
1461	0.7305	3.37826086957	7.50731707317	4.88888888889	-0.0163265306122
1462	0.731	3.37826086957	4.68292682927	-12.2666666667	-1.44897959184
1463	0.7315	4.78731884058	14.5682926829	-5.11851851852	-1.44897959184
1464	0.732	0.560144927536	6.09512195122	-5.11851851852	-0.0163265306122
1465	0.7325	16.0597826087	7.50731707317	-3.68888888889	-0.0163265306122
1466	0.733	-7.89420289855	6.09512195122	-0.82962962963	-14.3428571429
1467	0.7335	3.37826086957	4.68292682927	-5.11851851852	-7.17959183673
1468	0.734	3.37826086957	4.68292682927	-12.2666666667	-1.44897959184
1469	0.7345	3.37826086957	1.85853658537	-3.68888888889	-1.44897959184
1470	0.735	3.37826086957	14.5682926829	-6.54814814815	-1.44897959184
1471	0.7355	-3.66702898551	-2.37804878049	-5.11851851852	-2.88163265306
1472	0.736	3.37826086957	3.27073170732	-3.68888888889	-4.31428571429
1473	0.7365	-7.89420289855	3.27073170732	-0.82962962963	-1.44897959184
1474	0.737	0.560144927536	3.27073170732	-7.97777777778	-8.61224489796
1475	0.7375	0.560144927536	4.68292682927	-2.25925925926	1.41632653061
1476	0.738	0.560144927536	4.68292682927	-6.54814814815	-2.88163265306
1477	0.7385	-0.848913043478	6.09512195122	-7.97777777778	-2.88163265306
1478	0.739	1.96920289855	-5.20243902439	-7.97777777778	-1.44897959184
1479	0.7395	-12.1213768116	3.27073170732	-6.54814814815	-7.17959183673
1480	0.74	21.6960144928	4.68292682927	-7.97777777778	-12.9102040816
1481	0.7405	0.560144927536	1.85853658537	-6.54814814815	14.3102040816
1482	0.741	1.96920289855	3.27073170732	-6.54814814815	-1.44897959184
1483	0.7415	0.560144927536	4.68292682927	4.88888888889	-1.44897959184
1484	0.742	1.96920289855	10.3317073171	-3.68888888889	-2.88163265306
1485	0.7425	0.560144927536	0.446341463415	-7.97777777778	-2.88163265306
1486	0.743	11.8326086957	3.27073170732	-6.54814814815	-1.44897959184
1487	0.7435	-12.1213768116	3.27073170732	-5.11851851852	-1.44897959184
1488	0.744	-0.848913043478	6.09512195122	-5.11851851852	-2.88163265306
1489	0.7445	1.96920289855	1.85853658537	-9.40740740741	8.57959183673
1490	0.745	1.96920289855	6.09512195122	-2.25925925926	-1.44897959184
1491	0.7455	0.560144927536	-3.79024390244	-7.97777777778	-0.0163265306122
1492	0.746	3.37826086957	-0.965853658537	-7.97777777778	-1.44897959184
1493	0.7465	-3.66702898551	4.68292682927	-5.11851851852	-0.0163265306122
1494	0.747	-7.89420289855	6.09512195122	-5.11851851852	-2.88163265306
1495	0.7475	0.560144927536	6.09512195122	-7.97777777778	12.8775510204
1496	0.748	0.560144927536	6.09512195122	-9.40740740741	-1.44897959184
1497	0.7485	1.96920289855	3.27073170732	-3.68888888889	-0.0163265306122
1498	0.749	0.560144927536	6.09512195122	-7.97777777778	-2.88163265306
1499	0.7495	0.560144927536	-6.61463414634	-5.11851851852	-1.44897959184
1500	0.75	1.96920289855	4.68292682927	-6.54814814815	-0.0163265306122
1501	0.7505	-9.30326086957	1.85853658537	-6.54814814815	-1.44897959184
1502	0.751	13.2416666667	3.27073170732	-2.25925925926	-1.44897959184
1503	0.7515	3.37826086957	3.27073170732	-3.68888888889	-4.31428571429
1504	0.752	0.560144927536	3.27073170732	-16.5555555556	-1.44897959184
1505	0.7525	0.560144927536	3.27073170732	-3.68888888889	-1.44897959184
1506	0.753	0.560144927536	-3.79024390244	-6.54814814815	-1.44897959184
1507	0.7535	0.560144927536	-0.965853658537	-5.11851851852	-1.44897959184
1508	0.754	9.01449275362	1.85853658537	-5.11851851852	-0.0163265306122
1509	0.7545	-2.25797101449	6.09512195122	-0.82962962963	12.8775510204
1510	0.755	1.96920289855	3.27073170732	-0.82962962963	-7.17959183673
1511	0.7555	1.96920289855	1.85853658537	-12.2666666667	-8.61224489796
1512	0.756	-2.25797101449	-3.79024390244	-3.68888888889	-0.0163265306122
1513	0.7565	0.560144927536	8.91951219512	-6.54814814815	-0.0163265306122
1514	0.757	-5.07608695652	-0.965853658537	-6.54814814815	-0.0163265306122
1515	0.7575	-12.1213768116	1.85853658537	-3.68888888889	-2.88163265306
1516	0.758	18.8778985507	3.27073170732	-3.68888888889	-7.17959183673
1517	0.7585	0.560144927536	4.68292682927	-6.54814814815	11.4448979592
1518	0.759	0.560144927536	3.27073170732	-10.837037037	-5.74693877551
1519	0.7595	0.560144927536	8.91951219512	-7.97777777778	-1.44897959184
1520	0.76	1.96920289855	-6.61463414634	-6.54814814815	-1.44897959184
1521	0.7605	3.37826086957	24.4536585366	-6.54814814815	-2.88163265306
1522	0.761	-7.89420289855	3.27073170732	-6.54814814815	-2.88163265306
1523	0.7615	13.2416666667	1.85853658537	-6.54814814815	-4.31428571429
1524	0.762	0.560144927536	3.27073170732	-6.54814814815	2.84897959184
1525	0.7625	0.560144927536	3.27073170732	-15.1259259259	-1.44897959184
1526	0.763	0.560144927536	6.09512195122	-9.40740740741	-0.0163265306122
1527	0.7635	1.96920289855	7.50731707317	-7.97777777778	1.41632653061
1528	0.764	1.96920289855	-3.79024390244	-6.54814814815	-0.0163265306122
1529	0.7645	-0.848913043478	18.8048780488	-5.11851851852	-0.0163265306122
1530	0.765	-3.66702898551	6.09512195122	-3.68888888889	-1.44897959184
1531	0.7655	11.8326086957	6.09512195122	-6.54814814815	-1.44897959184
1532	0.766	-0.848913043478	6.09512195122	-10.837037037	4.28163265306
1533	0.7665	0.560144927536	3.27073170732	-12.2666666667	-8.61224489796
1534	0.767	-3.66702898551	0.446341463415	-6.54814814815	-2.88163265306
1535	0.7675	-2.25797101449	-0.965853658537	-3.68888888889	-5.74693877551
1536	0.768	-2.25797101449	-0.965853658537	-6.54814814815	-5.74693877551
1537	0.7685	3.37826086957	-0.965853658537	-2.25925925926	-5.74693877551
1538	0.769	-5.07608695652	0.446341463415	-5.11851851852	-0.0163265306122
1539	0.7695	-2.25797101449	4.68292682927	-0.82962962963	-7.17959183673
1540	0.77	1.96920289855	3.27073170732	-15.1259259259	-1.44897959184
1541	0.7705	3.37826086957	4.68292682927	-12.2666666667	-2.88163265306
1542	0.771	4.78731884058	4.68292682927	-6.54814814815	-4.31428571429
1543	0.7715	9.01449275362	-6.61463414634	-3.68888888889	-1.44897959184
1544	0.772	4.78731884058	0.446341463415	-7.97777777778	-1.44897959184
1545	0.7725	0.560144927536	-6.61463414634	-5.11851851852	-1.44897959184
1546	0.773	-3.66702898551	4.68292682927	-5.11851851852	7.14693877551
1547	0.7735	7.60543478261	0.446341463415	-10.837037037	-5.74693877551
1548	0.774	7.60543478261	4.68292682927	-0.82962962963	-1.44897959184
1549	0.7745	4.78731884058	-0.965853658537	-6.54814814815	-1.44897959184
1550	0.775	6.19637681159	15.9804878049	-6.54814814815	-2.88163265306
1551	0.7755	0.560144927536	3.27073170732	-3.68888888889	-1.44897959184
1552	0.776	4.78731884058	-8.02682926829	-7.97777777778	-2.88163265306
1553	0.7765	-10.7123188406	1.85853658537	-3.68888888889	15.7428571429
1554	0.777	-0.848913043478	1.85853658537	-5.11851851852	-11.4775510204
1555	0.7775	-0.848913043478	1.85853658537	-12.2666666667	-4.31428571429
1556	0.778	0.560144927536	3.27073170732	-17.9851851852	-0.0163265306122
1557	0.7785	0.560144927536	3.27073170732	-6.54814814815	-2.88163265306
1558	0.779	1.96920289855	-0.965853658537	-5.11851851852	-1.44897959184
1559	0.7795	-3.66702898551	6.09512195122	-6.54814814815	-4.31428571429
1560	0.78	13.2416666667	6.09512195122	-3.68888888889	-1.44897959184
1561	0.7805	4.78731884058	7.50731707317	-6.54814814815	4.28163265306
1562	0.781	4.78731884058	3.27073170732	-3.68888888889	-5.74693877551
1563	0.7815	4.78731884058	6.09512195122	-17.9851851852	-4.31428571429
1564	0.782	0.560144927536	3.27073170732	12.037037037	-2.88163265306
1565	0.7825	3.37826086957	-2.37804878049	-7.97777777778	-0.0163265306122
1566	0.783	1.96920289855	-3.79024390244	-7.97777777778	-2.88163265306
1567	0.7835	0.560144927536	6.09512195122	-7.97777777778	-2.88163265306
1568	0.784	4.78731884058	6.09512195122	-6.54814814815	-8.61224489796
1569	0.7845	-5.07608695652	4.68292682927	-9.40740740741	2.84897959184
1570	0.785	-0.848913043478	4.68292682927	-5.11851851852	1.41632653061
1571	0.7855	-0.848913043478	0.446341463415	-9.40740740741	-1.44897959184
1572	0.786	0.560144927536	6.09512195122	-7.97777777778	-1.44897959184
1573	0.7865	0.560144927536	-5.20243902439	-5.11851851852	-4.31428571429
1574	0.787	0.560144927536	4.68292682927	-5.11851851852	-1.44897959184
1575	0.7875	-5.07608695652	3.27073170732	-7.97777777778	-4.31428571429
1576	0.788	-7.89420289855	3.27073170732	-6.54814814815	-0.0163265306122
1577	0.7885	0.560144927536	4.68292682927	-2.25925925926	-1.44897959184
1578	0.789	1.96920289855	1.85853658537	-15.1259259259	-2.88163265306
1579	0.7895	0.560144927536	6.09512195122	9.17777777778	-2.88163265306
1580	0.79	-0.848913043478	0.446341463415	-13.6962962963	-2.88163265306
1581	0.7905	0.560144927536	3.27073170732	-3.68888888889	-4.31428571429
1582	0.791	-5.07608695652	6.09512195122	-6.54814814815	-5.74693877551
1583	0.7915	9.01449275362	6.09512195122	-5.11851851852	-4.31428571429
1584	0.792	0.560144927536	6.09512195122	-0.82962962963	-2.88163265306
1585	0.7925	1.96920289855	8.91951219512	7.74814814815	-1.44897959184
1586	0.793	0.560144927536	6.09512195122	-12.2666666667	-1.44897959184
1587	0.7935	0.560144927536	-2.37804878049	-7.97777777778	-4.31428571429
1588	0.794	-0.848913043478	21.6292682927	-6.54814814815	-2.88163265306
1589	0.7945	1.96920289855	6.09512195122	-6.54814814815	-2.88163265306
1590	0.795	-3.66702898551	6.09512195122	-5.11851851852	-4.31428571429
1591	0.7955	-0.848913043478	7.50731707317	-5.11851851852	-5.74693877551
1592	0.796	-3.66702898551	7.50731707317	6.31851851852	-0.0163265306122
1593	0.7965	-2.25797101449	3.27073170732	-13.6962962963	-1.44897959184
1594	0.797	-0.848913043478	6.09512195122	-6.54814814815	-2.88163265306
1595	0.7975	-0.848913043478	-3.79024390244	-3.68888888889	-2.88163265306
1596	0.798	-7.89420289855	7.50731707317	-6.54814814815	-2.88163265306
1597	0.7985	9.01449275362	4.68292682927	-3.68888888889	-12.9102040816
1598	0.799	-2.25797101449	6.09512195122	-5.11851851852	12.8775510204
1599	0.7995	-0.848913043478	6.09512195122	7.74814814815	-4.31428571429
1600	0.8	0.560144927536	6.09512195122	-6.54814814815	-4.31428571429
1601	0.8005	-0.848913043478	-5.20243902439	-6.54814814815	-1.44897959184
1602	0.801	0.560144927536	0.446341463415	-6.54814814815	-2.88163265306
1603	0.8015	1.96920289855	4.68292682927	-7.97777777778	-1.44897959184
1604	0.802	-9.30326086957	3.27073170732	-5.11851851852	-1.44897959184
1605	0.8025	1.96920289855	4.68292682927	-3.68888888889	-4.31428571429
1606	0.803	3.37826086957	6.09512195122	-5.11851851852	11.4448979592
1607	0.8035	1.96920289855	7.50731707317	9.17777777778	-2.88163265306
1608	0.804	1.96920289855	-8.02682926829	-6.54814814815	-4.31428571429
1609	0.8045	0.560144927536	1.85853658537	-5.11851851852	-1.44897959184
1610	0.805	0.560144927536	4.68292682927	-7.97777777778	-4.31428571429
1611	0.8055	17.4688405797	-2.37804878049	-6.54814814815	1.41632653061
1612	0.806	-6.48514492754	0.446341463415	-3.68888888889	4.28163265306
1613	0.8065	1.96920289855	1.85853658537	-10.837037037	-8.61224489796
1614	0.807	1.96920289855	3.27073170732	-7.97777777778	12.8775510204
1615	0.8075	0.560144927536	6.09512195122	-6.54814814815	-8.61224489796
1616	0.808	3.37826086957	3.27073170732	-6.54814814815	-1.44897959184
1617	0.8085	0.560144927536	6.09512195122	-5.11851851852	-1.44897959184
1618	0.809	-12.1213768116	7.50731707317	-6.54814814815	-4.31428571429
1619	0.8095	1.96920289855	6.09512195122	-7.97777777778	-1.44897959184
1620	0.81	3.37826086957	7.50731707317	-7.97777777778	-4.31428571429
1621	0.8105	1.96920289855	8.91951219512	0.6	-2.88163265306
1622	0.811	3.37826086957	15.9804878049	-10.837037037	-1.44897959184
1623	0.8115	7.60543478261	0.446341463415	-3.68888888889	-1.44897959184
1624	0.812	10.4235507246	4.68292682927	-2.25925925926	-2.88163265306
1625	0.8125	-6.48514492754	8.91951219512	-5.11851851852	-2.88163265306
1626	0.813	23.1050724638	4.68292682927	-5.11851851852	-12.9102040816
1627	0.8135	4.78731884058	8.91951219512	-6.54814814815	12.8775510204
1628	0.814	3.37826086957	8.91951219512	13.4666666667	-1.44897959184
1629	0.8145	0.560144927536	7.50731707317	-12.2666666667	-2.88163265306
1630	0.815	1.96920289855	6.09512195122	-5.11851851852	-1.44897959184
1631	0.8155	3.37826086957	17.3926829268	-3.68888888889	-1.44897959184
1632	0.816	6.19637681159	0.446341463415	-5.11851851852	1.41632653061
1633	0.8165	1.96920289855	6.09512195122	-3.68888888889	-12.9102040816
1634	0.817	0.560144927536	8.91951219512	-5.11851851852	-8.61224489796
1635	0.8175	3.37826086957	6.09512195122	-12.2666666667	-1.44897959184
1636	0.818	7.60543478261	7.50731707317	9.17777777778	-0.0163265306122
1637	0.8185	0.560144927536	-0.965853658537	-3.68888888889	-1.44897959184
1638	0.819	3.37826086957	4.68292682927	-0.82962962963	-1.44897959184
1639	0.8195	4.78731884058	0.446341463415	-3.68888888889	-0.0163265306122
1640	0.82	-10.7123188406	6.09512195122	-6.54814814815	-0.0163265306122
1641	0.8205	0.560144927536	6.09512195122	-3.68888888889	-4.31428571429
1642	0.821	1.96920289855	6.09512195122	-2.25925925926	-1.44897959184
1643	0.8215	0.560144927536	8.91951219512	7.74814814815	-2.88163265306
1644	0.822	-3.66702898551	6.09512195122	-7.97777777778	-2.88163265306
1645	0.8225	-5.07608695652	13.156097561	-3.68888888889	-2.88163265306
1646	0.823	-0.848913043478	8.91951219512	-6.54814814815	-1.44897959184
1647	0.8235	-14.9394927536	8.91951219512	-6.54814814815	-1.44897959184
1648	0.824	16.0597826087	8.91951219512	-3.68888888889	-1.44897959184
1649	0.8245	-2.25797101449	13.156097561	-3.68888888889	-2.88163265306
1650	0.825	-3.66702898551	14.5682926829	2.02962962963	-1.44897959184
1651	0.8255	0.560144927536	15.9804878049	-6.54814814815	-2.88163265306
1652	0.826	0.560144927536	31.5146341463	-5.11851851852	-4.31428571429
1653	0.8265	-0.848913043478	7.50731707317	-6.54814814815	-2.88163265306
1654	0.827	-7.89420289855	10.3317073171	-3.68888888889	-4.31428571429
1655	0.8275	18.8778985507	8.91951219512	-2.25925925926	-10.0448979592
1656	0.828	1.96920289855	13.156097561	-0.82962962963	8.57959183673
1657	0.8285	0.560144927536	8.91951219512	-0.82962962963	-1.44897959184
1658	0.829	-0.848913043478	14.5682926829	-3.68888888889	-2.88163265306
1659	0.8295	1.96920289855	25.8658536585	-3.68888888889	-1.44897959184
1660	0.83	0.560144927536	3.27073170732	-5.11851851852	-4.31428571429
1661	0.8305	-12.1213768116	8.91951219512	-5.11851851852	-2.88163265306
1662	0.831	20.2869565217	6.09512195122	-2.25925925926	-2.88163265306
1663	0.8315	-10.7123188406	6.09512195122	-2.25925925926	1.41632653061
1664	0.832	-6.48514492754	6.09512195122	-9.40740740741	-1.44897959184
1665	0.8325	-3.66702898551	4.68292682927	-7.97777777778	-4.31428571429
1666	0.833	-5.07608695652	1.85853658537	-2.25925925926	-2.88163265306
1667	0.8335	-5.07608695652	8.91951219512	-2.25925925926	-1.44897959184
1668	0.834	-13.5304347826	6.09512195122	-0.82962962963	-1.44897959184
1669	0.8345	10.4235507246	7.50731707317	-2.25925925926	-10.0448979592
1670	0.835	-2.25797101449	6.09512195122	-3.68888888889	12.8775510204
1671	0.8355	-0.848913043478	6.09512195122	0.6	-8.61224489796
1672	0.836	-2.25797101449	4.68292682927	-9.40740740741	-1.44897959184
1673	0.8365	-3.66702898551	3.27073170732	-3.68888888889	-2.88163265306
1674	0.837	0.560144927536	13.156097561	-3.68888888889	-2.88163265306
1675	0.8375	-3.66702898551	3.27073170732	-3.68888888889	-1.44897959184
1676	0.838	-12.1213768116	7.50731707317	-3.68888888889	-4.31428571429
1677	0.8385	0.560144927536	3.27073170732	-2.25925925926	-0.0163265306122
1678	0.839	-0.848913043478	4.68292682927	-2.25925925926	-1.44897959184
1679	0.8395	-2.25797101449	7.50731707317	3.45925925926	-1.44897959184
1680	0.84	-0.848913043478	13.156097561	-5.11851851852	-2.88163265306
1681	0.8405	-2.25797101449	-2.37804878049	-2.25925925926	-0.0163265306122
1682	0.841	1.96920289855	8.91951219512	-2.25925925926	-2.88163265306
1683	0.8415	-6.48514492754	7.50731707317	-0.82962962963	-7.17959183673
1684	0.842	-6.48514492754	8.91951219512	-3.68888888889	4.28163265306
1685	0.8425	-0.848913043478	6.09512195122	2.02962962963	4.28163265306
1686	0.843	0.560144927536	4.68292682927	-9.40740740741	-1.44897959184
1687	0.8435	0.560144927536	10.3317073171	-5.11851851852	-0.0163265306122
1688	0.844	-0.848913043478	21.6292682927	-0.82962962963	-1.44897959184
1689	0.8445	1.96920289855	0.446341463415	-0.82962962963	-1.44897959184
1690	0.845	-7.89420289855	7.50731707317	-2.25925925926	-1.44897959184
1691	0.8455	-7.89420289855	6.09512195122	0.6	-1.44897959184
1692	0.846	-3.66702898551	4.68292682927	0.6	1.41632653061
1693	0.8465	-2.25797101449	4.68292682927	7.74814814815	-2.88163265306
1694	0.847	-2.25797101449	8.91951219512	-7.97777777778	-1.44897959184
1695	0.8475	-2.25797101449	25.8658536585	-0.82962962963	-2.88163265306
1696	0.848	-5.07608695652	0.446341463415	-2.25925925926	-1.44897959184
1697	0.8485	-7.89420289855	6.09512195122	-0.82962962963	-1.44897959184
1698	0.849	-12.1213768116	6.09512195122	-5.11851851852	-0.0163265306122
1699	0.8495	-0.848913043478	4.68292682927	0.6	-4.31428571429
1700	0.85	-3.66702898551	6.09512195122	14.8962962963	-2.88163265306
1701	0.8505	-5.07608695652	4.68292682927	-10.837037037	-4.31428571429
1702	0.851	0.560144927536	3.27073170732	-2.25925925926	-1.44897959184
1703	0.8515	-3.66702898551	1.85853658537	-0.82962962963	-2.88163265306
1704	0.852	-2.25797101449	4.68292682927	-0.82962962963	-2.88163265306
1705	0.8525	14.6507246377	4.68292682927	-0.82962962963	-1.44897959184
1706	0.853	-5.07608695652	4.68292682927	-0.82962962963	-12.9102040816
1707	0.8535	-3.66702898551	4.68292682927	-7.97777777778	-1.44897959184
1708	0.854	-3.66702898551	6.09512195122	-7.97777777778	-0.0163265306122
1709	0.8545	-3.66702898551	-0.965853658537	-2.25925925926	-2.88163265306
1710	0.855	-5.07608695652	3.27073170732	-2.25925925926	-2.88163265306
1711	0.8555	1.96920289855	6.09512195122	0.6	1.41632653061
1712	0.856	-7.89420289855	6.09512195122	-3.68888888889	-8.61224489796
1713	0.8565	-5.07608695652	6.09512195122	-6.54814814815	15.7428571429
1714	0.857	-0.848913043478	6.09512195122	16.3259259259	-1.44897959184
1715	0.8575	-0.848913043478	7.50731707317	-5.11851851852	-4.31428571429
1716	0.858	-0.848913043478	-0.965853658537	-0.82962962963	-2.88163265306
1717	0.8585	1.96920289855	-0.965853658537	-2.25925925926	-2.88163265306
1718	0.859	-5.07608695652	7.50731707317	-2.25925925926	-1.44897959184
1719	0.8595	-2.25797101449	6.09512195122	-2.25925925926	-1.44897959184
1720	0.86	-2.25797101449	7.50731707317	-5.11851851852	-10.0448979592
1721	0.8605	-2.25797101449	6.09512195122	-7.97777777778	-2.88163265306
1722	0.861	-3.66702898551	10.3317073171	-2.25925925926	-2.88163265306
1723	0.8615	-2.25797101449	0.446341463415	0.6	-1.44897959184
1724	0.862	-3.66702898551	3.27073170732	-0.82962962963	-2.88163265306
1725	0.8625	1.96920289855	7.50731707317	-0.82962962963	-4.31428571429
1726	0.863	-10.7123188406	6.09512195122	-0.82962962963	-1.44897959184
1727	0.8635	-0.848913043478	6.09512195122	-2.25925925926	-1.44897959184
1728	0.864	-0.848913043478	7.50731707317	-9.40740740741	-4.31428571429
1729	0.8645	-2.25797101449	6.09512195122	14.8962962963	-5.74693877551
1730	0.865	1.96920289855	20.2170731707	0.6	-1.44897959184
1731	0.8655	1.96920289855	0.446341463415	-0.82962962963	-4.31428571429
1732	0.866	-6.48514492754	8.91951219512	-0.82962962963	-7.17959183673
1733	0.8665	-0.848913043478	8.91951219512	-2.25925925926	7.14693877551
1734	0.867	-0.848913043478	7.50731707317	0.6	-12.9102040816
1735	0.8675	0.560144927536	8.91951219512	-2.25925925926	-4.31428571429
1736	0.868	-2.25797101449	1.85853658537	-0.82962962963	-2.88163265306
1737	0.8685	-0.848913043478	25.8658536585	-2.25925925926	-2.88163265306
1738	0.869	-3.66702898551	8.91951219512	-0.82962962963	-1.44897959184
1739	0.8695	-7.89420289855	6.09512195122	0.6	-1.44897959184
1740	0.87	-2.25797101449	7.50731707317	0.6	-7.17959183673
1741	0.8705	-3.66702898551	6.09512195122	-10.837037037	-2.88163265306
1742	0.871	-3.66702898551	8.91951219512	-10.837037037	-2.88163265306
1743	0.8715	-0.848913043478	3.27073170732	-2.25925925926	-2.88163265306
1744	0.872	-2.25797101449	23.0414634146	-5.11851851852	-2.88163265306
1745	0.8725	-3.66702898551	6.09512195122	-0.82962962963	-1.44897959184
1746	0.873	10.4235507246	6.09512195122	0.6	-7.17959183673
1747	0.8735	-3.66702898551	6.09512195122	-0.82962962963	-5.74693877551
1748	0.874	-2.25797101449	7.50731707317	-12.2666666667	-1.44897959184
1749	0.8745	0.560144927536	10.3317073171	12.037037037	-2.88163265306
1750	0.875	0.560144927536	10.3317073171	-6.54814814815	-0.0163265306122
1751	0.8755	1.96920289855	3.27073170732	-0.82962962963	-1.44897959184
1752	0.876	1.96920289855	10.3317073171	-3.68888888889	-2.88163265306
1753	0.8765	-0.848913043478	6.09512195122	-2.25925925926	-7.17959183673
1754	0.877	0.560144927536	8.91951219512	0.6	-0.0163265306122
1755	0.8775	0.560144927536	6.09512195122	-12.2666666667	-8.61224489796
