	Time	Channel 1	Channel 2	Channel 3	Channel 4
0	0.0	7.71530054645	-0.607766990291	-1.05263157895	-3.85238095238
1	0.0005	2.08469945355	6.44563106796	0.389473684211	-2.43428571429
2	0.001	3.49234972678	-2.01844660194	0.389473684211	-1.01619047619
3	0.0015	3.49234972678	-2.01844660194	-1.05263157895	-1.01619047619
4	0.002	2.08469945355	-10.4825242718	-3.93684210526	-10.9428571429
5	0.0025	-3.54590163934	3.62427184466	-1.05263157895	-8.10666666667
6	0.003	-3.54590163934	-10.4825242718	-1.05263157895	0.401904761905
7	0.0035	-3.54590163934	0.802912621359	3.27368421053	-1.01619047619
8	0.004	-7.76885245902	0.802912621359	1.83157894737	-2.43428571429
9	0.0045	-7.76885245902	-2.01844660194	-2.49473684211	-5.27047619048
10	0.005	-4.95355191257	3.62427184466	1.83157894737	0.401904761905
11	0.0055	-7.76885245902	-0.607766990291	-1.05263157895	0.401904761905
12	0.006	18.9765027322	0.802912621359	1.83157894737	-12.360952381
13	0.0065	-3.54590163934	-0.607766990291	1.83157894737	-6.68857142857
14	0.007	2.08469945355	-3.42912621359	-1.05263157895	0.401904761905
15	0.0075	0.677049180328	-6.25048543689	1.83157894737	-1.01619047619
16	0.008	3.49234972678	-0.607766990291	0.389473684211	3.2380952381
17	0.0085	6.30765027322	-6.25048543689	0.389473684211	1.82
18	0.009	21.7918032787	-0.607766990291	-1.05263157895	-1.01619047619
19	0.0095	2.08469945355	2.21359223301	0.389473684211	-8.10666666667
20	0.01	2.08469945355	-0.607766990291	-9.70526315789	-8.10666666667
21	0.0105	3.49234972678	2.21359223301	0.389473684211	-1.01619047619
22	0.011	2.08469945355	0.802912621359	-1.05263157895	-2.43428571429
23	0.0115	0.677049180328	-9.07184466019	-1.05263157895	-2.43428571429
24	0.012	2.08469945355	-4.83980582524	0.389473684211	-2.43428571429
25	0.0125	-3.54590163934	-2.01844660194	-1.05263157895	-8.10666666667
26	0.013	-4.95355191257	-0.607766990291	-5.37894736842	-2.43428571429
27	0.0135	-2.13825136612	0.802912621359	14.8105263158	-1.01619047619
28	0.014	-2.13825136612	-9.07184466019	-2.49473684211	0.401904761905
29	0.0145	3.49234972678	-4.83980582524	-1.05263157895	-1.01619047619
30	0.015	0.677049180328	2.21359223301	0.389473684211	-2.43428571429
31	0.0155	-6.36120218579	-0.607766990291	0.389473684211	-2.43428571429
32	0.016	-0.730601092896	-2.01844660194	-1.05263157895	-1.01619047619
33	0.0165	0.677049180328	0.802912621359	19.1368421053	-1.01619047619
34	0.017	2.08469945355	2.21359223301	-1.05263157895	-1.01619047619
35	0.0175	-0.730601092896	-2.01844660194	0.389473684211	0.401904761905
36	0.018	-6.36120218579	-0.607766990291	-1.05263157895	-1.01619047619
37	0.0185	10.5306010929	-0.607766990291	1.83157894737	-10.9428571429
38	0.019	-0.730601092896	0.802912621359	0.389473684211	-12.360952381
39	0.0195	-2.13825136612	-0.607766990291	-6.82105263158	-1.01619047619
40	0.02	-2.13825136612	0.802912621359	-3.93684210526	0.401904761905
41	0.0205	-0.730601092896	9.26699029126	-1.05263157895	-1.01619047619
42	0.021	-0.730601092896	-3.42912621359	0.389473684211	-1.01619047619
43	0.0215	4.9	-0.607766990291	-1.05263157895	-8.10666666667
44	0.022	-3.54590163934	-2.01844660194	1.83157894737	-12.360952381
45	0.0225	-0.730601092896	-2.01844660194	14.8105263158	-2.43428571429
46	0.023	-3.54590163934	-3.42912621359	4.71578947368	-1.01619047619
47	0.0235	-2.13825136612	6.44563106796	-1.05263157895	-3.85238095238
48	0.024	-0.730601092896	0.802912621359	1.83157894737	-3.85238095238
49	0.0245	-14.8071038251	0.802912621359	0.389473684211	3.2380952381
50	0.025	-6.36120218579	-0.607766990291	0.389473684211	0.401904761905
51	0.0255	-3.54590163934	0.802912621359	-1.05263157895	14.5828571429
52	0.026	-2.13825136612	0.802912621359	-6.82105263158	-1.01619047619
53	0.0265	-3.54590163934	2.21359223301	-6.82105263158	-2.43428571429
54	0.027	-6.36120218579	-0.607766990291	0.389473684211	-1.01619047619
55	0.0275	-13.3994535519	-0.607766990291	1.83157894737	-1.01619047619
56	0.028	-3.54590163934	-2.01844660194	3.27368421053	0.401904761905
57	0.0285	-2.13825136612	-2.01844660194	-1.05263157895	-8.10666666667
58	0.029	-4.95355191257	0.802912621359	-9.70526315789	-1.01619047619
59	0.0295	-2.13825136612	2.21359223301	-1.05263157895	-2.43428571429
60	0.03	-0.730601092896	0.802912621359	-1.05263157895	-1.01619047619
61	0.0305	-10.5841530055	-2.01844660194	-1.05263157895	0.401904761905
62	0.031	2.08469945355	0.802912621359	0.389473684211	-6.68857142857
63	0.0315	0.677049180328	-0.607766990291	-2.49473684211	-10.9428571429
64	0.032	0.677049180328	0.802912621359	-6.82105263158	-2.43428571429
65	0.0325	-0.730601092896	3.62427184466	-1.05263157895	0.401904761905
66	0.033	3.49234972678	0.802912621359	3.27368421053	-3.85238095238
67	0.0335	2.08469945355	-0.607766990291	-1.05263157895	-2.43428571429
68	0.034	23.1994535519	-2.01844660194	-1.05263157895	-10.9428571429
69	0.0345	0.677049180328	-2.01844660194	-1.05263157895	-9.52476190476
70	0.035	0.677049180328	-0.607766990291	-3.93684210526	13.1647619048
71	0.0355	0.677049180328	-3.42912621359	19.1368421053	-2.43428571429
72	0.036	0.677049180328	-11.8932038835	1.83157894737	-1.01619047619
73	0.0365	-2.13825136612	-2.01844660194	1.83157894737	-1.01619047619
74	0.037	9.12295081967	0.802912621359	1.83157894737	-1.01619047619
75	0.0375	-9.17650273224	2.21359223301	-2.49473684211	17.419047619
76	0.038	-3.54590163934	-0.607766990291	-1.05263157895	14.5828571429
77	0.0385	0.677049180328	0.802912621359	-2.49473684211	-1.01619047619
78	0.039	2.08469945355	9.26699029126	-1.05263157895	-1.01619047619
79	0.0395	0.677049180328	-7.66116504854	-1.05263157895	-1.01619047619
80	0.04	7.71530054645	-2.01844660194	1.83157894737	0.401904761905
81	0.0405	2.08469945355	-2.01844660194	0.389473684211	-8.10666666667
82	0.041	2.08469945355	-2.01844660194	-6.82105263158	1.82
83	0.0415	0.677049180328	-2.01844660194	17.6947368421	-1.01619047619
84	0.042	0.677049180328	2.21359223301	-1.05263157895	-3.85238095238
85	0.0425	-3.54590163934	-9.07184466019	1.83157894737	-3.85238095238
86	0.043	-13.3994535519	0.802912621359	3.27368421053	-2.43428571429
87	0.0435	6.30765027322	-3.42912621359	0.389473684211	-1.01619047619
88	0.044	-3.54590163934	-0.607766990291	-1.05263157895	13.1647619048
89	0.0445	-4.95355191257	0.802912621359	19.1368421053	-1.01619047619
90	0.045	-4.95355191257	2.21359223301	0.389473684211	-1.01619047619
91	0.0455	-2.13825136612	13.4990291262	-1.05263157895	-2.43428571429
92	0.046	-10.5841530055	-2.01844660194	0.389473684211	0.401904761905
93	0.0465	11.9382513661	-0.607766990291	1.83157894737	-3.85238095238
94	0.047	-0.730601092896	0.802912621359	-2.49473684211	-10.9428571429
95	0.0475	-0.730601092896	0.802912621359	-1.05263157895	1.82
96	0.048	-0.730601092896	-2.01844660194	4.71578947368	-1.01619047619
97	0.0485	-2.13825136612	-0.607766990291	1.83157894737	-1.01619047619
98	0.049	2.08469945355	-7.66116504854	-1.05263157895	-3.85238095238
99	0.0495	14.7535519126	-2.01844660194	-1.05263157895	-3.85238095238
100	0.05	-2.13825136612	0.802912621359	1.83157894737	-8.10666666667
101	0.0505	-3.54590163934	0.802912621359	-9.70526315789	1.82
102	0.051	-0.730601092896	-0.607766990291	4.71578947368	-2.43428571429
103	0.0515	2.08469945355	2.21359223301	-1.05263157895	-1.01619047619
104	0.052	-0.730601092896	-9.07184466019	1.83157894737	-2.43428571429
105	0.0525	-10.5841530055	-0.607766990291	3.27368421053	-1.01619047619
106	0.053	-3.54590163934	-0.607766990291	1.83157894737	4.65619047619
107	0.0535	0.677049180328	-2.01844660194	0.389473684211	16.000952381
108	0.054	0.677049180328	0.802912621359	17.6947368421	-1.01619047619
109	0.0545	-2.13825136612	-11.8932038835	-2.49473684211	1.82
110	0.055	-3.54590163934	-0.607766990291	-1.05263157895	-1.01619047619
111	0.0555	-7.76885245902	-2.01844660194	0.389473684211	0.401904761905
112	0.056	-7.76885245902	-0.607766990291	-1.05263157895	16.000952381
113	0.0565	-0.730601092896	0.802912621359	-2.49473684211	7.49238095238
114	0.057	0.677049180328	-0.607766990291	-3.93684210526	-6.68857142857
115	0.0575	0.677049180328	-0.607766990291	0.389473684211	-2.43428571429
116	0.058	3.49234972678	-10.4825242718	0.389473684211	-1.01619047619
117	0.0585	3.49234972678	-0.607766990291	3.27368421053	1.82
118	0.059	-3.54590163934	-0.607766990291	1.83157894737	-1.01619047619
119	0.0595	-7.76885245902	-0.607766990291	0.389473684211	3.2380952381
120	0.06	-0.730601092896	0.802912621359	-6.82105263158	-1.01619047619
121	0.0605	-4.95355191257	3.62427184466	0.389473684211	1.82
122	0.061	-4.95355191257	3.62427184466	0.389473684211	3.2380952381
123	0.0615	-3.54590163934	-7.66116504854	6.15789473684	0.401904761905
124	0.062	13.3459016393	0.802912621359	0.389473684211	-3.85238095238
125	0.0625	-2.13825136612	0.802912621359	0.389473684211	14.5828571429
126	0.063	-2.13825136612	0.802912621359	1.83157894737	1.82
127	0.0635	-2.13825136612	3.62427184466	-5.37894736842	0.401904761905
128	0.064	-2.13825136612	-2.01844660194	-1.05263157895	-2.43428571429
129	0.0645	-3.54590163934	16.3203883495	1.83157894737	-1.01619047619
130	0.065	-11.9918032787	0.802912621359	3.27368421053	1.82
131	0.0655	-10.5841530055	2.21359223301	-1.05263157895	16.000952381
132	0.066	-3.54590163934	0.802912621359	-8.26315789474	-1.01619047619
133	0.0665	0.677049180328	0.802912621359	1.83157894737	0.401904761905
134	0.067	-0.730601092896	2.21359223301	0.389473684211	-1.01619047619
135	0.0675	0.677049180328	-6.25048543689	3.27368421053	1.82
136	0.068	3.49234972678	-7.66116504854	4.71578947368	-1.01619047619
137	0.0685	17.568852459	-0.607766990291	4.71578947368	-9.52476190476
138	0.069	-3.54590163934	0.802912621359	3.27368421053	-8.10666666667
139	0.0695	-0.730601092896	-0.607766990291	-2.49473684211	0.401904761905
140	0.07	-0.730601092896	-10.4825242718	1.83157894737	-1.01619047619
141	0.0705	-0.730601092896	0.802912621359	1.83157894737	-1.01619047619
142	0.071	0.677049180328	-2.01844660194	1.83157894737	-1.01619047619
143	0.0715	-4.95355191257	0.802912621359	0.389473684211	4.65619047619
144	0.072	-4.95355191257	-2.01844660194	-5.37894736842	-3.85238095238
145	0.0725	-10.5841530055	-0.607766990291	-3.93684210526	-6.68857142857
146	0.073	-7.76885245902	3.62427184466	-5.37894736842	0.401904761905
147	0.0735	-3.54590163934	5.03495145631	0.389473684211	-1.01619047619
148	0.074	0.677049180328	0.802912621359	-1.05263157895	-1.01619047619
149	0.0745	-4.95355191257	0.802912621359	1.83157894737	-6.68857142857
150	0.075	0.677049180328	0.802912621359	0.389473684211	-10.9428571429
151	0.0755	2.08469945355	0.802912621359	-8.26315789474	-6.68857142857
152	0.076	3.49234972678	3.62427184466	-9.70526315789	0.401904761905
153	0.0765	4.9	16.3203883495	0.389473684211	0.401904761905
154	0.077	2.08469945355	9.26699029126	0.389473684211	-1.01619047619
155	0.0775	3.49234972678	-0.607766990291	0.389473684211	0.401904761905
156	0.078	-0.730601092896	-2.01844660194	3.27368421053	-6.68857142857
157	0.0785	2.08469945355	0.802912621359	-5.37894736842	-10.9428571429
158	0.079	0.677049180328	-3.42912621359	-5.37894736842	0.401904761905
159	0.0795	2.08469945355	-9.07184466019	0.389473684211	-1.01619047619
160	0.08	3.49234972678	2.21359223301	0.389473684211	-1.01619047619
161	0.0805	13.3459016393	2.21359223301	0.389473684211	-3.85238095238
162	0.081	-7.76885245902	0.802912621359	0.389473684211	8.91047619048
163	0.0815	-3.54590163934	0.802912621359	1.83157894737	18.8371428571
164	0.082	-4.95355191257	-0.607766990291	0.389473684211	0.401904761905
165	0.0825	-3.54590163934	-7.66116504854	-1.05263157895	0.401904761905
166	0.083	-6.36120218579	0.802912621359	3.27368421053	-2.43428571429
167	0.0835	4.9	-0.607766990291	1.83157894737	0.401904761905
168	0.084	-11.9918032787	-3.42912621359	3.27368421053	14.5828571429
169	0.0845	-4.95355191257	0.802912621359	1.83157894737	-1.01619047619
170	0.085	-3.54590163934	0.802912621359	20.5789473684	-2.43428571429
171	0.0855	-3.54590163934	-11.8932038835	0.389473684211	-2.43428571429
172	0.086	-4.95355191257	-0.607766990291	1.83157894737	-2.43428571429
173	0.0865	-2.13825136612	10.6776699029	4.71578947368	-2.43428571429
174	0.087	-11.9918032787	0.802912621359	0.389473684211	1.82
175	0.0875	-2.13825136612	2.21359223301	4.71578947368	1.82
176	0.088	0.677049180328	0.802912621359	14.8105263158	-5.27047619048
177	0.0885	-0.730601092896	-7.66116504854	-2.49473684211	-2.43428571429
178	0.089	-0.730601092896	10.6776699029	1.83157894737	0.401904761905
179	0.0895	-4.95355191257	19.1417475728	0.389473684211	1.82
180	0.09	-11.9918032787	0.802912621359	3.27368421053	3.2380952381
181	0.0905	-0.730601092896	0.802912621359	4.71578947368	-2.43428571429
182	0.091	-3.54590163934	3.62427184466	-2.49473684211	-9.52476190476
183	0.0915	-2.13825136612	-0.607766990291	-6.82105263158	-1.01619047619
184	0.092	2.08469945355	16.3203883495	1.83157894737	-1.01619047619
185	0.0925	0.677049180328	-6.25048543689	-1.05263157895	-1.01619047619
186	0.093	0.677049180328	-9.07184466019	3.27368421053	0.401904761905
187	0.0935	2.08469945355	-0.607766990291	-1.05263157895	-8.10666666667
188	0.094	0.677049180328	0.802912621359	-1.05263157895	7.49238095238
189	0.0945	3.49234972678	0.802912621359	20.5789473684	-1.01619047619
190	0.095	4.9	17.7310679612	1.83157894737	-2.43428571429
191	0.0955	-0.730601092896	-0.607766990291	0.389473684211	-2.43428571429
192	0.096	-11.9918032787	0.802912621359	3.27368421053	-1.01619047619
193	0.0965	2.08469945355	-0.607766990291	3.27368421053	-8.10666666667
194	0.097	-2.13825136612	0.802912621359	-11.1473684211	-1.01619047619
195	0.0975	0.677049180328	-2.01844660194	0.389473684211	0.401904761905
196	0.098	-0.730601092896	-9.07184466019	0.389473684211	1.82
197	0.0985	0.677049180328	6.44563106796	-1.05263157895	-1.01619047619
198	0.099	0.677049180328	0.802912621359	3.27368421053	-1.01619047619
199	0.0995	-6.36120218579	0.802912621359	0.389473684211	-2.43428571429
200	0.1	0.677049180328	2.21359223301	7.6	1.82
201	0.1005	-0.730601092896	2.21359223301	0.389473684211	7.49238095238
202	0.101	-0.730601092896	-3.42912621359	1.83157894737	1.82
203	0.1015	-2.13825136612	16.3203883495	1.83157894737	-1.01619047619
204	0.102	-4.95355191257	2.21359223301	3.27368421053	1.82
205	0.1025	-17.6224043716	-0.607766990291	1.83157894737	7.49238095238
206	0.103	-4.95355191257	0.802912621359	4.71578947368	0.401904761905
207	0.1035	-6.36120218579	3.62427184466	11.9263157895	-5.27047619048
208	0.104	-4.95355191257	0.802912621359	1.83157894737	-1.01619047619
209	0.1045	-6.36120218579	0.802912621359	0.389473684211	-1.01619047619
210	0.105	-6.36120218579	0.802912621359	0.389473684211	0.401904761905
211	0.1055	-14.8071038251	0.802912621359	3.27368421053	3.2380952381
212	0.106	-7.76885245902	0.802912621359	3.27368421053	14.5828571429
213	0.1065	0.677049180328	2.21359223301	3.27368421053	-1.01619047619
214	0.107	4.9	0.802912621359	11.9263157895	-1.01619047619
215	0.1075	3.49234972678	-6.25048543689	3.27368421053	0.401904761905
216	0.108	2.08469945355	-4.83980582524	0.389473684211	0.401904761905
217	0.1085	-4.95355191257	0.802912621359	0.389473684211	1.82
218	0.109	-6.36120218579	-2.01844660194	-1.05263157895	1.82
219	0.1095	-0.730601092896	0.802912621359	1.83157894737	-8.10666666667
220	0.11	-0.730601092896	-0.607766990291	-6.82105263158	0.401904761905
221	0.1105	-2.13825136612	-13.3038834951	0.389473684211	0.401904761905
222	0.111	-2.13825136612	-2.01844660194	0.389473684211	-1.01619047619
223	0.1115	-4.95355191257	-6.25048543689	0.389473684211	0.401904761905
224	0.112	9.12295081967	-0.607766990291	1.83157894737	-1.01619047619
225	0.1125	-2.13825136612	-2.01844660194	3.27368421053	-6.68857142857
226	0.113	-3.54590163934	0.802912621359	1.83157894737	4.65619047619
227	0.1135	-3.54590163934	-9.07184466019	0.389473684211	1.82
228	0.114	-3.54590163934	10.6776699029	0.389473684211	1.82
229	0.1145	-6.36120218579	-0.607766990291	1.83157894737	1.82
230	0.115	-11.9918032787	-0.607766990291	4.71578947368	-12.360952381
231	0.1155	-3.54590163934	-0.607766990291	3.27368421053	-6.68857142857
232	0.116	-4.95355191257	0.802912621359	-1.05263157895	7.49238095238
233	0.1165	-4.95355191257	0.802912621359	16.2526315789	-1.01619047619
234	0.117	-4.95355191257	-6.25048543689	0.389473684211	-1.01619047619
235	0.1175	-4.95355191257	-9.07184466019	0.389473684211	-1.01619047619
236	0.118	14.7535519126	0.802912621359	3.27368421053	-1.01619047619
237	0.1185	-9.17650273224	0.802912621359	3.27368421053	1.82
238	0.119	-0.730601092896	-2.01844660194	0.389473684211	14.5828571429
239	0.1195	-0.730601092896	-2.01844660194	1.83157894737	-3.85238095238
240	0.12	2.08469945355	17.7310679612	-1.05263157895	-1.01619047619
241	0.1205	-3.54590163934	-0.607766990291	3.27368421053	-2.43428571429
242	0.121	-7.76885245902	-3.42912621359	0.389473684211	-3.85238095238
243	0.1215	16.1612021858	0.802912621359	1.83157894737	-3.85238095238
244	0.122	2.08469945355	0.802912621359	-6.82105263158	-1.01619047619
245	0.1225	4.9	-2.01844660194	-2.49473684211	-2.43428571429
246	0.123	2.08469945355	-7.66116504854	1.83157894737	-1.01619047619
247	0.1235	4.9	-7.66116504854	3.27368421053	1.82
248	0.124	-3.54590163934	-2.01844660194	4.71578947368	-2.43428571429
249	0.1245	16.1612021858	-0.607766990291	3.27368421053	-12.360952381
250	0.125	-0.730601092896	-2.01844660194	17.6947368421	-2.43428571429
251	0.1255	-2.13825136612	-0.607766990291	16.2526315789	-1.01619047619
252	0.126	-0.730601092896	-2.01844660194	-2.49473684211	-2.43428571429
253	0.1265	-2.13825136612	6.44563106796	-1.05263157895	-1.01619047619
254	0.127	-3.54590163934	-3.42912621359	0.389473684211	-1.01619047619
255	0.1275	-3.54590163934	-0.607766990291	-1.05263157895	14.5828571429
256	0.128	-7.76885245902	-2.01844660194	0.389473684211	4.65619047619
257	0.1285	-4.95355191257	2.21359223301	-1.05263157895	0.401904761905
258	0.129	-4.95355191257	0.802912621359	0.389473684211	1.82
259	0.1295	-3.54590163934	-9.07184466019	1.83157894737	-1.01619047619
260	0.13	-2.13825136612	-0.607766990291	1.83157894737	-6.68857142857
261	0.1305	-4.95355191257	2.21359223301	-2.49473684211	-8.10666666667
262	0.131	-0.730601092896	-2.01844660194	1.83157894737	6.07428571429
263	0.1315	0.677049180328	0.802912621359	1.83157894737	-6.68857142857
264	0.132	3.49234972678	-7.66116504854	1.83157894737	-1.01619047619
265	0.1325	4.9	-7.66116504854	0.389473684211	-2.43428571429
266	0.133	11.9382513661	-2.01844660194	-2.49473684211	-1.01619047619
267	0.1335	4.9	-0.607766990291	-1.05263157895	-6.68857142857
268	0.134	10.5306010929	0.802912621359	4.71578947368	8.91047619048
269	0.1345	3.49234972678	-0.607766990291	13.3684210526	0.401904761905
270	0.135	-0.730601092896	-6.25048543689	3.27368421053	-1.01619047619
271	0.1355	0.677049180328	-11.8932038835	1.83157894737	-2.43428571429
272	0.136	3.49234972678	0.802912621359	4.71578947368	-3.85238095238
273	0.1365	17.568852459	-4.83980582524	1.83157894737	-1.01619047619
274	0.137	0.677049180328	-2.01844660194	-8.26315789474	4.65619047619
275	0.1375	-2.13825136612	2.21359223301	7.6	-2.43428571429
276	0.138	-0.730601092896	-2.01844660194	4.71578947368	-2.43428571429
277	0.1385	-3.54590163934	-6.25048543689	0.389473684211	-2.43428571429
278	0.139	-7.76885245902	-0.607766990291	1.83157894737	-3.85238095238
279	0.1395	20.3841530055	-2.01844660194	1.83157894737	-10.9428571429
280	0.14	-2.13825136612	-0.607766990291	-12.5894736842	-6.68857142857
281	0.1405	-2.13825136612	-0.607766990291	0.389473684211	1.82
282	0.141	-0.730601092896	2.21359223301	3.27368421053	0.401904761905
283	0.1415	-3.54590163934	7.85631067961	0.389473684211	-1.01619047619
284	0.142	-7.76885245902	-0.607766990291	1.83157894737	-1.01619047619
285	0.1425	11.9382513661	0.802912621359	3.27368421053	-2.43428571429
286	0.143	-2.13825136612	0.802912621359	3.27368421053	-9.52476190476
287	0.1435	-3.54590163934	-3.42912621359	3.27368421053	-1.01619047619
288	0.144	-4.95355191257	-2.01844660194	1.83157894737	-1.01619047619
289	0.1445	-4.95355191257	-9.07184466019	0.389473684211	-1.01619047619
290	0.145	-0.730601092896	0.802912621359	3.27368421053	-1.01619047619
291	0.1455	-7.76885245902	0.802912621359	0.389473684211	4.65619047619
292	0.146	-0.730601092896	0.802912621359	1.83157894737	16.000952381
293	0.1465	-3.54590163934	2.21359223301	19.1368421053	-1.01619047619
294	0.147	-4.95355191257	-9.07184466019	0.389473684211	-2.43428571429
295	0.1475	0.677049180328	-3.42912621359	-1.05263157895	-1.01619047619
296	0.148	-0.730601092896	9.26699029126	1.83157894737	-1.01619047619
297	0.1485	-7.76885245902	0.802912621359	0.389473684211	11.7466666667
298	0.149	0.677049180328	0.802912621359	-6.82105263158	-2.43428571429
299	0.1495	-0.730601092896	-2.01844660194	-9.70526315789	-2.43428571429
300	0.15	-2.13825136612	3.62427184466	1.83157894737	-5.27047619048
301	0.1505	-0.730601092896	0.802912621359	1.83157894737	-5.27047619048
302	0.151	-10.5841530055	-2.01844660194	1.83157894737	-1.01619047619
303	0.1515	7.71530054645	0.802912621359	1.83157894737	-3.85238095238
304	0.152	0.677049180328	0.802912621359	-1.05263157895	-9.52476190476
305	0.1525	0.677049180328	-3.42912621359	-5.37894736842	-1.01619047619
306	0.153	0.677049180328	-10.4825242718	1.83157894737	-2.43428571429
307	0.1535	3.49234972678	-4.83980582524	0.389473684211	-1.01619047619
308	0.154	3.49234972678	0.802912621359	0.389473684211	-2.43428571429
309	0.1545	-3.54590163934	0.802912621359	1.83157894737	-2.43428571429
310	0.155	0.677049180328	0.802912621359	1.83157894737	-10.9428571429
311	0.1555	2.08469945355	0.802912621359	4.71578947368	-10.9428571429
312	0.156	4.9	-10.4825242718	1.83157894737	-3.85238095238
313	0.1565	7.71530054645	-9.07184466019	0.389473684211	-2.43428571429
314	0.157	7.71530054645	-0.607766990291	1.83157894737	-3.85238095238
315	0.1575	17.568852459	0.802912621359	3.27368421053	-1.01619047619
316	0.158	0.677049180328	-2.01844660194	1.83157894737	-6.68857142857
317	0.1585	-3.54590163934	0.802912621359	19.1368421053	-3.85238095238
318	0.159	-2.13825136612	-0.607766990291	1.83157894737	-2.43428571429
319	0.1595	-3.54590163934	-3.42912621359	0.389473684211	-2.43428571429
320	0.16	0.677049180328	-0.607766990291	1.83157894737	-5.27047619048
321	0.1605	10.5306010929	0.802912621359	0.389473684211	-2.43428571429
322	0.161	-7.76885245902	0.802912621359	1.83157894737	-2.43428571429
323	0.1615	-3.54590163934	0.802912621359	3.27368421053	-6.68857142857
324	0.162	-4.95355191257	-2.01844660194	1.83157894737	0.401904761905
325	0.1625	-3.54590163934	-0.607766990291	-1.05263157895	0.401904761905
326	0.163	0.677049180328	0.802912621359	3.27368421053	1.82
327	0.1635	16.1612021858	-0.607766990291	1.83157894737	0.401904761905
328	0.164	-4.95355191257	0.802912621359	-1.05263157895	-2.43428571429
329	0.1645	0.677049180328	0.802912621359	0.389473684211	-8.10666666667
330	0.165	2.08469945355	-0.607766990291	0.389473684211	-1.01619047619
331	0.1655	0.677049180328	-3.42912621359	-2.49473684211	-1.01619047619
332	0.166	2.08469945355	-2.01844660194	0.389473684211	-1.01619047619
333	0.1665	14.7535519126	-2.01844660194	0.389473684211	-3.85238095238
334	0.167	-4.95355191257	-2.01844660194	0.389473684211	-2.43428571429
335	0.1675	0.677049180328	-2.01844660194	1.83157894737	16.000952381
336	0.168	-2.13825136612	-2.01844660194	17.6947368421	-2.43428571429
337	0.1685	-2.13825136612	-10.4825242718	-1.05263157895	0.401904761905
338	0.169	3.49234972678	-11.8932038835	0.389473684211	-2.43428571429
339	0.1695	20.3841530055	-2.01844660194	0.389473684211	-1.01619047619
340	0.17	-0.730601092896	-2.01844660194	-3.93684210526	-1.01619047619
341	0.1705	0.677049180328	-3.42912621359	-1.05263157895	-8.10666666667
342	0.171	0.677049180328	-2.01844660194	-3.93684210526	-1.01619047619
343	0.1715	-2.13825136612	-3.42912621359	-1.05263157895	0.401904761905
344	0.172	-2.13825136612	-7.66116504854	0.389473684211	1.82
345	0.1725	-0.730601092896	-2.01844660194	0.389473684211	0.401904761905
346	0.173	-4.95355191257	-2.01844660194	0.389473684211	-5.27047619048
347	0.1735	-2.13825136612	-4.83980582524	-1.05263157895	-1.01619047619
348	0.174	-0.730601092896	2.21359223301	-6.82105263158	-1.01619047619
349	0.1745	-0.730601092896	0.802912621359	0.389473684211	0.401904761905
350	0.175	2.08469945355	-9.07184466019	3.27368421053	-2.43428571429
351	0.1755	0.677049180328	-9.07184466019	1.83157894737	-1.01619047619
352	0.176	21.7918032787	-2.01844660194	1.83157894737	-9.52476190476
353	0.1765	-3.54590163934	-2.01844660194	6.15789473684	1.82
354	0.177	-2.13825136612	-2.01844660194	-3.93684210526	-3.85238095238
355	0.1775	2.08469945355	-3.42912621359	-5.37894736842	-2.43428571429
356	0.178	0.677049180328	10.6776699029	0.389473684211	-2.43428571429
357	0.1785	-4.95355191257	-2.01844660194	0.389473684211	0.401904761905
358	0.179	-6.36120218579	-0.607766990291	-1.05263157895	1.82
359	0.1795	0.677049180328	-0.607766990291	0.389473684211	11.7466666667
360	0.18	-0.730601092896	0.802912621359	-5.37894736842	-1.01619047619
361	0.1805	0.677049180328	17.7310679612	-2.49473684211	-2.43428571429
362	0.181	-4.95355191257	7.85631067961	0.389473684211	0.401904761905
363	0.1815	-11.9918032787	0.802912621359	1.83157894737	1.82
364	0.182	9.12295081967	-3.42912621359	0.389473684211	-2.43428571429
365	0.1825	-0.730601092896	-0.607766990291	-8.26315789474	-2.43428571429
366	0.183	0.677049180328	-4.83980582524	-1.05263157895	-2.43428571429
367	0.1835	-3.54590163934	-2.01844660194	-1.05263157895	-2.43428571429
368	0.184	-2.13825136612	-4.83980582524	0.389473684211	-2.43428571429
369	0.1845	9.12295081967	-2.01844660194	0.389473684211	-3.85238095238
370	0.185	-9.17650273224	0.802912621359	0.389473684211	0.401904761905
371	0.1855	-0.730601092896	-2.01844660194	-2.49473684211	-1.01619047619
372	0.186	-4.95355191257	-2.01844660194	-8.26315789474	-1.01619047619
373	0.1865	-2.13825136612	17.7310679612	0.389473684211	-1.01619047619
374	0.187	-3.54590163934	0.802912621359	-1.05263157895	3.2380952381
375	0.1875	-16.2147540984	0.802912621359	0.389473684211	0.401904761905
376	0.188	-9.17650273224	0.802912621359	1.83157894737	14.5828571429
377	0.1885	0.677049180328	0.802912621359	14.8105263158	0.401904761905
378	0.189	-0.730601092896	3.62427184466	0.389473684211	-2.43428571429
379	0.1895	0.677049180328	16.3203883495	-1.05263157895	3.2380952381
380	0.19	0.677049180328	0.802912621359	-2.49473684211	4.65619047619
381	0.1905	-10.5841530055	0.802912621359	0.389473684211	0.401904761905
382	0.191	3.49234972678	-2.01844660194	3.27368421053	7.49238095238
383	0.1915	0.677049180328	-0.607766990291	-3.93684210526	16.000952381
384	0.192	-0.730601092896	-0.607766990291	-8.26315789474	-2.43428571429
385	0.1925	0.677049180328	14.9097087379	0.389473684211	-1.01619047619
386	0.193	-3.54590163934	-0.607766990291	1.83157894737	-1.01619047619
387	0.1935	-14.8071038251	2.21359223301	-1.05263157895	0.401904761905
388	0.194	-11.9918032787	-0.607766990291	3.27368421053	1.82
389	0.1945	-2.13825136612	0.802912621359	3.27368421053	-10.9428571429
390	0.195	-3.54590163934	-2.01844660194	-8.26315789474	-1.01619047619
391	0.1955	-0.730601092896	-9.07184466019	0.389473684211	0.401904761905
392	0.196	-4.95355191257	-3.42912621359	1.83157894737	-1.01619047619
393	0.1965	-4.95355191257	-2.01844660194	0.389473684211	-1.01619047619
394	0.197	-7.76885245902	-2.01844660194	0.389473684211	-3.85238095238
395	0.1975	-2.13825136612	2.21359223301	4.71578947368	0.401904761905
396	0.198	-4.95355191257	0.802912621359	9.04210526316	-2.43428571429
397	0.1985	-3.54590163934	-2.01844660194	-3.93684210526	0.401904761905
398	0.199	-7.76885245902	0.802912621359	0.389473684211	0.401904761905
399	0.1995	-0.730601092896	0.802912621359	0.389473684211	-1.01619047619
400	0.2	-7.76885245902	0.802912621359	1.83157894737	13.1647619048
401	0.2005	-0.730601092896	-0.607766990291	-1.05263157895	13.1647619048
402	0.201	0.677049180328	-2.01844660194	0.389473684211	-1.01619047619
403	0.2015	-0.730601092896	10.6776699029	-1.05263157895	3.2380952381
404	0.202	-3.54590163934	-6.25048543689	0.389473684211	0.401904761905
405	0.2025	11.9382513661	-0.607766990291	1.83157894737	-1.01619047619
406	0.203	-0.730601092896	0.802912621359	0.389473684211	-6.68857142857
407	0.2035	-3.54590163934	-0.607766990291	-9.70526315789	-1.01619047619
408	0.204	-0.730601092896	-2.01844660194	-6.82105263158	-1.01619047619
409	0.2045	0.677049180328	14.9097087379	0.389473684211	0.401904761905
410	0.205	2.08469945355	2.21359223301	0.389473684211	-1.01619047619
411	0.2055	-14.8071038251	0.802912621359	1.83157894737	0.401904761905
412	0.206	-2.13825136612	-3.42912621359	4.71578947368	-5.27047619048
413	0.2065	-0.730601092896	0.802912621359	6.15789473684	-8.10666666667
414	0.207	-2.13825136612	-0.607766990291	-8.26315789474	-1.01619047619
415	0.2075	0.677049180328	-7.66116504854	-1.05263157895	-1.01619047619
416	0.208	0.677049180328	0.802912621359	0.389473684211	0.401904761905
417	0.2085	16.1612021858	-2.01844660194	-1.05263157895	3.2380952381
418	0.209	-13.3994535519	-2.01844660194	0.389473684211	4.65619047619
419	0.2095	-7.76885245902	2.21359223301	16.2526315789	-1.01619047619
420	0.21	-6.36120218579	2.21359223301	-3.93684210526	1.82
421	0.2105	-4.95355191257	5.03495145631	0.389473684211	-1.01619047619
422	0.211	-3.54590163934	3.62427184466	-1.05263157895	-2.43428571429
423	0.2115	-0.730601092896	-2.01844660194	3.27368421053	0.401904761905
424	0.212	-9.17650273224	-2.01844660194	3.27368421053	13.1647619048
425	0.2125	-2.13825136612	-2.01844660194	-1.05263157895	14.5828571429
426	0.213	-3.54590163934	-3.42912621359	-1.05263157895	-1.01619047619
427	0.2135	-2.13825136612	-7.66116504854	0.389473684211	0.401904761905
428	0.214	-2.13825136612	-11.8932038835	0.389473684211	-1.01619047619
429	0.2145	18.9765027322	-0.607766990291	1.83157894737	-2.43428571429
430	0.215	-2.13825136612	0.802912621359	4.71578947368	-8.10666666667
431	0.2155	-2.13825136612	0.802912621359	3.27368421053	1.82
432	0.216	-0.730601092896	0.802912621359	-1.05263157895	0.401904761905
433	0.2165	-0.730601092896	-0.607766990291	-1.05263157895	0.401904761905
434	0.217	4.9	0.802912621359	-1.05263157895	-1.01619047619
435	0.2175	9.12295081967	-0.607766990291	-1.05263157895	-2.43428571429
436	0.218	-4.95355191257	0.802912621359	1.83157894737	6.07428571429
437	0.2185	-2.13825136612	-0.607766990291	1.83157894737	-1.01619047619
438	0.219	0.677049180328	2.21359223301	0.389473684211	-2.43428571429
439	0.2195	0.677049180328	-0.607766990291	0.389473684211	1.82
440	0.22	3.49234972678	0.802912621359	0.389473684211	-1.01619047619
441	0.2205	16.1612021858	-2.01844660194	-1.05263157895	-8.10666666667
442	0.221	-4.95355191257	-4.83980582524	0.389473684211	4.65619047619
443	0.2215	0.677049180328	-2.01844660194	-1.05263157895	11.7466666667
444	0.222	3.49234972678	-2.01844660194	17.6947368421	0.401904761905
445	0.2225	0.677049180328	-10.4825242718	3.27368421053	-1.01619047619
446	0.223	0.677049180328	-7.66116504854	3.27368421053	-1.01619047619
447	0.2235	0.677049180328	-9.07184466019	4.71578947368	-3.85238095238
448	0.224	-0.730601092896	-0.607766990291	-2.49473684211	-9.52476190476
449	0.2245	0.677049180328	-0.607766990291	-1.05263157895	3.2380952381
450	0.225	-0.730601092896	-0.607766990291	3.27368421053	-1.01619047619
451	0.2255	-0.730601092896	2.21359223301	1.83157894737	0.401904761905
452	0.226	3.49234972678	-6.25048543689	0.389473684211	-1.01619047619
453	0.2265	3.49234972678	-0.607766990291	0.389473684211	-3.85238095238
454	0.227	23.1994535519	-0.607766990291	3.27368421053	-10.9428571429
455	0.2275	2.08469945355	-3.42912621359	20.5789473684	-2.43428571429
456	0.228	3.49234972678	-4.83980582524	-1.05263157895	-1.01619047619
457	0.2285	2.08469945355	-0.607766990291	-6.82105263158	-2.43428571429
458	0.229	0.677049180328	14.9097087379	0.389473684211	-1.01619047619
459	0.2295	-6.36120218579	-0.607766990291	0.389473684211	0.401904761905
460	0.23	-11.9918032787	-2.01844660194	-1.05263157895	7.49238095238
461	0.2305	-3.54590163934	0.802912621359	-2.49473684211	-8.10666666667
462	0.231	-2.13825136612	-3.42912621359	0.389473684211	-9.52476190476
463	0.2315	-2.13825136612	-3.42912621359	0.389473684211	-1.01619047619
464	0.232	-2.13825136612	-4.83980582524	-3.93684210526	-1.01619047619
465	0.2325	-2.13825136612	-2.01844660194	0.389473684211	1.82
466	0.233	-11.9918032787	-2.01844660194	0.389473684211	3.2380952381
467	0.2335	-9.17650273224	0.802912621359	1.83157894737	3.2380952381
468	0.234	-3.54590163934	0.802912621359	-8.26315789474	-6.68857142857
469	0.2345	-4.95355191257	2.21359223301	1.83157894737	0.401904761905
470	0.235	-7.76885245902	-2.01844660194	0.389473684211	0.401904761905
471	0.2355	-3.54590163934	-10.4825242718	0.389473684211	-2.43428571429
472	0.236	-2.13825136612	0.802912621359	0.389473684211	-3.85238095238
473	0.2365	14.7535519126	-2.01844660194	-1.05263157895	-3.85238095238
474	0.237	-4.95355191257	-2.01844660194	-8.26315789474	0.401904761905
475	0.2375	0.677049180328	-2.01844660194	-1.05263157895	-1.01619047619
476	0.238	0.677049180328	-2.01844660194	0.389473684211	0.401904761905
477	0.2385	4.9	-9.07184466019	0.389473684211	-1.01619047619
478	0.239	7.71530054645	-9.07184466019	1.83157894737	-1.01619047619
479	0.2395	18.9765027322	-2.01844660194	3.27368421053	-9.52476190476
480	0.24	-3.54590163934	-2.01844660194	3.27368421053	-2.43428571429
481	0.2405	-0.730601092896	-2.01844660194	16.2526315789	-1.01619047619
482	0.241	-0.730601092896	0.802912621359	0.389473684211	-3.85238095238
483	0.2415	-0.730601092896	16.3203883495	-1.05263157895	0.401904761905
484	0.242	-10.5841530055	-2.01844660194	0.389473684211	0.401904761905
485	0.2425	3.49234972678	-3.42912621359	1.83157894737	0.401904761905
486	0.243	-13.3994535519	-2.01844660194	-1.05263157895	10.3285714286
487	0.2435	-4.95355191257	-2.01844660194	0.389473684211	-1.01619047619
488	0.244	-3.54590163934	-2.01844660194	19.1368421053	-1.01619047619
489	0.2445	-0.730601092896	-11.8932038835	-1.05263157895	-1.01619047619
490	0.245	2.08469945355	-3.42912621359	0.389473684211	-1.01619047619
491	0.2455	4.9	-2.01844660194	0.389473684211	1.82
492	0.246	-6.36120218579	-3.42912621359	1.83157894737	-8.10666666667
493	0.2465	0.677049180328	-2.01844660194	16.2526315789	-1.01619047619
494	0.247	2.08469945355	-2.01844660194	14.8105263158	-2.43428571429
495	0.2475	2.08469945355	-10.4825242718	0.389473684211	-1.01619047619
496	0.248	2.08469945355	-3.42912621359	0.389473684211	-1.01619047619
497	0.2485	-0.730601092896	-0.607766990291	0.389473684211	-1.01619047619
498	0.249	-7.76885245902	-0.607766990291	-1.05263157895	16.000952381
499	0.2495	0.677049180328	0.802912621359	0.389473684211	11.7466666667
500	0.25	-2.13825136612	-3.42912621359	14.8105263158	-5.27047619048
501	0.2505	-2.13825136612	-10.4825242718	-2.49473684211	0.401904761905
502	0.251	-3.54590163934	7.85631067961	0.389473684211	0.401904761905
503	0.2515	-4.95355191257	2.21359223301	3.27368421053	-1.01619047619
504	0.252	-11.9918032787	0.802912621359	1.83157894737	-1.01619047619
505	0.2525	-7.76885245902	0.802912621359	-5.37894736842	-3.85238095238
506	0.253	-10.5841530055	0.802912621359	1.83157894737	-9.52476190476
507	0.2535	-7.76885245902	-7.66116504854	1.83157894737	-2.43428571429
508	0.254	-7.76885245902	-10.4825242718	1.83157894737	0.401904761905
509	0.2545	-4.95355191257	0.802912621359	0.389473684211	-1.01619047619
510	0.255	4.9	2.21359223301	-1.05263157895	-1.01619047619
511	0.2555	-4.95355191257	-0.607766990291	-1.05263157895	16.000952381
512	0.256	-4.95355191257	-2.01844660194	1.83157894737	-8.10666666667
513	0.2565	-3.54590163934	-10.4825242718	3.27368421053	1.82
514	0.257	0.677049180328	14.9097087379	1.83157894737	-1.01619047619
515	0.2575	2.08469945355	-4.83980582524	-1.05263157895	1.82
516	0.258	7.71530054645	-2.01844660194	-1.05263157895	-1.01619047619
517	0.2585	3.49234972678	-4.83980582524	3.27368421053	-8.10666666667
518	0.259	2.08469945355	-2.01844660194	16.2526315789	-3.85238095238
519	0.2595	-2.13825136612	-2.01844660194	20.5789473684	-1.01619047619
520	0.26	-2.13825136612	-9.07184466019	0.389473684211	-1.01619047619
521	0.2605	0.677049180328	0.802912621359	0.389473684211	-1.01619047619
522	0.261	11.9382513661	-2.01844660194	0.389473684211	0.401904761905
523	0.2615	-6.36120218579	-2.01844660194	-1.05263157895	0.401904761905
524	0.262	-4.95355191257	-2.01844660194	-3.93684210526	-2.43428571429
525	0.2625	-3.54590163934	0.802912621359	9.04210526316	-2.43428571429
526	0.263	-4.95355191257	-4.83980582524	0.389473684211	1.82
527	0.2635	-6.36120218579	-3.42912621359	0.389473684211	-1.01619047619
528	0.264	14.7535519126	0.802912621359	1.83157894737	-10.9428571429
529	0.2645	-2.13825136612	-0.607766990291	3.27368421053	-12.360952381
530	0.265	-4.95355191257	-0.607766990291	19.1368421053	-3.85238095238
531	0.2655	-2.13825136612	-0.607766990291	11.9263157895	0.401904761905
532	0.266	-2.13825136612	-2.01844660194	-1.05263157895	-1.01619047619
533	0.2665	-0.730601092896	-0.607766990291	0.389473684211	-1.01619047619
534	0.267	3.49234972678	-2.01844660194	0.389473684211	-1.01619047619
535	0.2675	-0.730601092896	-2.01844660194	0.389473684211	16.000952381
536	0.268	-0.730601092896	-0.607766990291	20.5789473684	0.401904761905
537	0.2685	-0.730601092896	-0.607766990291	19.1368421053	-1.01619047619
538	0.269	0.677049180328	-6.25048543689	1.83157894737	-1.01619047619
539	0.2695	2.08469945355	-0.607766990291	-2.49473684211	0.401904761905
540	0.27	-0.730601092896	-0.607766990291	-1.05263157895	-1.01619047619
541	0.2705	-3.54590163934	-0.607766990291	3.27368421053	-9.52476190476
542	0.271	-0.730601092896	-2.01844660194	19.1368421053	-2.43428571429
543	0.2715	-2.13825136612	-3.42912621359	19.1368421053	-1.01619047619
544	0.272	-2.13825136612	-4.83980582524	-1.05263157895	-1.01619047619
545	0.2725	2.08469945355	-0.607766990291	0.389473684211	0.401904761905
546	0.273	16.1612021858	-3.42912621359	1.83157894737	-6.68857142857
547	0.2735	-4.95355191257	-2.01844660194	1.83157894737	-1.01619047619
548	0.274	-2.13825136612	-0.607766990291	-2.49473684211	-6.68857142857
549	0.2745	-3.54590163934	-2.01844660194	1.83157894737	-1.01619047619
550	0.275	0.677049180328	-2.01844660194	-1.05263157895	-1.01619047619
551	0.2755	2.08469945355	-2.01844660194	3.27368421053	-2.43428571429
552	0.276	13.3459016393	-0.607766990291	1.83157894737	-1.01619047619
553	0.2765	-7.76885245902	0.802912621359	3.27368421053	6.07428571429
554	0.277	-4.95355191257	-0.607766990291	0.389473684211	14.5828571429
555	0.2775	-4.95355191257	-2.01844660194	4.71578947368	-1.01619047619
556	0.278	-4.95355191257	13.4990291262	0.389473684211	-1.01619047619
557	0.2785	-4.95355191257	0.802912621359	1.83157894737	0.401904761905
558	0.279	-13.3994535519	-2.01844660194	0.389473684211	1.82
559	0.2795	-0.730601092896	-2.01844660194	4.71578947368	3.2380952381
560	0.28	-2.13825136612	0.802912621359	3.27368421053	10.3285714286
561	0.2805	-4.95355191257	-2.01844660194	-1.05263157895	-1.01619047619
562	0.281	0.677049180328	13.4990291262	-2.49473684211	-1.01619047619
563	0.2815	-3.54590163934	-0.607766990291	-1.05263157895	0.401904761905
564	0.282	-11.9918032787	-4.83980582524	0.389473684211	0.401904761905
565	0.2825	-0.730601092896	-4.83980582524	1.83157894737	-6.68857142857
566	0.283	-2.13825136612	-0.607766990291	11.9263157895	0.401904761905
567	0.2835	-0.730601092896	-0.607766990291	6.15789473684	0.401904761905
568	0.284	-2.13825136612	6.44563106796	3.27368421053	1.82
569	0.2845	-2.13825136612	-0.607766990291	3.27368421053	1.82
570	0.285	-7.76885245902	-2.01844660194	4.71578947368	3.2380952381
571	0.2855	-0.730601092896	-2.01844660194	4.71578947368	-8.10666666667
572	0.286	-0.730601092896	-0.607766990291	14.8105263158	-1.01619047619
573	0.2865	0.677049180328	-0.607766990291	3.27368421053	-1.01619047619
574	0.287	2.08469945355	-3.42912621359	1.83157894737	-1.01619047619
575	0.2875	0.677049180328	0.802912621359	-1.05263157895	1.82
576	0.288	-13.3994535519	0.802912621359	3.27368421053	-1.01619047619
577	0.2885	-10.5841530055	-0.607766990291	0.389473684211	14.5828571429
578	0.289	0.677049180328	0.802912621359	0.389473684211	7.49238095238
579	0.2895	0.677049180328	0.802912621359	-1.05263157895	1.82
580	0.29	-0.730601092896	3.62427184466	0.389473684211	-1.01619047619
581	0.2905	2.08469945355	-7.66116504854	1.83157894737	-1.01619047619
582	0.291	4.9	-0.607766990291	0.389473684211	-1.01619047619
583	0.2915	-3.54590163934	-2.01844660194	0.389473684211	-3.85238095238
584	0.292	-2.13825136612	0.802912621359	4.71578947368	8.91047619048
585	0.2925	-4.95355191257	0.802912621359	1.83157894737	0.401904761905
586	0.293	-3.54590163934	-4.83980582524	1.83157894737	-1.01619047619
587	0.2935	-2.13825136612	-10.4825242718	1.83157894737	-1.01619047619
588	0.294	2.08469945355	-6.25048543689	3.27368421053	0.401904761905
589	0.2945	14.7535519126	-2.01844660194	1.83157894737	-8.10666666667
590	0.295	-2.13825136612	-2.01844660194	14.8105263158	-1.01619047619
591	0.2955	-0.730601092896	-2.01844660194	-2.49473684211	-1.01619047619
592	0.296	-2.13825136612	-3.42912621359	-3.93684210526	3.2380952381
593	0.2965	0.677049180328	16.3203883495	0.389473684211	-1.01619047619
594	0.297	-9.17650273224	-0.607766990291	-1.05263157895	1.82
595	0.2975	-0.730601092896	0.802912621359	0.389473684211	-1.01619047619
596	0.298	3.49234972678	-0.607766990291	1.83157894737	-1.01619047619
597	0.2985	2.08469945355	2.21359223301	13.3684210526	0.401904761905
598	0.299	-0.730601092896	0.802912621359	1.83157894737	3.2380952381
599	0.2995	0.677049180328	14.9097087379	1.83157894737	-2.43428571429
600	0.3	-13.3994535519	0.802912621359	0.389473684211	0.401904761905
601	0.3005	7.71530054645	0.802912621359	0.389473684211	-3.85238095238
602	0.301	-3.54590163934	0.802912621359	3.27368421053	-12.360952381
603	0.3015	-3.54590163934	-0.607766990291	14.8105263158	-1.01619047619
604	0.302	-3.54590163934	-6.25048543689	1.83157894737	-1.01619047619
605	0.3025	-4.95355191257	9.26699029126	1.83157894737	-1.01619047619
606	0.303	-6.36120218579	17.7310679612	1.83157894737	0.401904761905
607	0.3035	-13.3994535519	-3.42912621359	0.389473684211	17.419047619
608	0.304	-0.730601092896	0.802912621359	3.27368421053	4.65619047619
609	0.3045	-3.54590163934	0.802912621359	3.27368421053	-6.68857142857
610	0.305	-0.730601092896	-2.01844660194	-3.93684210526	-1.01619047619
611	0.3055	3.49234972678	16.3203883495	-1.05263157895	1.82
612	0.306	4.9	-2.01844660194	0.389473684211	1.82
613	0.3065	-16.2147540984	-2.01844660194	-2.49473684211	1.82
614	0.307	-2.13825136612	-0.607766990291	3.27368421053	4.65619047619
615	0.3075	0.677049180328	0.802912621359	0.389473684211	-6.68857142857
616	0.308	-3.54590163934	0.802912621359	-9.70526315789	-2.43428571429
617	0.3085	-3.54590163934	5.03495145631	1.83157894737	-1.01619047619
618	0.309	-6.36120218579	-3.42912621359	0.389473684211	-2.43428571429
619	0.3095	-11.9918032787	-2.01844660194	1.83157894737	0.401904761905
620	0.31	-4.95355191257	-2.01844660194	-2.49473684211	-10.9428571429
621	0.3105	-6.36120218579	-0.607766990291	-2.49473684211	-8.10666666667
622	0.311	-2.13825136612	-0.607766990291	-5.37894736842	-1.01619047619
623	0.3115	-0.730601092896	13.4990291262	1.83157894737	0.401904761905
624	0.312	-4.95355191257	-2.01844660194	0.389473684211	0.401904761905
625	0.3125	-13.3994535519	-4.83980582524	1.83157894737	0.401904761905
626	0.313	-0.730601092896	-2.01844660194	1.83157894737	-1.01619047619
627	0.3135	-4.95355191257	-0.607766990291	1.83157894737	-2.43428571429
628	0.314	-3.54590163934	-2.01844660194	-1.05263157895	-1.01619047619
629	0.3145	-3.54590163934	-4.83980582524	0.389473684211	-1.01619047619
630	0.315	-0.730601092896	-11.8932038835	0.389473684211	-2.43428571429
631	0.3155	-0.730601092896	-11.8932038835	0.389473684211	0.401904761905
632	0.316	0.677049180328	-0.607766990291	-1.05263157895	-12.360952381
633	0.3165	-0.730601092896	-2.01844660194	-9.70526315789	-1.01619047619
634	0.317	3.49234972678	-3.42912621359	0.389473684211	-1.01619047619
635	0.3175	2.08469945355	13.4990291262	0.389473684211	3.2380952381
636	0.318	-3.54590163934	-6.25048543689	1.83157894737	0.401904761905
637	0.3185	-2.13825136612	-10.4825242718	-1.05263157895	-1.01619047619
638	0.319	-2.13825136612	-2.01844660194	-1.05263157895	-12.360952381
639	0.3195	2.08469945355	0.802912621359	-12.5894736842	-1.01619047619
640	0.32	0.677049180328	-6.25048543689	-5.37894736842	-1.01619047619
641	0.3205	3.49234972678	-14.7145631068	-1.05263157895	-1.01619047619
642	0.321	11.9382513661	-6.25048543689	0.389473684211	-1.01619047619
643	0.3215	16.1612021858	-0.607766990291	-1.05263157895	-1.01619047619
644	0.322	4.9	-2.01844660194	0.389473684211	0.401904761905
645	0.3225	3.49234972678	-2.01844660194	0.389473684211	-6.68857142857
646	0.323	0.677049180328	-2.01844660194	-8.26315789474	1.82
647	0.3235	-0.730601092896	-7.66116504854	-1.05263157895	0.401904761905
648	0.324	-3.54590163934	-10.4825242718	-1.05263157895	-1.01619047619
649	0.3245	16.1612021858	-3.42912621359	3.27368421053	-2.43428571429
650	0.325	-7.76885245902	-2.01844660194	-1.05263157895	1.82
651	0.3255	-9.17650273224	-2.01844660194	1.83157894737	-6.68857142857
652	0.326	-6.36120218579	-2.01844660194	-1.05263157895	-1.01619047619
653	0.3265	-4.95355191257	-10.4825242718	1.83157894737	-1.01619047619
654	0.327	-3.54590163934	-10.4825242718	-1.05263157895	-2.43428571429
655	0.3275	13.3459016393	-0.607766990291	1.83157894737	-8.10666666667
656	0.328	-6.36120218579	-0.607766990291	0.389473684211	-5.27047619048
657	0.3285	-3.54590163934	-0.607766990291	-1.05263157895	1.82
658	0.329	-4.95355191257	-0.607766990291	14.8105263158	-1.01619047619
659	0.3295	-4.95355191257	-6.25048543689	0.389473684211	0.401904761905
660	0.33	-3.54590163934	-7.66116504854	0.389473684211	-2.43428571429
661	0.3305	3.49234972678	-9.07184466019	1.83157894737	-1.01619047619
662	0.331	4.9	-0.607766990291	0.389473684211	-12.360952381
663	0.3315	3.49234972678	-0.607766990291	-9.70526315789	0.401904761905
664	0.332	2.08469945355	-2.01844660194	4.71578947368	-1.01619047619
665	0.3325	3.49234972678	-7.66116504854	1.83157894737	-2.43428571429
666	0.333	2.08469945355	-9.07184466019	1.83157894737	-1.01619047619
667	0.3335	-4.95355191257	-2.01844660194	1.83157894737	-1.01619047619
668	0.334	2.08469945355	-2.01844660194	0.389473684211	-12.360952381
669	0.3345	0.677049180328	-2.01844660194	-5.37894736842	-3.85238095238
670	0.335	-0.730601092896	-3.42912621359	-1.05263157895	-1.01619047619
671	0.3355	0.677049180328	-6.25048543689	1.83157894737	-1.01619047619
672	0.336	0.677049180328	-0.607766990291	-1.05263157895	3.2380952381
673	0.3365	-10.5841530055	-0.607766990291	1.83157894737	4.65619047619
674	0.337	-6.36120218579	0.802912621359	1.83157894737	3.2380952381
675	0.3375	-3.54590163934	0.802912621359	6.15789473684	-6.68857142857
676	0.338	-3.54590163934	-3.42912621359	-5.37894736842	-1.01619047619
677	0.3385	-3.54590163934	-11.8932038835	1.83157894737	-1.01619047619
678	0.339	2.08469945355	-3.42912621359	1.83157894737	-1.01619047619
679	0.3395	9.12295081967	-2.01844660194	-1.05263157895	1.82
680	0.34	-6.36120218579	-3.42912621359	0.389473684211	1.82
681	0.3405	-2.13825136612	-2.01844660194	4.71578947368	-1.01619047619
682	0.341	0.677049180328	-4.83980582524	-2.49473684211	-1.01619047619
683	0.3415	3.49234972678	-0.607766990291	-2.49473684211	0.401904761905
684	0.342	0.677049180328	-2.01844660194	3.27368421053	-1.01619047619
685	0.3425	-10.5841530055	-0.607766990291	1.83157894737	3.2380952381
686	0.343	-2.13825136612	-2.01844660194	-1.05263157895	4.65619047619
687	0.3435	0.677049180328	-3.42912621359	-1.05263157895	-5.27047619048
688	0.344	0.677049180328	-2.01844660194	-6.82105263158	-2.43428571429
689	0.3445	0.677049180328	-10.4825242718	-1.05263157895	-1.01619047619
690	0.345	4.9	-6.25048543689	1.83157894737	-1.01619047619
691	0.3455	14.7535519126	-0.607766990291	-1.05263157895	-1.01619047619
692	0.346	-9.17650273224	0.802912621359	0.389473684211	-1.01619047619
693	0.3465	-0.730601092896	-2.01844660194	4.71578947368	-2.43428571429
694	0.347	-2.13825136612	0.802912621359	7.6	-2.43428571429
695	0.3475	-0.730601092896	-6.25048543689	0.389473684211	-2.43428571429
696	0.348	2.08469945355	-7.66116504854	0.389473684211	-1.01619047619
697	0.3485	-0.730601092896	7.85631067961	1.83157894737	-2.43428571429
698	0.349	-7.76885245902	-0.607766990291	1.83157894737	1.82
699	0.3495	-4.95355191257	-2.01844660194	1.83157894737	8.91047619048
700	0.35	-3.54590163934	0.802912621359	11.9263157895	-1.01619047619
701	0.3505	-4.95355191257	3.62427184466	-2.49473684211	-1.01619047619
702	0.351	-2.13825136612	-2.01844660194	3.27368421053	-2.43428571429
703	0.3515	-4.95355191257	-0.607766990291	3.27368421053	-1.01619047619
704	0.352	11.9382513661	-3.42912621359	3.27368421053	1.82
705	0.3525	-11.9918032787	-2.01844660194	1.83157894737	3.2380952381
706	0.353	-2.13825136612	-0.607766990291	19.1368421053	-3.85238095238
707	0.3535	-0.730601092896	3.62427184466	-1.05263157895	0.401904761905
708	0.354	3.49234972678	17.7310679612	0.389473684211	0.401904761905
709	0.3545	3.49234972678	-4.83980582524	1.83157894737	-1.01619047619
710	0.355	2.08469945355	-4.83980582524	1.83157894737	-2.43428571429
711	0.3555	-4.95355191257	-4.83980582524	3.27368421053	1.82
712	0.356	2.08469945355	-0.607766990291	20.5789473684	-2.43428571429
713	0.3565	2.08469945355	-0.607766990291	1.83157894737	-2.43428571429
714	0.357	3.49234972678	-2.01844660194	0.389473684211	-3.85238095238
715	0.3575	2.08469945355	-7.66116504854	0.389473684211	-2.43428571429
716	0.358	0.677049180328	-10.4825242718	1.83157894737	0.401904761905
717	0.3585	-0.730601092896	0.802912621359	1.83157894737	-13.779047619
718	0.359	2.08469945355	-0.607766990291	-11.1473684211	-1.01619047619
719	0.3595	3.49234972678	-4.83980582524	-3.93684210526	-1.01619047619
720	0.36	2.08469945355	14.9097087379	0.389473684211	1.82
721	0.3605	0.677049180328	-4.83980582524	0.389473684211	0.401904761905
722	0.361	-11.9918032787	-7.66116504854	3.27368421053	-1.01619047619
723	0.3615	-4.95355191257	-2.01844660194	0.389473684211	-3.85238095238
724	0.362	-4.95355191257	0.802912621359	-3.93684210526	-1.01619047619
725	0.3625	-3.54590163934	-2.01844660194	-6.82105263158	-1.01619047619
726	0.363	-2.13825136612	-10.4825242718	3.27368421053	0.401904761905
727	0.3635	0.677049180328	0.802912621359	0.389473684211	0.401904761905
728	0.364	11.9382513661	-0.607766990291	0.389473684211	0.401904761905
729	0.3645	-9.17650273224	-0.607766990291	-1.05263157895	7.49238095238
730	0.365	-4.95355191257	-3.42912621359	7.6	-3.85238095238
731	0.3655	-4.95355191257	0.802912621359	-5.37894736842	-1.01619047619
732	0.366	-0.730601092896	2.21359223301	-1.05263157895	-1.01619047619
733	0.3665	-0.730601092896	-7.66116504854	0.389473684211	-2.43428571429
734	0.367	11.9382513661	-2.01844660194	0.389473684211	-9.52476190476
735	0.3675	0.677049180328	0.802912621359	-1.05263157895	-10.9428571429
736	0.368	-2.13825136612	-0.607766990291	-6.82105263158	-2.43428571429
737	0.3685	-2.13825136612	-3.42912621359	-6.82105263158	-1.01619047619
738	0.369	-0.730601092896	16.3203883495	-1.05263157895	-1.01619047619
739	0.3695	-3.54590163934	16.3203883495	0.389473684211	-1.01619047619
740	0.37	-11.9918032787	-0.607766990291	-1.05263157895	3.2380952381
741	0.3705	2.08469945355	-3.42912621359	-1.05263157895	1.82
742	0.371	3.49234972678	-0.607766990291	1.83157894737	-6.68857142857
743	0.3715	-0.730601092896	-4.83980582524	-6.82105263158	-1.01619047619
744	0.372	0.677049180328	-9.07184466019	1.83157894737	-2.43428571429
745	0.3725	0.677049180328	-2.01844660194	1.83157894737	-2.43428571429
746	0.373	20.3841530055	-2.01844660194	-1.05263157895	3.2380952381
747	0.3735	-4.95355191257	-3.42912621359	0.389473684211	1.82
748	0.374	3.49234972678	-0.607766990291	14.8105263158	-5.27047619048
749	0.3745	7.71530054645	0.802912621359	-1.05263157895	-1.01619047619
750	0.375	4.9	-13.3038834951	-2.49473684211	-2.43428571429
751	0.3755	6.30765027322	2.21359223301	1.83157894737	-1.01619047619
752	0.376	3.49234972678	-0.607766990291	-1.05263157895	-2.43428571429
753	0.3765	-3.54590163934	-0.607766990291	-1.05263157895	16.000952381
754	0.377	0.677049180328	-2.01844660194	-1.05263157895	16.000952381
755	0.3775	-3.54590163934	2.21359223301	-1.05263157895	-1.01619047619
756	0.378	-6.36120218579	9.26699029126	3.27368421053	-1.01619047619
757	0.3785	-7.76885245902	-4.83980582524	-1.05263157895	-1.01619047619
758	0.379	-4.95355191257	0.802912621359	-1.05263157895	-3.85238095238
759	0.3795	-7.76885245902	-2.01844660194	-1.05263157895	8.91047619048
760	0.38	-4.95355191257	0.802912621359	-2.49473684211	17.419047619
761	0.3805	-2.13825136612	-2.01844660194	1.83157894737	-1.01619047619
762	0.381	0.677049180328	-10.4825242718	1.83157894737	-1.01619047619
763	0.3815	0.677049180328	-11.8932038835	-1.05263157895	-3.85238095238
764	0.382	20.3841530055	-2.01844660194	0.389473684211	-3.85238095238
765	0.3825	-3.54590163934	-0.607766990291	3.27368421053	-8.10666666667
766	0.383	-0.730601092896	-2.01844660194	-6.82105263158	-6.68857142857
767	0.3835	0.677049180328	-2.01844660194	0.389473684211	1.82
768	0.384	-0.730601092896	-0.607766990291	1.83157894737	0.401904761905
769	0.3845	3.49234972678	-7.66116504854	-1.05263157895	-1.01619047619
770	0.385	3.49234972678	0.802912621359	0.389473684211	-2.43428571429
771	0.3855	-2.13825136612	-2.01844660194	-2.49473684211	-6.68857142857
772	0.386	-0.730601092896	-2.01844660194	-3.93684210526	11.7466666667
773	0.3865	-4.95355191257	-0.607766990291	3.27368421053	-3.85238095238
774	0.387	-4.95355191257	-0.607766990291	-1.05263157895	-2.43428571429
775	0.3875	-0.730601092896	-3.42912621359	0.389473684211	-2.43428571429
776	0.388	0.677049180328	7.85631067961	1.83157894737	0.401904761905
777	0.3885	-7.76885245902	-0.607766990291	4.71578947368	16.000952381
778	0.389	-0.730601092896	0.802912621359	4.71578947368	14.5828571429
779	0.3895	-3.54590163934	2.21359223301	13.3684210526	-3.85238095238
780	0.39	-2.13825136612	-0.607766990291	-3.93684210526	-1.01619047619
781	0.3905	-2.13825136612	2.21359223301	3.27368421053	-1.01619047619
782	0.391	-3.54590163934	-3.42912621359	1.83157894737	-1.01619047619
783	0.3915	-7.76885245902	-2.01844660194	0.389473684211	3.2380952381
784	0.392	2.08469945355	-2.01844660194	0.389473684211	-1.01619047619
785	0.3925	-0.730601092896	0.802912621359	19.1368421053	-1.01619047619
786	0.393	0.677049180328	-3.42912621359	16.2526315789	-2.43428571429
787	0.3935	-3.54590163934	-14.7145631068	1.83157894737	-3.85238095238
788	0.394	0.677049180328	-0.607766990291	-1.05263157895	-3.85238095238
789	0.3945	10.5306010929	-2.01844660194	3.27368421053	-1.01619047619
790	0.395	-6.36120218579	-2.01844660194	3.27368421053	8.91047619048
791	0.3955	-3.54590163934	-2.01844660194	0.389473684211	16.000952381
792	0.396	-0.730601092896	-2.01844660194	0.389473684211	-1.01619047619
793	0.3965	-2.13825136612	20.5524271845	1.83157894737	-1.01619047619
794	0.397	-6.36120218579	-0.607766990291	0.389473684211	-1.01619047619
795	0.3975	-13.3994535519	-3.42912621359	1.83157894737	3.2380952381
796	0.398	-6.36120218579	-0.607766990291	4.71578947368	-1.01619047619
797	0.3985	-6.36120218579	-2.01844660194	3.27368421053	4.65619047619
798	0.399	-3.54590163934	-10.4825242718	-1.05263157895	0.401904761905
799	0.3995	-7.76885245902	3.62427184466	3.27368421053	-1.01619047619
800	0.4	-4.95355191257	-2.01844660194	-1.05263157895	0.401904761905
801	0.4005	-4.95355191257	-0.607766990291	0.389473684211	-1.01619047619
802	0.401	-2.13825136612	-4.83980582524	0.389473684211	14.5828571429
803	0.4015	-2.13825136612	-3.42912621359	16.2526315789	-2.43428571429
804	0.402	0.677049180328	-2.01844660194	17.6947368421	-1.01619047619
805	0.4025	2.08469945355	-10.4825242718	0.389473684211	-1.01619047619
806	0.403	3.49234972678	-0.607766990291	0.389473684211	-3.85238095238
807	0.4035	13.3459016393	-2.01844660194	0.389473684211	-2.43428571429
808	0.404	-0.730601092896	-2.01844660194	-3.93684210526	-3.85238095238
809	0.4045	4.9	-0.607766990291	-1.05263157895	-6.68857142857
810	0.405	3.49234972678	-2.01844660194	-1.05263157895	-1.01619047619
811	0.4055	0.677049180328	-3.42912621359	0.389473684211	-1.01619047619
812	0.406	0.677049180328	-0.607766990291	0.389473684211	-3.85238095238
813	0.4065	16.1612021858	-2.01844660194	0.389473684211	-8.10666666667
814	0.407	-3.54590163934	0.802912621359	1.83157894737	-10.9428571429
815	0.4075	-4.95355191257	-0.607766990291	17.6947368421	-1.01619047619
816	0.408	-4.95355191257	-10.4825242718	-2.49473684211	-1.01619047619
817	0.4085	-4.95355191257	-10.4825242718	0.389473684211	-2.43428571429
818	0.409	-0.730601092896	-0.607766990291	0.389473684211	-2.43428571429
819	0.4095	-0.730601092896	-2.01844660194	3.27368421053	0.401904761905
820	0.41	-0.730601092896	-2.01844660194	-8.26315789474	-2.43428571429
821	0.4105	3.49234972678	-0.607766990291	-5.37894736842	0.401904761905
822	0.411	0.677049180328	-0.607766990291	6.15789473684	0.401904761905
823	0.4115	-0.730601092896	-3.42912621359	-1.05263157895	0.401904761905
824	0.412	-0.730601092896	-0.607766990291	-1.05263157895	-1.01619047619
825	0.4125	17.568852459	-3.42912621359	3.27368421053	4.65619047619
826	0.413	-6.36120218579	-2.01844660194	-1.05263157895	1.82
827	0.4135	-0.730601092896	-0.607766990291	3.27368421053	-3.85238095238
828	0.414	-6.36120218579	0.802912621359	-6.82105263158	1.82
829	0.4145	-7.76885245902	-0.607766990291	-6.82105263158	-2.43428571429
830	0.415	-7.76885245902	17.7310679612	0.389473684211	-2.43428571429
831	0.4155	-16.2147540984	-2.01844660194	1.83157894737	1.82
832	0.416	-6.36120218579	-0.607766990291	1.83157894737	4.65619047619
833	0.4165	-0.730601092896	-3.42912621359	17.6947368421	-1.01619047619
834	0.417	0.677049180328	-0.607766990291	4.71578947368	-1.01619047619
835	0.4175	0.677049180328	-7.66116504854	-1.05263157895	-1.01619047619
836	0.418	-4.95355191257	-0.607766990291	0.389473684211	-1.01619047619
837	0.4185	-7.76885245902	-3.42912621359	0.389473684211	-2.43428571429
838	0.419	-14.8071038251	-2.01844660194	-2.49473684211	14.5828571429
839	0.4195	-0.730601092896	-2.01844660194	-1.05263157895	4.65619047619
840	0.42	0.677049180328	0.802912621359	-1.05263157895	-2.43428571429
841	0.4205	3.49234972678	3.62427184466	0.389473684211	-1.01619047619
842	0.421	3.49234972678	-7.66116504854	0.389473684211	-1.01619047619
843	0.4215	20.3841530055	-3.42912621359	0.389473684211	-10.9428571429
844	0.422	2.08469945355	0.802912621359	-1.05263157895	-8.10666666667
845	0.4225	0.677049180328	-2.01844660194	-11.1473684211	-3.85238095238
846	0.423	-2.13825136612	2.21359223301	-9.70526315789	-1.01619047619
847	0.4235	-0.730601092896	-0.607766990291	0.389473684211	-1.01619047619
848	0.424	-2.13825136612	-6.25048543689	0.389473684211	0.401904761905
849	0.4245	7.71530054645	-0.607766990291	0.389473684211	-3.85238095238
850	0.425	0.677049180328	-2.01844660194	-1.05263157895	-9.52476190476
851	0.4255	-2.13825136612	-2.01844660194	-1.05263157895	-2.43428571429
852	0.426	-2.13825136612	0.802912621359	-9.70526315789	0.401904761905
853	0.4265	-6.36120218579	2.21359223301	0.389473684211	0.401904761905
854	0.427	-4.95355191257	-4.83980582524	0.389473684211	0.401904761905
855	0.4275	-9.17650273224	-7.66116504854	0.389473684211	0.401904761905
856	0.428	-4.95355191257	-0.607766990291	0.389473684211	-10.9428571429
857	0.4285	-4.95355191257	-0.607766990291	-9.70526315789	0.401904761905
858	0.429	-0.730601092896	-3.42912621359	-8.26315789474	1.82
859	0.4295	-2.13825136612	-14.7145631068	0.389473684211	-1.01619047619
860	0.43	3.49234972678	-2.01844660194	-1.05263157895	-3.85238095238
861	0.4305	18.9765027322	-2.01844660194	1.83157894737	0.401904761905
862	0.431	0.677049180328	-0.607766990291	1.83157894737	4.65619047619
863	0.4315	3.49234972678	-0.607766990291	-3.93684210526	13.1647619048
864	0.432	2.08469945355	2.21359223301	1.83157894737	0.401904761905
865	0.4325	4.9	-3.42912621359	-1.05263157895	0.401904761905
866	0.433	3.49234972678	-7.66116504854	0.389473684211	0.401904761905
867	0.4335	20.3841530055	-2.01844660194	-1.05263157895	0.401904761905
868	0.434	-9.17650273224	-3.42912621359	-1.05263157895	16.000952381
869	0.4345	0.677049180328	-0.607766990291	-11.1473684211	0.401904761905
870	0.435	0.677049180328	5.03495145631	0.389473684211	0.401904761905
871	0.4355	2.08469945355	17.7310679612	-2.49473684211	1.82
872	0.436	0.677049180328	-2.01844660194	0.389473684211	-2.43428571429
873	0.4365	-7.76885245902	-2.01844660194	1.83157894737	-1.01619047619
874	0.437	3.49234972678	-2.01844660194	1.83157894737	-6.68857142857
875	0.4375	6.30765027322	0.802912621359	-8.26315789474	-9.52476190476
876	0.438	3.49234972678	-3.42912621359	-8.26315789474	-2.43428571429
877	0.4385	4.9	-10.4825242718	1.83157894737	-1.01619047619
878	0.439	4.9	-2.01844660194	-1.05263157895	-1.01619047619
879	0.4395	-3.54590163934	-2.01844660194	-1.05263157895	-1.01619047619
880	0.44	-4.95355191257	-3.42912621359	-2.49473684211	11.7466666667
881	0.4405	3.49234972678	-0.607766990291	-1.05263157895	6.07428571429
882	0.441	3.49234972678	0.802912621359	-2.49473684211	-1.01619047619
883	0.4415	2.08469945355	9.26699029126	1.83157894737	1.82
884	0.442	2.08469945355	6.44563106796	0.389473684211	-2.43428571429
885	0.4425	13.3459016393	0.802912621359	0.389473684211	1.82
886	0.443	-7.76885245902	-4.83980582524	-1.05263157895	1.82
887	0.4435	0.677049180328	0.802912621359	11.9263157895	-3.85238095238
888	0.444	-2.13825136612	2.21359223301	-5.37894736842	-1.01619047619
889	0.4445	-2.13825136612	-9.07184466019	0.389473684211	0.401904761905
890	0.445	-2.13825136612	-11.8932038835	0.389473684211	-3.85238095238
891	0.4455	13.3459016393	-2.01844660194	1.83157894737	-8.10666666667
892	0.446	-10.5841530055	0.802912621359	1.83157894737	1.82
893	0.4465	-0.730601092896	-0.607766990291	-9.70526315789	-1.01619047619
894	0.447	3.49234972678	0.802912621359	-12.5894736842	-1.01619047619
895	0.4475	0.677049180328	16.3203883495	0.389473684211	1.82
896	0.448	-0.730601092896	-3.42912621359	-1.05263157895	0.401904761905
897	0.4485	-10.5841530055	-2.01844660194	0.389473684211	1.82
898	0.449	-6.36120218579	-0.607766990291	0.389473684211	-1.01619047619
899	0.4495	0.677049180328	-0.607766990291	-1.05263157895	17.419047619
900	0.45	2.08469945355	0.802912621359	-5.37894736842	-1.01619047619
901	0.4505	2.08469945355	2.21359223301	1.83157894737	-6.68857142857
902	0.451	-0.730601092896	-4.83980582524	-2.49473684211	-1.01619047619
903	0.4515	0.677049180328	-10.4825242718	0.389473684211	-3.85238095238
904	0.452	23.1994535519	-0.607766990291	-1.05263157895	-10.9428571429
905	0.4525	2.08469945355	-2.01844660194	14.8105263158	0.401904761905
906	0.453	2.08469945355	-2.01844660194	0.389473684211	-1.01619047619
907	0.4535	2.08469945355	-0.607766990291	-6.82105263158	-1.01619047619
908	0.454	2.08469945355	19.1417475728	1.83157894737	-1.01619047619
909	0.4545	-14.8071038251	-0.607766990291	1.83157894737	4.65619047619
910	0.455	0.677049180328	-0.607766990291	-1.05263157895	-1.01619047619
911	0.4555	-0.730601092896	-2.01844660194	1.83157894737	-10.9428571429
912	0.456	-0.730601092896	-3.42912621359	0.389473684211	-1.01619047619
913	0.4565	3.49234972678	-2.01844660194	-2.49473684211	1.82
914	0.457	2.08469945355	-0.607766990291	-1.05263157895	-1.01619047619
915	0.4575	-7.76885245902	-2.01844660194	-1.05263157895	-2.43428571429
916	0.458	9.12295081967	-0.607766990291	1.83157894737	-6.68857142857
917	0.4585	-0.730601092896	0.802912621359	-1.05263157895	16.000952381
918	0.459	-6.36120218579	-0.607766990291	19.1368421053	-1.01619047619
919	0.4595	-4.95355191257	-13.3038834951	3.27368421053	-1.01619047619
920	0.46	-6.36120218579	-7.66116504854	1.83157894737	3.2380952381
921	0.4605	-14.8071038251	-0.607766990291	1.83157894737	1.82
922	0.461	-0.730601092896	0.802912621359	3.27368421053	0.401904761905
923	0.4615	-0.730601092896	-0.607766990291	0.389473684211	-5.27047619048
924	0.462	-3.54590163934	0.802912621359	-8.26315789474	0.401904761905
925	0.4625	-3.54590163934	0.802912621359	-5.37894736842	0.401904761905
926	0.463	-2.13825136612	-2.01844660194	-1.05263157895	0.401904761905
927	0.4635	-9.17650273224	-0.607766990291	-1.05263157895	-1.01619047619
928	0.464	13.3459016393	0.802912621359	1.83157894737	-6.68857142857
929	0.4645	2.08469945355	3.62427184466	-5.37894736842	-1.01619047619
930	0.465	0.677049180328	-0.607766990291	-6.82105263158	1.82
931	0.4655	-0.730601092896	-11.8932038835	-1.05263157895	0.401904761905
932	0.466	0.677049180328	-0.607766990291	0.389473684211	-1.01619047619
933	0.4665	6.30765027322	0.802912621359	0.389473684211	-1.01619047619
934	0.467	-6.36120218579	-2.01844660194	1.83157894737	18.8371428571
935	0.4675	0.677049180328	-3.42912621359	-1.05263157895	8.91047619048
936	0.468	-2.13825136612	0.802912621359	6.15789473684	-5.27047619048
937	0.4685	-0.730601092896	-3.42912621359	-3.93684210526	1.82
938	0.469	-0.730601092896	19.1417475728	3.27368421053	0.401904761905
939	0.4695	4.9	-0.607766990291	0.389473684211	1.82
940	0.47	2.08469945355	-0.607766990291	0.389473684211	0.401904761905
941	0.4705	2.08469945355	-3.42912621359	1.83157894737	-3.85238095238
942	0.471	4.9	-2.01844660194	4.71578947368	8.91047619048
943	0.4715	9.12295081967	-7.66116504854	1.83157894737	-1.01619047619
944	0.472	4.9	14.9097087379	0.389473684211	-1.01619047619
945	0.4725	0.677049180328	-2.01844660194	-1.05263157895	0.401904761905
946	0.473	-3.54590163934	-0.607766990291	1.83157894737	0.401904761905
947	0.4735	7.71530054645	-2.01844660194	0.389473684211	-9.52476190476
948	0.474	3.49234972678	-2.01844660194	0.389473684211	-6.68857142857
949	0.4745	4.9	-0.607766990291	3.27368421053	1.82
950	0.475	7.71530054645	0.802912621359	1.83157894737	0.401904761905
951	0.4755	9.12295081967	-16.1252427184	1.83157894737	-2.43428571429
952	0.476	23.1994535519	-2.01844660194	0.389473684211	-1.01619047619
953	0.4765	-4.95355191257	-0.607766990291	4.71578947368	3.2380952381
954	0.477	4.9	2.21359223301	4.71578947368	-8.10666666667
955	0.4775	2.08469945355	-3.42912621359	0.389473684211	-2.43428571429
956	0.478	-2.13825136612	-9.07184466019	0.389473684211	0.401904761905
957	0.4785	-3.54590163934	-0.607766990291	3.27368421053	1.82
958	0.479	-13.3994535519	0.802912621359	-1.05263157895	-1.01619047619
959	0.4795	-4.95355191257	-2.01844660194	1.83157894737	0.401904761905
960	0.48	3.49234972678	-0.607766990291	-6.82105263158	-3.85238095238
961	0.4805	4.9	-0.607766990291	-3.93684210526	-3.85238095238
962	0.481	4.9	-7.66116504854	3.27368421053	0.401904761905
963	0.4815	2.08469945355	-9.07184466019	0.389473684211	1.82
964	0.482	18.9765027322	-2.01844660194	1.83157894737	1.82
965	0.4825	-6.36120218579	-2.01844660194	0.389473684211	-3.85238095238
966	0.483	-0.730601092896	-2.01844660194	3.27368421053	-10.9428571429
967	0.4835	-0.730601092896	-4.83980582524	-2.49473684211	-1.01619047619
968	0.484	-2.13825136612	-9.07184466019	-1.05263157895	-2.43428571429
969	0.4845	-0.730601092896	16.3203883495	0.389473684211	-1.01619047619
970	0.485	-11.9918032787	-0.607766990291	3.27368421053	1.82
971	0.4855	-0.730601092896	-0.607766990291	3.27368421053	-2.43428571429
972	0.486	0.677049180328	-2.01844660194	3.27368421053	-10.9428571429
973	0.4865	4.9	-3.42912621359	-11.1473684211	-6.68857142857
974	0.487	-0.730601092896	0.802912621359	0.389473684211	-1.01619047619
975	0.4875	3.49234972678	5.03495145631	0.389473684211	1.82
976	0.488	3.49234972678	-4.83980582524	0.389473684211	0.401904761905
977	0.4885	-4.95355191257	-0.607766990291	-1.05263157895	3.2380952381
978	0.489	-0.730601092896	0.802912621359	1.83157894737	-10.9428571429
979	0.4895	0.677049180328	-0.607766990291	16.2526315789	0.401904761905
980	0.49	3.49234972678	-2.01844660194	1.83157894737	-1.01619047619
981	0.4905	3.49234972678	7.85631067961	4.71578947368	-2.43428571429
982	0.491	-2.13825136612	-2.01844660194	0.389473684211	0.401904761905
983	0.4915	-9.17650273224	-0.607766990291	1.83157894737	0.401904761905
984	0.492	2.08469945355	-2.01844660194	4.71578947368	-6.68857142857
985	0.4925	0.677049180328	0.802912621359	4.71578947368	-3.85238095238
986	0.493	0.677049180328	-0.607766990291	-6.82105263158	-2.43428571429
987	0.4935	-0.730601092896	19.1417475728	1.83157894737	0.401904761905
988	0.494	-4.95355191257	-0.607766990291	1.83157894737	-1.01619047619
989	0.4945	-10.5841530055	-2.01844660194	1.83157894737	-1.01619047619
990	0.495	10.5306010929	-0.607766990291	0.389473684211	-5.27047619048
991	0.4955	3.49234972678	-0.607766990291	-1.05263157895	-6.68857142857
992	0.496	4.9	0.802912621359	-9.70526315789	-3.85238095238
993	0.4965	0.677049180328	13.4990291262	1.83157894737	0.401904761905
994	0.497	2.08469945355	-4.83980582524	1.83157894737	-1.01619047619
995	0.4975	3.49234972678	-0.607766990291	0.389473684211	-6.68857142857
996	0.498	20.3841530055	-0.607766990291	0.389473684211	-2.43428571429
997	0.4985	0.677049180328	0.802912621359	-1.05263157895	0.401904761905
998	0.499	0.677049180328	2.21359223301	-3.93684210526	-6.68857142857
999	0.4995	2.08469945355	5.03495145631	0.389473684211	-3.85238095238
1000	0.5	0.677049180328	13.4990291262	1.83157894737	-1.01619047619
1001	0.5005	-2.13825136612	-0.607766990291	1.83157894737	0.401904761905
1002	0.501	-10.5841530055	-2.01844660194	3.27368421053	4.65619047619
1003	0.5015	-3.54590163934	2.21359223301	4.71578947368	-1.01619047619
1004	0.502	-0.730601092896	3.62427184466	7.6	-6.68857142857
1005	0.5025	-4.95355191257	-6.25048543689	-3.93684210526	0.401904761905
1006	0.503	-2.13825136612	10.6776699029	0.389473684211	0.401904761905
1007	0.5035	-4.95355191257	3.62427184466	1.83157894737	0.401904761905
1008	0.504	18.9765027322	0.802912621359	0.389473684211	0.401904761905
1009	0.5045	2.08469945355	0.802912621359	3.27368421053	17.419047619
1010	0.505	2.08469945355	0.802912621359	19.1368421053	-2.43428571429
1011	0.5055	-0.730601092896	0.802912621359	0.389473684211	-2.43428571429
1012	0.506	-0.730601092896	-2.01844660194	1.83157894737	-2.43428571429
1013	0.5065	3.49234972678	-2.01844660194	0.389473684211	0.401904761905
1014	0.507	3.49234972678	-0.607766990291	1.83157894737	1.82
1015	0.5075	2.08469945355	-2.01844660194	0.389473684211	16.000952381
1016	0.508	3.49234972678	-2.01844660194	20.5789473684	-1.01619047619
1017	0.5085	4.9	5.03495145631	-2.49473684211	0.401904761905
1018	0.509	-0.730601092896	-7.66116504854	1.83157894737	-1.01619047619
1019	0.5095	-9.17650273224	-0.607766990291	1.83157894737	1.82
1020	0.51	-3.54590163934	0.802912621359	0.389473684211	-5.27047619048
1021	0.5105	-0.730601092896	2.21359223301	6.15789473684	0.401904761905
1022	0.511	-0.730601092896	2.21359223301	-1.05263157895	-1.01619047619
1023	0.5115	-3.54590163934	3.62427184466	-3.93684210526	-1.01619047619
1024	0.512	-4.95355191257	20.5524271845	1.83157894737	1.82
1025	0.5125	-16.2147540984	0.802912621359	0.389473684211	0.401904761905
1026	0.513	-10.5841530055	-0.607766990291	-1.05263157895	0.401904761905
1027	0.5135	-2.13825136612	-3.42912621359	-5.37894736842	-5.27047619048
1028	0.514	-2.13825136612	-2.01844660194	-2.49473684211	-6.68857142857
1029	0.5145	-0.730601092896	-3.42912621359	1.83157894737	0.401904761905
1030	0.515	4.9	-7.66116504854	0.389473684211	0.401904761905
1031	0.5155	4.9	0.802912621359	1.83157894737	-1.01619047619
1032	0.516	21.7918032787	-0.607766990291	0.389473684211	-3.85238095238
1033	0.5165	3.49234972678	0.802912621359	-8.26315789474	-2.43428571429
1034	0.517	2.08469945355	-2.01844660194	6.15789473684	-2.43428571429
1035	0.5175	-3.54590163934	0.802912621359	3.27368421053	-1.01619047619
1036	0.518	-0.730601092896	19.1417475728	-1.05263157895	-2.43428571429
1037	0.5185	-14.8071038251	-0.607766990291	0.389473684211	-1.01619047619
1038	0.519	13.3459016393	-2.01844660194	1.83157894737	-9.52476190476
1039	0.5195	-6.36120218579	0.802912621359	0.389473684211	-3.85238095238
1040	0.52	-0.730601092896	-2.01844660194	16.2526315789	-2.43428571429
1041	0.5205	-3.54590163934	0.802912621359	0.389473684211	0.401904761905
1042	0.521	-2.13825136612	17.7310679612	-1.05263157895	1.82
1043	0.5215	-11.9918032787	0.802912621359	1.83157894737	3.2380952381
1044	0.522	-0.730601092896	-0.607766990291	0.389473684211	-5.27047619048
1045	0.5225	-3.54590163934	0.802912621359	0.389473684211	-6.68857142857
1046	0.523	0.677049180328	-0.607766990291	-9.70526315789	-6.68857142857
1047	0.5235	0.677049180328	5.03495145631	-1.05263157895	-1.01619047619
1048	0.524	4.9	9.26699029126	0.389473684211	-1.01619047619
1049	0.5245	2.08469945355	-4.83980582524	0.389473684211	0.401904761905
1050	0.525	10.5306010929	-2.01844660194	0.389473684211	-1.01619047619
1051	0.5255	-3.54590163934	-0.607766990291	3.27368421053	-5.27047619048
1052	0.526	0.677049180328	-2.01844660194	3.27368421053	7.49238095238
1053	0.5265	3.49234972678	-4.83980582524	1.83157894737	0.401904761905
1054	0.527	3.49234972678	-0.607766990291	-1.05263157895	-1.01619047619
1055	0.5275	0.677049180328	-2.01844660194	1.83157894737	-1.01619047619
1056	0.528	-10.5841530055	-2.01844660194	3.27368421053	1.82
1057	0.5285	-0.730601092896	-0.607766990291	3.27368421053	3.2380952381
1058	0.529	0.677049180328	-0.607766990291	4.71578947368	-1.01619047619
1059	0.5295	0.677049180328	-0.607766990291	-3.93684210526	-2.43428571429
1060	0.53	0.677049180328	-10.4825242718	0.389473684211	0.401904761905
1061	0.5305	0.677049180328	-3.42912621359	-1.05263157895	3.2380952381
1062	0.531	-10.5841530055	-0.607766990291	1.83157894737	3.2380952381
1063	0.5315	0.677049180328	-2.01844660194	6.15789473684	1.82
1064	0.532	0.677049180328	2.21359223301	19.1368421053	-1.01619047619
1065	0.5325	-2.13825136612	2.21359223301	0.389473684211	-1.01619047619
1066	0.533	-4.95355191257	7.85631067961	1.83157894737	-2.43428571429
1067	0.5335	-11.9918032787	-2.01844660194	0.389473684211	3.2380952381
1068	0.534	-0.730601092896	-2.01844660194	3.27368421053	-5.27047619048
1069	0.5345	-10.5841530055	-2.01844660194	0.389473684211	0.401904761905
1070	0.535	-3.54590163934	-0.607766990291	16.2526315789	-2.43428571429
1071	0.5355	-3.54590163934	0.802912621359	1.83157894737	-2.43428571429
1072	0.536	-7.76885245902	19.1417475728	1.83157894737	-2.43428571429
1073	0.5365	-7.76885245902	-2.01844660194	1.83157894737	3.2380952381
1074	0.537	-17.6224043716	0.802912621359	1.83157894737	4.65619047619
1075	0.5375	-3.54590163934	-0.607766990291	0.389473684211	-9.52476190476
1076	0.538	0.677049180328	0.802912621359	20.5789473684	0.401904761905
1077	0.5385	-0.730601092896	-9.07184466019	0.389473684211	-1.01619047619
1078	0.539	2.08469945355	-7.66116504854	0.389473684211	-1.01619047619
1079	0.5395	10.5306010929	-2.01844660194	0.389473684211	-2.43428571429
1080	0.54	18.9765027322	-4.83980582524	1.83157894737	-2.43428571429
1081	0.5405	3.49234972678	0.802912621359	0.389473684211	0.401904761905
1082	0.541	2.08469945355	0.802912621359	6.15789473684	-1.01619047619
1083	0.5415	-3.54590163934	-0.607766990291	13.3684210526	-1.01619047619
1084	0.542	-2.13825136612	-6.25048543689	0.389473684211	0.401904761905
1085	0.5425	-4.95355191257	0.802912621359	3.27368421053	-1.01619047619
1086	0.543	11.9382513661	-0.607766990291	0.389473684211	-10.9428571429
1087	0.5435	-4.95355191257	-3.42912621359	-1.05263157895	-9.52476190476
1088	0.544	-2.13825136612	0.802912621359	-12.5894736842	1.82
1089	0.5445	-2.13825136612	2.21359223301	0.389473684211	0.401904761905
1090	0.545	-0.730601092896	0.802912621359	0.389473684211	-2.43428571429
1091	0.5455	-10.5841530055	-0.607766990291	6.15789473684	0.401904761905
1092	0.546	14.7535519126	-0.607766990291	0.389473684211	-2.43428571429
1093	0.5465	-3.54590163934	-3.42912621359	-2.49473684211	-9.52476190476
1094	0.547	-4.95355191257	2.21359223301	-9.70526315789	-2.43428571429
1095	0.5475	-6.36120218579	0.802912621359	3.27368421053	0.401904761905
1096	0.548	-4.95355191257	-0.607766990291	0.389473684211	0.401904761905
1097	0.5485	-4.95355191257	-2.01844660194	1.83157894737	-2.43428571429
1098	0.549	14.7535519126	-0.607766990291	1.83157894737	-1.01619047619
1099	0.5495	-3.54590163934	-0.607766990291	0.389473684211	-1.01619047619
1100	0.55	-3.54590163934	2.21359223301	-3.93684210526	-2.43428571429
1101	0.5505	-0.730601092896	0.802912621359	1.83157894737	-1.01619047619
1102	0.551	-3.54590163934	-3.42912621359	3.27368421053	0.401904761905
1103	0.5515	-3.54590163934	-9.07184466019	1.83157894737	0.401904761905
1104	0.552	-11.9918032787	-0.607766990291	3.27368421053	-12.360952381
1105	0.5525	-4.95355191257	-0.607766990291	4.71578947368	-8.10666666667
1106	0.553	-3.54590163934	-3.42912621359	1.83157894737	8.91047619048
1107	0.5535	-0.730601092896	-3.42912621359	-1.05263157895	-1.01619047619
1108	0.554	0.677049180328	13.4990291262	0.389473684211	-1.01619047619
1109	0.5545	-2.13825136612	0.802912621359	-1.05263157895	1.82
1110	0.555	-11.9918032787	2.21359223301	-1.05263157895	1.82
1111	0.5555	-2.13825136612	-0.607766990291	0.389473684211	-12.360952381
1112	0.556	-2.13825136612	0.802912621359	19.1368421053	-2.43428571429
1113	0.5565	-2.13825136612	0.802912621359	16.2526315789	-1.01619047619
1114	0.557	0.677049180328	-3.42912621359	-1.05263157895	0.401904761905
1115	0.5575	4.9	0.802912621359	0.389473684211	-1.01619047619
1116	0.558	7.71530054645	-0.607766990291	1.83157894737	0.401904761905
1117	0.5585	-4.95355191257	-2.01844660194	-1.05263157895	14.5828571429
1118	0.559	-0.730601092896	0.802912621359	0.389473684211	18.8371428571
1119	0.5595	-3.54590163934	0.802912621359	0.389473684211	-3.85238095238
1120	0.56	-4.95355191257	16.3203883495	-1.05263157895	-1.01619047619
1121	0.5605	-7.76885245902	-2.01844660194	1.83157894737	3.2380952381
1122	0.561	-2.13825136612	-0.607766990291	3.27368421053	-1.01619047619
1123	0.5615	-3.54590163934	0.802912621359	-1.05263157895	-8.10666666667
1124	0.562	-0.730601092896	-0.607766990291	-6.82105263158	-6.68857142857
1125	0.5625	-2.13825136612	0.802912621359	-8.26315789474	1.82
1126	0.563	-0.730601092896	2.21359223301	1.83157894737	0.401904761905
1127	0.5635	-3.54590163934	-0.607766990291	1.83157894737	1.82
1128	0.564	-11.9918032787	-0.607766990291	3.27368421053	1.82
1129	0.5645	-3.54590163934	-3.42912621359	0.389473684211	-1.01619047619
1130	0.565	2.08469945355	2.21359223301	1.83157894737	-6.68857142857
1131	0.5655	-0.730601092896	-2.01844660194	-8.26315789474	-1.01619047619
1132	0.566	-0.730601092896	-0.607766990291	-8.26315789474	-1.01619047619
1133	0.5665	-4.95355191257	19.1417475728	0.389473684211	-1.01619047619
1134	0.567	-13.3994535519	-2.01844660194	-1.05263157895	3.2380952381
1135	0.5675	-7.76885245902	-2.01844660194	-2.49473684211	1.82
1136	0.568	-0.730601092896	2.21359223301	16.2526315789	-3.85238095238
1137	0.5685	0.677049180328	0.802912621359	-1.05263157895	0.401904761905
1138	0.569	0.677049180328	13.4990291262	-1.05263157895	0.401904761905
1139	0.5695	-6.36120218579	2.21359223301	0.389473684211	-1.01619047619
1140	0.57	-2.13825136612	-2.01844660194	-1.05263157895	-1.01619047619
1141	0.5705	-10.5841530055	-0.607766990291	1.83157894737	16.000952381
1142	0.571	-3.54590163934	-0.607766990291	-1.05263157895	14.5828571429
1143	0.5715	-3.54590163934	3.62427184466	0.389473684211	-1.01619047619
1144	0.572	-0.730601092896	17.7310679612	-1.05263157895	0.401904761905
1145	0.5725	-3.54590163934	-2.01844660194	-1.05263157895	0.401904761905
1146	0.573	-10.5841530055	3.62427184466	3.27368421053	0.401904761905
1147	0.5735	-2.13825136612	0.802912621359	1.83157894737	-5.27047619048
1148	0.574	-4.95355191257	0.802912621359	3.27368421053	0.401904761905
1149	0.5745	-4.95355191257	-2.01844660194	-3.93684210526	-1.01619047619
1150	0.575	-3.54590163934	10.6776699029	0.389473684211	1.82
1151	0.5755	-6.36120218579	-10.4825242718	0.389473684211	-1.01619047619
1152	0.576	-16.2147540984	0.802912621359	-2.49473684211	1.82
1153	0.5765	-0.730601092896	0.802912621359	0.389473684211	-6.68857142857
1154	0.577	-0.730601092896	-0.607766990291	9.04210526316	-1.01619047619
1155	0.5775	0.677049180328	0.802912621359	-2.49473684211	1.82
1156	0.578	-0.730601092896	-3.42912621359	3.27368421053	-2.43428571429
1157	0.5785	-4.95355191257	-0.607766990291	0.389473684211	0.401904761905
1158	0.579	-11.9918032787	0.802912621359	-1.05263157895	0.401904761905
1159	0.5795	-13.3994535519	0.802912621359	3.27368421053	0.401904761905
1160	0.58	-4.95355191257	0.802912621359	4.71578947368	-6.68857142857
1161	0.5805	-0.730601092896	-2.01844660194	-2.49473684211	-1.01619047619
1162	0.581	-2.13825136612	-2.01844660194	-2.49473684211	-1.01619047619
1163	0.5815	-0.730601092896	0.802912621359	0.389473684211	1.82
1164	0.582	2.08469945355	-2.01844660194	0.389473684211	-1.01619047619
1165	0.5825	-9.17650273224	2.21359223301	1.83157894737	1.82
1166	0.583	-3.54590163934	-0.607766990291	-9.70526315789	-3.85238095238
1167	0.5835	-0.730601092896	-0.607766990291	-8.26315789474	-2.43428571429
1168	0.584	-0.730601092896	16.3203883495	-1.05263157895	0.401904761905
1169	0.5845	-4.95355191257	-6.25048543689	-1.05263157895	-2.43428571429
1170	0.585	-11.9918032787	-3.42912621359	0.389473684211	-1.01619047619
1171	0.5855	-3.54590163934	0.802912621359	-1.05263157895	-5.27047619048
1172	0.586	-0.730601092896	-0.607766990291	0.389473684211	6.07428571429
1173	0.5865	-0.730601092896	2.21359223301	0.389473684211	-2.43428571429
1174	0.587	0.677049180328	2.21359223301	3.27368421053	-1.01619047619
1175	0.5875	0.677049180328	-9.07184466019	-1.05263157895	0.401904761905
1176	0.588	2.08469945355	-4.83980582524	1.83157894737	-1.01619047619
1177	0.5885	-4.95355191257	-0.607766990291	1.83157894737	3.2380952381
1178	0.589	2.08469945355	-0.607766990291	3.27368421053	0.401904761905
1179	0.5895	0.677049180328	-2.01844660194	-6.82105263158	-1.01619047619
1180	0.59	-0.730601092896	2.21359223301	-8.26315789474	-1.01619047619
1181	0.5905	-3.54590163934	-3.42912621359	1.83157894737	-1.01619047619
1182	0.591	-10.5841530055	0.802912621359	1.83157894737	-1.01619047619
1183	0.5915	4.9	-2.01844660194	0.389473684211	-3.85238095238
1184	0.592	3.49234972678	-0.607766990291	-2.49473684211	-8.10666666667
1185	0.5925	0.677049180328	-2.01844660194	-9.70526315789	0.401904761905
1186	0.593	-0.730601092896	-10.4825242718	1.83157894737	-1.01619047619
1187	0.5935	3.49234972678	17.7310679612	0.389473684211	-2.43428571429
1188	0.594	2.08469945355	-2.01844660194	3.27368421053	-1.01619047619
1189	0.5945	0.677049180328	0.802912621359	0.389473684211	-2.43428571429
1190	0.595	-0.730601092896	-0.607766990291	-2.49473684211	-6.68857142857
1191	0.5955	-2.13825136612	2.21359223301	-1.05263157895	-8.10666666667
1192	0.596	-3.54590163934	-4.83980582524	1.83157894737	1.82
1193	0.5965	-2.13825136612	-9.07184466019	0.389473684211	-2.43428571429
1194	0.597	-0.730601092896	0.802912621359	0.389473684211	-2.43428571429
1195	0.5975	7.71530054645	0.802912621359	3.27368421053	-1.01619047619
1196	0.598	-3.54590163934	-0.607766990291	0.389473684211	14.5828571429
1197	0.5985	-6.36120218579	0.802912621359	-8.26315789474	-1.01619047619
1198	0.599	-6.36120218579	0.802912621359	-3.93684210526	-1.01619047619
1199	0.5995	-7.76885245902	9.26699029126	1.83157894737	-2.43428571429
1200	0.6	-11.9918032787	-0.607766990291	-1.05263157895	-3.85238095238
1201	0.6005	11.9382513661	-0.607766990291	1.83157894737	-1.01619047619
1202	0.601	0.677049180328	-0.607766990291	1.83157894737	-10.9428571429
1203	0.6015	3.49234972678	-0.607766990291	13.3684210526	0.401904761905
1204	0.602	4.9	-6.25048543689	0.389473684211	-2.43428571429
1205	0.6025	3.49234972678	-3.42912621359	3.27368421053	-2.43428571429
1206	0.603	-0.730601092896	-2.01844660194	1.83157894737	0.401904761905
1207	0.6035	-10.5841530055	-0.607766990291	-1.05263157895	0.401904761905
1208	0.604	-0.730601092896	0.802912621359	-12.5894736842	-2.43428571429
1209	0.6045	-2.13825136612	-0.607766990291	-6.82105263158	-10.9428571429
1210	0.605	-3.54590163934	0.802912621359	-1.05263157895	-1.01619047619
1211	0.6055	-0.730601092896	-2.01844660194	-1.05263157895	0.401904761905
1212	0.606	3.49234972678	2.21359223301	1.83157894737	-1.01619047619
1213	0.6065	20.3841530055	-3.42912621359	0.389473684211	-1.01619047619
1214	0.607	-2.13825136612	0.802912621359	0.389473684211	-3.85238095238
1215	0.6075	-2.13825136612	2.21359223301	-3.93684210526	1.82
1216	0.608	-2.13825136612	0.802912621359	-1.05263157895	0.401904761905
1217	0.6085	-4.95355191257	-3.42912621359	1.83157894737	1.82
1218	0.609	-6.36120218579	-7.66116504854	3.27368421053	-1.01619047619
1219	0.6095	18.9765027322	0.802912621359	4.71578947368	-9.52476190476
1220	0.61	-2.13825136612	-0.607766990291	0.389473684211	-2.43428571429
1221	0.6105	-0.730601092896	-2.01844660194	4.71578947368	1.82
1222	0.611	0.677049180328	0.802912621359	-2.49473684211	0.401904761905
1223	0.6115	-2.13825136612	10.6776699029	3.27368421053	-1.01619047619
1224	0.612	-0.730601092896	-2.01844660194	1.83157894737	1.82
1225	0.6125	-10.5841530055	-2.01844660194	0.389473684211	1.82
1226	0.613	-2.13825136612	-0.607766990291	1.83157894737	-10.9428571429
1227	0.6135	-2.13825136612	-0.607766990291	20.5789473684	0.401904761905
1228	0.614	0.677049180328	-3.42912621359	-1.05263157895	1.82
1229	0.6145	-2.13825136612	-4.83980582524	-1.05263157895	0.401904761905
1230	0.615	0.677049180328	0.802912621359	-1.05263157895	1.82
1231	0.6155	11.9382513661	-0.607766990291	3.27368421053	-5.27047619048
1232	0.616	-7.76885245902	2.21359223301	0.389473684211	-2.43428571429
1233	0.6165	-4.95355191257	0.802912621359	9.04210526316	-2.43428571429
1234	0.617	-3.54590163934	-2.01844660194	16.2526315789	-1.01619047619
1235	0.6175	-3.54590163934	-10.4825242718	1.83157894737	-3.85238095238
1236	0.618	0.677049180328	-13.3038834951	0.389473684211	0.401904761905
1237	0.6185	18.9765027322	-2.01844660194	1.83157894737	-8.10666666667
1238	0.619	-2.13825136612	-4.83980582524	1.83157894737	7.49238095238
1239	0.6195	-2.13825136612	-3.42912621359	-1.05263157895	20.2552380952
1240	0.62	2.08469945355	-2.01844660194	-9.70526315789	1.82
1241	0.6205	0.677049180328	19.1417475728	0.389473684211	0.401904761905
1242	0.621	0.677049180328	-4.83980582524	-1.05263157895	-1.01619047619
1243	0.6215	-4.95355191257	-0.607766990291	0.389473684211	-1.01619047619
1244	0.622	3.49234972678	-2.01844660194	3.27368421053	-9.52476190476
1245	0.6225	-2.13825136612	-2.01844660194	-1.05263157895	14.5828571429
1246	0.623	-3.54590163934	2.21359223301	0.389473684211	-1.01619047619
1247	0.6235	0.677049180328	2.21359223301	-1.05263157895	-1.01619047619
1248	0.624	-0.730601092896	-9.07184466019	-1.05263157895	-1.01619047619
1249	0.6245	0.677049180328	-0.607766990291	0.389473684211	-1.01619047619
1250	0.625	16.1612021858	-0.607766990291	0.389473684211	-3.85238095238
1251	0.6255	-0.730601092896	0.802912621359	-5.37894736842	-3.85238095238
1252	0.626	-4.95355191257	-0.607766990291	9.04210526316	-2.43428571429
1253	0.6265	-2.13825136612	2.21359223301	1.83157894737	-3.85238095238
1254	0.627	-6.36120218579	-9.07184466019	1.83157894737	-5.27047619048
1255	0.6275	0.677049180328	-2.01844660194	1.83157894737	-6.68857142857
1256	0.628	-2.13825136612	-2.01844660194	3.27368421053	-3.85238095238
1257	0.6285	-13.3994535519	-0.607766990291	3.27368421053	-1.01619047619
1258	0.629	-4.95355191257	-2.01844660194	-6.82105263158	-2.43428571429
1259	0.6295	-4.95355191257	3.62427184466	-1.05263157895	-2.43428571429
1260	0.63	-4.95355191257	2.21359223301	0.389473684211	-2.43428571429
1261	0.6305	-16.2147540984	-2.01844660194	0.389473684211	-1.01619047619
1262	0.631	2.08469945355	-0.607766990291	0.389473684211	-2.43428571429
1263	0.6315	-4.95355191257	-2.01844660194	0.389473684211	-12.360952381
1264	0.632	-3.54590163934	0.802912621359	-11.1473684211	-3.85238095238
1265	0.6325	-2.13825136612	3.62427184466	-1.05263157895	-2.43428571429
1266	0.633	0.677049180328	0.802912621359	0.389473684211	-3.85238095238
1267	0.6335	-3.54590163934	-0.607766990291	0.389473684211	-5.27047619048
1268	0.634	16.1612021858	-2.01844660194	1.83157894737	-8.10666666667
1269	0.6345	-0.730601092896	-0.607766990291	1.83157894737	-13.779047619
1270	0.635	0.677049180328	-2.01844660194	-8.26315789474	-9.52476190476
1271	0.6355	3.49234972678	0.802912621359	1.83157894737	-5.27047619048
1272	0.636	2.08469945355	-2.01844660194	0.389473684211	-6.68857142857
1273	0.6365	3.49234972678	-10.4825242718	0.389473684211	-9.52476190476
1274	0.637	17.568852459	-3.42912621359	0.389473684211	-15.1971428571
1275	0.6375	3.49234972678	-2.01844660194	0.389473684211	-12.360952381
1276	0.638	2.08469945355	-0.607766990291	3.27368421053	-8.10666666667
1277	0.6385	2.08469945355	-0.607766990291	0.389473684211	-6.68857142857
1278	0.639	7.71530054645	-0.607766990291	1.83157894737	-8.10666666667
1279	0.6395	3.49234972678	-2.01844660194	-1.05263157895	-3.85238095238
1280	0.64	-2.13825136612	-2.01844660194	0.389473684211	-1.01619047619
1281	0.6405	-4.95355191257	-3.42912621359	-2.49473684211	13.1647619048
1282	0.641	3.49234972678	-2.01844660194	16.2526315789	-3.85238095238
1283	0.6415	4.9	0.802912621359	-1.05263157895	-2.43428571429
1284	0.642	3.49234972678	-11.8932038835	-6.82105263158	-3.85238095238
1285	0.6425	13.3459016393	-4.83980582524	1.83157894737	-5.27047619048
1286	0.643	11.9382513661	-2.01844660194	0.389473684211	-1.01619047619
1287	0.6435	-3.54590163934	-0.607766990291	-2.49473684211	14.5828571429
1288	0.644	3.49234972678	-3.42912621359	-1.05263157895	16.000952381
1289	0.6445	2.08469945355	0.802912621359	-2.49473684211	-3.85238095238
1290	0.645	-0.730601092896	0.802912621359	-1.05263157895	-2.43428571429
1291	0.6455	-2.13825136612	-6.25048543689	0.389473684211	-2.43428571429
1292	0.646	-10.5841530055	-7.66116504854	-2.49473684211	-2.43428571429
1293	0.6465	-0.730601092896	-4.83980582524	-1.05263157895	-3.85238095238
1294	0.647	-0.730601092896	-2.01844660194	-1.05263157895	-5.27047619048
1295	0.6475	-3.54590163934	-4.83980582524	-1.05263157895	-5.27047619048
1296	0.648	-0.730601092896	-6.25048543689	-1.05263157895	-6.68857142857
1297	0.6485	4.9	-4.83980582524	-1.05263157895	-3.85238095238
1298	0.649	6.30765027322	-0.607766990291	-1.05263157895	-3.85238095238
1299	0.6495	-4.95355191257	-2.01844660194	0.389473684211	-1.01619047619
1300	0.65	-0.730601092896	-0.607766990291	1.83157894737	-12.360952381
1301	0.6505	3.49234972678	-2.01844660194	16.2526315789	-3.85238095238
1302	0.651	4.9	-14.7145631068	-2.49473684211	-2.43428571429
1303	0.6515	7.71530054645	-3.42912621359	-1.05263157895	-2.43428571429
1304	0.652	20.3841530055	-2.01844660194	0.389473684211	-10.9428571429
1305	0.6525	0.677049180328	-3.42912621359	1.83157894737	-3.85238095238
1306	0.653	7.71530054645	-2.01844660194	-1.05263157895	7.49238095238
1307	0.6535	2.08469945355	-2.01844660194	14.8105263158	-6.68857142857
1308	0.654	0.677049180328	-10.4825242718	1.83157894737	-3.85238095238
1309	0.6545	2.08469945355	-11.8932038835	-1.05263157895	-3.85238095238
1310	0.655	18.9765027322	-0.607766990291	-1.05263157895	-5.27047619048
1311	0.6555	2.08469945355	-2.01844660194	-2.49473684211	-3.85238095238
1312	0.656	4.9	-2.01844660194	3.27368421053	-3.85238095238
1313	0.6565	3.49234972678	-2.01844660194	-8.26315789474	-3.85238095238
1314	0.657	2.08469945355	-0.607766990291	-9.70526315789	-2.43428571429
1315	0.6575	-2.13825136612	-3.42912621359	3.27368421053	-3.85238095238
1316	0.658	-11.9918032787	-0.607766990291	0.389473684211	1.82
1317	0.6585	-4.95355191257	0.802912621359	0.389473684211	3.2380952381
1318	0.659	-0.730601092896	-2.01844660194	1.83157894737	-6.68857142857
1319	0.6595	0.677049180328	-2.01844660194	3.27368421053	-3.85238095238
1320	0.66	-4.95355191257	-4.83980582524	-2.49473684211	-1.01619047619
1321	0.6605	-7.76885245902	-0.607766990291	1.83157894737	0.401904761905
1322	0.661	-16.2147540984	-3.42912621359	1.83157894737	-1.01619047619
1323	0.6615	-11.9918032787	-0.607766990291	0.389473684211	13.1647619048
1324	0.662	-6.36120218579	-2.01844660194	-3.93684210526	6.07428571429
1325	0.6625	-4.95355191257	0.802912621359	-1.05263157895	-1.01619047619
1326	0.663	-4.95355191257	-0.607766990291	0.389473684211	3.2380952381
1327	0.6635	-4.95355191257	-7.66116504854	-1.05263157895	-1.01619047619
1328	0.664	-3.54590163934	-7.66116504854	1.83157894737	-1.01619047619
1329	0.6645	-4.95355191257	0.802912621359	-1.05263157895	0.401904761905
1330	0.665	-2.13825136612	-0.607766990291	-5.37894736842	8.91047619048
1331	0.6655	-0.730601092896	3.62427184466	14.8105263158	-1.01619047619
1332	0.666	2.08469945355	-3.42912621359	-1.05263157895	-1.01619047619
1333	0.6665	0.677049180328	-10.4825242718	0.389473684211	0.401904761905
1334	0.667	4.9	0.802912621359	-1.05263157895	-2.43428571429
1335	0.6675	9.12295081967	2.21359223301	0.389473684211	0.401904761905
1336	0.668	-0.730601092896	0.802912621359	-3.93684210526	7.49238095238
1337	0.6685	-0.730601092896	0.802912621359	11.9263157895	-1.01619047619
1338	0.669	-3.54590163934	-0.607766990291	0.389473684211	0.401904761905
1339	0.6695	-3.54590163934	-7.66116504854	0.389473684211	1.82
1340	0.67	-14.8071038251	0.802912621359	0.389473684211	3.2380952381
1341	0.6705	17.568852459	0.802912621359	1.83157894737	-9.52476190476
1342	0.671	-3.54590163934	2.21359223301	11.9263157895	0.401904761905
1343	0.6715	-6.36120218579	0.802912621359	7.6	1.82
1344	0.672	-4.95355191257	-6.25048543689	1.83157894737	-1.01619047619
1345	0.6725	-3.54590163934	5.03495145631	1.83157894737	1.82
1346	0.673	-14.8071038251	0.802912621359	3.27368421053	1.82
1347	0.6735	-10.5841530055	2.21359223301	4.71578947368	16.000952381
1348	0.674	-0.730601092896	2.21359223301	3.27368421053	14.5828571429
1349	0.6745	-3.54590163934	-3.42912621359	13.3684210526	0.401904761905
1350	0.675	-2.13825136612	-9.07184466019	0.389473684211	1.82
1351	0.6755	-2.13825136612	-4.83980582524	1.83157894737	0.401904761905
1352	0.676	-3.54590163934	0.802912621359	4.71578947368	0.401904761905
1353	0.6765	-4.95355191257	0.802912621359	1.83157894737	-9.52476190476
1354	0.677	-3.54590163934	2.21359223301	-1.05263157895	-5.27047619048
1355	0.6775	-4.95355191257	3.62427184466	-6.82105263158	1.82
1356	0.678	-4.95355191257	3.62427184466	-3.93684210526	1.82
1357	0.6785	-6.36120218579	9.26699029126	1.83157894737	3.2380952381
1358	0.679	-11.9918032787	-2.01844660194	0.389473684211	3.2380952381
1359	0.6795	3.49234972678	-0.607766990291	1.83157894737	-5.27047619048
1360	0.68	-2.13825136612	-0.607766990291	1.83157894737	-6.68857142857
1361	0.6805	-2.13825136612	0.802912621359	1.83157894737	1.82
1362	0.681	-0.730601092896	-4.83980582524	0.389473684211	1.82
1363	0.6815	3.49234972678	-0.607766990291	1.83157894737	-1.01619047619
1364	0.682	9.12295081967	2.21359223301	1.83157894737	1.82
1365	0.6825	-7.76885245902	3.62427184466	3.27368421053	4.65619047619
1366	0.683	-2.13825136612	2.21359223301	3.27368421053	-6.68857142857
1367	0.6835	-3.54590163934	0.802912621359	0.389473684211	1.82
1368	0.684	-2.13825136612	-0.607766990291	0.389473684211	0.401904761905
1369	0.6845	-2.13825136612	-0.607766990291	1.83157894737	0.401904761905
1370	0.685	11.9382513661	2.21359223301	1.83157894737	3.2380952381
1371	0.6855	-7.76885245902	2.21359223301	7.6	11.7466666667
1372	0.686	-6.36120218579	0.802912621359	4.71578947368	-5.27047619048
1373	0.6865	-4.95355191257	-4.83980582524	-3.93684210526	1.82
1374	0.687	-0.730601092896	0.802912621359	3.27368421053	1.82
1375	0.6875	-4.95355191257	-0.607766990291	1.83157894737	3.2380952381
1376	0.688	-4.95355191257	-0.607766990291	-1.05263157895	6.07428571429
1377	0.6885	-11.9918032787	0.802912621359	3.27368421053	18.8371428571
1378	0.689	-6.36120218579	-0.607766990291	1.83157894737	18.8371428571
1379	0.6895	-3.54590163934	-0.607766990291	1.83157894737	0.401904761905
1380	0.69	-0.730601092896	16.3203883495	-1.05263157895	1.82
1381	0.6905	-4.95355191257	-9.07184466019	0.389473684211	1.82
1382	0.691	18.9765027322	-3.42912621359	0.389473684211	0.401904761905
1383	0.6915	3.49234972678	-2.01844660194	4.71578947368	-6.68857142857
1384	0.692	3.49234972678	-2.01844660194	4.71578947368	0.401904761905
1385	0.6925	2.08469945355	-10.4825242718	3.27368421053	1.82
1386	0.693	4.9	-0.607766990291	-1.05263157895	0.401904761905
1387	0.6935	7.71530054645	-0.607766990291	1.83157894737	1.82
1388	0.694	3.49234972678	-2.01844660194	3.27368421053	1.82
1389	0.6945	4.9	-2.01844660194	4.71578947368	-10.9428571429
1390	0.695	3.49234972678	-0.607766990291	17.6947368421	-1.01619047619
1391	0.6955	7.71530054645	0.802912621359	13.3684210526	1.82
1392	0.696	4.9	0.802912621359	0.389473684211	0.401904761905
1393	0.6965	9.12295081967	-0.607766990291	1.83157894737	-1.01619047619
1394	0.697	9.12295081967	0.802912621359	-1.05263157895	3.2380952381
1395	0.6975	4.9	-2.01844660194	1.83157894737	16.000952381
1396	0.698	3.49234972678	-3.42912621359	11.9263157895	-1.01619047619
1397	0.6985	3.49234972678	-4.83980582524	0.389473684211	0.401904761905
1398	0.699	3.49234972678	-3.42912621359	0.389473684211	-1.01619047619
1399	0.6995	-4.95355191257	-0.607766990291	-1.05263157895	0.401904761905
1400	0.7	-4.95355191257	0.802912621359	-1.05263157895	1.82
1401	0.7005	-7.76885245902	0.802912621359	0.389473684211	3.2380952381
1402	0.701	2.08469945355	2.21359223301	19.1368421053	-1.01619047619
1403	0.7015	2.08469945355	5.03495145631	-2.49473684211	0.401904761905
1404	0.702	-0.730601092896	3.62427184466	3.27368421053	-1.01619047619
1405	0.7025	-6.36120218579	-0.607766990291	3.27368421053	0.401904761905
1406	0.703	11.9382513661	-2.01844660194	0.389473684211	-1.01619047619
1407	0.7035	-6.36120218579	0.802912621359	-2.49473684211	-3.85238095238
1408	0.704	-2.13825136612	0.802912621359	-6.82105263158	3.2380952381
1409	0.7045	2.08469945355	-4.83980582524	4.71578947368	1.82
1410	0.705	0.677049180328	16.3203883495	-1.05263157895	1.82
1411	0.7055	-3.54590163934	0.802912621359	-2.49473684211	0.401904761905
1412	0.706	-17.6224043716	-0.607766990291	0.389473684211	3.2380952381
1413	0.7065	-2.13825136612	0.802912621359	4.71578947368	-1.01619047619
1414	0.707	-3.54590163934	2.21359223301	0.389473684211	3.2380952381
1415	0.7075	-4.95355191257	0.802912621359	6.15789473684	0.401904761905
1416	0.708	-2.13825136612	-0.607766990291	0.389473684211	0.401904761905
1417	0.7085	-0.730601092896	-9.07184466019	1.83157894737	-1.01619047619
1418	0.709	14.7535519126	0.802912621359	3.27368421053	-6.68857142857
1419	0.7095	-0.730601092896	-2.01844660194	0.389473684211	-10.9428571429
1420	0.71	-3.54590163934	0.802912621359	3.27368421053	0.401904761905
1421	0.7105	-3.54590163934	-2.01844660194	-2.49473684211	0.401904761905
1422	0.711	-2.13825136612	-4.83980582524	0.389473684211	-1.01619047619
1423	0.7115	-2.13825136612	-3.42912621359	1.83157894737	0.401904761905
1424	0.712	-0.730601092896	-2.01844660194	1.83157894737	-3.85238095238
1425	0.7125	-4.95355191257	-3.42912621359	1.83157894737	16.000952381
1426	0.713	-0.730601092896	0.802912621359	-6.82105263158	-1.01619047619
1427	0.7135	0.677049180328	0.802912621359	-6.82105263158	-1.01619047619
1428	0.714	3.49234972678	12.0883495146	0.389473684211	-1.01619047619
1429	0.7145	0.677049180328	3.62427184466	0.389473684211	-1.01619047619
1430	0.715	10.5306010929	0.802912621359	1.83157894737	0.401904761905
1431	0.7155	3.49234972678	0.802912621359	-1.05263157895	-8.10666666667
1432	0.716	2.08469945355	0.802912621359	-12.5894736842	-1.01619047619
1433	0.7165	-2.13825136612	-3.42912621359	-5.37894736842	-1.01619047619
1434	0.717	-2.13825136612	16.3203883495	3.27368421053	0.401904761905
1435	0.7175	-2.13825136612	-2.01844660194	3.27368421053	-2.43428571429
1436	0.718	2.08469945355	0.802912621359	0.389473684211	0.401904761905
1437	0.7185	-3.54590163934	0.802912621359	3.27368421053	1.82
1438	0.719	-3.54590163934	0.802912621359	9.04210526316	1.82
1439	0.7195	-2.13825136612	-2.01844660194	19.1368421053	0.401904761905
1440	0.72	0.677049180328	-9.07184466019	0.389473684211	0.401904761905
1441	0.7205	3.49234972678	0.802912621359	1.83157894737	3.2380952381
1442	0.721	16.1612021858	0.802912621359	1.83157894737	-8.10666666667
1443	0.7215	-2.13825136612	0.802912621359	0.389473684211	-6.68857142857
1444	0.722	0.677049180328	0.802912621359	0.389473684211	-1.01619047619
1445	0.7225	0.677049180328	-0.607766990291	1.83157894737	-1.01619047619
1446	0.723	0.677049180328	9.26699029126	1.83157894737	1.82
1447	0.7235	2.08469945355	-6.25048543689	0.389473684211	0.401904761905
1448	0.724	13.3459016393	2.21359223301	0.389473684211	-2.43428571429
1449	0.7245	3.49234972678	-0.607766990291	0.389473684211	-9.52476190476
1450	0.725	0.677049180328	-0.607766990291	6.15789473684	-6.68857142857
1451	0.7255	3.49234972678	-2.01844660194	-1.05263157895	1.82
1452	0.726	4.9	-3.42912621359	-6.82105263158	0.401904761905
1453	0.7265	2.08469945355	-2.01844660194	0.389473684211	0.401904761905
1454	0.727	0.677049180328	0.802912621359	0.389473684211	3.2380952381
1455	0.7275	-6.36120218579	-2.01844660194	1.83157894737	18.8371428571
1456	0.728	-3.54590163934	-2.01844660194	4.71578947368	0.401904761905
1457	0.7285	-4.95355191257	-4.83980582524	14.8105263158	-1.01619047619
1458	0.729	-2.13825136612	-10.4825242718	4.71578947368	1.82
1459	0.7295	-2.13825136612	-2.01844660194	1.83157894737	0.401904761905
1460	0.73	-7.76885245902	-2.01844660194	3.27368421053	0.401904761905
1461	0.7305	-14.8071038251	-0.607766990291	0.389473684211	17.419047619
1462	0.731	-4.95355191257	-2.01844660194	-2.49473684211	14.5828571429
1463	0.7315	-6.36120218579	2.21359223301	0.389473684211	1.82
1464	0.732	-4.95355191257	-10.4825242718	-1.05263157895	0.401904761905
1465	0.7325	-6.36120218579	-3.42912621359	1.83157894737	-1.01619047619
1466	0.733	11.9382513661	-0.607766990291	1.83157894737	-9.52476190476
1467	0.7335	-6.36120218579	-2.01844660194	4.71578947368	1.82
1468	0.734	-9.17650273224	0.802912621359	3.27368421053	4.65619047619
1469	0.7345	-10.5841530055	-0.607766990291	-3.93684210526	-1.01619047619
1470	0.735	-9.17650273224	-3.42912621359	-1.05263157895	0.401904761905
1471	0.7355	-7.76885245902	0.802912621359	1.83157894737	-1.01619047619
1472	0.736	-11.9918032787	-3.42912621359	1.83157894737	1.82
1473	0.7365	-19.0300546448	-0.607766990291	0.389473684211	0.401904761905
1474	0.737	-11.9918032787	-0.607766990291	-9.70526315789	1.82
1475	0.7375	-6.36120218579	0.802912621359	-11.1473684211	0.401904761905
1476	0.738	-7.76885245902	19.1417475728	3.27368421053	-1.01619047619
1477	0.7385	-7.76885245902	-2.01844660194	1.83157894737	0.401904761905
1478	0.739	-17.6224043716	-0.607766990291	-1.05263157895	1.82
1479	0.7395	-13.3994535519	0.802912621359	1.83157894737	-2.43428571429
1480	0.74	-3.54590163934	0.802912621359	-11.1473684211	-5.27047619048
1481	0.7405	-4.95355191257	-0.607766990291	-11.1473684211	-3.85238095238
1482	0.741	-4.95355191257	17.7310679612	1.83157894737	-1.01619047619
1483	0.7415	-6.36120218579	-2.01844660194	3.27368421053	1.82
1484	0.742	-19.0300546448	-2.01844660194	0.389473684211	0.401904761905
1485	0.7425	-11.9918032787	0.802912621359	0.389473684211	-3.85238095238
1486	0.743	-7.76885245902	0.802912621359	-3.93684210526	6.07428571429
1487	0.7435	-6.36120218579	3.62427184466	6.15789473684	-1.01619047619
1488	0.744	-6.36120218579	-4.83980582524	1.83157894737	-1.01619047619
1489	0.7445	-4.95355191257	-6.25048543689	1.83157894737	-1.01619047619
1490	0.745	-0.730601092896	-4.83980582524	1.83157894737	-1.01619047619
1491	0.7455	2.08469945355	-0.607766990291	0.389473684211	-1.01619047619
1492	0.746	-7.76885245902	0.802912621359	-1.05263157895	1.82
1493	0.7465	-7.76885245902	-0.607766990291	-5.37894736842	3.2380952381
1494	0.747	-6.36120218579	0.802912621359	-8.26315789474	1.82
1495	0.7475	-4.95355191257	17.7310679612	1.83157894737	0.401904761905
1496	0.748	14.7535519126	-0.607766990291	-1.05263157895	1.82
1497	0.7485	-16.2147540984	0.802912621359	1.83157894737	1.82
1498	0.749	-10.5841530055	-0.607766990291	3.27368421053	8.91047619048
1499	0.7495	-9.17650273224	-0.607766990291	11.9263157895	1.82
1500	0.75	-9.17650273224	-9.07184466019	-1.05263157895	-1.01619047619
1501	0.7505	-6.36120218579	-0.607766990291	0.389473684211	0.401904761905
1502	0.751	-14.8071038251	0.802912621359	3.27368421053	4.65619047619
1503	0.7515	-19.0300546448	-0.607766990291	-1.05263157895	4.65619047619
1504	0.752	-10.5841530055	-3.42912621359	-5.37894736842	-3.85238095238
1505	0.7525	-9.17650273224	0.802912621359	3.27368421053	-6.68857142857
1506	0.753	-13.3994535519	-10.4825242718	0.389473684211	0.401904761905
1507	0.7535	-10.5841530055	-9.07184466019	3.27368421053	-1.01619047619
1508	0.754	-6.36120218579	-0.607766990291	1.83157894737	1.82
1509	0.7545	-9.17650273224	0.802912621359	1.83157894737	-1.01619047619
1510	0.755	-7.76885245902	-0.607766990291	4.71578947368	-12.360952381
1511	0.7555	-7.76885245902	-0.607766990291	20.5789473684	0.401904761905
1512	0.756	-4.95355191257	-2.01844660194	6.15789473684	0.401904761905
1513	0.7565	-3.54590163934	9.26699029126	0.389473684211	3.2380952381
1514	0.757	-4.95355191257	-0.607766990291	-1.05263157895	1.82
1515	0.7575	-19.0300546448	-0.607766990291	0.389473684211	0.401904761905
1516	0.758	-4.95355191257	-0.607766990291	1.83157894737	-3.85238095238
1517	0.7585	-6.36120218579	-0.607766990291	-6.82105263158	-5.27047619048
1518	0.759	-7.76885245902	-2.01844660194	0.389473684211	-3.85238095238
1519	0.7595	-9.17650273224	-11.8932038835	0.389473684211	0.401904761905
1520	0.76	-9.17650273224	-9.07184466019	0.389473684211	-1.01619047619
1521	0.7605	-19.0300546448	0.802912621359	1.83157894737	-1.01619047619
1522	0.761	-11.9918032787	-0.607766990291	-1.05263157895	-9.52476190476
1523	0.7615	-11.9918032787	-0.607766990291	-3.93684210526	0.401904761905
1524	0.762	-11.9918032787	-0.607766990291	7.6	-2.43428571429
1525	0.7625	-9.17650273224	-3.42912621359	0.389473684211	0.401904761905
1526	0.763	-6.36120218579	-9.07184466019	-1.05263157895	0.401904761905
1527	0.7635	-20.437704918	-0.607766990291	1.83157894737	-1.01619047619
1528	0.764	-4.95355191257	-0.607766990291	0.389473684211	-1.01619047619
1529	0.7645	-7.76885245902	-0.607766990291	-1.05263157895	14.5828571429
1530	0.765	-7.76885245902	0.802912621359	-2.49473684211	-2.43428571429
1531	0.7655	-4.95355191257	0.802912621359	16.2526315789	-1.01619047619
1532	0.766	-4.95355191257	-10.4825242718	-1.05263157895	-1.01619047619
1533	0.7665	0.677049180328	0.802912621359	1.83157894737	-1.01619047619
1534	0.767	-9.17650273224	-0.607766990291	1.83157894737	-2.43428571429
1535	0.7675	-4.95355191257	0.802912621359	3.27368421053	-12.360952381
1536	0.768	-3.54590163934	-0.607766990291	4.71578947368	-5.27047619048
1537	0.7685	-6.36120218579	-10.4825242718	0.389473684211	-2.43428571429
1538	0.769	-3.54590163934	-2.01844660194	1.83157894737	-1.01619047619
1539	0.7695	-6.36120218579	0.802912621359	0.389473684211	0.401904761905
1540	0.77	-13.3994535519	-0.607766990291	-1.05263157895	1.82
1541	0.7705	-16.2147540984	-0.607766990291	3.27368421053	-9.52476190476
1542	0.771	-10.5841530055	-0.607766990291	3.27368421053	-3.85238095238
1543	0.7715	-10.5841530055	-0.607766990291	7.6	-1.01619047619
1544	0.772	-6.36120218579	6.44563106796	0.389473684211	-1.01619047619
1545	0.7725	-3.54590163934	-4.83980582524	1.83157894737	-2.43428571429
1546	0.773	-9.17650273224	0.802912621359	0.389473684211	-1.01619047619
1547	0.7735	-2.13825136612	-2.01844660194	-2.49473684211	-10.9428571429
1548	0.774	2.08469945355	-2.01844660194	-2.49473684211	-3.85238095238
1549	0.7745	4.9	0.802912621359	-1.05263157895	0.401904761905
1550	0.775	2.08469945355	13.4990291262	0.389473684211	0.401904761905
1551	0.7755	-2.13825136612	10.6776699029	0.389473684211	-1.01619047619
1552	0.776	-10.5841530055	-0.607766990291	0.389473684211	-1.01619047619
1553	0.7765	-4.95355191257	-2.01844660194	-5.37894736842	-3.85238095238
1554	0.777	-6.36120218579	-3.42912621359	-2.49473684211	-6.68857142857
1555	0.7775	-7.76885245902	-0.607766990291	-6.82105263158	-2.43428571429
1556	0.778	-9.17650273224	-9.07184466019	-1.05263157895	0.401904761905
1557	0.7785	-9.17650273224	0.802912621359	0.389473684211	0.401904761905
1558	0.779	-17.6224043716	0.802912621359	0.389473684211	0.401904761905
1559	0.7795	-17.6224043716	-2.01844660194	-1.05263157895	11.7466666667
1560	0.78	-7.76885245902	0.802912621359	-6.82105263158	-2.43428571429
1561	0.7805	-7.76885245902	-0.607766990291	1.83157894737	-2.43428571429
1562	0.781	-4.95355191257	3.62427184466	-1.05263157895	-2.43428571429
1563	0.7815	-10.5841530055	-0.607766990291	1.83157894737	-1.01619047619
1564	0.782	-17.6224043716	-2.01844660194	-1.05263157895	0.401904761905
1565	0.7825	-9.17650273224	-0.607766990291	1.83157894737	-2.43428571429
1566	0.783	-9.17650273224	0.802912621359	3.27368421053	3.2380952381
1567	0.7835	-7.76885245902	-10.4825242718	0.389473684211	-1.01619047619
1568	0.784	-4.95355191257	2.21359223301	-1.05263157895	-1.01619047619
1569	0.7845	-0.730601092896	0.802912621359	1.83157894737	-1.01619047619
1570	0.785	0.677049180328	-2.01844660194	1.83157894737	0.401904761905
1571	0.7855	-0.730601092896	-0.607766990291	1.83157894737	17.419047619
1572	0.786	-6.36120218579	-2.01844660194	19.1368421053	-1.01619047619
1573	0.7865	-4.95355191257	-2.01844660194	19.1368421053	-2.43428571429
1574	0.787	-4.95355191257	-9.07184466019	1.83157894737	-1.01619047619
1575	0.7875	-4.95355191257	-2.01844660194	1.83157894737	-3.85238095238
1576	0.788	10.5306010929	-0.607766990291	-1.05263157895	-1.01619047619
1577	0.7885	-7.76885245902	-3.42912621359	1.83157894737	-3.85238095238
1578	0.789	-0.730601092896	-0.607766990291	-1.05263157895	-8.10666666667
1579	0.7895	-2.13825136612	-2.01844660194	0.389473684211	1.82
1580	0.79	-3.54590163934	-0.607766990291	1.83157894737	-1.01619047619
1581	0.7905	-0.730601092896	-2.01844660194	-1.05263157895	-1.01619047619
1582	0.791	14.7535519126	-0.607766990291	0.389473684211	-8.10666666667
1583	0.7915	-6.36120218579	0.802912621359	-1.05263157895	-5.27047619048
1584	0.792	-4.95355191257	-0.607766990291	-5.37894736842	-1.01619047619
1585	0.7925	-3.54590163934	-3.42912621359	0.389473684211	0.401904761905
1586	0.793	-3.54590163934	17.7310679612	3.27368421053	-1.01619047619
1587	0.7935	-7.76885245902	0.802912621359	0.389473684211	0.401904761905
1588	0.794	-16.2147540984	-2.01844660194	1.83157894737	0.401904761905
1589	0.7945	-4.95355191257	-0.607766990291	3.27368421053	-10.9428571429
1590	0.795	-4.95355191257	0.802912621359	14.8105263158	-2.43428571429
1591	0.7955	-7.76885245902	0.802912621359	-2.49473684211	-2.43428571429
1592	0.796	-4.95355191257	10.6776699029	1.83157894737	-2.43428571429
1593	0.7965	-7.76885245902	-6.25048543689	1.83157894737	-1.01619047619
1594	0.797	-16.2147540984	0.802912621359	0.389473684211	-5.27047619048
1595	0.7975	-7.76885245902	-0.607766990291	-2.49473684211	-12.360952381
1596	0.798	-7.76885245902	0.802912621359	-9.70526315789	-1.01619047619
1597	0.7985	-9.17650273224	-2.01844660194	-6.82105263158	0.401904761905
1598	0.799	-6.36120218579	2.21359223301	-5.37894736842	-1.01619047619
1599	0.7995	-10.5841530055	16.3203883495	1.83157894737	-1.01619047619
1600	0.8	-20.437704918	-2.01844660194	1.83157894737	1.82
1601	0.8005	-9.17650273224	2.21359223301	0.389473684211	3.2380952381
1602	0.801	-7.76885245902	-0.607766990291	1.83157894737	-1.01619047619
1603	0.8015	-10.5841530055	0.802912621359	-2.49473684211	-1.01619047619
1604	0.802	-6.36120218579	7.85631067961	-1.05263157895	0.401904761905
1605	0.8025	-4.95355191257	-6.25048543689	1.83157894737	-2.43428571429
1606	0.803	-4.95355191257	-0.607766990291	-1.05263157895	0.401904761905
1607	0.8035	0.677049180328	-2.01844660194	3.27368421053	16.000952381
1608	0.804	-2.13825136612	-2.01844660194	0.389473684211	18.8371428571
1609	0.8045	-4.95355191257	0.802912621359	-5.37894736842	-2.43428571429
1610	0.805	-6.36120218579	17.7310679612	-1.05263157895	-1.01619047619
1611	0.8055	-4.95355191257	-3.42912621359	3.27368421053	1.82
1612	0.806	-16.2147540984	-0.607766990291	1.83157894737	3.2380952381
1613	0.8065	-7.76885245902	-2.01844660194	1.83157894737	1.82
1614	0.807	-4.95355191257	-0.607766990291	13.3684210526	0.401904761905
1615	0.8075	-3.54590163934	-0.607766990291	11.9263157895	0.401904761905
1616	0.808	-6.36120218579	-10.4825242718	0.389473684211	-1.01619047619
1617	0.8085	-4.95355191257	-4.83980582524	1.83157894737	-1.01619047619
1618	0.809	-7.76885245902	-0.607766990291	1.83157894737	-2.43428571429
1619	0.8095	9.12295081967	-0.607766990291	1.83157894737	-1.01619047619
1620	0.81	-6.36120218579	-2.01844660194	-5.37894736842	-6.68857142857
1621	0.8105	-9.17650273224	-2.01844660194	-6.82105263158	1.82
1622	0.811	-9.17650273224	-11.8932038835	0.389473684211	-1.01619047619
1623	0.8115	-9.17650273224	16.3203883495	-1.05263157895	-1.01619047619
1624	0.812	-21.8453551913	-2.01844660194	0.389473684211	-1.01619047619
1625	0.8125	-10.5841530055	0.802912621359	0.389473684211	3.2380952381
1626	0.813	-3.54590163934	-3.42912621359	0.389473684211	-8.10666666667
1627	0.8135	-2.13825136612	-3.42912621359	-5.37894736842	-2.43428571429
1628	0.814	-2.13825136612	-13.3038834951	1.83157894737	-2.43428571429
1629	0.8145	2.08469945355	-0.607766990291	3.27368421053	-1.01619047619
1630	0.815	-0.730601092896	0.802912621359	1.83157894737	-1.01619047619
1631	0.8155	-10.5841530055	-2.01844660194	3.27368421053	-2.43428571429
1632	0.816	-0.730601092896	-3.42912621359	4.71578947368	-2.43428571429
1633	0.8165	-3.54590163934	-3.42912621359	0.389473684211	8.91047619048
1634	0.817	-0.730601092896	-6.25048543689	0.389473684211	-1.01619047619
1635	0.8175	-0.730601092896	-10.4825242718	3.27368421053	-1.01619047619
1636	0.818	-3.54590163934	-9.07184466019	1.83157894737	0.401904761905
1637	0.8185	20.3841530055	-2.01844660194	1.83157894737	-9.52476190476
1638	0.819	-0.730601092896	0.802912621359	1.83157894737	-8.10666666667
1639	0.8195	-0.730601092896	-0.607766990291	-6.82105263158	4.65619047619
1640	0.82	-0.730601092896	0.802912621359	7.6	-2.43428571429
1641	0.8205	-4.95355191257	-7.66116504854	1.83157894737	-2.43428571429
1642	0.821	-7.76885245902	-11.8932038835	0.389473684211	-1.01619047619
1643	0.8215	9.12295081967	-0.607766990291	1.83157894737	-2.43428571429
1644	0.822	-10.5841530055	-3.42912621359	-1.05263157895	3.2380952381
1645	0.8225	-4.95355191257	-3.42912621359	-1.05263157895	13.1647619048
1646	0.823	-4.95355191257	-2.01844660194	1.83157894737	-2.43428571429
1647	0.8235	-3.54590163934	-3.42912621359	-1.05263157895	-1.01619047619
1648	0.824	-0.730601092896	-9.07184466019	-1.05263157895	0.401904761905
1649	0.8245	-2.13825136612	-2.01844660194	0.389473684211	-3.85238095238
1650	0.825	17.568852459	-0.607766990291	1.83157894737	-2.43428571429
1651	0.8255	-4.95355191257	0.802912621359	-11.1473684211	-1.01619047619
1652	0.826	-4.95355191257	-2.01844660194	-6.82105263158	1.82
1653	0.8265	-4.95355191257	0.802912621359	-3.93684210526	-3.85238095238
1654	0.827	-6.36120218579	13.4990291262	1.83157894737	-5.27047619048
1655	0.8275	-17.6224043716	-3.42912621359	0.389473684211	0.401904761905
1656	0.828	-10.5841530055	0.802912621359	-1.05263157895	10.3285714286
1657	0.8285	-6.36120218579	-2.01844660194	0.389473684211	-1.01619047619
1658	0.829	-6.36120218579	-2.01844660194	-3.93684210526	0.401904761905
1659	0.8295	-3.54590163934	-4.83980582524	1.83157894737	-2.43428571429
1660	0.83	-4.95355191257	16.3203883495	3.27368421053	-3.85238095238
1661	0.8305	-16.2147540984	0.802912621359	0.389473684211	-1.01619047619
1662	0.831	-10.5841530055	-2.01844660194	0.389473684211	8.91047619048
1663	0.8315	-2.13825136612	-2.01844660194	-1.05263157895	3.2380952381
1664	0.832	-2.13825136612	0.802912621359	4.71578947368	-1.01619047619
1665	0.8325	-4.95355191257	0.802912621359	1.83157894737	-1.01619047619
1666	0.833	-0.730601092896	-6.25048543689	1.83157894737	-1.01619047619
1667	0.8335	-2.13825136612	-0.607766990291	0.389473684211	-2.43428571429
1668	0.834	18.9765027322	-2.01844660194	0.389473684211	-12.360952381
1669	0.8345	2.08469945355	-0.607766990291	-1.05263157895	-9.52476190476
1670	0.835	-3.54590163934	0.802912621359	-9.70526315789	-1.01619047619
1671	0.8355	-3.54590163934	0.802912621359	3.27368421053	-2.43428571429
1672	0.836	-3.54590163934	-3.42912621359	-1.05263157895	-2.43428571429
1673	0.8365	-11.9918032787	-9.07184466019	0.389473684211	-1.01619047619
1674	0.837	3.49234972678	-0.607766990291	0.389473684211	-1.01619047619
1675	0.8375	0.677049180328	-2.01844660194	-2.49473684211	-8.10666666667
1676	0.838	-0.730601092896	0.802912621359	-2.49473684211	-9.52476190476
1677	0.8385	-0.730601092896	2.21359223301	-1.05263157895	-1.01619047619
1678	0.839	-3.54590163934	-6.25048543689	4.71578947368	-2.43428571429
1679	0.8395	-6.36120218579	-0.607766990291	0.389473684211	-1.01619047619
1680	0.84	11.9382513661	-2.01844660194	1.83157894737	-2.43428571429
1681	0.8405	-3.54590163934	-2.01844660194	-3.93684210526	-1.01619047619
1682	0.841	0.677049180328	-0.607766990291	-6.82105263158	-2.43428571429
1683	0.8415	-2.13825136612	-3.42912621359	0.389473684211	-1.01619047619
1684	0.842	-3.54590163934	-2.01844660194	0.389473684211	0.401904761905
1685	0.8425	-11.9918032787	-0.607766990291	-1.05263157895	-1.01619047619
1686	0.843	-13.3994535519	-0.607766990291	3.27368421053	-10.9428571429
1687	0.8435	-3.54590163934	2.21359223301	-8.26315789474	-9.52476190476
1688	0.844	-3.54590163934	-0.607766990291	-6.82105263158	-3.85238095238
1689	0.8445	-3.54590163934	-13.3038834951	0.389473684211	0.401904761905
1690	0.845	-3.54590163934	16.3203883495	1.83157894737	-1.01619047619
1691	0.8455	-13.3994535519	-2.01844660194	1.83157894737	-1.01619047619
1692	0.846	-11.9918032787	-0.607766990291	3.27368421053	0.401904761905
1693	0.8465	-2.13825136612	0.802912621359	0.389473684211	14.5828571429
1694	0.847	-6.36120218579	-3.42912621359	0.389473684211	-1.01619047619
1695	0.8475	-3.54590163934	-6.25048543689	1.83157894737	-1.01619047619
1696	0.848	-4.95355191257	-10.4825242718	0.389473684211	-1.01619047619
1697	0.8485	14.7535519126	0.802912621359	1.83157894737	-5.27047619048
1698	0.849	-0.730601092896	0.802912621359	0.389473684211	16.000952381
1699	0.8495	-3.54590163934	0.802912621359	-8.26315789474	-1.01619047619
1700	0.85	-3.54590163934	-0.607766990291	-11.1473684211	-2.43428571429
1701	0.8505	-6.36120218579	17.7310679612	-1.05263157895	-1.01619047619
1702	0.851	-6.36120218579	-0.607766990291	0.389473684211	-1.01619047619
1703	0.8515	-14.8071038251	-0.607766990291	-1.05263157895	0.401904761905
1704	0.852	-7.76885245902	-0.607766990291	0.389473684211	-6.68857142857
1705	0.8525	-2.13825136612	-0.607766990291	11.9263157895	-1.01619047619
1706	0.853	-6.36120218579	-0.607766990291	-2.49473684211	-3.85238095238
1707	0.8535	-6.36120218579	-0.607766990291	-3.93684210526	-2.43428571429
1708	0.854	-4.95355191257	0.802912621359	1.83157894737	-2.43428571429
1709	0.8545	-2.13825136612	-0.607766990291	-1.05263157895	0.401904761905
1710	0.855	-10.5841530055	-2.01844660194	3.27368421053	0.401904761905
1711	0.8555	-4.95355191257	-0.607766990291	3.27368421053	16.000952381
1712	0.856	-6.36120218579	-0.607766990291	19.1368421053	-2.43428571429
1713	0.8565	-2.13825136612	-10.4825242718	0.389473684211	-1.01619047619
1714	0.857	-2.13825136612	-10.4825242718	1.83157894737	-1.01619047619
1715	0.8575	-3.54590163934	0.802912621359	-1.05263157895	-3.85238095238
1716	0.858	16.1612021858	-0.607766990291	0.389473684211	-3.85238095238
1717	0.8585	-2.13825136612	-0.607766990291	-1.05263157895	16.000952381
1718	0.859	-3.54590163934	0.802912621359	19.1368421053	-3.85238095238
1719	0.8595	-2.13825136612	-11.8932038835	-1.05263157895	-1.01619047619
1720	0.86	0.677049180328	-10.4825242718	4.71578947368	-3.85238095238
1721	0.8605	0.677049180328	0.802912621359	3.27368421053	-3.85238095238
1722	0.861	-3.54590163934	-2.01844660194	0.389473684211	-1.01619047619
1723	0.8615	-3.54590163934	-0.607766990291	1.83157894737	4.65619047619
1724	0.862	-3.54590163934	-0.607766990291	9.04210526316	-5.27047619048
1725	0.8625	-3.54590163934	-10.4825242718	-1.05263157895	-1.01619047619
1726	0.863	-2.13825136612	-0.607766990291	1.83157894737	-2.43428571429
1727	0.8635	-2.13825136612	0.802912621359	0.389473684211	-3.85238095238
1728	0.864	-6.36120218579	-0.607766990291	0.389473684211	-6.68857142857
1729	0.8645	2.08469945355	0.802912621359	-1.05263157895	-8.10666666667
1730	0.865	-0.730601092896	-2.01844660194	1.83157894737	-8.10666666667
1731	0.8655	-0.730601092896	-10.4825242718	4.71578947368	0.401904761905
1732	0.866	-0.730601092896	16.3203883495	3.27368421053	-1.01619047619
1733	0.8665	3.49234972678	-2.01844660194	3.27368421053	-1.01619047619
1734	0.867	3.49234972678	-0.607766990291	0.389473684211	-1.01619047619
1735	0.8675	-0.730601092896	2.21359223301	-1.05263157895	-10.9428571429
1736	0.868	-3.54590163934	-0.607766990291	-1.05263157895	8.91047619048
1737	0.8685	-4.95355191257	5.03495145631	-2.49473684211	1.82
1738	0.869	-4.95355191257	-2.01844660194	1.83157894737	0.401904761905
1739	0.8695	-0.730601092896	-9.07184466019	1.83157894737	0.401904761905
