	Time	Channel 1	Channel 2	Channel 3	Channel 4
0	0.0	9.20546875	2.37419354839	7.42089552239	-38.4022988506
1	0.0005	2.13125	-1.97096774194	17.2940298507	-34.1781609195
2	0.001	9.20546875	0.925806451613	14.4731343284	-32.7701149425
3	0.0015	10.6203125	-0.522580645161	14.4731343284	-32.7701149425
4	0.002	10.6203125	2.37419354839	18.7044776119	-41.2183908046
5	0.0025	7.790625	6.71935483871	15.8835820896	-21.5057471264
6	0.003	10.6203125	-0.522580645161	15.8835820896	-35.5862068966
7	0.0035	0.71640625	-0.522580645161	18.7044776119	-34.1781609195
8	0.004	4.9609375	0.925806451613	20.1149253731	-29.9540229885
9	0.0045	4.9609375	-10.6612903226	18.7044776119	-34.1781609195
10	0.005	4.9609375	15.4096774194	18.7044776119	-35.5862068966
11	0.0055	-7.77265625	2.37419354839	17.2940298507	-34.1781609195
12	0.006	3.54609375	-7.76451612903	17.2940298507	-34.1781609195
13	0.0065	-3.528125	0.925806451613	20.1149253731	-36.9942528736
14	0.007	17.69453125	-3.41935483871	18.7044776119	-32.7701149425
15	0.0075	-9.1875	0.925806451613	17.2940298507	-39.8103448276
16	0.008	-2.11328125	-1.97096774194	21.5253731343	-21.5057471264
17	0.0085	-2.11328125	0.925806451613	18.7044776119	-36.9942528736
18	0.009	-3.528125	0.925806451613	28.5776119403	-34.1781609195
19	0.0095	-3.528125	-0.522580645161	15.8835820896	-32.7701149425
20	0.01	-3.528125	-7.76451612903	21.5253731343	-34.1781609195
21	0.0105	-0.6984375	13.9612903226	18.7044776119	-34.1781609195
22	0.011	0.71640625	-6.31612903226	18.7044776119	-35.5862068966
23	0.0115	-9.1875	2.37419354839	18.7044776119	-36.9942528736
24	0.012	21.9390625	-1.97096774194	18.7044776119	-32.7701149425
25	0.0125	-3.528125	2.37419354839	17.2940298507	-44.0344827586
26	0.013	9.20546875	-0.522580645161	17.2940298507	-25.7298850575
27	0.0135	13.45	2.37419354839	15.8835820896	-45.4425287356
28	0.014	12.03515625	0.925806451613	15.8835820896	-38.4022988506
29	0.0145	14.86484375	0.925806451613	17.2940298507	-39.8103448276
30	0.015	14.86484375	-6.31612903226	15.8835820896	-38.4022988506
31	0.0155	14.86484375	8.16774193548	15.8835820896	-41.2183908046
32	0.016	16.2796875	16.8580645161	15.8835820896	-39.8103448276
33	0.0165	16.2796875	-9.21290322581	20.1149253731	-45.4425287356
34	0.017	0.71640625	0.925806451613	18.7044776119	-44.0344827586
35	0.0175	23.35390625	0.925806451613	17.2940298507	-41.2183908046
36	0.018	0.71640625	-0.522580645161	18.7044776119	-45.4425287356
37	0.0185	12.03515625	-0.522580645161	20.1149253731	-49.6666666667
38	0.019	7.790625	-0.522580645161	32.8089552239	-46.8505747126
39	0.0195	7.790625	0.925806451613	14.4731343284	-42.6264367816
40	0.02	10.6203125	3.82258064516	18.7044776119	-44.0344827586
41	0.0205	9.20546875	-12.1096774194	20.1149253731	-46.8505747126
42	0.021	4.9609375	-7.76451612903	21.5253731343	-42.6264367816
43	0.0215	2.13125	0.925806451613	21.5253731343	-44.0344827586
44	0.022	13.45	0.925806451613	21.5253731343	-41.2183908046
45	0.0225	12.03515625	-1.97096774194	22.9358208955	-45.4425287356
46	0.023	3.54609375	-1.97096774194	22.9358208955	-39.8103448276
47	0.0235	9.20546875	0.925806451613	28.5776119403	-39.8103448276
48	0.024	3.54609375	2.37419354839	31.3985074627	-45.4425287356
49	0.0245	0.71640625	-1.97096774194	20.1149253731	-39.8103448276
50	0.025	-0.6984375	2.37419354839	22.9358208955	-39.8103448276
51	0.0255	0.71640625	-10.6612903226	21.5253731343	-42.6264367816
52	0.026	-3.528125	-10.6612903226	21.5253731343	-44.0344827586
53	0.0265	3.54609375	0.925806451613	21.5253731343	-44.0344827586
54	0.027	-10.60234375	0.925806451613	18.7044776119	-45.4425287356
55	0.0275	16.2796875	0.925806451613	18.7044776119	-44.0344827586
56	0.028	0.71640625	-1.97096774194	20.1149253731	-52.4827586207
57	0.0285	4.9609375	0.925806451613	20.1149253731	-41.2183908046
58	0.029	10.6203125	-1.97096774194	8.83134328358	-48.2586206897
59	0.0295	12.03515625	-0.522580645161	20.1149253731	-55.2988505747
60	0.03	14.86484375	0.925806451613	25.7567164179	-49.6666666667
61	0.0305	13.45	-4.86774193548	20.1149253731	-49.6666666667
62	0.031	16.2796875	0.925806451613	21.5253731343	-52.4827586207
63	0.0315	10.6203125	3.82258064516	21.5253731343	-48.2586206897
64	0.032	17.69453125	-1.97096774194	21.5253731343	-46.8505747126
65	0.0325	3.54609375	0.925806451613	20.1149253731	-45.4425287356
66	0.033	4.9609375	2.37419354839	25.7567164179	-48.2586206897
67	0.0335	13.45	-0.522580645161	21.5253731343	-31.3620689655
68	0.034	14.86484375	-0.522580645161	22.9358208955	-55.2988505747
69	0.0345	9.20546875	0.925806451613	21.5253731343	-35.5862068966
70	0.035	12.03515625	-0.522580645161	20.1149253731	-45.4425287356
71	0.0355	10.6203125	-0.522580645161	21.5253731343	-46.8505747126
72	0.036	12.03515625	-4.86774193548	20.1149253731	-49.6666666667
73	0.0365	12.03515625	0.925806451613	21.5253731343	-45.4425287356
74	0.037	10.6203125	-0.522580645161	22.9358208955	-49.6666666667
75	0.0375	-2.11328125	-1.97096774194	25.7567164179	-48.2586206897
76	0.038	24.76875	-1.97096774194	24.3462686567	-49.6666666667
77	0.0385	7.790625	-0.522580645161	27.1671641791	-45.4425287356
78	0.039	10.6203125	-0.522580645161	25.7567164179	-56.7068965517
79	0.0395	10.6203125	-1.97096774194	25.7567164179	-31.3620689655
80	0.04	7.790625	-1.97096774194	17.2940298507	-48.2586206897
81	0.0405	3.54609375	-1.97096774194	24.3462686567	-46.8505747126
82	0.041	2.13125	-1.97096774194	24.3462686567	-46.8505747126
83	0.0415	2.13125	3.82258064516	22.9358208955	-45.4425287356
84	0.042	0.71640625	-0.522580645161	22.9358208955	-46.8505747126
85	0.0425	-12.0171875	-0.522580645161	25.7567164179	-44.0344827586
86	0.043	19.109375	-0.522580645161	28.5776119403	-45.4425287356
87	0.0435	-6.3578125	0.925806451613	28.5776119403	-46.8505747126
88	0.044	-3.528125	-3.41935483871	28.5776119403	-56.7068965517
89	0.0445	7.790625	-0.522580645161	27.1671641791	-34.1781609195
90	0.045	7.790625	-0.522580645161	17.2940298507	-52.4827586207
91	0.0455	10.6203125	0.925806451613	44.0925373134	-51.0747126437
92	0.046	10.6203125	2.37419354839	27.1671641791	-51.0747126437
93	0.0465	13.45	-6.31612903226	28.5776119403	-52.4827586207
94	0.047	14.86484375	9.61612903226	27.1671641791	-51.0747126437
95	0.0475	14.86484375	11.064516129	25.7567164179	-51.0747126437
96	0.048	10.6203125	-3.41935483871	24.3462686567	-48.2586206897
97	0.0485	19.109375	-1.97096774194	25.7567164179	-52.4827586207
98	0.049	16.2796875	-0.522580645161	27.1671641791	-59.5229885057
99	0.0495	14.86484375	-0.522580645161	28.5776119403	-45.4425287356
100	0.05	14.86484375	-1.97096774194	15.8835820896	-53.8908045977
101	0.0505	12.03515625	-1.97096774194	27.1671641791	-46.8505747126
102	0.051	10.6203125	-0.522580645161	32.8089552239	-45.4425287356
103	0.0515	7.790625	-12.1096774194	24.3462686567	-42.6264367816
104	0.052	13.45	16.8580645161	22.9358208955	-44.0344827586
105	0.0525	9.20546875	-6.31612903226	24.3462686567	-44.0344827586
106	0.053	9.20546875	0.925806451613	24.3462686567	-46.8505747126
107	0.0535	27.5984375	2.37419354839	22.9358208955	-45.4425287356
108	0.054	0.71640625	-1.97096774194	25.7567164179	-58.1149425287
109	0.0545	7.790625	0.925806451613	24.3462686567	-36.9942528736
110	0.055	9.20546875	-1.97096774194	28.5776119403	-55.2988505747
111	0.0555	3.54609375	0.925806451613	13.0626865672	-49.6666666667
112	0.056	4.9609375	0.925806451613	38.4507462687	-48.2586206897
113	0.0565	3.54609375	2.37419354839	22.9358208955	-45.4425287356
114	0.057	4.9609375	-7.76451612903	25.7567164179	-46.8505747126
115	0.0575	0.71640625	9.61612903226	27.1671641791	-45.4425287356
116	0.058	0.71640625	11.064516129	25.7567164179	-42.6264367816
117	0.0585	-2.11328125	-0.522580645161	21.5253731343	-42.6264367816
118	0.059	-4.94296875	-1.97096774194	24.3462686567	-44.0344827586
119	0.0595	14.86484375	-4.86774193548	27.1671641791	-41.2183908046
120	0.06	-3.528125	-1.97096774194	25.7567164179	-45.4425287356
121	0.0605	3.54609375	-3.41935483871	27.1671641791	-32.7701149425
122	0.061	7.790625	0.925806451613	29.9880597015	-41.2183908046
123	0.0615	4.9609375	-1.97096774194	22.9358208955	-45.4425287356
124	0.062	9.20546875	0.925806451613	27.1671641791	-44.0344827586
125	0.0625	9.20546875	-10.6612903226	22.9358208955	-45.4425287356
126	0.063	14.86484375	-1.97096774194	24.3462686567	-44.0344827586
127	0.0635	17.69453125	-0.522580645161	22.9358208955	-44.0344827586
128	0.064	4.9609375	0.925806451613	24.3462686567	-45.4425287356
129	0.0645	7.790625	0.925806451613	25.7567164179	-39.8103448276
130	0.065	10.6203125	0.925806451613	20.1149253731	-31.3620689655
131	0.0655	12.03515625	-0.522580645161	28.5776119403	-55.2988505747
132	0.066	16.2796875	-1.97096774194	18.7044776119	-45.4425287356
133	0.0665	12.03515625	-4.86774193548	25.7567164179	-46.8505747126
134	0.067	13.45	0.925806451613	24.3462686567	-45.4425287356
135	0.0675	12.03515625	-10.6612903226	22.9358208955	-39.8103448276
136	0.068	13.45	16.8580645161	22.9358208955	-41.2183908046
137	0.0685	12.03515625	-7.76451612903	21.5253731343	-41.2183908046
138	0.069	3.54609375	0.925806451613	22.9358208955	-41.2183908046
139	0.0695	13.45	0.925806451613	25.7567164179	-42.6264367816
140	0.07	3.54609375	0.925806451613	24.3462686567	-32.7701149425
141	0.0705	9.20546875	-3.41935483871	28.5776119403	-39.8103448276
142	0.071	4.9609375	-0.522580645161	22.9358208955	-39.8103448276
143	0.0715	4.9609375	-3.41935483871	21.5253731343	-39.8103448276
144	0.072	4.9609375	0.925806451613	27.1671641791	-35.5862068966
145	0.0725	9.20546875	-6.31612903226	24.3462686567	-35.5862068966
146	0.073	7.790625	3.82258064516	25.7567164179	-34.1781609195
147	0.0735	2.13125	6.71935483871	28.5776119403	-34.1781609195
148	0.074	10.6203125	-1.97096774194	25.7567164179	-34.1781609195
149	0.0745	7.790625	-1.97096774194	25.7567164179	-38.4022988506
150	0.075	-4.94296875	-0.522580645161	22.9358208955	-32.7701149425
151	0.0755	-0.6984375	0.925806451613	28.5776119403	-22.9137931034
152	0.076	0.71640625	0.925806451613	24.3462686567	-39.8103448276
153	0.0765	0.71640625	-0.522580645161	24.3462686567	-42.6264367816
154	0.077	0.71640625	0.925806451613	20.1149253731	-34.1781609195
155	0.0775	3.54609375	-0.522580645161	35.6298507463	-32.7701149425
156	0.078	3.54609375	15.4096774194	21.5253731343	-32.7701149425
157	0.0785	7.790625	-7.76451612903	24.3462686567	-34.1781609195
158	0.079	4.9609375	19.7548387097	21.5253731343	-34.1781609195
159	0.0795	17.69453125	2.37419354839	24.3462686567	-31.3620689655
160	0.08	3.54609375	0.925806451613	24.3462686567	-44.0344827586
161	0.0805	12.03515625	-1.97096774194	20.1149253731	-28.5459770115
162	0.081	16.2796875	0.925806451613	22.9358208955	-34.1781609195
163	0.0815	16.2796875	0.925806451613	17.2940298507	-38.4022988506
164	0.082	14.86484375	-1.97096774194	31.3985074627	-32.7701149425
165	0.0825	13.45	-1.97096774194	15.8835820896	-29.9540229885
166	0.083	13.45	-0.522580645161	21.5253731343	-28.5459770115
167	0.0835	12.03515625	-9.21290322581	22.9358208955	-29.9540229885
168	0.084	10.6203125	-9.21290322581	22.9358208955	-28.5459770115
169	0.0845	14.86484375	-0.522580645161	24.3462686567	-28.5459770115
170	0.085	-3.528125	-0.522580645161	22.9358208955	-29.9540229885
171	0.0855	29.01328125	0.925806451613	24.3462686567	-27.1379310345
172	0.086	0.71640625	0.925806451613	22.9358208955	-29.9540229885
173	0.0865	9.20546875	0.925806451613	22.9358208955	-14.4655172414
174	0.087	6.37578125	-0.522580645161	4.6	-27.1379310345
175	0.0875	10.6203125	2.37419354839	34.2194029851	-25.7298850575
176	0.088	7.790625	-0.522580645161	13.0626865672	-24.3218390805
177	0.0885	7.790625	-10.6612903226	18.7044776119	-22.9137931034
178	0.089	9.20546875	15.4096774194	17.2940298507	-22.9137931034
179	0.0895	2.13125	-10.6612903226	17.2940298507	-21.5057471264
180	0.09	3.54609375	-1.97096774194	17.2940298507	-18.6896551724
181	0.0905	-4.94296875	-0.522580645161	18.7044776119	-18.6896551724
182	0.091	-6.3578125	-1.97096774194	15.8835820896	-17.2816091954
183	0.0915	-2.11328125	-0.522580645161	18.7044776119	-0.385057471264
184	0.092	-2.11328125	-0.522580645161	15.8835820896	-20.0977011494
185	0.0925	-0.6984375	0.925806451613	22.9358208955	-13.0574712644
186	0.093	0.71640625	0.925806451613	20.1149253731	-14.4655172414
187	0.0935	2.13125	3.82258064516	17.2940298507	-15.8735632184
188	0.094	3.54609375	-9.21290322581	20.1149253731	-13.0574712644
189	0.0945	4.9609375	9.61612903226	20.1149253731	-14.4655172414
190	0.095	7.790625	-1.97096774194	15.8835820896	-13.0574712644
191	0.0955	-6.3578125	0.925806451613	15.8835820896	-14.4655172414
192	0.096	26.18359375	0.925806451613	15.8835820896	-14.4655172414
193	0.0965	3.54609375	-0.522580645161	18.7044776119	-24.3218390805
194	0.097	13.45	-1.97096774194	15.8835820896	-22.9137931034
195	0.0975	13.45	0.925806451613	7.42089552239	-13.0574712644
196	0.098	14.86484375	0.925806451613	32.8089552239	-13.0574712644
197	0.0985	13.45	3.82258064516	6.01044776119	-13.0574712644
198	0.099	14.86484375	-1.97096774194	6.01044776119	-11.6494252874
199	0.0995	13.45	-6.31612903226	14.4731343284	-8.83333333333
200	0.1	12.03515625	13.9612903226	11.652238806	-11.6494252874
201	0.1005	7.790625	-4.86774193548	14.4731343284	-8.83333333333
202	0.101	19.109375	-0.522580645161	13.0626865672	-7.42528735632
203	0.1015	19.109375	-0.522580645161	11.652238806	-6.01724137931
204	0.102	-3.528125	-1.97096774194	7.42089552239	-6.01724137931
205	0.1025	2.13125	0.925806451613	11.652238806	8.0632183908
206	0.103	0.71640625	-0.522580645161	8.83134328358	-3.20114942529
207	0.1035	0.71640625	-1.97096774194	13.0626865672	-10.2413793103
208	0.104	0.71640625	0.925806451613	27.1671641791	-0.385057471264
209	0.1045	0.71640625	-6.31612903226	14.4731343284	-1.79310344828
210	0.105	0.71640625	16.8580645161	17.2940298507	-3.20114942529
211	0.1055	3.54609375	-7.76451612903	11.652238806	-0.385057471264
212	0.106	2.13125	-1.97096774194	15.8835820896	-0.385057471264
213	0.1065	12.03515625	-1.97096774194	15.8835820896	-3.20114942529
214	0.107	-7.77265625	-0.522580645161	15.8835820896	2.43103448276
215	0.1075	-3.528125	-1.97096774194	15.8835820896	13.6954022989
216	0.108	-4.94296875	-1.97096774194	7.42089552239	-0.385057471264
217	0.1085	-7.77265625	-0.522580645161	20.1149253731	2.43103448276
218	0.109	-4.94296875	-0.522580645161	7.42089552239	5.24712643678
219	0.1095	-6.3578125	-3.41935483871	22.9358208955	5.24712643678
220	0.11	-4.94296875	-1.97096774194	11.652238806	5.24712643678
221	0.1105	-4.94296875	-6.31612903226	8.83134328358	8.0632183908
222	0.111	-4.94296875	-1.97096774194	13.0626865672	8.0632183908
223	0.1115	-6.3578125	-0.522580645161	13.0626865672	8.0632183908
224	0.112	-2.11328125	0.925806451613	11.652238806	5.24712643678
225	0.1125	-0.6984375	-1.97096774194	11.652238806	8.0632183908
226	0.113	3.54609375	-0.522580645161	-1.04179104478	-0.385057471264
227	0.1135	4.9609375	-0.522580645161	17.2940298507	5.24712643678
228	0.114	12.03515625	0.925806451613	4.6	5.24712643678
229	0.1145	7.790625	-1.97096774194	3.18955223881	6.65517241379
230	0.115	4.9609375	0.925806451613	4.6	5.24712643678
231	0.1155	4.9609375	3.82258064516	7.42089552239	6.65517241379
232	0.116	10.6203125	-6.31612903226	4.6	8.0632183908
233	0.1165	-0.6984375	-1.97096774194	3.18955223881	8.0632183908
234	0.117	4.9609375	-0.522580645161	4.6	9.47126436782
235	0.1175	13.45	-0.522580645161	4.6	-0.385057471264
236	0.118	2.13125	-0.522580645161	4.6	9.47126436782
237	0.1185	7.790625	-1.97096774194	1.77910447761	20.7356321839
238	0.119	3.54609375	-1.97096774194	-3.86268656716	1.02298850575
239	0.1195	0.71640625	2.37419354839	24.3462686567	12.2873563218
240	0.12	0.71640625	-0.522580645161	8.83134328358	12.2873563218
241	0.1205	3.54609375	-1.97096774194	7.42089552239	12.2873563218
242	0.121	0.71640625	6.71935483871	4.6	9.47126436782
243	0.1215	2.13125	-9.21290322581	7.42089552239	13.6954022989
244	0.122	12.03515625	-1.97096774194	7.42089552239	15.1034482759
245	0.1225	0.71640625	0.925806451613	4.6	3.83908045977
246	0.123	-3.528125	-0.522580645161	6.01044776119	16.5114942529
247	0.1235	-2.11328125	-1.97096774194	4.6	24.9597701149
248	0.124	-3.528125	-3.41935483871	22.9358208955	16.5114942529
249	0.1245	-4.94296875	-0.522580645161	-1.04179104478	15.1034482759
250	0.125	-4.94296875	-4.86774193548	6.01044776119	17.9195402299
251	0.1255	-7.77265625	-1.97096774194	4.6	16.5114942529
252	0.126	-7.77265625	-7.76451612903	1.77910447761	17.9195402299
253	0.1265	-4.94296875	-6.31612903226	3.18955223881	17.9195402299
254	0.127	-14.846875	0.925806451613	3.18955223881	16.5114942529
255	0.1275	12.03515625	-0.522580645161	4.6	16.5114942529
256	0.128	-4.94296875	-1.97096774194	3.18955223881	16.5114942529
257	0.1285	0.71640625	0.925806451613	6.01044776119	8.0632183908
258	0.129	0.71640625	-1.97096774194	-6.68358208955	15.1034482759
259	0.1295	0.71640625	-0.522580645161	-8.09402985075	5.24712643678
260	0.13	3.54609375	-1.97096774194	20.1149253731	12.2873563218
261	0.1305	7.790625	0.925806451613	0.368656716418	13.6954022989
262	0.131	7.790625	-9.21290322581	3.18955223881	15.1034482759
263	0.1315	3.54609375	6.71935483871	-1.04179104478	16.5114942529
264	0.132	10.6203125	-10.6612903226	0.368656716418	15.1034482759
265	0.1325	19.109375	0.925806451613	0.368656716418	19.3275862069
266	0.133	-0.6984375	0.925806451613	-1.04179104478	15.1034482759
267	0.1335	7.790625	0.925806451613	1.77910447761	19.3275862069
268	0.134	3.54609375	-3.41935483871	-1.04179104478	32.0
269	0.1345	3.54609375	0.925806451613	17.2940298507	17.9195402299
270	0.135	4.9609375	0.925806451613	17.2940298507	16.5114942529
271	0.1355	2.13125	-1.97096774194	-3.86268656716	16.5114942529
272	0.136	3.54609375	2.37419354839	3.18955223881	15.1034482759
273	0.1365	2.13125	3.82258064516	4.6	15.1034482759
274	0.137	3.54609375	-3.41935483871	4.6	17.9195402299
275	0.1375	-9.1875	0.925806451613	3.18955223881	19.3275862069
276	0.138	-3.528125	-0.522580645161	1.77910447761	19.3275862069
277	0.1385	-2.11328125	-0.522580645161	0.368656716418	22.1436781609
278	0.139	-0.6984375	-0.522580645161	-1.04179104478	34.816091954
279	0.1395	-0.6984375	0.925806451613	3.18955223881	5.24712643678
280	0.14	-4.94296875	0.925806451613	-6.68358208955	19.3275862069
281	0.1405	-4.94296875	0.925806451613	-1.04179104478	17.9195402299
282	0.141	-9.1875	-12.1096774194	-1.04179104478	20.7356321839
283	0.1415	-12.0171875	8.16774193548	-1.04179104478	22.1436781609
284	0.142	-7.77265625	-4.86774193548	1.77910447761	22.1436781609
285	0.1425	-17.6765625	-0.522580645161	0.368656716418	19.3275862069
286	0.143	9.20546875	-1.97096774194	0.368656716418	24.9597701149
287	0.1435	-13.43203125	-0.522580645161	0.368656716418	9.47126436782
288	0.144	-4.94296875	-0.522580645161	-1.04179104478	26.367816092
289	0.1445	-4.94296875	-1.97096774194	-8.09402985075	24.9597701149
290	0.145	-2.11328125	0.925806451613	17.2940298507	22.1436781609
291	0.1455	-4.94296875	-3.41935483871	-9.50447761194	22.1436781609
292	0.146	-0.6984375	0.925806451613	-1.04179104478	17.9195402299
293	0.1465	0.71640625	-6.31612903226	0.368656716418	20.7356321839
294	0.147	9.20546875	16.8580645161	0.368656716418	19.3275862069
295	0.1475	4.9609375	0.925806451613	-1.04179104478	20.7356321839
296	0.148	0.71640625	-0.522580645161	-1.04179104478	16.5114942529
297	0.1485	20.52421875	-1.97096774194	-1.04179104478	19.3275862069
298	0.149	-0.6984375	-1.97096774194	0.368656716418	5.24712643678
299	0.1495	4.9609375	0.925806451613	1.77910447761	22.1436781609
300	0.15	3.54609375	0.925806451613	-2.45223880597	34.816091954
301	0.1505	2.13125	-0.522580645161	13.0626865672	22.1436781609
302	0.151	2.13125	-1.97096774194	-3.86268656716	20.7356321839
303	0.1515	2.13125	0.925806451613	-3.86268656716	23.5517241379
304	0.152	4.9609375	8.16774193548	1.77910447761	23.5517241379
305	0.1525	-0.6984375	-7.76451612903	1.77910447761	26.367816092
306	0.153	-3.528125	-0.522580645161	4.6	23.5517241379
307	0.1535	13.45	-3.41935483871	4.6	20.7356321839
308	0.154	-3.528125	-0.522580645161	4.6	19.3275862069
309	0.1545	-2.11328125	-0.522580645161	4.6	32.0
310	0.155	-2.11328125	-0.522580645161	7.42089552239	20.7356321839
311	0.1555	-2.11328125	-1.97096774194	-2.45223880597	17.9195402299
312	0.156	-2.11328125	-0.522580645161	3.18955223881	20.7356321839
313	0.1565	-2.11328125	2.37419354839	3.18955223881	19.3275862069
314	0.157	-2.11328125	-12.1096774194	6.01044776119	22.1436781609
315	0.1575	-3.528125	15.4096774194	1.77910447761	23.5517241379
316	0.158	-4.94296875	-3.41935483871	3.18955223881	22.1436781609
317	0.1585	-10.60234375	-3.41935483871	1.77910447761	23.5517241379
318	0.159	-0.6984375	-1.97096774194	3.18955223881	20.7356321839
319	0.1595	-16.26171875	-1.97096774194	4.6	23.5517241379
320	0.16	-13.43203125	-1.97096774194	3.18955223881	26.367816092
321	0.1605	-4.94296875	-1.97096774194	20.1149253731	22.1436781609
322	0.161	-2.11328125	-0.522580645161	-3.86268656716	22.1436781609
323	0.1615	-4.94296875	0.925806451613	4.6	22.1436781609
324	0.162	-2.11328125	0.925806451613	3.18955223881	23.5517241379
325	0.1625	-3.528125	-6.31612903226	3.18955223881	22.1436781609
326	0.163	3.54609375	13.9612903226	0.368656716418	20.7356321839
327	0.1635	0.71640625	-1.97096774194	4.6	22.1436781609
328	0.164	-0.6984375	0.925806451613	0.368656716418	19.3275862069
329	0.1645	16.2796875	-1.97096774194	4.6	22.1436781609
330	0.165	3.54609375	0.925806451613	1.77910447761	13.6954022989
331	0.1655	2.13125	0.925806451613	0.368656716418	19.3275862069
332	0.166	3.54609375	-0.522580645161	6.01044776119	30.591954023
333	0.1665	0.71640625	-0.522580645161	-1.04179104478	16.5114942529
334	0.167	-2.11328125	-12.1096774194	3.18955223881	20.7356321839
335	0.1675	-3.528125	-13.5580645161	1.77910447761	17.9195402299
336	0.168	-2.11328125	15.4096774194	3.18955223881	19.3275862069
337	0.1685	2.13125	-1.97096774194	4.6	20.7356321839
338	0.169	-12.0171875	-1.97096774194	0.368656716418	20.7356321839
339	0.1695	12.03515625	0.925806451613	1.77910447761	20.7356321839
340	0.17	-3.528125	-0.522580645161	1.77910447761	15.1034482759
341	0.1705	-2.11328125	0.925806451613	-9.50447761194	20.7356321839
342	0.171	-4.94296875	-1.97096774194	-10.9149253731	17.9195402299
343	0.1715	-4.94296875	-0.522580645161	1.77910447761	20.7356321839
344	0.172	-7.77265625	0.925806451613	-10.9149253731	17.9195402299
345	0.1725	-4.94296875	-6.31612903226	1.77910447761	20.7356321839
346	0.173	-6.3578125	16.8580645161	3.18955223881	22.1436781609
347	0.1735	-6.3578125	-9.21290322581	0.368656716418	23.5517241379
348	0.174	4.9609375	-3.41935483871	0.368656716418	22.1436781609
349	0.1745	-16.26171875	-0.522580645161	0.368656716418	26.367816092
350	0.175	-10.60234375	-1.97096774194	3.18955223881	23.5517241379
351	0.1755	-12.0171875	-0.522580645161	-8.09402985075	19.3275862069
352	0.176	-7.77265625	-0.522580645161	20.1149253731	22.1436781609
353	0.1765	-4.94296875	3.82258064516	-8.09402985075	20.7356321839
354	0.177	-4.94296875	-1.97096774194	-5.27313432836	20.7356321839
355	0.1775	-2.11328125	0.925806451613	-1.04179104478	19.3275862069
356	0.178	-0.6984375	6.71935483871	0.368656716418	17.9195402299
357	0.1785	0.71640625	-4.86774193548	0.368656716418	19.3275862069
358	0.179	13.45	-1.97096774194	1.77910447761	15.1034482759
359	0.1795	0.71640625	-0.522580645161	4.6	3.83908045977
360	0.18	4.9609375	0.925806451613	0.368656716418	32.0
361	0.1805	9.20546875	-0.522580645161	-1.04179104478	2.43103448276
362	0.181	4.9609375	-1.97096774194	3.18955223881	5.24712643678
363	0.1815	10.6203125	-1.97096774194	-5.27313432836	19.3275862069
364	0.182	9.20546875	-1.97096774194	4.6	19.3275862069
365	0.1825	10.6203125	-3.41935483871	3.18955223881	17.9195402299
366	0.183	9.20546875	3.82258064516	0.368656716418	17.9195402299
367	0.1835	4.9609375	-3.41935483871	1.77910447761	17.9195402299
368	0.184	4.9609375	0.925806451613	-1.04179104478	17.9195402299
369	0.1845	-7.77265625	-1.97096774194	4.6	8.0632183908
370	0.185	3.54609375	-1.97096774194	1.77910447761	27.775862069
371	0.1855	2.13125	0.925806451613	-5.27313432836	9.47126436782
372	0.186	-0.6984375	-1.97096774194	6.01044776119	19.3275862069
373	0.1865	-2.11328125	0.925806451613	4.6	19.3275862069
374	0.187	0.71640625	-1.97096774194	1.77910447761	17.9195402299
375	0.1875	0.71640625	16.8580645161	1.77910447761	17.9195402299
376	0.188	0.71640625	19.7548387097	0.368656716418	17.9195402299
377	0.1885	-4.94296875	-10.6612903226	4.6	16.5114942529
378	0.189	-3.528125	0.925806451613	1.77910447761	19.3275862069
379	0.1895	4.9609375	0.925806451613	3.18955223881	22.1436781609
380	0.19	-9.1875	-0.522580645161	-1.04179104478	17.9195402299
381	0.1905	-3.528125	-0.522580645161	0.368656716418	30.591954023
382	0.191	-7.77265625	-1.97096774194	3.18955223881	19.3275862069
383	0.1915	-10.60234375	-1.97096774194	3.18955223881	19.3275862069
384	0.192	-9.1875	-3.41935483871	8.83134328358	19.3275862069
385	0.1925	-10.60234375	-0.522580645161	0.368656716418	19.3275862069
386	0.193	-9.1875	-12.1096774194	-2.45223880597	20.7356321839
387	0.1935	-7.77265625	19.7548387097	-2.45223880597	22.1436781609
388	0.194	-2.11328125	2.37419354839	-2.45223880597	23.5517241379
389	0.1945	-12.0171875	0.925806451613	-3.86268656716	22.1436781609
390	0.195	2.13125	0.925806451613	-2.45223880597	19.3275862069
391	0.1955	-0.6984375	-0.522580645161	-2.45223880597	5.24712643678
392	0.196	2.13125	0.925806451613	0.368656716418	30.591954023
393	0.1965	3.54609375	-0.522580645161	-12.3253731343	9.47126436782
394	0.197	7.790625	-0.522580645161	13.0626865672	8.0632183908
395	0.1975	7.790625	-0.522580645161	-2.45223880597	8.0632183908
396	0.198	7.790625	-4.86774193548	-3.86268656716	10.8793103448
397	0.1985	9.20546875	15.4096774194	-1.04179104478	15.1034482759
398	0.199	7.790625	-9.21290322581	-3.86268656716	12.2873563218
399	0.1995	-3.528125	0.925806451613	-1.04179104478	16.5114942529
400	0.2	19.109375	-0.522580645161	-2.45223880597	16.5114942529
401	0.2005	-2.11328125	-0.522580645161	-1.04179104478	16.5114942529
402	0.201	3.54609375	0.925806451613	3.18955223881	17.9195402299
403	0.2015	2.13125	0.925806451613	1.77910447761	16.5114942529
404	0.202	0.71640625	0.925806451613	-3.86268656716	16.5114942529
405	0.2025	3.54609375	-1.97096774194	-1.04179104478	15.1034482759
406	0.203	0.71640625	2.37419354839	0.368656716418	15.1034482759
407	0.2035	2.13125	-10.6612903226	-1.04179104478	16.5114942529
408	0.204	-3.528125	-9.21290322581	3.18955223881	15.1034482759
409	0.2045	2.13125	-1.97096774194	0.368656716418	15.1034482759
410	0.205	16.2796875	0.925806451613	3.18955223881	13.6954022989
411	0.2055	-7.77265625	-0.522580645161	8.83134328358	2.43103448276
412	0.206	0.71640625	-1.97096774194	6.01044776119	29.183908046
413	0.2065	-0.6984375	-0.522580645161	0.368656716418	8.0632183908
414	0.207	-2.11328125	-0.522580645161	8.83134328358	19.3275862069
415	0.2075	-3.528125	0.925806451613	3.18955223881	17.9195402299
416	0.208	-4.94296875	-12.1096774194	4.6	16.5114942529
417	0.2085	-4.94296875	18.3064516129	7.42089552239	16.5114942529
418	0.209	-10.60234375	-9.21290322581	8.83134328358	17.9195402299
419	0.2095	-3.528125	0.925806451613	6.01044776119	15.1034482759
420	0.21	-9.1875	-3.41935483871	7.42089552239	17.9195402299
421	0.2105	-6.3578125	-1.97096774194	3.18955223881	22.1436781609
422	0.211	-2.11328125	0.925806451613	7.42089552239	13.6954022989
423	0.2115	-0.6984375	0.925806451613	-2.45223880597	12.2873563218
424	0.212	0.71640625	0.925806451613	18.7044776119	15.1034482759
425	0.2125	2.13125	0.925806451613	3.18955223881	12.2873563218
426	0.213	3.54609375	-9.21290322581	4.6	13.6954022989
427	0.2135	9.20546875	-7.76451612903	4.6	9.47126436782
428	0.214	10.6203125	16.8580645161	3.18955223881	8.0632183908
429	0.2145	12.03515625	2.37419354839	3.18955223881	9.47126436782
430	0.215	-3.528125	0.925806451613	1.77910447761	3.83908045977
431	0.2155	27.5984375	0.925806451613	1.77910447761	12.2873563218
432	0.216	9.20546875	-0.522580645161	0.368656716418	1.02298850575
433	0.2165	12.03515625	-3.41935483871	-6.68358208955	12.2873563218
434	0.217	4.9609375	-0.522580645161	20.1149253731	12.2873563218
435	0.2175	3.54609375	0.925806451613	-6.68358208955	13.6954022989
436	0.218	9.20546875	-1.97096774194	4.6	12.2873563218
437	0.2185	2.13125	-0.522580645161	1.77910447761	12.2873563218
438	0.219	4.9609375	-7.76451612903	0.368656716418	10.8793103448
439	0.2195	7.790625	-1.97096774194	1.77910447761	13.6954022989
440	0.22	-2.11328125	-1.97096774194	3.18955223881	15.1034482759
441	0.2205	-0.6984375	0.925806451613	3.18955223881	15.1034482759
442	0.221	0.71640625	0.925806451613	0.368656716418	20.7356321839
443	0.2215	2.13125	0.925806451613	4.6	19.3275862069
444	0.222	0.71640625	-0.522580645161	-5.27313432836	8.0632183908
445	0.2225	2.13125	-0.522580645161	0.368656716418	15.1034482759
446	0.223	2.13125	0.925806451613	3.18955223881	15.1034482759
447	0.2235	2.13125	-10.6612903226	3.18955223881	15.1034482759
448	0.224	0.71640625	6.71935483871	0.368656716418	15.1034482759
449	0.2245	-2.11328125	6.71935483871	3.18955223881	15.1034482759
450	0.225	-10.60234375	-7.76451612903	3.18955223881	15.1034482759
451	0.2255	-3.528125	0.925806451613	0.368656716418	13.6954022989
452	0.226	6.37578125	-1.97096774194	-1.04179104478	16.5114942529
453	0.2265	-2.11328125	-0.522580645161	-1.04179104478	12.2873563218
454	0.227	-0.6984375	-0.522580645161	-9.50447761194	13.6954022989
455	0.2275	0.71640625	-0.522580645161	17.2940298507	15.1034482759
456	0.228	2.13125	0.925806451613	18.7044776119	19.3275862069
457	0.2285	0.71640625	0.925806451613	3.18955223881	19.3275862069
458	0.229	2.13125	-7.76451612903	1.77910447761	17.9195402299
459	0.2295	9.20546875	8.16774193548	0.368656716418	16.5114942529
460	0.23	17.69453125	-1.97096774194	4.6	15.1034482759
461	0.2305	23.35390625	0.925806451613	3.18955223881	15.1034482759
462	0.231	2.13125	-0.522580645161	1.77910447761	9.47126436782
463	0.2315	12.03515625	-0.522580645161	4.6	5.24712643678
464	0.232	10.6203125	0.925806451613	1.77910447761	12.2873563218
465	0.2325	13.45	-0.522580645161	1.77910447761	8.0632183908
466	0.233	9.20546875	0.925806451613	-1.04179104478	8.0632183908
467	0.2335	10.6203125	-10.6612903226	1.77910447761	9.47126436782
468	0.234	7.790625	-7.76451612903	-1.04179104478	12.2873563218
469	0.2345	3.54609375	0.925806451613	-1.04179104478	10.8793103448
470	0.235	3.54609375	0.925806451613	0.368656716418	8.0632183908
471	0.2355	3.54609375	2.37419354839	1.77910447761	2.43103448276
472	0.236	-0.6984375	0.925806451613	0.368656716418	13.6954022989
473	0.2365	2.13125	-0.522580645161	-9.50447761194	8.0632183908
474	0.237	0.71640625	-1.97096774194	14.4731343284	9.47126436782
475	0.2375	-0.6984375	0.925806451613	-9.50447761194	13.6954022989
476	0.238	-0.6984375	-9.21290322581	1.77910447761	13.6954022989
477	0.2385	0.71640625	15.4096774194	3.18955223881	9.47126436782
478	0.239	0.71640625	16.8580645161	-2.45223880597	8.0632183908
479	0.2395	-0.6984375	-6.31612903226	-1.04179104478	9.47126436782
480	0.24	-2.11328125	-0.522580645161	-1.04179104478	12.2873563218
481	0.2405	-2.11328125	0.925806451613	0.368656716418	15.1034482759
482	0.241	-4.94296875	0.925806451613	3.18955223881	-0.385057471264
483	0.2415	-7.77265625	0.925806451613	-6.68358208955	9.47126436782
484	0.242	-6.3578125	-0.522580645161	13.0626865672	9.47126436782
485	0.2425	-7.77265625	-0.522580645161	4.6	12.2873563218
486	0.243	-9.1875	-10.6612903226	-1.04179104478	9.47126436782
487	0.2435	-4.94296875	18.3064516129	-1.04179104478	9.47126436782
488	0.244	-6.3578125	-12.1096774194	-2.45223880597	8.0632183908
489	0.2445	-4.94296875	-1.97096774194	0.368656716418	3.83908045977
490	0.245	-0.6984375	-0.522580645161	3.18955223881	-6.01724137931
491	0.2455	-0.6984375	0.925806451613	1.77910447761	6.65517241379
492	0.246	-0.6984375	-0.522580645161	-2.45223880597	20.7356321839
493	0.2465	0.71640625	0.925806451613	14.4731343284	-0.385057471264
494	0.247	7.790625	-1.97096774194	-3.86268656716	-0.385057471264
495	0.2475	7.790625	0.925806451613	-1.04179104478	-0.385057471264
496	0.248	10.6203125	-10.6612903226	1.77910447761	1.02298850575
497	0.2485	10.6203125	16.8580645161	0.368656716418	3.83908045977
498	0.249	-4.94296875	0.925806451613	-1.04179104478	3.83908045977
499	0.2495	-2.11328125	-0.522580645161	-1.04179104478	2.43103448276
500	0.25	20.52421875	-1.97096774194	0.368656716418	3.83908045977
501	0.2505	6.37578125	-1.97096774194	3.18955223881	1.02298850575
502	0.251	7.790625	0.925806451613	-8.09402985075	-1.79310344828
503	0.2515	4.9609375	0.925806451613	7.42089552239	2.43103448276
504	0.252	3.54609375	2.37419354839	-3.86268656716	3.83908045977
505	0.2525	2.13125	-12.1096774194	-1.04179104478	1.02298850575
506	0.253	2.13125	16.8580645161	-1.04179104478	2.43103448276
507	0.2535	2.13125	-6.31612903226	0.368656716418	3.83908045977
508	0.254	-6.3578125	0.925806451613	3.18955223881	2.43103448276
509	0.2545	17.69453125	0.925806451613	1.77910447761	5.24712643678
510	0.255	2.13125	-0.522580645161	0.368656716418	12.2873563218
511	0.2555	2.13125	0.925806451613	-1.04179104478	2.43103448276
512	0.256	2.13125	-0.522580645161	-1.04179104478	9.47126436782
513	0.2565	2.13125	2.37419354839	6.01044776119	13.6954022989
514	0.257	-2.11328125	-1.97096774194	1.77910447761	9.47126436782
515	0.2575	-4.94296875	2.37419354839	1.77910447761	8.0632183908
516	0.258	-3.528125	19.7548387097	3.18955223881	8.0632183908
517	0.2585	-9.1875	-9.21290322581	1.77910447761	9.47126436782
518	0.259	-12.0171875	-0.522580645161	0.368656716418	8.0632183908
519	0.2595	-2.11328125	-0.522580645161	4.6	1.02298850575
520	0.26	-9.1875	-0.522580645161	0.368656716418	5.24712643678
521	0.2605	-3.528125	-3.41935483871	4.6	13.6954022989
522	0.261	-3.528125	0.925806451613	-6.68358208955	3.83908045977
523	0.2615	-0.6984375	-0.522580645161	-2.45223880597	5.24712643678
524	0.262	-0.6984375	3.82258064516	-2.45223880597	6.65517241379
525	0.2625	3.54609375	3.82258064516	-5.27313432836	2.43103448276
526	0.263	3.54609375	-7.76451612903	-1.04179104478	2.43103448276
527	0.2635	4.9609375	-0.522580645161	0.368656716418	1.02298850575
528	0.264	10.6203125	-1.97096774194	-1.04179104478	5.24712643678
529	0.2645	-2.11328125	-0.522580645161	-1.04179104478	-0.385057471264
530	0.265	-3.528125	-1.97096774194	0.368656716418	-8.83333333333
531	0.2655	9.20546875	-1.97096774194	0.368656716418	5.24712643678
532	0.266	9.20546875	-0.522580645161	-1.04179104478	-7.42528735632
533	0.2665	7.790625	0.925806451613	13.0626865672	-0.385057471264
534	0.267	3.54609375	0.925806451613	-6.68358208955	1.02298850575
535	0.2675	7.790625	-0.522580645161	3.18955223881	1.02298850575
536	0.268	4.9609375	-1.97096774194	1.77910447761	3.83908045977
537	0.2685	3.54609375	-6.31612903226	3.18955223881	2.43103448276
538	0.269	-0.6984375	0.925806451613	0.368656716418	2.43103448276
539	0.2695	14.86484375	-1.97096774194	1.77910447761	5.24712643678
540	0.27	3.54609375	0.925806451613	1.77910447761	2.43103448276
541	0.2705	-3.528125	-1.97096774194	0.368656716418	2.43103448276
542	0.271	2.13125	-0.522580645161	4.6	10.8793103448
543	0.2715	2.13125	0.925806451613	7.42089552239	5.24712643678
544	0.272	0.71640625	-1.97096774194	6.01044776119	3.83908045977
545	0.2725	-0.6984375	0.925806451613	-3.86268656716	2.43103448276
546	0.273	0.71640625	-4.86774193548	1.77910447761	5.24712643678
547	0.2735	0.71640625	13.9612903226	-1.04179104478	8.0632183908
548	0.274	-4.94296875	-9.21290322581	3.18955223881	9.47126436782
549	0.2745	-7.77265625	-0.522580645161	4.6	6.65517241379
550	0.275	3.54609375	-0.522580645161	3.18955223881	12.2873563218
551	0.2755	-17.6765625	-1.97096774194	4.6	3.83908045977
552	0.276	-6.3578125	0.925806451613	4.6	22.1436781609
553	0.2765	-4.94296875	-0.522580645161	4.6	5.24712643678
554	0.277	-3.528125	0.925806451613	1.77910447761	6.65517241379
555	0.2775	-3.528125	-0.522580645161	-3.86268656716	5.24712643678
556	0.278	-0.6984375	-0.522580645161	1.77910447761	2.43103448276
557	0.2785	0.71640625	-4.86774193548	3.18955223881	3.83908045977
558	0.279	3.54609375	-7.76451612903	3.18955223881	-0.385057471264
559	0.2795	-0.6984375	0.925806451613	3.18955223881	1.02298850575
560	0.28	0.71640625	-0.522580645161	1.77910447761	-1.79310344828
561	0.2805	2.13125	0.925806451613	3.18955223881	-8.83333333333
562	0.281	9.20546875	-1.97096774194	0.368656716418	16.5114942529
563	0.2815	7.790625	-1.97096774194	3.18955223881	-7.42528735632
564	0.282	10.6203125	-0.522580645161	-6.68358208955	-0.385057471264
565	0.2825	13.45	-3.41935483871	21.5253731343	2.43103448276
566	0.283	9.20546875	0.925806451613	-2.45223880597	-0.385057471264
567	0.2835	9.20546875	-7.76451612903	1.77910447761	2.43103448276
568	0.284	4.9609375	11.064516129	3.18955223881	-0.385057471264
569	0.2845	3.54609375	-6.31612903226	1.77910447761	2.43103448276
570	0.285	4.9609375	0.925806451613	3.18955223881	5.24712643678
571	0.2855	-6.3578125	-0.522580645161	0.368656716418	5.24712643678
572	0.286	-0.6984375	-1.97096774194	3.18955223881	3.83908045977
573	0.2865	0.71640625	-0.522580645161	0.368656716418	12.2873563218
574	0.287	0.71640625	0.925806451613	4.6	-1.79310344828
575	0.2875	3.54609375	-0.522580645161	-10.9149253731	-0.385057471264
576	0.288	2.13125	-1.97096774194	4.6	1.02298850575
577	0.2885	-0.6984375	0.925806451613	-1.04179104478	-0.385057471264
578	0.289	0.71640625	0.925806451613	3.18955223881	3.83908045977
579	0.2895	0.71640625	3.82258064516	4.6	1.02298850575
580	0.29	0.71640625	-4.86774193548	4.6	2.43103448276
581	0.2905	-13.43203125	2.37419354839	4.6	-0.385057471264
582	0.291	-7.77265625	0.925806451613	8.83134328358	3.83908045977
583	0.2915	-9.1875	-0.522580645161	4.6	19.3275862069
584	0.292	-6.3578125	-1.97096774194	8.83134328358	-8.83333333333
585	0.2925	-7.77265625	0.925806451613	8.83134328358	-4.6091954023
586	0.293	-6.3578125	0.925806451613	-3.86268656716	3.83908045977
587	0.2935	-4.94296875	-0.522580645161	3.18955223881	5.24712643678
588	0.294	-4.94296875	-6.31612903226	4.6	6.65517241379
589	0.2945	-3.528125	5.27096774194	4.6	5.24712643678
590	0.295	2.13125	-1.97096774194	6.01044776119	2.43103448276
591	0.2955	-10.60234375	-0.522580645161	4.6	-0.385057471264
592	0.296	24.76875	-0.522580645161	4.6	3.83908045977
593	0.2965	-2.11328125	-0.522580645161	6.01044776119	-7.42528735632
594	0.297	10.6203125	-1.97096774194	-1.04179104478	-1.79310344828
595	0.2975	13.45	-1.97096774194	13.0626865672	-1.79310344828
596	0.298	12.03515625	-1.97096774194	-1.04179104478	-1.79310344828
597	0.2985	14.86484375	0.925806451613	3.18955223881	-0.385057471264
598	0.299	13.45	-10.6612903226	4.6	-0.385057471264
599	0.2995	14.86484375	8.16774193548	4.6	1.02298850575
600	0.3	-2.11328125	0.925806451613	4.6	5.24712643678
601	0.3005	-2.11328125	-0.522580645161	7.42089552239	3.83908045977
602	0.301	21.9390625	-3.41935483871	3.18955223881	2.43103448276
603	0.3015	6.37578125	-1.97096774194	3.18955223881	-3.20114942529
604	0.302	7.790625	0.925806451613	7.42089552239	6.65517241379
605	0.3025	3.54609375	0.925806451613	-1.04179104478	1.02298850575
606	0.303	3.54609375	-0.522580645161	6.01044776119	8.0632183908
607	0.3035	0.71640625	0.925806451613	20.1149253731	5.24712643678
608	0.304	2.13125	0.925806451613	6.01044776119	5.24712643678
609	0.3045	0.71640625	-12.1096774194	6.01044776119	5.24712643678
610	0.305	4.9609375	-1.97096774194	6.01044776119	6.65517241379
611	0.3055	7.790625	0.925806451613	1.77910447761	8.0632183908
612	0.306	-12.0171875	0.925806451613	1.77910447761	8.0632183908
613	0.3065	-9.1875	0.925806451613	4.6	2.43103448276
614	0.307	-3.528125	0.925806451613	1.77910447761	20.7356321839
615	0.3075	-2.11328125	-1.97096774194	-1.04179104478	-1.79310344828
616	0.308	-3.528125	-1.97096774194	6.01044776119	8.0632183908
617	0.3085	-7.77265625	-0.522580645161	10.2417910448	6.65517241379
618	0.309	-9.1875	5.27096774194	3.18955223881	3.83908045977
619	0.3095	-6.3578125	-10.6612903226	1.77910447761	5.24712643678
620	0.31	-4.94296875	-4.86774193548	0.368656716418	5.24712643678
621	0.3105	2.13125	-1.97096774194	1.77910447761	8.0632183908
622	0.311	-14.846875	0.925806451613	3.18955223881	5.24712643678
623	0.3115	19.109375	-1.97096774194	1.77910447761	15.1034482759
624	0.312	-6.3578125	-0.522580645161	4.6	-1.79310344828
625	0.3125	3.54609375	0.925806451613	4.6	-3.20114942529
626	0.313	3.54609375	-0.522580645161	-5.27313432836	8.0632183908
627	0.3135	10.6203125	-1.97096774194	17.2940298507	5.24712643678
628	0.314	12.03515625	0.925806451613	-3.86268656716	3.83908045977
629	0.3145	13.45	-0.522580645161	-5.27313432836	5.24712643678
630	0.315	7.790625	3.82258064516	0.368656716418	5.24712643678
631	0.3155	10.6203125	-6.31612903226	1.77910447761	3.83908045977
632	0.316	13.45	-4.86774193548	1.77910447761	5.24712643678
633	0.3165	24.76875	-1.97096774194	3.18955223881	6.65517241379
634	0.317	0.71640625	-0.522580645161	4.6	-7.42528735632
635	0.3175	4.9609375	0.925806451613	-1.04179104478	23.5517241379
636	0.318	3.54609375	-0.522580645161	-8.09402985075	-0.385057471264
637	0.3185	4.9609375	0.925806451613	20.1149253731	9.47126436782
638	0.319	3.54609375	-3.41935483871	-3.86268656716	9.47126436782
639	0.3195	2.13125	-1.97096774194	4.6	9.47126436782
640	0.32	3.54609375	-12.1096774194	4.6	9.47126436782
641	0.3205	2.13125	-7.76451612903	6.01044776119	9.47126436782
642	0.321	3.54609375	-3.41935483871	4.6	13.6954022989
643	0.3215	-9.1875	0.925806451613	3.18955223881	6.65517241379
644	0.322	23.35390625	-3.41935483871	4.6	13.6954022989
645	0.3225	-7.77265625	-1.97096774194	4.6	-0.385057471264
646	0.323	3.54609375	-0.522580645161	4.6	29.183908046
647	0.3235	3.54609375	-0.522580645161	-3.86268656716	8.0632183908
648	0.324	-2.11328125	0.925806451613	1.77910447761	3.83908045977
649	0.3245	-6.3578125	-4.86774193548	3.18955223881	15.1034482759
650	0.325	-10.60234375	-4.86774193548	-3.86268656716	13.6954022989
651	0.3255	-4.94296875	0.925806451613	1.77910447761	15.1034482759
652	0.326	-4.94296875	5.27096774194	-1.04179104478	15.1034482759
653	0.3265	-9.1875	-0.522580645161	4.6	12.2873563218
654	0.327	7.790625	-1.97096774194	3.18955223881	13.6954022989
655	0.3275	4.9609375	-1.97096774194	3.18955223881	9.47126436782
656	0.328	0.71640625	0.925806451613	1.77910447761	19.3275862069
657	0.3285	2.13125	0.925806451613	-3.86268656716	20.7356321839
658	0.329	9.20546875	-1.97096774194	13.0626865672	9.47126436782
659	0.3295	9.20546875	0.925806451613	-2.45223880597	6.65517241379
660	0.33	13.45	-3.41935483871	6.01044776119	12.2873563218
661	0.3305	13.45	-10.6612903226	1.77910447761	12.2873563218
662	0.331	16.2796875	2.37419354839	1.77910447761	13.6954022989
663	0.3315	10.6203125	0.925806451613	4.6	12.2873563218
664	0.332	23.35390625	-0.522580645161	3.18955223881	13.6954022989
665	0.3325	19.109375	-3.41935483871	4.6	15.1034482759
666	0.333	16.2796875	-1.97096774194	4.6	15.1034482759
667	0.3335	10.6203125	-1.97096774194	6.01044776119	13.6954022989
668	0.334	9.20546875	-3.41935483871	3.18955223881	8.0632183908
669	0.3345	12.03515625	-0.522580645161	4.6	30.591954023
670	0.335	7.790625	-0.522580645161	-1.04179104478	16.5114942529
671	0.3355	10.6203125	-4.86774193548	4.6	15.1034482759
672	0.336	3.54609375	-3.41935483871	-3.86268656716	17.9195402299
673	0.3365	9.20546875	-9.21290322581	0.368656716418	15.1034482759
674	0.337	4.9609375	16.8580645161	3.18955223881	15.1034482759
675	0.3375	7.790625	-1.97096774194	0.368656716418	16.5114942529
676	0.338	-4.94296875	-1.97096774194	1.77910447761	1.02298850575
677	0.3385	2.13125	-0.522580645161	-1.04179104478	23.5517241379
678	0.339	4.9609375	-3.41935483871	3.18955223881	13.6954022989
679	0.3395	-0.6984375	-1.97096774194	-9.50447761194	9.47126436782
680	0.34	0.71640625	-1.97096774194	13.0626865672	9.47126436782
681	0.3405	0.71640625	0.925806451613	-3.86268656716	15.1034482759
682	0.341	-4.94296875	-10.6612903226	1.77910447761	15.1034482759
683	0.3415	-2.11328125	11.064516129	0.368656716418	16.5114942529
684	0.342	-4.94296875	-6.31612903226	-1.04179104478	13.6954022989
685	0.3425	-3.528125	-0.522580645161	-1.04179104478	13.6954022989
686	0.343	-14.846875	-0.522580645161	1.77910447761	8.0632183908
687	0.3435	-4.94296875	-0.522580645161	3.18955223881	13.6954022989
688	0.344	0.71640625	-1.97096774194	3.18955223881	19.3275862069
689	0.3445	4.9609375	-0.522580645161	4.6	8.0632183908
690	0.345	4.9609375	0.925806451613	-1.04179104478	22.1436781609
691	0.3455	7.790625	-3.41935483871	-12.3253731343	8.0632183908
692	0.346	9.20546875	-4.86774193548	0.368656716418	8.0632183908
693	0.3465	13.45	0.925806451613	0.368656716418	5.24712643678
694	0.347	16.2796875	-7.76451612903	3.18955223881	6.65517241379
695	0.3475	17.69453125	2.37419354839	1.77910447761	5.24712643678
696	0.348	14.86484375	-1.97096774194	3.18955223881	3.83908045977
697	0.3485	9.20546875	0.925806451613	3.18955223881	5.24712643678
698	0.349	7.790625	-1.97096774194	0.368656716418	2.43103448276
699	0.3495	16.2796875	-4.86774193548	0.368656716418	19.3275862069
700	0.35	13.45	-1.97096774194	-1.04179104478	-3.20114942529
701	0.3505	13.45	-1.97096774194	-3.86268656716	5.24712643678
702	0.351	12.03515625	0.925806451613	-1.04179104478	5.24712643678
703	0.3515	10.6203125	-9.21290322581	-2.45223880597	3.83908045977
704	0.352	10.6203125	5.27096774194	-1.04179104478	5.24712643678
705	0.3525	10.6203125	2.37419354839	0.368656716418	3.83908045977
706	0.353	13.45	-3.41935483871	-2.45223880597	6.65517241379
707	0.3535	4.9609375	0.925806451613	-1.04179104478	1.02298850575
708	0.354	9.20546875	-1.97096774194	-1.04179104478	-3.20114942529
709	0.3545	3.54609375	-3.41935483871	1.77910447761	5.24712643678
710	0.355	9.20546875	0.925806451613	4.6	13.6954022989
711	0.3555	4.9609375	-0.522580645161	1.77910447761	1.02298850575
712	0.356	4.9609375	-0.522580645161	-2.45223880597	5.24712643678
713	0.3565	2.13125	0.925806451613	4.6	6.65517241379
714	0.357	3.54609375	-6.31612903226	4.6	8.0632183908
715	0.3575	-0.6984375	-4.86774193548	4.6	9.47126436782
716	0.358	-0.6984375	8.16774193548	4.6	9.47126436782
717	0.3585	-4.94296875	-0.522580645161	6.01044776119	9.47126436782
718	0.359	0.71640625	-3.41935483871	1.77910447761	6.65517241379
719	0.3595	12.03515625	-3.41935483871	0.368656716418	8.0632183908
720	0.36	-0.6984375	-0.522580645161	-2.45223880597	-0.385057471264
721	0.3605	0.71640625	0.925806451613	0.368656716418	8.0632183908
722	0.361	0.71640625	-0.522580645161	-5.27313432836	-0.385057471264
723	0.3615	2.13125	-0.522580645161	13.0626865672	3.83908045977
724	0.362	2.13125	-3.41935483871	0.368656716418	5.24712643678
725	0.3625	4.9609375	3.82258064516	-2.45223880597	5.24712643678
726	0.363	9.20546875	6.71935483871	-2.45223880597	1.02298850575
727	0.3635	7.790625	-9.21290322581	-3.86268656716	5.24712643678
728	0.364	4.9609375	-1.97096774194	-2.45223880597	3.83908045977
729	0.3645	4.9609375	0.925806451613	-3.86268656716	-0.385057471264
730	0.365	9.20546875	-1.97096774194	-1.04179104478	3.83908045977
731	0.3655	10.6203125	0.925806451613	-2.45223880597	15.1034482759
732	0.366	10.6203125	-0.522580645161	-3.86268656716	-3.20114942529
733	0.3665	9.20546875	0.925806451613	-2.45223880597	6.65517241379
734	0.367	4.9609375	0.925806451613	-1.04179104478	2.43103448276
735	0.3675	9.20546875	-10.6612903226	-3.86268656716	2.43103448276
736	0.368	9.20546875	11.064516129	-2.45223880597	-0.385057471264
737	0.3685	3.54609375	-3.41935483871	-1.04179104478	1.02298850575
738	0.369	10.6203125	-6.31612903226	-1.04179104478	3.83908045977
739	0.3695	-3.528125	-1.97096774194	0.368656716418	1.02298850575
740	0.37	12.03515625	-1.97096774194	-1.04179104478	2.43103448276
741	0.3705	6.37578125	-1.97096774194	-1.04179104478	6.65517241379
742	0.371	4.9609375	0.925806451613	-6.68358208955	-0.385057471264
743	0.3715	3.54609375	0.925806451613	-1.04179104478	12.2873563218
744	0.372	2.13125	-0.522580645161	3.18955223881	2.43103448276
745	0.3725	2.13125	0.925806451613	-6.68358208955	2.43103448276
746	0.373	3.54609375	-3.41935483871	0.368656716418	1.02298850575
747	0.3735	0.71640625	16.8580645161	0.368656716418	1.02298850575
748	0.374	-2.11328125	-7.76451612903	-1.04179104478	5.24712643678
749	0.3745	0.71640625	-0.522580645161	0.368656716418	8.0632183908
750	0.375	-12.0171875	-0.522580645161	-1.04179104478	3.83908045977
751	0.3755	-3.528125	0.925806451613	-3.86268656716	19.3275862069
752	0.376	-2.11328125	-1.97096774194	0.368656716418	13.6954022989
753	0.3765	-0.6984375	-0.522580645161	-1.04179104478	8.0632183908
754	0.377	2.13125	-3.41935483871	-3.86268656716	9.47126436782
755	0.3775	3.54609375	-0.522580645161	14.4731343284	9.47126436782
756	0.378	3.54609375	-3.41935483871	0.368656716418	9.47126436782
757	0.3785	2.13125	-3.41935483871	0.368656716418	3.83908045977
758	0.379	7.790625	13.9612903226	-1.04179104478	5.24712643678
759	0.3795	10.6203125	-9.21290322581	0.368656716418	3.83908045977
760	0.38	16.2796875	0.925806451613	-2.45223880597	1.02298850575
761	0.3805	10.6203125	-1.97096774194	-1.04179104478	-1.79310344828
762	0.381	7.790625	-1.97096774194	0.368656716418	-11.6494252874
763	0.3815	14.86484375	-1.97096774194	-2.45223880597	15.1034482759
764	0.382	16.2796875	0.925806451613	3.18955223881	-6.01724137931
765	0.3825	17.69453125	0.925806451613	-3.86268656716	-0.385057471264
766	0.383	14.86484375	-1.97096774194	4.6	-0.385057471264
767	0.3835	12.03515625	-0.522580645161	-2.45223880597	-0.385057471264
768	0.384	13.45	-10.6612903226	-1.04179104478	1.02298850575
769	0.3845	14.86484375	-6.31612903226	0.368656716418	1.02298850575
770	0.385	0.71640625	-0.522580645161	-1.04179104478	2.43103448276
771	0.3855	20.52421875	-0.522580645161	1.77910447761	2.43103448276
772	0.386	10.6203125	-0.522580645161	0.368656716418	-7.42528735632
773	0.3865	7.790625	-0.522580645161	0.368656716418	2.43103448276
774	0.387	13.45	-0.522580645161	1.77910447761	5.24712643678
775	0.3875	12.03515625	-0.522580645161	4.6	-6.01724137931
776	0.388	12.03515625	-4.86774193548	-1.04179104478	-0.385057471264
777	0.3885	9.20546875	2.37419354839	-1.04179104478	1.02298850575
778	0.389	7.790625	-10.6612903226	6.01044776119	-0.385057471264
779	0.3895	7.790625	9.61612903226	4.6	3.83908045977
780	0.39	10.6203125	-4.86774193548	1.77910447761	3.83908045977
781	0.3905	-7.77265625	-0.522580645161	-2.45223880597	3.83908045977
782	0.391	16.2796875	-1.97096774194	-1.04179104478	5.24712643678
783	0.3915	-0.6984375	0.925806451613	0.368656716418	-0.385057471264
784	0.392	-4.94296875	-0.522580645161	-1.04179104478	5.24712643678
785	0.3925	-2.11328125	0.925806451613	-9.50447761194	5.24712643678
786	0.393	-3.528125	-0.522580645161	7.42089552239	2.43103448276
787	0.3935	2.13125	-0.522580645161	-9.50447761194	-3.20114942529
788	0.394	2.13125	-1.97096774194	-1.04179104478	2.43103448276
789	0.3945	4.9609375	9.61612903226	-2.45223880597	1.02298850575
790	0.395	7.790625	13.9612903226	-3.86268656716	1.02298850575
791	0.3955	-4.94296875	-3.41935483871	-2.45223880597	-1.79310344828
792	0.396	-3.528125	0.925806451613	-2.45223880597	-4.6091954023
793	0.3965	31.84296875	-1.97096774194	-2.45223880597	-1.79310344828
794	0.397	14.86484375	-0.522580645161	-5.27313432836	-13.0574712644
795	0.3975	13.45	0.925806451613	-1.04179104478	-6.01724137931
796	0.398	14.86484375	-1.97096774194	-3.86268656716	5.24712643678
797	0.3985	14.86484375	0.925806451613	-15.1462686567	-4.6091954023
798	0.399	14.86484375	-3.41935483871	-3.86268656716	-3.20114942529
799	0.3995	10.6203125	0.925806451613	-5.27313432836	-4.6091954023
800	0.4	12.03515625	-13.5580645161	-3.86268656716	-4.6091954023
801	0.4005	13.45	-0.522580645161	-6.68358208955	-4.6091954023
802	0.401	12.03515625	-1.97096774194	-3.86268656716	-1.79310344828
803	0.4015	-3.528125	-0.522580645161	-3.86268656716	-1.79310344828
804	0.402	2.13125	-1.97096774194	-2.45223880597	1.02298850575
805	0.4025	4.9609375	0.925806451613	-6.68358208955	15.1034482759
806	0.403	7.790625	-1.97096774194	-1.04179104478	-6.01724137931
807	0.4035	10.6203125	-0.522580645161	-2.45223880597	15.1034482759
808	0.404	7.790625	-4.86774193548	-12.3253731343	-0.385057471264
809	0.4045	3.54609375	0.925806451613	-1.04179104478	-3.20114942529
810	0.405	4.9609375	-6.31612903226	-3.86268656716	-1.79310344828
811	0.4055	7.790625	11.064516129	0.368656716418	-0.385057471264
812	0.406	-2.11328125	-1.97096774194	0.368656716418	1.02298850575
813	0.4065	7.790625	-1.97096774194	0.368656716418	-0.385057471264
814	0.407	10.6203125	-3.41935483871	0.368656716418	2.43103448276
815	0.4075	-4.94296875	0.925806451613	-1.04179104478	1.02298850575
816	0.408	-2.11328125	-0.522580645161	1.77910447761	13.6954022989
817	0.4085	-2.11328125	0.925806451613	4.6	-3.20114942529
818	0.409	-3.528125	-4.86774193548	1.77910447761	5.24712643678
819	0.4095	0.71640625	-1.97096774194	11.652238806	3.83908045977
820	0.41	3.54609375	0.925806451613	-1.04179104478	2.43103448276
821	0.4105	4.9609375	-10.6612903226	-1.04179104478	-0.385057471264
822	0.411	-3.528125	-0.522580645161	-2.45223880597	-0.385057471264
823	0.4115	7.790625	-0.522580645161	0.368656716418	2.43103448276
824	0.412	-2.11328125	-0.522580645161	0.368656716418	-8.83333333333
825	0.4125	10.6203125	-3.41935483871	-1.04179104478	12.2873563218
826	0.413	9.20546875	-0.522580645161	-6.68358208955	-7.42528735632
827	0.4135	14.86484375	-1.97096774194	0.368656716418	-1.79310344828
828	0.414	17.69453125	0.925806451613	-6.68358208955	-7.42528735632
829	0.4145	14.86484375	-1.97096774194	-5.27313432836	-1.79310344828
830	0.415	12.03515625	-10.6612903226	-2.45223880597	-7.42528735632
831	0.4155	17.69453125	16.8580645161	-1.04179104478	-6.01724137931
832	0.416	13.45	-10.6612903226	-1.04179104478	-0.385057471264
833	0.4165	12.03515625	-0.522580645161	-2.45223880597	-1.79310344828
834	0.417	13.45	-1.97096774194	-1.04179104478	-7.42528735632
835	0.4175	7.790625	-0.522580645161	-3.86268656716	9.47126436782
836	0.418	10.6203125	0.925806451613	0.368656716418	-8.83333333333
837	0.4185	9.20546875	-1.97096774194	-2.45223880597	-0.385057471264
838	0.419	4.9609375	-3.41935483871	-8.09402985075	1.02298850575
839	0.4195	4.9609375	-7.76451612903	-3.86268656716	-0.385057471264
840	0.42	7.790625	-9.21290322581	-6.68358208955	1.02298850575
841	0.4205	10.6203125	-3.41935483871	-2.45223880597	-0.385057471264
842	0.421	12.03515625	-1.97096774194	-1.04179104478	-0.385057471264
843	0.4215	-9.1875	-0.522580645161	-1.04179104478	-3.20114942529
844	0.422	-6.3578125	-0.522580645161	-2.45223880597	-6.01724137931
845	0.4225	4.9609375	-1.97096774194	0.368656716418	13.6954022989
846	0.423	-0.6984375	-0.522580645161	0.368656716418	-8.83333333333
847	0.4235	4.9609375	-1.97096774194	1.77910447761	-3.20114942529
848	0.424	2.13125	0.925806451613	-2.45223880597	-1.79310344828
849	0.4245	-2.11328125	-9.21290322581	3.18955223881	-0.385057471264
850	0.425	-0.6984375	8.16774193548	3.18955223881	-1.79310344828
851	0.4255	-2.11328125	-1.97096774194	1.77910447761	1.02298850575
852	0.426	-2.11328125	-3.41935483871	0.368656716418	1.02298850575
853	0.4265	16.2796875	-1.97096774194	0.368656716418	2.43103448276
854	0.427	13.45	-0.522580645161	0.368656716418	1.02298850575
855	0.4275	-4.94296875	0.925806451613	-1.04179104478	-0.385057471264
856	0.428	0.71640625	0.925806451613	-1.04179104478	15.1034482759
857	0.4285	4.9609375	-0.522580645161	-12.3253731343	-0.385057471264
858	0.429	4.9609375	0.925806451613	11.652238806	-0.385057471264
859	0.4295	9.20546875	-0.522580645161	-1.04179104478	-3.20114942529
860	0.43	10.6203125	-13.5580645161	-2.45223880597	-6.01724137931
861	0.4305	16.2796875	18.3064516129	-1.04179104478	-6.01724137931
862	0.431	13.45	-10.6612903226	-3.86268656716	-4.6091954023
863	0.4315	16.2796875	-0.522580645161	-3.86268656716	-4.6091954023
864	0.432	9.20546875	0.925806451613	-3.86268656716	-3.20114942529
865	0.4325	7.790625	0.925806451613	0.368656716418	-3.20114942529
866	0.433	13.45	0.925806451613	-3.86268656716	2.43103448276
867	0.4335	13.45	-1.97096774194	-8.09402985075	-10.2413793103
868	0.434	10.6203125	-0.522580645161	0.368656716418	-3.20114942529
869	0.4345	12.03515625	0.925806451613	14.4731343284	-4.6091954023
870	0.435	7.790625	-12.1096774194	0.368656716418	-1.79310344828
871	0.4355	9.20546875	19.7548387097	-1.04179104478	-1.79310344828
872	0.436	9.20546875	-10.6612903226	3.18955223881	-1.79310344828
873	0.4365	-2.11328125	-0.522580645161	-1.04179104478	-3.20114942529
874	0.437	19.109375	-1.97096774194	0.368656716418	-0.385057471264
875	0.4375	-6.3578125	-0.522580645161	0.368656716418	-6.01724137931
876	0.438	0.71640625	-3.41935483871	-2.45223880597	12.2873563218
877	0.4385	0.71640625	-3.41935483871	-3.86268656716	-8.83333333333
878	0.439	0.71640625	-1.97096774194	3.18955223881	-1.79310344828
879	0.4395	-0.6984375	0.925806451613	-5.27313432836	-4.6091954023
880	0.44	0.71640625	-6.31612903226	-1.04179104478	-0.385057471264
881	0.4405	-0.6984375	-6.31612903226	-8.09402985075	-0.385057471264
882	0.441	-4.94296875	-0.522580645161	1.77910447761	-0.385057471264
883	0.4415	-3.528125	-0.522580645161	-2.45223880597	-0.385057471264
884	0.442	-4.94296875	0.925806451613	3.18955223881	-1.79310344828
885	0.4425	-12.0171875	-0.522580645161	0.368656716418	-0.385057471264
886	0.443	12.03515625	-1.97096774194	0.368656716418	1.02298850575
887	0.4435	-2.11328125	-1.97096774194	1.77910447761	-7.42528735632
888	0.444	0.71640625	-0.522580645161	-3.86268656716	3.83908045977
889	0.4445	-0.6984375	-1.97096774194	11.652238806	-1.79310344828
890	0.445	0.71640625	-0.522580645161	-3.86268656716	-0.385057471264
891	0.4455	3.54609375	-1.97096774194	0.368656716418	-3.20114942529
892	0.446	3.54609375	2.37419354839	0.368656716418	-4.6091954023
893	0.4465	9.20546875	-7.76451612903	1.77910447761	-4.6091954023
894	0.447	9.20546875	-0.522580645161	3.18955223881	-8.83333333333
895	0.4475	14.86484375	-0.522580645161	0.368656716418	-7.42528735632
896	0.448	2.13125	0.925806451613	3.18955223881	-13.0574712644
897	0.4485	13.45	-0.522580645161	3.18955223881	-1.79310344828
898	0.449	13.45	-0.522580645161	4.6	-28.5459770115
899	0.4495	13.45	0.925806451613	-2.45223880597	-22.9137931034
900	0.45	12.03515625	0.925806451613	20.1149253731	-22.9137931034
901	0.4505	10.6203125	-0.522580645161	-2.45223880597	-25.7298850575
902	0.451	10.6203125	-3.41935483871	3.18955223881	-29.9540229885
903	0.4515	10.6203125	18.3064516129	6.01044776119	-31.3620689655
904	0.452	7.790625	-9.21290322581	8.83134328358	-35.5862068966
905	0.4525	7.790625	0.925806451613	6.01044776119	-39.8103448276
906	0.453	-4.94296875	0.925806451613	10.2417910448	-44.0344827586
907	0.4535	26.18359375	-1.97096774194	8.83134328358	-41.2183908046
908	0.454	-0.6984375	0.925806451613	13.0626865672	-59.5229885057
909	0.4545	9.20546875	-1.97096774194	15.8835820896	-35.5862068966
910	0.455	4.9609375	0.925806451613	4.6	-48.2586206897
911	0.4555	9.20546875	0.925806451613	27.1671641791	-52.4827586207
912	0.456	4.9609375	2.37419354839	8.83134328358	-52.4827586207
913	0.4565	7.790625	0.925806451613	7.42089552239	-51.0747126437
914	0.457	4.9609375	6.71935483871	13.0626865672	-51.0747126437
915	0.4575	0.71640625	-1.97096774194	14.4731343284	-46.8505747126
916	0.458	3.54609375	-1.97096774194	15.8835820896	-46.8505747126
917	0.4585	17.69453125	-0.522580645161	14.4731343284	-45.4425287356
918	0.459	-9.1875	-0.522580645161	18.7044776119	-60.9310344828
919	0.4595	0.71640625	0.925806451613	14.4731343284	-32.7701149425
920	0.46	2.13125	0.925806451613	18.7044776119	-55.2988505747
921	0.4605	7.790625	0.925806451613	20.1149253731	-58.1149425287
922	0.461	9.20546875	0.925806451613	13.0626865672	-51.0747126437
923	0.4615	12.03515625	-0.522580645161	17.2940298507	-51.0747126437
924	0.462	13.45	-4.86774193548	20.1149253731	-55.2988505747
925	0.4625	17.69453125	-4.86774193548	15.8835820896	-55.2988505747
926	0.463	17.69453125	-1.97096774194	15.8835820896	-56.7068965517
927	0.4635	14.86484375	-1.97096774194	18.7044776119	-53.8908045977
928	0.464	24.76875	-0.522580645161	20.1149253731	-51.0747126437
929	0.4645	23.35390625	-0.522580645161	22.9358208955	-39.8103448276
930	0.465	20.52421875	-3.41935483871	11.652238806	-34.1781609195
931	0.4655	21.9390625	-1.97096774194	27.1671641791	-18.6896551724
932	0.466	19.109375	-1.97096774194	14.4731343284	-7.42528735632
933	0.4665	19.109375	-4.86774193548	6.01044776119	8.0632183908
934	0.467	17.69453125	-0.522580645161	7.42089552239	22.1436781609
935	0.4675	17.69453125	-3.41935483871	0.368656716418	34.816091954
936	0.468	17.69453125	-6.31612903226	0.368656716418	47.4885057471
937	0.4685	0.71640625	-4.86774193548	-6.68358208955	60.1609195402
938	0.469	31.84296875	-3.41935483871	-8.09402985075	78.4655172414
939	0.4695	4.9609375	-4.86774193548	-9.50447761194	78.4655172414
940	0.47	9.20546875	-9.21290322581	-13.7358208955	116.482758621
941	0.4705	12.03515625	-4.86774193548	-8.09402985075	120.706896552
942	0.471	12.03515625	-4.86774193548	-22.1985074627	134.787356322
943	0.4715	10.6203125	-9.21290322581	-25.0194029851	150.275862069
944	0.472	9.20546875	-9.21290322581	-29.2507462687	165.764367816
945	0.4725	6.37578125	-10.6612903226	-33.4820895522	179.844827586
946	0.473	6.37578125	-13.5580645161	-39.123880597	195.333333333
947	0.4735	0.71640625	-9.21290322581	-41.9447761194	210.82183908
948	0.474	-0.6984375	-9.21290322581	-41.9447761194	222.086206897
949	0.4745	16.2796875	-10.6612903226	-40.5343283582	240.390804598
950	0.475	-10.60234375	-10.6612903226	-46.176119403	251.655172414
951	0.4755	-0.6984375	-7.76451612903	-61.6910447761	261.511494253
952	0.476	-3.528125	-10.6612903226	-36.3029850746	271.367816092
953	0.4765	-0.6984375	-3.41935483871	-65.9223880597	278.408045977
954	0.477	-2.11328125	-10.6612903226	-58.8701492537	284.040229885
955	0.4775	-3.528125	-4.86774193548	-64.5119402985	281.224137931
956	0.478	-0.6984375	-19.3516129032	-61.6910447761	286.856321839
957	0.4785	-0.6984375	-9.21290322581	-63.1014925373	288.264367816
958	0.479	7.790625	-13.5580645161	-63.1014925373	284.040229885
959	0.4795	-4.94296875	-7.76451612903	-65.9223880597	278.408045977
960	0.48	3.54609375	-10.6612903226	-68.7432835821	289.672413793
961	0.4805	10.6203125	-12.1096774194	-68.7432835821	271.367816092
962	0.481	4.9609375	-9.21290322581	-81.4373134328	279.816091954
963	0.4815	3.54609375	-10.6612903226	-75.7955223881	284.040229885
964	0.482	3.54609375	-6.31612903226	-78.6164179104	288.264367816
965	0.4825	0.71640625	-16.4548387097	-78.6164179104	282.632183908
966	0.483	-0.6984375	0.925806451613	-80.0268656716	275.591954023
967	0.4835	-7.77265625	-7.76451612903	-78.6164179104	265.735632184
968	0.484	-20.50625	-7.76451612903	-81.4373134328	262.91954023
969	0.4845	3.54609375	-6.31612903226	-85.6686567164	260.103448276
970	0.485	-17.6765625	-9.21290322581	-89.9	241.798850575
971	0.4855	-17.6765625	-4.86774193548	-92.7208955224	246.022988506
972	0.486	-14.846875	-7.76451612903	-84.2582089552	234.75862069
973	0.4865	-19.09140625	-4.86774193548	-96.952238806	223.494252874
974	0.487	-21.92109375	-6.31612903226	-96.952238806	210.82183908
975	0.4875	-24.75078125	-1.97096774194	-95.5417910448	191.109195402
976	0.488	-26.165625	0.925806451613	-92.7208955224	171.396551724
977	0.4885	-27.58046875	-4.86774193548	-92.7208955224	153.091954023
978	0.489	-27.58046875	5.27096774194	-94.1313432836	141.827586207
979	0.4895	-36.06953125	-3.41935483871	-94.1313432836	131.971264368
980	0.49	-33.23984375	-3.41935483871	-94.1313432836	133.379310345
981	0.4905	-33.23984375	-3.41935483871	-89.9	117.890804598
982	0.491	-34.6546875	-0.522580645161	-96.952238806	113.666666667
983	0.4915	-37.484375	-0.522580645161	-85.6686567164	115.074712644
984	0.492	-40.3140625	2.37419354839	-85.6686567164	99.5862068966
985	0.4925	-38.89921875	-10.6612903226	-88.4895522388	95.3620689655
986	0.493	-38.89921875	9.61612903226	-91.3104477612	89.7298850575
987	0.4935	-40.3140625	-6.31612903226	-87.0791044776	86.9137931034
988	0.494	-24.75078125	-0.522580645161	-87.0791044776	91.1379310345
989	0.4945	-23.3359375	-0.522580645161	-88.4895522388	82.6896551724
990	0.495	-44.55859375	0.925806451613	-85.6686567164	86.9137931034
991	0.4955	-34.6546875	0.925806451613	-94.1313432836	88.3218390805
992	0.496	-34.6546875	-0.522580645161	-68.7432835821	86.9137931034
993	0.4965	-28.9953125	2.37419354839	-70.1537313433	82.6896551724
994	0.497	-30.41015625	3.82258064516	-82.847761194	82.6896551724
995	0.4975	-23.3359375	11.064516129	-74.3850746269	77.0574712644
996	0.498	-28.9953125	-3.41935483871	-71.5641791045	68.6091954023
997	0.4985	-21.92109375	-0.522580645161	-71.5641791045	65.7931034483
998	0.499	-34.6546875	-0.522580645161	-64.5119402985	58.7528735632
999	0.4995	-3.528125	-3.41935483871	-65.9223880597	58.7528735632
1000	0.5	-33.23984375	0.925806451613	-57.4597014925	37.632183908
1001	0.5005	-21.92109375	-1.97096774194	-56.0492537313	60.1609195402
1002	0.501	-23.3359375	-0.522580645161	-58.8701492537	39.0402298851
1003	0.5015	-21.92109375	0.925806451613	-51.8179104478	24.9597701149
1004	0.502	-17.6765625	-6.31612903226	-46.176119403	27.775862069
1005	0.5025	-16.26171875	8.16774193548	-41.9447761194	24.9597701149
1006	0.503	-13.43203125	15.4096774194	-40.5343283582	22.1436781609
1007	0.5035	-21.92109375	-0.522580645161	-37.7134328358	22.1436781609
1008	0.504	-26.165625	-0.522580645161	-32.071641791	15.1034482759
1009	0.5045	0.71640625	-1.97096774194	-30.6611940299	15.1034482759
1010	0.505	-10.60234375	-0.522580645161	-29.2507462687	15.1034482759
1011	0.5055	-10.60234375	-0.522580645161	-20.7880597015	-0.385057471264
1012	0.506	-10.60234375	0.925806451613	-27.8402985075	5.24712643678
1013	0.5065	-10.60234375	2.37419354839	-5.27313432836	2.43103448276
1014	0.507	-13.43203125	-1.97096774194	-16.5567164179	-0.385057471264
1015	0.5075	-16.26171875	-3.41935483871	-15.1462686567	-4.6091954023
1016	0.508	-17.6765625	-0.522580645161	-16.5567164179	-11.6494252874
1017	0.5085	-17.6765625	-0.522580645161	-8.09402985075	-13.0574712644
1018	0.509	-17.6765625	-0.522580645161	-9.50447761194	-15.8735632184
1019	0.5095	-2.11328125	0.925806451613	-6.68358208955	-20.0977011494
1020	0.51	-7.77265625	2.37419354839	-8.09402985075	-28.5459770115
1021	0.5105	-10.60234375	0.925806451613	-2.45223880597	-24.3218390805
1022	0.511	-4.94296875	0.925806451613	1.77910447761	-29.9540229885
1023	0.5115	-2.11328125	3.82258064516	-2.45223880597	-29.9540229885
1024	0.512	-0.6984375	-0.522580645161	-5.27313432836	-34.1781609195
1025	0.5125	2.13125	6.71935483871	-1.04179104478	-36.9942528736
1026	0.513	7.790625	21.2032258065	3.18955223881	-38.4022988506
1027	0.5135	12.03515625	-7.76451612903	4.6	-39.8103448276
1028	0.514	14.86484375	2.37419354839	0.368656716418	-39.8103448276
1029	0.5145	0.71640625	3.82258064516	7.42089552239	-45.4425287356
1030	0.515	26.18359375	0.925806451613	6.01044776119	-45.4425287356
1031	0.5155	14.86484375	-0.522580645161	8.83134328358	-53.8908045977
1032	0.516	12.03515625	0.925806451613	6.01044776119	-52.4827586207
1033	0.5165	9.20546875	2.37419354839	14.4731343284	-46.8505747126
1034	0.517	9.20546875	-0.522580645161	15.8835820896	-49.6666666667
1035	0.5175	3.54609375	0.925806451613	18.7044776119	-48.2586206897
1036	0.518	3.54609375	2.37419354839	8.83134328358	-45.4425287356
1037	0.5185	7.790625	21.2032258065	14.4731343284	-49.6666666667
1038	0.519	3.54609375	-7.76451612903	14.4731343284	-46.8505747126
1039	0.5195	2.13125	2.37419354839	14.4731343284	-48.2586206897
1040	0.52	12.03515625	2.37419354839	15.8835820896	-56.7068965517
1041	0.5205	2.13125	2.37419354839	15.8835820896	-39.8103448276
1042	0.521	4.9609375	0.925806451613	18.7044776119	-52.4827586207
1043	0.5215	4.9609375	-0.522580645161	7.42089552239	-46.8505747126
1044	0.522	3.54609375	-1.97096774194	18.7044776119	-49.6666666667
1045	0.5225	4.9609375	2.37419354839	18.7044776119	-52.4827586207
1046	0.523	2.13125	-1.97096774194	18.7044776119	-51.0747126437
1047	0.5235	0.71640625	11.064516129	22.9358208955	-51.0747126437
1048	0.524	0.71640625	-4.86774193548	21.5253731343	-51.0747126437
1049	0.5245	-12.0171875	0.925806451613	22.9358208955	-56.7068965517
1050	0.525	-9.1875	0.925806451613	24.3462686567	-53.8908045977
1051	0.5255	-4.94296875	-0.522580645161	21.5253731343	-39.8103448276
1052	0.526	-2.11328125	0.925806451613	25.7567164179	-66.5632183908
1053	0.5265	-2.11328125	0.925806451613	39.8611940299	-55.2988505747
1054	0.527	0.71640625	-4.86774193548	14.4731343284	-52.4827586207
1055	0.5275	4.9609375	2.37419354839	37.0402985075	-51.0747126437
1056	0.528	3.54609375	-6.31612903226	22.9358208955	-53.8908045977
1057	0.5285	4.9609375	-4.86774193548	20.1149253731	-55.2988505747
1058	0.529	10.6203125	0.925806451613	22.9358208955	-56.7068965517
1059	0.5295	3.54609375	-0.522580645161	21.5253731343	-59.5229885057
1060	0.53	29.01328125	0.925806451613	20.1149253731	-56.7068965517
1061	0.5305	12.03515625	2.37419354839	15.8835820896	-67.9712643678
1062	0.531	17.69453125	-0.522580645161	21.5253731343	-66.5632183908
1063	0.5315	13.45	-0.522580645161	8.83134328358	-59.5229885057
1064	0.532	13.45	2.37419354839	35.6298507463	-58.1149425287
1065	0.5325	13.45	2.37419354839	17.2940298507	-56.7068965517
1066	0.533	12.03515625	-10.6612903226	21.5253731343	-53.8908045977
1067	0.5335	16.2796875	21.2032258065	21.5253731343	-56.7068965517
1068	0.534	9.20546875	-6.31612903226	20.1149253731	-53.8908045977
1069	0.5345	14.86484375	0.925806451613	21.5253731343	-52.4827586207
1070	0.535	6.37578125	0.925806451613	21.5253731343	-62.3390804598
1071	0.5355	7.790625	2.37419354839	22.9358208955	-41.2183908046
1072	0.536	10.6203125	-0.522580645161	24.3462686567	-52.4827586207
1073	0.5365	12.03515625	0.925806451613	11.652238806	-56.7068965517
1074	0.537	10.6203125	0.925806451613	22.9358208955	-52.4827586207
1075	0.5375	10.6203125	0.925806451613	29.9880597015	-53.8908045977
1076	0.538	9.20546875	-10.6612903226	21.5253731343	-52.4827586207
1077	0.5385	10.6203125	-7.76451612903	15.8835820896	-52.4827586207
1078	0.539	12.03515625	-1.97096774194	20.1149253731	-49.6666666667
1079	0.5395	12.03515625	2.37419354839	21.5253731343	-48.2586206897
1080	0.54	-3.528125	-0.522580645161	20.1149253731	-49.6666666667
1081	0.5405	10.6203125	-0.522580645161	21.5253731343	-48.2586206897
1082	0.541	0.71640625	-0.522580645161	22.9358208955	-53.8908045977
1083	0.5415	0.71640625	-0.522580645161	14.4731343284	-51.0747126437
1084	0.542	-2.11328125	0.925806451613	29.9880597015	-45.4425287356
1085	0.5425	0.71640625	3.82258064516	24.3462686567	-49.6666666667
1086	0.543	-2.11328125	0.925806451613	17.2940298507	-48.2586206897
1087	0.5435	0.71640625	3.82258064516	21.5253731343	-46.8505747126
1088	0.544	2.13125	11.064516129	22.9358208955	-46.8505747126
1089	0.5445	3.54609375	-7.76451612903	21.5253731343	-48.2586206897
1090	0.545	4.9609375	-0.522580645161	21.5253731343	-45.4425287356
1091	0.5455	16.2796875	0.925806451613	21.5253731343	-51.0747126437
1092	0.546	3.54609375	0.925806451613	21.5253731343	-53.8908045977
1093	0.5465	10.6203125	-0.522580645161	21.5253731343	-39.8103448276
1094	0.547	16.2796875	0.925806451613	22.9358208955	-52.4827586207
1095	0.5475	14.86484375	2.37419354839	21.5253731343	-45.4425287356
1096	0.548	12.03515625	2.37419354839	20.1149253731	-46.8505747126
1097	0.5485	14.86484375	-3.41935483871	20.1149253731	-46.8505747126
1098	0.549	16.2796875	-1.97096774194	20.1149253731	-48.2586206897
1099	0.5495	14.86484375	9.61612903226	21.5253731343	-48.2586206897
1100	0.55	14.86484375	-6.31612903226	22.9358208955	-48.2586206897
1101	0.5505	7.790625	2.37419354839	21.5253731343	-45.4425287356
1102	0.551	0.71640625	0.925806451613	21.5253731343	-46.8505747126
1103	0.5515	4.9609375	-0.522580645161	22.9358208955	-49.6666666667
1104	0.552	12.03515625	0.925806451613	22.9358208955	-48.2586206897
1105	0.5525	10.6203125	-0.522580645161	20.1149253731	-49.6666666667
1106	0.553	12.03515625	0.925806451613	31.3985074627	-45.4425287356
1107	0.5535	10.6203125	0.925806451613	14.4731343284	-44.0344827586
1108	0.554	10.6203125	-0.522580645161	21.5253731343	-42.6264367816
1109	0.5545	4.9609375	13.9612903226	18.7044776119	-42.6264367816
1110	0.555	9.20546875	-6.31612903226	20.1149253731	-45.4425287356
1111	0.5555	0.71640625	0.925806451613	20.1149253731	-41.2183908046
1112	0.556	9.20546875	-0.522580645161	20.1149253731	-42.6264367816
1113	0.5565	2.13125	0.925806451613	17.2940298507	-52.4827586207
1114	0.557	0.71640625	-0.522580645161	25.7567164179	-44.0344827586
1115	0.5575	0.71640625	0.925806451613	21.5253731343	-29.9540229885
1116	0.558	-4.94296875	-1.97096774194	11.652238806	-36.9942528736
1117	0.5585	-3.528125	6.71935483871	20.1149253731	-38.4022988506
1118	0.559	-3.528125	-10.6612903226	20.1149253731	-36.9942528736
1119	0.5595	-3.528125	9.61612903226	20.1149253731	-36.9942528736
1120	0.56	-0.6984375	-1.97096774194	18.7044776119	-39.8103448276
1121	0.5605	-9.1875	2.37419354839	18.7044776119	-41.2183908046
1122	0.561	10.6203125	-0.522580645161	15.8835820896	-38.4022988506
1123	0.5615	2.13125	-0.522580645161	18.7044776119	-45.4425287356
1124	0.562	2.13125	2.37419354839	15.8835820896	-32.7701149425
1125	0.5625	4.9609375	0.925806451613	17.2940298507	-31.3620689655
1126	0.563	10.6203125	-0.522580645161	25.7567164179	-42.6264367816
1127	0.5635	12.03515625	3.82258064516	15.8835820896	-42.6264367816
1128	0.564	14.86484375	2.37419354839	14.4731343284	-45.4425287356
1129	0.5645	14.86484375	6.71935483871	17.2940298507	-39.8103448276
1130	0.565	13.45	0.925806451613	17.2940298507	-41.2183908046
1131	0.5655	12.03515625	-4.86774193548	17.2940298507	-41.2183908046
1132	0.566	12.03515625	-7.76451612903	20.1149253731	-39.8103448276
1133	0.5665	16.2796875	0.925806451613	21.5253731343	-36.9942528736
1134	0.567	17.69453125	3.82258064516	20.1149253731	-39.8103448276
1135	0.5675	3.54609375	0.925806451613	20.1149253731	-38.4022988506
1136	0.568	7.790625	2.37419354839	17.2940298507	-24.3218390805
1137	0.5685	4.9609375	2.37419354839	20.1149253731	-24.3218390805
1138	0.569	9.20546875	-0.522580645161	14.4731343284	-35.5862068966
1139	0.5695	9.20546875	-6.31612903226	20.1149253731	-36.9942528736
1140	0.57	4.9609375	-4.86774193548	14.4731343284	-34.1781609195
1141	0.5705	4.9609375	8.16774193548	21.5253731343	-36.9942528736
1142	0.571	9.20546875	-0.522580645161	18.7044776119	-34.1781609195
1143	0.5715	-4.94296875	-0.522580645161	18.7044776119	-35.5862068966
1144	0.572	16.2796875	0.925806451613	20.1149253731	-31.3620689655
1145	0.5725	10.6203125	0.925806451613	18.7044776119	-39.8103448276
1146	0.573	4.9609375	-1.97096774194	11.652238806	-34.1781609195
1147	0.5735	3.54609375	-0.522580645161	31.3985074627	-31.3620689655
1148	0.574	-0.6984375	0.925806451613	18.7044776119	-29.9540229885
1149	0.5745	-2.11328125	-0.522580645161	21.5253731343	-31.3620689655
1150	0.575	-3.528125	3.82258064516	22.9358208955	-29.9540229885
1151	0.5755	-2.11328125	-12.1096774194	22.9358208955	-29.9540229885
1152	0.576	-6.3578125	-7.76451612903	17.2940298507	-29.9540229885
1153	0.5765	0.71640625	0.925806451613	17.2940298507	-29.9540229885
1154	0.577	-12.0171875	0.925806451613	17.2940298507	-29.9540229885
1155	0.5775	-6.3578125	0.925806451613	15.8835820896	-27.1379310345
1156	0.578	3.54609375	-1.97096774194	14.4731343284	-18.6896551724
1157	0.5785	4.9609375	-0.522580645161	18.7044776119	-38.4022988506
1158	0.579	7.790625	0.925806451613	21.5253731343	-32.7701149425
1159	0.5795	9.20546875	-0.522580645161	14.4731343284	-31.3620689655
1160	0.58	12.03515625	-1.97096774194	28.5776119403	-31.3620689655
1161	0.5805	14.86484375	3.82258064516	17.2940298507	-35.5862068966
1162	0.581	16.2796875	11.064516129	18.7044776119	-35.5862068966
1163	0.5815	10.6203125	-4.86774193548	15.8835820896	-35.5862068966
1164	0.582	29.01328125	-1.97096774194	15.8835820896	-32.7701149425
1165	0.5825	2.13125	0.925806451613	17.2940298507	-45.4425287356
1166	0.583	10.6203125	-0.522580645161	14.4731343284	-20.0977011494
1167	0.5835	10.6203125	2.37419354839	17.2940298507	-45.4425287356
1168	0.584	4.9609375	0.925806451613	3.18955223881	-35.5862068966
1169	0.5845	7.790625	-0.522580645161	25.7567164179	-38.4022988506
1170	0.585	7.790625	0.925806451613	25.7567164179	-36.9942528736
1171	0.5855	4.9609375	-4.86774193548	11.652238806	-36.9942528736
1172	0.586	7.790625	0.925806451613	7.42089552239	-35.5862068966
1173	0.5865	2.13125	0.925806451613	8.83134328358	-39.8103448276
1174	0.587	-6.3578125	-1.97096774194	8.83134328358	-35.5862068966
1175	0.5875	24.76875	-1.97096774194	13.0626865672	-34.1781609195
1176	0.588	-7.77265625	-1.97096774194	14.4731343284	-45.4425287356
1177	0.5885	3.54609375	0.925806451613	11.652238806	-18.6896551724
1178	0.589	2.13125	-0.522580645161	11.652238806	-25.7298850575
1179	0.5895	2.13125	-1.97096774194	8.83134328358	-36.9942528736
1180	0.59	3.54609375	-1.97096774194	8.83134328358	-34.1781609195
1181	0.5905	-2.11328125	-1.97096774194	14.4731343284	-34.1781609195
1182	0.591	-0.6984375	-13.5580645161	17.2940298507	-34.1781609195
1183	0.5915	-6.3578125	-3.41935483871	15.8835820896	-34.1781609195
1184	0.592	-2.11328125	-1.97096774194	15.8835820896	-32.7701149425
1185	0.5925	-16.26171875	-0.522580645161	18.7044776119	-36.9942528736
1186	0.593	-2.11328125	-0.522580645161	15.8835820896	-21.5057471264
1187	0.5935	-0.6984375	-0.522580645161	17.2940298507	-39.8103448276
1188	0.594	-0.6984375	-0.522580645161	8.83134328358	-34.1781609195
1189	0.5945	0.71640625	0.925806451613	27.1671641791	-35.5862068966
1190	0.595	0.71640625	-0.522580645161	11.652238806	-38.4022988506
1191	0.5955	3.54609375	0.925806451613	14.4731343284	-34.1781609195
1192	0.596	0.71640625	5.27096774194	14.4731343284	-36.9942528736
1193	0.5965	10.6203125	-6.31612903226	17.2940298507	-35.5862068966
1194	0.597	4.9609375	0.925806451613	15.8835820896	-38.4022988506
1195	0.5975	20.52421875	0.925806451613	17.2940298507	-34.1781609195
1196	0.598	16.2796875	0.925806451613	17.2940298507	-36.9942528736
1197	0.5985	3.54609375	-1.97096774194	18.7044776119	-36.9942528736
1198	0.599	13.45	-3.41935483871	18.7044776119	-36.9942528736
1199	0.5995	9.20546875	-1.97096774194	21.5253731343	-38.4022988506
1200	0.6	13.45	-0.522580645161	14.4731343284	-38.4022988506
1201	0.6005	7.790625	2.37419354839	24.3462686567	-38.4022988506
1202	0.601	7.790625	-6.31612903226	20.1149253731	-35.5862068966
1203	0.6015	4.9609375	2.37419354839	17.2940298507	-35.5862068966
1204	0.602	4.9609375	0.925806451613	17.2940298507	-34.1781609195
1205	0.6025	0.71640625	-0.522580645161	15.8835820896	-35.5862068966
1206	0.603	-6.3578125	-1.97096774194	17.2940298507	-36.9942528736
1207	0.6035	-6.3578125	0.925806451613	17.2940298507	-18.6896551724
1208	0.604	2.13125	-1.97096774194	14.4731343284	-42.6264367816
1209	0.6045	0.71640625	-0.522580645161	15.8835820896	-41.2183908046
1210	0.605	4.9609375	-0.522580645161	8.83134328358	-35.5862068966
1211	0.6055	0.71640625	-0.522580645161	17.2940298507	-32.7701149425
1212	0.606	4.9609375	3.82258064516	4.6	-34.1781609195
1213	0.6065	-0.6984375	-10.6612903226	13.0626865672	-32.7701149425
1214	0.607	2.13125	-3.41935483871	13.0626865672	-32.7701149425
1215	0.6075	-13.43203125	-0.522580645161	14.4731343284	-35.5862068966
1216	0.608	10.6203125	-1.97096774194	14.4731343284	-34.1781609195
1217	0.6085	-6.3578125	-0.522580645161	14.4731343284	-34.1781609195
1218	0.609	-7.77265625	-1.97096774194	14.4731343284	-31.3620689655
1219	0.6095	-6.3578125	0.925806451613	4.6	-29.9540229885
1220	0.61	-4.94296875	0.925806451613	15.8835820896	-34.1781609195
1221	0.6105	-3.528125	-0.522580645161	3.18955223881	-42.6264367816
1222	0.611	-2.11328125	-1.97096774194	8.83134328358	-32.7701149425
1223	0.6115	-0.6984375	-10.6612903226	11.652238806	-34.1781609195
1224	0.612	0.71640625	13.9612903226	11.652238806	-36.9942528736
1225	0.6125	0.71640625	-1.97096774194	15.8835820896	-35.5862068966
1226	0.613	16.2796875	-1.97096774194	11.652238806	-32.7701149425
1227	0.6135	17.69453125	-0.522580645161	13.0626865672	-34.1781609195
1228	0.614	17.69453125	0.925806451613	13.0626865672	-32.7701149425
1229	0.6145	10.6203125	-0.522580645161	15.8835820896	-29.9540229885
1230	0.615	6.37578125	-1.97096774194	4.6	-35.5862068966
1231	0.6155	10.6203125	0.925806451613	25.7567164179	-34.1781609195
1232	0.616	10.6203125	-4.86774193548	15.8835820896	-32.7701149425
1233	0.6165	9.20546875	2.37419354839	11.652238806	-34.1781609195
1234	0.617	7.790625	3.82258064516	17.2940298507	-34.1781609195
1235	0.6175	6.37578125	0.925806451613	15.8835820896	-32.7701149425
1236	0.618	7.790625	-4.86774193548	15.8835820896	-34.1781609195
1237	0.6185	-2.11328125	-1.97096774194	15.8835820896	-35.5862068966
1238	0.619	21.9390625	-3.41935483871	15.8835820896	-34.1781609195
1239	0.6195	4.9609375	0.925806451613	14.4731343284	-45.4425287356
1240	0.62	3.54609375	-0.522580645161	18.7044776119	-39.8103448276
1241	0.6205	3.54609375	-1.97096774194	-1.04179104478	-35.5862068966
1242	0.621	2.13125	-0.522580645161	25.7567164179	-34.1781609195
1243	0.6215	3.54609375	2.37419354839	6.01044776119	-35.5862068966
1244	0.622	0.71640625	-16.4548387097	14.4731343284	-34.1781609195
1245	0.6225	0.71640625	11.064516129	13.0626865672	-32.7701149425
1246	0.623	-0.6984375	-6.31612903226	15.8835820896	-34.1781609195
1247	0.6235	2.13125	-3.41935483871	14.4731343284	-32.7701149425
1248	0.624	-6.3578125	0.925806451613	14.4731343284	-34.1781609195
1249	0.6245	-3.528125	-0.522580645161	15.8835820896	-29.9540229885
1250	0.625	-12.0171875	-1.97096774194	14.4731343284	-34.1781609195
1251	0.6255	-7.77265625	-3.41935483871	15.8835820896	-22.9137931034
1252	0.626	-9.1875	-3.41935483871	15.8835820896	-39.8103448276
1253	0.6265	-4.94296875	-1.97096774194	4.6	-29.9540229885
1254	0.627	-4.94296875	-4.86774193548	13.0626865672	-34.1781609195
1255	0.6275	-0.6984375	-0.522580645161	8.83134328358	-29.9540229885
1256	0.628	-2.11328125	-10.6612903226	8.83134328358	-34.1781609195
1257	0.6285	2.13125	16.8580645161	7.42089552239	-36.9942528736
1258	0.629	4.9609375	-1.97096774194	6.01044776119	-34.1781609195
1259	0.6295	-3.528125	-3.41935483871	6.01044776119	-39.8103448276
1260	0.63	2.13125	-1.97096774194	6.01044776119	-35.5862068966
1261	0.6305	12.03515625	-1.97096774194	4.6	-20.0977011494
1262	0.631	12.03515625	-1.97096774194	11.652238806	-48.2586206897
1263	0.6315	12.03515625	-1.97096774194	-1.04179104478	-39.8103448276
1264	0.632	10.6203125	-3.41935483871	11.652238806	-42.6264367816
1265	0.6325	10.6203125	-7.76451612903	14.4731343284	-38.4022988506
1266	0.633	10.6203125	-1.97096774194	11.652238806	-35.5862068966
1267	0.6335	4.9609375	-0.522580645161	17.2940298507	-39.8103448276
1268	0.634	3.54609375	-6.31612903226	15.8835820896	-36.9942528736
1269	0.6345	-2.11328125	-0.522580645161	14.4731343284	-36.9942528736
1270	0.635	-0.6984375	-3.41935483871	17.2940298507	-39.8103448276
1271	0.6355	0.71640625	-1.97096774194	15.8835820896	-22.9137931034
1272	0.636	2.13125	0.925806451613	14.4731343284	-44.0344827586
1273	0.6365	0.71640625	-0.522580645161	10.2417910448	-34.1781609195
1274	0.637	0.71640625	-0.522580645161	31.3985074627	-35.5862068966
1275	0.6375	-0.6984375	-1.97096774194	4.6	-35.5862068966
1276	0.638	0.71640625	-10.6612903226	14.4731343284	-36.9942528736
1277	0.6385	-0.6984375	18.3064516129	11.652238806	-36.9942528736
1278	0.639	-2.11328125	18.3064516129	13.0626865672	-38.4022988506
1279	0.6395	2.13125	-7.76451612903	13.0626865672	-38.4022988506
1280	0.64	-16.26171875	-1.97096774194	14.4731343284	-36.9942528736
1281	0.6405	12.03515625	-0.522580645161	6.01044776119	-34.1781609195
1282	0.641	-10.60234375	-0.522580645161	11.652238806	-36.9942528736
1283	0.6415	-7.77265625	-1.97096774194	4.6	-35.5862068966
1284	0.642	-4.94296875	-1.97096774194	20.1149253731	-34.1781609195
1285	0.6425	-6.3578125	-0.522580645161	14.4731343284	-31.3620689655
1286	0.643	-7.77265625	-1.97096774194	7.42089552239	-32.7701149425
1287	0.6435	-4.94296875	-4.86774193548	8.83134328358	-38.4022988506
1288	0.644	-3.528125	-4.86774193548	11.652238806	-39.8103448276
1289	0.6445	-2.11328125	-7.76451612903	11.652238806	-41.2183908046
1290	0.645	-2.11328125	-0.522580645161	11.652238806	-42.6264367816
1291	0.6455	-0.6984375	-3.41935483871	11.652238806	-44.0344827586
1292	0.646	17.69453125	-3.41935483871	13.0626865672	-39.8103448276
1293	0.6465	-2.11328125	-0.522580645161	13.0626865672	-48.2586206897
1294	0.647	7.790625	-1.97096774194	8.83134328358	-28.5459770115
1295	0.6475	7.790625	-1.97096774194	3.18955223881	-49.6666666667
1296	0.648	10.6203125	-0.522580645161	24.3462686567	-39.8103448276
1297	0.6485	9.20546875	0.925806451613	1.77910447761	-38.4022988506
1298	0.649	9.20546875	-7.76451612903	13.0626865672	-41.2183908046
1299	0.6495	7.790625	13.9612903226	8.83134328358	-41.2183908046
1300	0.65	9.20546875	-10.6612903226	13.0626865672	-44.0344827586
1301	0.6505	4.9609375	-0.522580645161	7.42089552239	-41.2183908046
1302	0.651	20.52421875	-3.41935483871	11.652238806	-39.8103448276
1303	0.6515	-7.77265625	-3.41935483871	11.652238806	-49.6666666667
1304	0.652	-0.6984375	-0.522580645161	14.4731343284	-36.9942528736
1305	0.6525	0.71640625	-1.97096774194	15.8835820896	-39.8103448276
1306	0.653	0.71640625	-1.97096774194	11.652238806	-39.8103448276
1307	0.6535	0.71640625	-4.86774193548	13.0626865672	-39.8103448276
1308	0.654	0.71640625	-1.97096774194	14.4731343284	-36.9942528736
1309	0.6545	2.13125	-9.21290322581	14.4731343284	-41.2183908046
1310	0.655	2.13125	0.925806451613	15.8835820896	-41.2183908046
1311	0.6555	3.54609375	5.27096774194	17.2940298507	-36.9942528736
1312	0.656	2.13125	-1.97096774194	15.8835820896	-39.8103448276
1313	0.6565	-7.77265625	-0.522580645161	18.7044776119	-39.8103448276
1314	0.657	14.86484375	-1.97096774194	18.7044776119	-34.1781609195
1315	0.6575	-7.77265625	0.925806451613	18.7044776119	-44.0344827586
1316	0.658	-6.3578125	-1.97096774194	7.42089552239	-35.5862068966
1317	0.6585	-7.77265625	-1.97096774194	29.9880597015	-36.9942528736
1318	0.659	-6.3578125	0.925806451613	7.42089552239	-36.9942528736
1319	0.6595	-7.77265625	-3.41935483871	14.4731343284	-38.4022988506
1320	0.66	-3.528125	18.3064516129	15.8835820896	-39.8103448276
1321	0.6605	-6.3578125	-7.76451612903	15.8835820896	-39.8103448276
1322	0.661	2.13125	-0.522580645161	18.7044776119	-41.2183908046
1323	0.6615	-12.0171875	-1.97096774194	15.8835820896	-39.8103448276
1324	0.662	19.109375	-1.97096774194	17.2940298507	-39.8103448276
1325	0.6625	0.71640625	-0.522580645161	13.0626865672	-49.6666666667
1326	0.663	7.790625	0.925806451613	15.8835820896	-44.0344827586
1327	0.6635	10.6203125	-3.41935483871	13.0626865672	-35.5862068966
1328	0.664	12.03515625	-0.522580645161	11.652238806	-39.8103448276
1329	0.6645	9.20546875	-1.97096774194	13.0626865672	-36.9942528736
1330	0.665	4.9609375	-4.86774193548	15.8835820896	-39.8103448276
1331	0.6655	10.6203125	-7.76451612903	14.4731343284	-42.6264367816
1332	0.666	10.6203125	11.064516129	14.4731343284	-42.6264367816
1333	0.6665	0.71640625	-0.522580645161	13.0626865672	-39.8103448276
1334	0.667	0.71640625	-0.522580645161	11.652238806	-42.6264367816
1335	0.6675	16.2796875	-0.522580645161	13.0626865672	-42.6264367816
1336	0.668	-6.3578125	-0.522580645161	14.4731343284	-51.0747126437
1337	0.6685	0.71640625	-0.522580645161	11.652238806	-27.1379310345
1338	0.669	2.13125	-0.522580645161	22.9358208955	-41.2183908046
1339	0.6695	0.71640625	-0.522580645161	1.77910447761	-39.8103448276
1340	0.67	0.71640625	-1.97096774194	14.4731343284	-39.8103448276
1341	0.6705	0.71640625	-0.522580645161	11.652238806	-42.6264367816
1342	0.671	-2.11328125	-6.31612903226	13.0626865672	-44.0344827586
1343	0.6715	-0.6984375	-0.522580645161	11.652238806	-41.2183908046
1344	0.672	2.13125	-9.21290322581	13.0626865672	-44.0344827586
1345	0.6725	-13.43203125	-0.522580645161	15.8835820896	-45.4425287356
1346	0.673	-2.11328125	0.925806451613	13.0626865672	-39.8103448276
1347	0.6735	-0.6984375	-0.522580645161	15.8835820896	-48.2586206897
1348	0.674	-3.528125	-0.522580645161	0.368656716418	-42.6264367816
1349	0.6745	-4.94296875	-0.522580645161	25.7567164179	-41.2183908046
1350	0.675	-4.94296875	0.925806451613	11.652238806	-39.8103448276
1351	0.6755	-6.3578125	-10.6612903226	15.8835820896	-41.2183908046
1352	0.676	-2.11328125	12.5129032258	14.4731343284	-39.8103448276
1353	0.6765	-4.94296875	-4.86774193548	14.4731343284	-39.8103448276
1354	0.677	-0.6984375	-3.41935483871	13.0626865672	-39.8103448276
1355	0.6775	-7.77265625	-0.522580645161	13.0626865672	-41.2183908046
1356	0.678	14.86484375	-1.97096774194	14.4731343284	-34.1781609195
1357	0.6785	2.13125	-0.522580645161	17.2940298507	-34.1781609195
1358	0.679	2.13125	-1.97096774194	8.83134328358	-42.6264367816
1359	0.6795	9.20546875	-4.86774193548	14.4731343284	-41.2183908046
1360	0.68	7.790625	-1.97096774194	14.4731343284	-48.2586206897
1361	0.6805	12.03515625	0.925806451613	4.6	-42.6264367816
1362	0.681	10.6203125	-10.6612903226	14.4731343284	-45.4425287356
1363	0.6815	7.790625	18.3064516129	14.4731343284	-44.0344827586
1364	0.682	12.03515625	-15.0064516129	15.8835820896	-45.4425287356
1365	0.6825	4.9609375	-3.41935483871	17.2940298507	-45.4425287356
1366	0.683	23.35390625	-3.41935483871	14.4731343284	-41.2183908046
1367	0.6835	2.13125	-1.97096774194	18.7044776119	-48.2586206897
1368	0.684	0.71640625	-3.41935483871	14.4731343284	-48.2586206897
1369	0.6845	3.54609375	-1.97096774194	14.4731343284	-39.8103448276
1370	0.685	2.13125	-0.522580645161	4.6	-49.6666666667
1371	0.6855	2.13125	0.925806451613	31.3985074627	-41.2183908046
1372	0.686	3.54609375	-1.97096774194	7.42089552239	-42.6264367816
1373	0.6865	4.9609375	-10.6612903226	14.4731343284	-42.6264367816
1374	0.687	3.54609375	0.925806451613	17.2940298507	-42.6264367816
1375	0.6875	3.54609375	6.71935483871	15.8835820896	-42.6264367816
1376	0.688	3.54609375	-9.21290322581	17.2940298507	-44.0344827586
1377	0.6885	0.71640625	-3.41935483871	14.4731343284	-41.2183908046
1378	0.689	-4.94296875	0.925806451613	17.2940298507	-44.0344827586
1379	0.6895	3.54609375	-3.41935483871	11.652238806	-25.7298850575
1380	0.69	-0.6984375	-3.41935483871	17.2940298507	-45.4425287356
1381	0.6905	-2.11328125	-1.97096774194	6.01044776119	-35.5862068966
1382	0.691	-3.528125	-3.41935483871	31.3985074627	-39.8103448276
1383	0.6915	-4.94296875	-0.522580645161	6.01044776119	-36.9942528736
1384	0.692	-2.11328125	-3.41935483871	15.8835820896	-41.2183908046
1385	0.6925	-2.11328125	2.37419354839	17.2940298507	-41.2183908046
1386	0.693	-0.6984375	-9.21290322581	18.7044776119	-39.8103448276
1387	0.6935	-2.11328125	-10.6612903226	15.8835820896	-39.8103448276
1388	0.694	14.86484375	-0.522580645161	15.8835820896	-36.9942528736
1389	0.6945	-3.528125	-3.41935483871	15.8835820896	-46.8505747126
1390	0.695	-0.6984375	-1.97096774194	14.4731343284	-29.9540229885
1391	0.6955	4.9609375	-1.97096774194	18.7044776119	-35.5862068966
1392	0.696	9.20546875	-1.97096774194	11.652238806	-42.6264367816
1393	0.6965	9.20546875	-1.97096774194	22.9358208955	-38.4022988506
1394	0.697	13.45	-0.522580645161	17.2940298507	-36.9942528736
1395	0.6975	12.03515625	-6.31612903226	20.1149253731	-41.2183908046
1396	0.698	9.20546875	-10.6612903226	15.8835820896	-44.0344827586
1397	0.6985	9.20546875	9.61612903226	20.1149253731	-46.8505747126
1398	0.699	10.6203125	-1.97096774194	21.5253731343	-41.2183908046
1399	0.6995	-4.94296875	-0.522580645161	18.7044776119	-42.6264367816
1400	0.7	14.86484375	0.925806451613	21.5253731343	-38.4022988506
1401	0.7005	0.71640625	-0.522580645161	20.1149253731	-45.4425287356
1402	0.701	3.54609375	0.925806451613	22.9358208955	-35.5862068966
1403	0.7015	3.54609375	0.925806451613	18.7044776119	-35.5862068966
1404	0.702	0.71640625	-1.97096774194	20.1149253731	-39.8103448276
1405	0.7025	2.13125	2.37419354839	14.4731343284	-39.8103448276
1406	0.703	0.71640625	-3.41935483871	27.1671641791	-39.8103448276
1407	0.7035	0.71640625	5.27096774194	20.1149253731	-39.8103448276
1408	0.704	4.9609375	-4.86774193548	18.7044776119	-39.8103448276
1409	0.7045	-3.528125	-0.522580645161	20.1149253731	-39.8103448276
1410	0.705	4.9609375	-0.522580645161	21.5253731343	-35.5862068966
1411	0.7055	12.03515625	-0.522580645161	20.1149253731	-39.8103448276
1412	0.706	-2.11328125	-1.97096774194	17.2940298507	-42.6264367816
1413	0.7065	0.71640625	-0.522580645161	18.7044776119	-32.7701149425
1414	0.707	-3.528125	0.925806451613	29.9880597015	-35.5862068966
1415	0.7075	-3.528125	-0.522580645161	11.652238806	-31.3620689655
1416	0.708	-6.3578125	-0.522580645161	31.3985074627	-32.7701149425
1417	0.7085	-6.3578125	-3.41935483871	17.2940298507	-34.1781609195
1418	0.709	-6.3578125	-10.6612903226	18.7044776119	-34.1781609195
1419	0.7095	-7.77265625	-0.522580645161	20.1149253731	-32.7701149425
1420	0.71	-4.94296875	-1.97096774194	17.2940298507	-32.7701149425
1421	0.7105	-10.60234375	-1.97096774194	17.2940298507	-38.4022988506
1422	0.711	-0.6984375	-1.97096774194	14.4731343284	-22.9137931034
1423	0.7115	0.71640625	-0.522580645161	17.2940298507	-39.8103448276
1424	0.712	4.9609375	-0.522580645161	14.4731343284	-18.6896551724
1425	0.7125	3.54609375	-1.97096774194	0.368656716418	-32.7701149425
1426	0.713	9.20546875	-3.41935483871	14.4731343284	-34.1781609195
1427	0.7135	9.20546875	0.925806451613	13.0626865672	-34.1781609195
1428	0.714	10.6203125	-10.6612903226	14.4731343284	-35.5862068966
1429	0.7145	9.20546875	-0.522580645161	14.4731343284	-31.3620689655
1430	0.715	4.9609375	-1.97096774194	15.8835820896	-34.1781609195
1431	0.7155	2.13125	-0.522580645161	15.8835820896	-31.3620689655
1432	0.716	23.35390625	-0.522580645161	17.2940298507	-29.9540229885
1433	0.7165	7.790625	-3.41935483871	20.1149253731	-39.8103448276
1434	0.717	4.9609375	-1.97096774194	7.42089552239	-28.5459770115
1435	0.7175	3.54609375	-0.522580645161	32.8089552239	-29.9540229885
1436	0.718	3.54609375	-1.97096774194	8.83134328358	-31.3620689655
1437	0.7185	3.54609375	-3.41935483871	31.3985074627	-31.3620689655
1438	0.719	7.790625	15.4096774194	21.5253731343	-28.5459770115
1439	0.7195	10.6203125	-9.21290322581	20.1149253731	-28.5459770115
1440	0.72	0.71640625	-1.97096774194	20.1149253731	-28.5459770115
1441	0.7205	20.52421875	-1.97096774194	15.8835820896	-24.3218390805
1442	0.721	-3.528125	-1.97096774194	21.5253731343	-32.7701149425
1443	0.7215	0.71640625	-3.41935483871	14.4731343284	-14.4655172414
1444	0.722	2.13125	-1.97096774194	18.7044776119	-27.1379310345
1445	0.7225	2.13125	-3.41935483871	4.6	-28.5459770115
1446	0.723	0.71640625	-0.522580645161	15.8835820896	-25.7298850575
1447	0.7235	-0.6984375	3.82258064516	13.0626865672	-24.3218390805
1448	0.724	-4.94296875	2.37419354839	20.1149253731	-24.3218390805
1449	0.7245	-7.77265625	-4.86774193548	17.2940298507	-22.9137931034
1450	0.725	-7.77265625	-4.86774193548	20.1149253731	-22.9137931034
1451	0.7255	-0.6984375	-4.86774193548	18.7044776119	-22.9137931034
1452	0.726	12.03515625	-3.41935483871	20.1149253731	-21.5057471264
1453	0.7265	-7.77265625	-1.97096774194	18.7044776119	-34.1781609195
1454	0.727	-6.3578125	-0.522580645161	15.8835820896	-8.83333333333
1455	0.7275	2.13125	-1.97096774194	20.1149253731	-28.5459770115
1456	0.728	0.71640625	-3.41935483871	22.9358208955	-29.9540229885
1457	0.7285	3.54609375	0.925806451613	6.01044776119	-25.7298850575
1458	0.729	2.13125	-4.86774193548	17.2940298507	-24.3218390805
1459	0.7295	10.6203125	-0.522580645161	14.4731343284	-25.7298850575
1460	0.73	7.790625	-10.6612903226	14.4731343284	-24.3218390805
1461	0.7305	9.20546875	-0.522580645161	14.4731343284	-27.1379310345
1462	0.731	13.45	-1.97096774194	15.8835820896	-25.7298850575
1463	0.7315	0.71640625	-0.522580645161	15.8835820896	-25.7298850575
1464	0.732	0.71640625	-0.522580645161	15.8835820896	-36.9942528736
1465	0.7325	12.03515625	-0.522580645161	13.0626865672	-13.0574712644
1466	0.733	7.790625	-1.97096774194	17.2940298507	-29.9540229885
1467	0.7335	7.790625	-1.97096774194	22.9358208955	-28.5459770115
1468	0.734	7.790625	-1.97096774194	21.5253731343	-21.5057471264
1469	0.7345	7.790625	0.925806451613	7.42089552239	-18.6896551724
1470	0.735	9.20546875	-7.76451612903	15.8835820896	-21.5057471264
1471	0.7355	7.790625	5.27096774194	15.8835820896	-18.6896551724
1472	0.736	3.54609375	-6.31612903226	14.4731343284	-18.6896551724
1473	0.7365	-2.11328125	0.925806451613	14.4731343284	-17.2816091954
1474	0.737	-0.6984375	-0.522580645161	13.0626865672	-21.5057471264
1475	0.7375	14.86484375	-0.522580645161	14.4731343284	-17.2816091954
1476	0.738	4.9609375	-1.97096774194	8.83134328358	-24.3218390805
1477	0.7385	0.71640625	-1.97096774194	6.01044776119	-14.4655172414
1478	0.739	0.71640625	-1.97096774194	24.3462686567	-15.8735632184
1479	0.7395	2.13125	-1.97096774194	3.18955223881	-13.0574712644
1480	0.74	-2.11328125	-3.41935483871	13.0626865672	-13.0574712644
1481	0.7405	0.71640625	-1.97096774194	11.652238806	-13.0574712644
1482	0.741	-0.6984375	-9.21290322581	13.0626865672	-11.6494252874
1483	0.7415	-7.77265625	-3.41935483871	11.652238806	-7.42528735632
1484	0.742	-12.0171875	-0.522580645161	7.42089552239	-11.6494252874
1485	0.7425	13.45	-3.41935483871	8.83134328358	-7.42528735632
1486	0.743	-14.846875	-0.522580645161	8.83134328358	-21.5057471264
1487	0.7435	-2.11328125	0.925806451613	6.01044776119	6.65517241379
1488	0.744	-2.11328125	-0.522580645161	-3.86268656716	-13.0574712644
1489	0.7445	-2.11328125	0.925806451613	22.9358208955	-10.2413793103
1490	0.745	-2.11328125	-0.522580645161	-3.86268656716	-8.83333333333
1491	0.7455	-0.6984375	-0.522580645161	4.6	-7.42528735632
1492	0.746	2.13125	-12.1096774194	8.83134328358	-8.83333333333
1493	0.7465	7.790625	-12.1096774194	6.01044776119	-7.42528735632
1494	0.747	7.790625	-1.97096774194	4.6	-7.42528735632
1495	0.7475	0.71640625	2.37419354839	7.42089552239	-8.83333333333
1496	0.748	26.18359375	-1.97096774194	6.01044776119	-4.6091954023
1497	0.7485	0.71640625	-1.97096774194	6.01044776119	-10.2413793103
1498	0.749	10.6203125	-1.97096774194	4.6	6.65517241379
1499	0.7495	7.790625	-1.97096774194	7.42089552239	-0.385057471264
1500	0.75	4.9609375	-1.97096774194	11.652238806	-0.385057471264
1501	0.7505	4.9609375	-0.522580645161	4.6	-1.79310344828
1502	0.751	3.54609375	-0.522580645161	3.18955223881	-1.79310344828
1503	0.7515	0.71640625	-10.6612903226	7.42089552239	-1.79310344828
1504	0.752	-0.6984375	-3.41935483871	6.01044776119	-0.385057471264
1505	0.7525	2.13125	-0.522580645161	6.01044776119	5.24712643678
1506	0.753	-13.43203125	-0.522580645161	7.42089552239	-0.385057471264
1507	0.7535	-2.11328125	-0.522580645161	6.01044776119	3.83908045977
1508	0.754	0.71640625	-1.97096774194	4.6	-3.20114942529
1509	0.7545	0.71640625	-4.86774193548	0.368656716418	-3.20114942529
1510	0.755	-4.94296875	-0.522580645161	3.18955223881	5.24712643678
1511	0.7555	-3.528125	-1.97096774194	3.18955223881	5.24712643678
1512	0.756	-4.94296875	-7.76451612903	4.6	6.65517241379
1513	0.7565	-4.94296875	-0.522580645161	6.01044776119	6.65517241379
1514	0.757	-9.1875	0.925806451613	4.6	6.65517241379
1515	0.7575	-4.94296875	-4.86774193548	1.77910447761	8.0632183908
1516	0.758	7.790625	-4.86774193548	1.77910447761	8.0632183908
1517	0.7585	-14.846875	-0.522580645161	4.6	-0.385057471264
1518	0.759	-10.60234375	-3.41935483871	0.368656716418	22.1436781609
1519	0.7595	-9.1875	-0.522580645161	7.42089552239	-0.385057471264
1520	0.76	-6.3578125	-1.97096774194	15.8835820896	8.0632183908
1521	0.7605	-7.77265625	-4.86774193548	-3.86268656716	5.24712643678
1522	0.761	-3.528125	-1.97096774194	-1.04179104478	6.65517241379
1523	0.7615	-6.3578125	-12.1096774194	1.77910447761	6.65517241379
1524	0.762	-2.11328125	11.064516129	0.368656716418	5.24712643678
1525	0.7625	2.13125	-3.41935483871	0.368656716418	5.24712643678
1526	0.763	-9.1875	-1.97096774194	-1.04179104478	3.83908045977
1527	0.7635	-3.528125	-1.97096774194	-1.04179104478	3.83908045977
1528	0.764	4.9609375	-3.41935483871	-1.04179104478	5.24712643678
1529	0.7645	4.9609375	-4.86774193548	-1.04179104478	16.5114942529
1530	0.765	3.54609375	-0.522580645161	-3.86268656716	-1.79310344828
1531	0.7655	9.20546875	-1.97096774194	-2.45223880597	6.65517241379
1532	0.766	7.790625	-0.522580645161	0.368656716418	8.0632183908
1533	0.7665	7.790625	-13.5580645161	-2.45223880597	8.0632183908
1534	0.767	4.9609375	8.16774193548	-3.86268656716	8.0632183908
1535	0.7675	2.13125	-10.6612903226	-2.45223880597	12.2873563218
1536	0.768	7.790625	-4.86774193548	-1.04179104478	13.6954022989
1537	0.7685	21.9390625	-1.97096774194	0.368656716418	15.1034482759
1538	0.769	-7.77265625	-3.41935483871	-1.04179104478	3.83908045977
1539	0.7695	2.13125	-1.97096774194	-1.04179104478	27.775862069
1540	0.77	0.71640625	-1.97096774194	-1.04179104478	5.24712643678
1541	0.7705	0.71640625	-1.97096774194	-3.86268656716	8.0632183908
1542	0.771	0.71640625	-3.41935483871	-6.68358208955	16.5114942529
1543	0.7715	-2.11328125	-0.522580645161	-3.86268656716	15.1034482759
1544	0.772	0.71640625	-9.21290322581	0.368656716418	17.9195402299
1545	0.7725	4.9609375	-3.41935483871	-3.86268656716	16.5114942529
1546	0.773	3.54609375	-1.97096774194	-2.45223880597	19.3275862069
1547	0.7735	-13.43203125	-3.41935483871	-1.04179104478	16.5114942529
1548	0.774	12.03515625	-1.97096774194	-3.86268656716	20.7356321839
1549	0.7745	-7.77265625	-1.97096774194	-3.86268656716	19.3275862069
1550	0.775	-7.77265625	-3.41935483871	3.18955223881	13.6954022989
1551	0.7755	-10.60234375	-4.86774193548	-12.3253731343	19.3275862069
1552	0.776	-7.77265625	-1.97096774194	-9.50447761194	20.7356321839
1553	0.7765	-7.77265625	3.82258064516	-5.27313432836	20.7356321839
1554	0.777	-7.77265625	0.925806451613	-3.86268656716	19.3275862069
1555	0.7775	-6.3578125	-9.21290322581	-2.45223880597	16.5114942529
1556	0.778	-4.94296875	-0.522580645161	-5.27313432836	13.6954022989
1557	0.7785	-6.3578125	-3.41935483871	-2.45223880597	17.9195402299
1558	0.779	-3.528125	-1.97096774194	-3.86268656716	16.5114942529
1559	0.7795	7.790625	0.925806451613	-6.68358208955	13.6954022989
1560	0.78	-0.6984375	-0.522580645161	-3.86268656716	5.24712643678
1561	0.7805	4.9609375	0.925806451613	-15.1462686567	8.0632183908
1562	0.781	4.9609375	-1.97096774194	6.01044776119	12.2873563218
1563	0.7815	3.54609375	-1.97096774194	-12.3253731343	12.2873563218
1564	0.782	3.54609375	-12.1096774194	-8.09402985075	13.6954022989
1565	0.7825	3.54609375	15.4096774194	-9.50447761194	15.1034482759
1566	0.783	0.71640625	-4.86774193548	-8.09402985075	15.1034482759
1567	0.7835	-0.6984375	-3.41935483871	-8.09402985075	13.6954022989
1568	0.784	3.54609375	0.925806451613	-6.68358208955	17.9195402299
1569	0.7845	2.13125	-1.97096774194	-6.68358208955	19.3275862069
1570	0.785	-6.3578125	-0.522580645161	-8.09402985075	19.3275862069
1571	0.7855	2.13125	-1.97096774194	-8.09402985075	16.5114942529
1572	0.786	-0.6984375	-1.97096774194	-8.09402985075	27.775862069
1573	0.7865	-0.6984375	-0.522580645161	1.77910447761	17.9195402299
1574	0.787	-3.528125	-0.522580645161	-10.9149253731	17.9195402299
1575	0.7875	-0.6984375	-1.97096774194	-6.68358208955	19.3275862069
1576	0.788	-4.94296875	-4.86774193548	-6.68358208955	19.3275862069
1577	0.7885	-4.94296875	8.16774193548	-8.09402985075	19.3275862069
1578	0.789	-4.94296875	-7.76451612903	-6.68358208955	16.5114942529
1579	0.7895	-7.77265625	0.925806451613	-6.68358208955	17.9195402299
1580	0.79	-12.0171875	0.925806451613	-6.68358208955	19.3275862069
1581	0.7905	-14.846875	-3.41935483871	-6.68358208955	20.7356321839
1582	0.791	-10.60234375	-4.86774193548	-6.68358208955	30.591954023
1583	0.7915	-12.0171875	0.925806451613	-10.9149253731	19.3275862069
1584	0.792	-14.846875	-1.97096774194	-1.04179104478	22.1436781609
1585	0.7925	-14.846875	2.37419354839	-5.27313432836	22.1436781609
1586	0.793	-12.0171875	-3.41935483871	-3.86268656716	20.7356321839
1587	0.7935	-12.0171875	-6.31612903226	-9.50447761194	19.3275862069
1588	0.794	-7.77265625	-0.522580645161	-8.09402985075	17.9195402299
1589	0.7945	-7.77265625	0.925806451613	-5.27313432836	16.5114942529
1590	0.795	4.9609375	-0.522580645161	-10.9149253731	16.5114942529
1591	0.7955	-2.11328125	-1.97096774194	-6.68358208955	15.1034482759
1592	0.796	2.13125	-0.522580645161	-6.68358208955	9.47126436782
1593	0.7965	0.71640625	0.925806451613	-8.09402985075	3.83908045977
1594	0.797	2.13125	-4.86774193548	-12.3253731343	5.24712643678
1595	0.7975	3.54609375	-1.97096774194	-6.68358208955	22.1436781609
1596	0.798	3.54609375	2.37419354839	-3.86268656716	9.47126436782
1597	0.7985	3.54609375	0.925806451613	-8.09402985075	12.2873563218
1598	0.799	3.54609375	-10.6612903226	-8.09402985075	12.2873563218
1599	0.7995	4.9609375	9.61612903226	-6.68358208955	13.6954022989
1600	0.8	-10.60234375	-0.522580645161	-8.09402985075	9.47126436782
1601	0.8005	12.03515625	-3.41935483871	-5.27313432836	15.1034482759
1602	0.801	-4.94296875	-3.41935483871	-8.09402985075	13.6954022989
1603	0.8015	-6.3578125	0.925806451613	-5.27313432836	1.02298850575
1604	0.802	-0.6984375	-0.522580645161	-17.9671641791	5.24712643678
1605	0.8025	-4.94296875	-0.522580645161	3.18955223881	9.47126436782
1606	0.803	-4.94296875	-0.522580645161	-8.09402985075	15.1034482759
1607	0.8035	-4.94296875	-1.97096774194	-9.50447761194	17.9195402299
1608	0.804	-0.6984375	0.925806451613	-10.9149253731	16.5114942529
1609	0.8045	-3.528125	-15.0064516129	-9.50447761194	17.9195402299
1610	0.805	0.71640625	-1.97096774194	-10.9149253731	20.7356321839
1611	0.8055	-3.528125	-1.97096774194	-8.09402985075	20.7356321839
1612	0.806	-12.0171875	0.925806451613	-6.68358208955	19.3275862069
1613	0.8065	-4.94296875	0.925806451613	-5.27313432836	22.1436781609
1614	0.807	-4.94296875	0.925806451613	-10.9149253731	33.408045977
1615	0.8075	-7.77265625	-3.41935483871	-6.68358208955	15.1034482759
1616	0.808	-10.60234375	-3.41935483871	-17.9671641791	17.9195402299
1617	0.8085	-12.0171875	-4.86774193548	-10.9149253731	20.7356321839
1618	0.809	-10.60234375	3.82258064516	-6.68358208955	17.9195402299
1619	0.8095	-7.77265625	-10.6612903226	-9.50447761194	16.5114942529
1620	0.81	-4.94296875	16.8580645161	-8.09402985075	15.1034482759
1621	0.8105	-6.3578125	-10.6612903226	-9.50447761194	17.9195402299
1622	0.811	-16.26171875	-3.41935483871	-9.50447761194	20.7356321839
1623	0.8115	16.2796875	-0.522580645161	-10.9149253731	22.1436781609
1624	0.812	-9.1875	0.925806451613	-9.50447761194	2.43103448276
1625	0.8125	0.71640625	-0.522580645161	-12.3253731343	29.183908046
1626	0.813	0.71640625	-0.522580645161	4.6	12.2873563218
1627	0.8135	3.54609375	-0.522580645161	3.18955223881	10.8793103448
1628	0.814	3.54609375	-1.97096774194	-20.7880597015	13.6954022989
1629	0.8145	7.790625	-1.97096774194	4.6	13.6954022989
1630	0.815	7.790625	13.9612903226	-10.9149253731	9.47126436782
1631	0.8155	4.9609375	-7.76451612903	-10.9149253731	12.2873563218
1632	0.816	4.9609375	-0.522580645161	-8.09402985075	12.2873563218
1633	0.8165	12.03515625	0.925806451613	-8.09402985075	6.65517241379
1634	0.817	-3.528125	-1.97096774194	-6.68358208955	9.47126436782
1635	0.8175	2.13125	-1.97096774194	-5.27313432836	16.5114942529
1636	0.818	2.13125	-3.41935483871	-5.27313432836	16.5114942529
1637	0.8185	2.13125	0.925806451613	-13.7358208955	5.24712643678
1638	0.819	3.54609375	-1.97096774194	-9.50447761194	13.6954022989
1639	0.8195	-3.528125	2.37419354839	-8.09402985075	8.0632183908
1640	0.82	0.71640625	-12.1096774194	-9.50447761194	8.0632183908
1641	0.8205	3.54609375	6.71935483871	-8.09402985075	13.6954022989
1642	0.821	0.71640625	2.37419354839	-8.09402985075	13.6954022989
1643	0.8215	-7.77265625	-4.86774193548	-8.09402985075	16.5114942529
1644	0.822	4.9609375	-0.522580645161	-8.09402985075	15.1034482759
1645	0.8225	2.13125	-1.97096774194	-8.09402985075	10.8793103448
1646	0.823	0.71640625	-1.97096774194	-8.09402985075	16.5114942529
1647	0.8235	-2.11328125	-0.522580645161	-13.7358208955	6.65517241379
1648	0.824	-4.94296875	-1.97096774194	-8.09402985075	23.5517241379
1649	0.8245	-7.77265625	-4.86774193548	-13.7358208955	15.1034482759
1650	0.825	-9.1875	-1.97096774194	-9.50447761194	17.9195402299
1651	0.8255	-9.1875	-1.97096774194	-16.5567164179	13.6954022989
1652	0.826	-9.1875	-4.86774193548	-8.09402985075	13.6954022989
1653	0.8265	-4.94296875	0.925806451613	-8.09402985075	12.2873563218
1654	0.827	-14.846875	-1.97096774194	-10.9149253731	8.0632183908
1655	0.8275	7.790625	-6.31612903226	-9.50447761194	9.47126436782
1656	0.828	-0.6984375	-0.522580645161	-8.09402985075	-1.79310344828
1657	0.8285	0.71640625	-1.97096774194	-20.7880597015	5.24712643678
1658	0.829	0.71640625	-1.97096774194	4.6	6.65517241379
1659	0.8295	2.13125	0.925806451613	-13.7358208955	1.02298850575
1660	0.83	3.54609375	-0.522580645161	-9.50447761194	2.43103448276
1661	0.8305	10.6203125	16.8580645161	-8.09402985075	2.43103448276
1662	0.831	9.20546875	-9.21290322581	-9.50447761194	3.83908045977
1663	0.8315	4.9609375	-7.76451612903	-6.68358208955	2.43103448276
1664	0.832	7.790625	-1.97096774194	-6.68358208955	2.43103448276
1665	0.8325	14.86484375	-1.97096774194	-8.09402985075	-1.79310344828
1666	0.833	-0.6984375	-1.97096774194	-8.09402985075	5.24712643678
1667	0.8335	0.71640625	-1.97096774194	-8.09402985075	-1.79310344828
1668	0.834	3.54609375	-3.41935483871	-3.86268656716	2.43103448276
1669	0.8345	0.71640625	0.925806451613	-15.1462686567	6.65517241379
1670	0.835	0.71640625	-0.522580645161	-6.68358208955	3.83908045977
1671	0.8355	3.54609375	15.4096774194	-9.50447761194	3.83908045977
1672	0.836	0.71640625	-9.21290322581	-8.09402985075	3.83908045977
1673	0.8365	-0.6984375	-7.76451612903	-6.68358208955	3.83908045977
1674	0.837	-7.77265625	-0.522580645161	-9.50447761194	3.83908045977
1675	0.8375	0.71640625	-0.522580645161	-9.50447761194	5.24712643678
1676	0.838	-7.77265625	-0.522580645161	-9.50447761194	16.5114942529
1677	0.8385	-3.528125	-0.522580645161	-6.68358208955	3.83908045977
1678	0.839	-3.528125	0.925806451613	-3.86268656716	3.83908045977
1679	0.8395	-4.94296875	-1.97096774194	-12.3253731343	6.65517241379
1680	0.84	-3.528125	0.925806451613	-6.68358208955	6.65517241379
1681	0.8405	-9.1875	-4.86774193548	-5.27313432836	8.0632183908
1682	0.841	-7.77265625	-0.522580645161	-3.86268656716	9.47126436782
1683	0.8415	-7.77265625	-9.21290322581	-2.45223880597	6.65517241379
1684	0.842	-20.50625	-3.41935483871	-2.45223880597	6.65517241379
1685	0.8425	4.9609375	-1.97096774194	-5.27313432836	6.65517241379
1686	0.843	-6.3578125	-0.522580645161	-3.86268656716	6.65517241379
1687	0.8435	-4.94296875	-0.522580645161	-10.9149253731	2.43103448276
1688	0.844	-3.528125	-0.522580645161	-2.45223880597	3.83908045977
1689	0.8445	-2.11328125	-0.522580645161	-5.27313432836	3.83908045977
1690	0.845	-2.11328125	-0.522580645161	-8.09402985075	3.83908045977
1691	0.8455	0.71640625	-10.6612903226	-3.86268656716	1.02298850575
1692	0.846	3.54609375	16.8580645161	-3.86268656716	2.43103448276
1693	0.8465	2.13125	-10.6612903226	-6.68358208955	-3.20114942529
1694	0.847	26.18359375	-1.97096774194	-3.86268656716	2.43103448276
1695	0.8475	-4.94296875	-1.97096774194	-3.86268656716	-7.42528735632
1696	0.848	4.9609375	-1.97096774194	-8.09402985075	13.6954022989
1697	0.8485	4.9609375	-3.41935483871	-8.09402985075	-4.6091954023
1698	0.849	9.20546875	-0.522580645161	-9.50447761194	9.47126436782
1699	0.8495	4.9609375	-0.522580645161	-8.09402985075	2.43103448276
1700	0.85	3.54609375	2.37419354839	-2.45223880597	3.83908045977
1701	0.8505	3.54609375	-13.5580645161	-3.86268656716	3.83908045977
1702	0.851	4.9609375	11.064516129	-2.45223880597	3.83908045977
1703	0.8515	0.71640625	-10.6612903226	-8.09402985075	5.24712643678
1704	0.852	-7.77265625	-0.522580645161	-8.09402985075	3.83908045977
1705	0.8525	19.109375	-1.97096774194	-5.27313432836	6.65517241379
1706	0.853	-2.11328125	-0.522580645161	-8.09402985075	3.83908045977
1707	0.8535	0.71640625	-0.522580645161	-6.68358208955	15.1034482759
1708	0.854	0.71640625	0.925806451613	-1.04179104478	1.02298850575
1709	0.8545	-0.6984375	-4.86774193548	-8.09402985075	5.24712643678
1710	0.855	0.71640625	3.82258064516	-9.50447761194	6.65517241379
1711	0.8555	-3.528125	-13.5580645161	-6.68358208955	5.24712643678
1712	0.856	-0.6984375	18.3064516129	-8.09402985075	5.24712643678
1713	0.8565	2.13125	-4.86774193548	-6.68358208955	6.65517241379
1714	0.857	-17.6765625	-4.86774193548	-6.68358208955	5.24712643678
1715	0.8575	13.45	-1.97096774194	-6.68358208955	13.6954022989
1716	0.858	-16.26171875	-1.97096774194	-6.68358208955	-0.385057471264
1717	0.8585	-9.1875	-1.97096774194	-8.09402985075	26.367816092
1718	0.859	-7.77265625	-3.41935483871	-8.09402985075	24.9597701149
1719	0.8595	-7.77265625	-1.97096774194	1.77910447761	13.6954022989
1720	0.86	-10.60234375	-4.86774193548	-13.7358208955	12.2873563218
1721	0.8605	-6.3578125	-0.522580645161	-5.27313432836	9.47126436782
1722	0.861	-4.94296875	5.27096774194	-6.68358208955	10.8793103448
1723	0.8615	-4.94296875	-6.31612903226	-8.09402985075	6.65517241379
1724	0.862	2.13125	-1.97096774194	-8.09402985075	8.0632183908
1725	0.8625	-9.1875	-1.97096774194	-6.68358208955	5.24712643678
1726	0.863	16.2796875	-1.97096774194	-8.09402985075	5.24712643678
1727	0.8635	3.54609375	-1.97096774194	-5.27313432836	1.02298850575
1728	0.864	7.790625	0.925806451613	-8.09402985075	8.0632183908
1729	0.8645	7.790625	-1.97096774194	1.77910447761	2.43103448276
1730	0.865	7.790625	2.37419354839	-8.09402985075	1.02298850575
1731	0.8655	9.20546875	-10.6612903226	-6.68358208955	1.02298850575
1732	0.866	9.20546875	15.4096774194	-6.68358208955	1.02298850575
1733	0.8665	2.13125	-7.76451612903	-8.09402985075	2.43103448276
1734	0.867	9.20546875	-1.97096774194	-6.68358208955	3.83908045977
1735	0.8675	-10.60234375	-0.522580645161	-5.27313432836	-1.79310344828
1736	0.868	26.18359375	-0.522580645161	-8.09402985075	2.43103448276
1737	0.8685	3.54609375	-1.97096774194	-6.68358208955	-8.83333333333
1738	0.869	3.54609375	-3.41935483871	-5.27313432836	-10.2413793103
1739	0.8695	2.13125	-0.522580645161	-9.50447761194	3.83908045977
1740	0.87	2.13125	0.925806451613	3.18955223881	2.43103448276
1741	0.8705	-0.6984375	-0.522580645161	-3.86268656716	5.24712643678
1742	0.871	0.71640625	-0.522580645161	-8.09402985075	5.24712643678
1743	0.8715	-0.6984375	5.27096774194	-2.45223880597	5.24712643678
1744	0.872	-3.528125	-6.31612903226	-2.45223880597	5.24712643678
1745	0.8725	0.71640625	0.925806451613	-3.86268656716	9.47126436782
1746	0.873	-7.77265625	-0.522580645161	-2.45223880597	-3.20114942529
1747	0.8735	-6.3578125	-0.522580645161	-3.86268656716	19.3275862069
1748	0.874	-7.77265625	0.925806451613	-2.45223880597	-0.385057471264
1749	0.8745	-9.1875	-1.97096774194	-16.5567164179	3.83908045977
1750	0.875	-9.1875	-1.97096774194	8.83134328358	5.24712643678
1751	0.8755	-7.77265625	-0.522580645161	-6.68358208955	3.83908045977
1752	0.876	-10.60234375	-9.21290322581	-8.09402985075	2.43103448276
1753	0.8765	-6.3578125	11.064516129	-5.27313432836	3.83908045977
1754	0.877	-10.60234375	-6.31612903226	-6.68358208955	3.83908045977
1755	0.8775	-10.60234375	-3.41935483871	-8.09402985075	3.83908045977
1756	0.878	14.86484375	-0.522580645161	-6.68358208955	5.24712643678
1757	0.8785	-9.1875	-1.97096774194	-6.68358208955	-7.42528735632
1758	0.879	-0.6984375	-0.522580645161	-8.09402985075	19.3275862069
1759	0.8795	0.71640625	-1.97096774194	-10.9149253731	-10.2413793103
1760	0.88	3.54609375	-0.522580645161	-2.45223880597	-7.42528735632
1761	0.8805	7.790625	-0.522580645161	-12.3253731343	-0.385057471264
1762	0.881	4.9609375	-3.41935483871	-2.45223880597	-0.385057471264
1763	0.8815	3.54609375	0.925806451613	-3.86268656716	-3.20114942529
1764	0.882	7.790625	-7.76451612903	-2.45223880597	-0.385057471264
1765	0.8825	7.790625	16.8580645161	-3.86268656716	1.02298850575
1766	0.883	2.13125	-10.6612903226	-3.86268656716	2.43103448276
1767	0.8835	-7.77265625	0.925806451613	-2.45223880597	-0.385057471264
1768	0.884	19.109375	-0.522580645161	-3.86268656716	2.43103448276
1769	0.8845	-4.94296875	-1.97096774194	-3.86268656716	-8.83333333333
1770	0.885	0.71640625	-1.97096774194	-2.45223880597	22.1436781609
1771	0.8855	2.13125	0.925806451613	-13.7358208955	1.02298850575
1772	0.886	2.13125	0.925806451613	-3.86268656716	-4.6091954023
1773	0.8865	0.71640625	0.925806451613	-6.68358208955	1.02298850575
1774	0.887	-2.11328125	-6.31612903226	-6.68358208955	-0.385057471264
1775	0.8875	0.71640625	9.61612903226	-3.86268656716	1.02298850575
1776	0.888	-0.6984375	6.71935483871	-5.27313432836	2.43103448276
1777	0.8885	-9.1875	-6.31612903226	-3.86268656716	5.24712643678
1778	0.889	-0.6984375	-1.97096774194	-5.27313432836	3.83908045977
1779	0.8895	2.13125	0.925806451613	-5.27313432836	-3.20114942529
1780	0.89	-7.77265625	-1.97096774194	-8.09402985075	5.24712643678
1781	0.8905	-4.94296875	-3.41935483871	-3.86268656716	5.24712643678
1782	0.891	-7.77265625	-0.522580645161	-10.9149253731	3.83908045977
1783	0.8915	-7.77265625	-3.41935483871	-8.09402985075	5.24712643678
1784	0.892	-10.60234375	3.82258064516	-6.68358208955	3.83908045977
1785	0.8925	-10.60234375	-12.1096774194	-6.68358208955	8.0632183908
1786	0.893	-10.60234375	18.3064516129	-6.68358208955	6.65517241379
1787	0.8935	-12.0171875	-4.86774193548	-5.27313432836	5.24712643678
1788	0.894	-19.09140625	-1.97096774194	-8.09402985075	5.24712643678
1789	0.8945	9.20546875	-1.97096774194	-8.09402985075	6.65517241379
1790	0.895	-10.60234375	2.37419354839	-6.68358208955	2.43103448276
1791	0.8955	-4.94296875	0.925806451613	-3.86268656716	-6.01724137931
1792	0.896	-4.94296875	-1.97096774194	-9.50447761194	-1.79310344828
1793	0.8965	2.13125	0.925806451613	-1.04179104478	5.24712643678
1794	0.897	3.54609375	3.82258064516	-6.68358208955	1.02298850575
1795	0.8975	-0.6984375	-13.5580645161	-5.27313432836	3.83908045977
1796	0.898	7.790625	11.064516129	-5.27313432836	3.83908045977
1797	0.8985	0.71640625	-9.21290322581	-3.86268656716	6.65517241379
1798	0.899	9.20546875	-1.97096774194	-3.86268656716	8.0632183908
1799	0.8995	-7.77265625	2.37419354839	-2.45223880597	3.83908045977
1800	0.9	-6.3578125	-1.97096774194	-1.04179104478	9.47126436782
1801	0.9005	0.71640625	0.925806451613	-1.04179104478	20.7356321839
1802	0.901	-0.6984375	-3.41935483871	-5.27313432836	3.83908045977
1803	0.9015	0.71640625	-1.97096774194	-3.86268656716	15.1034482759
1804	0.902	-0.6984375	-0.522580645161	4.6	6.65517241379
1805	0.9025	-0.6984375	2.37419354839	-2.45223880597	5.24712643678
1806	0.903	-2.11328125	-7.76451612903	-3.86268656716	5.24712643678
1807	0.9035	-2.11328125	5.27096774194	-5.27313432836	8.0632183908
1808	0.904	0.71640625	6.71935483871	-5.27313432836	5.24712643678
1809	0.9045	-9.1875	0.925806451613	-5.27313432836	3.83908045977
1810	0.905	-3.528125	-0.522580645161	-8.09402985075	2.43103448276
1811	0.9055	-0.6984375	0.925806451613	-3.86268656716	-0.385057471264
1812	0.906	-4.94296875	0.925806451613	-3.86268656716	13.6954022989
1813	0.9065	-4.94296875	-0.522580645161	-12.3253731343	-0.385057471264
1814	0.907	-4.94296875	-0.522580645161	-3.86268656716	8.0632183908
1815	0.9075	-9.1875	2.37419354839	-8.09402985075	5.24712643678
1816	0.908	-7.77265625	-10.6612903226	-3.86268656716	2.43103448276
1817	0.9085	-9.1875	0.925806451613	-9.50447761194	5.24712643678
1818	0.909	-9.1875	-3.41935483871	-5.27313432836	5.24712643678
1819	0.9095	-21.92109375	0.925806451613	-5.27313432836	1.02298850575
1820	0.91	0.71640625	-0.522580645161	-3.86268656716	3.83908045977
1821	0.9105	-10.60234375	-1.97096774194	-1.04179104478	-8.83333333333
1822	0.911	-6.3578125	2.37419354839	-6.68358208955	12.2873563218
1823	0.9115	-3.528125	-0.522580645161	0.368656716418	-0.385057471264
1824	0.912	-4.94296875	0.925806451613	-12.3253731343	-1.79310344828
1825	0.9125	-2.11328125	-1.97096774194	-6.68358208955	-1.79310344828
1826	0.913	-0.6984375	2.37419354839	-2.45223880597	-0.385057471264
1827	0.9135	2.13125	-12.1096774194	-3.86268656716	-0.385057471264
1828	0.914	2.13125	18.3064516129	-2.45223880597	3.83908045977
1829	0.9145	-4.94296875	-7.76451612903	-2.45223880597	-0.385057471264
1830	0.915	23.35390625	-1.97096774194	-3.86268656716	3.83908045977
1831	0.9155	23.35390625	-0.522580645161	-5.27313432836	5.24712643678
1832	0.916	-3.528125	-0.522580645161	-3.86268656716	-7.42528735632
1833	0.9165	0.71640625	-0.522580645161	-5.27313432836	16.5114942529
1834	0.917	0.71640625	-0.522580645161	-1.04179104478	-0.385057471264
1835	0.9175	0.71640625	0.925806451613	-15.1462686567	5.24712643678
1836	0.918	-0.6984375	-1.97096774194	-13.7358208955	5.24712643678
1837	0.9185	-2.11328125	0.925806451613	-5.27313432836	5.24712643678
1838	0.919	0.71640625	16.8580645161	-6.68358208955	5.24712643678
1839	0.9195	-3.528125	-9.21290322581	-6.68358208955	12.2873563218
1840	0.92	-4.94296875	-1.97096774194	-8.09402985075	5.24712643678
1841	0.9205	-7.77265625	0.925806451613	-8.09402985075	5.24712643678
1842	0.921	-6.3578125	0.925806451613	-5.27313432836	8.0632183908
1843	0.9215	-4.94296875	2.37419354839	-6.68358208955	8.0632183908
1844	0.922	-4.94296875	-1.97096774194	-17.9671641791	3.83908045977
1845	0.9225	-3.528125	-0.522580645161	8.83134328358	8.0632183908
1846	0.923	-4.94296875	-1.97096774194	-13.7358208955	6.65517241379
1847	0.9235	-7.77265625	-15.0064516129	-6.68358208955	8.0632183908
1848	0.924	-9.1875	15.4096774194	-3.86268656716	6.65517241379
