	Time	Channel 1	Channel 2	Channel 3	Channel 4
0	0.0	138.739889197	-8.89473684211	0.318548387097	-16.6646153846
1	0.0005	142.963157895	-15.9842105263	3.14919354839	-18.0707692308
2	0.001	133.108864266	-15.9842105263	4.56451612903	-23.6953846154
3	0.0015	120.439058172	-21.6557894737	3.14919354839	-34.9446153846
4	0.002	106.361495845	-18.82	-1.09677419355	-27.9138461538
5	0.0025	103.54598338	-17.4021052632	3.14919354839	-27.9138461538
6	0.003	113.400277008	-15.9842105263	5.97983870968	-30.7261538462
7	0.0035	76.7986149584	-23.0736842105	3.14919354839	-33.5384615385
8	0.004	61.3132963989	-24.4915789474	-9.58870967742	-20.8830769231
9	0.0045	41.6047091413	-23.0736842105	0.318548387097	-30.7261538462
10	0.005	33.1581717452	-13.1484210526	1.73387096774	-30.7261538462
11	0.0055	13.4495844875	-8.89473684211	5.97983870968	-22.2892307692
12	0.006	-6.25900277008	-1.80526315789	11.6411290323	-33.5384615385
13	0.0065	-52.7149584488	3.86631578947	15.8870967742	-33.5384615385
14	0.007	-80.8700831025	2.44842105263	3.14919354839	-30.7261538462
15	0.0075	-111.840720222	5.28421052632	4.56451612903	-25.1015384615
16	0.008	-134.364819945	3.86631578947	3.14919354839	-29.32
17	0.0085	-139.995844875	5.28421052632	-8.17338709677	-26.5076923077
18	0.009	-127.326038781	13.7915789474	-11.0040322581	-18.0707692308
19	0.0095	-111.840720222	22.2989473684	0.318548387097	-15.2584615385
20	0.01	-101.986426593	25.1347368421	0.318548387097	-18.0707692308
21	0.0105	-89.3166204986	15.2094736842	-2.51209677419	-20.8830769231
22	0.011	-72.4235457064	-6.05894736842	-1.09677419355	-23.6953846154
23	0.0115	-56.9382271468	-8.89473684211	3.14919354839	-29.32
24	0.012	-40.0451523546	1.03052631579	1.73387096774	-32.1323076923
25	0.0125	-38.6373961219	2.44842105263	3.14919354839	-34.9446153846
26	0.013	-47.083933518	16.6273684211	5.97983870968	-33.5384615385
27	0.0135	-51.3072022161	22.2989473684	4.56451612903	-36.3507692308
28	0.014	-37.2296398892	23.7168421053	3.14919354839	-23.6953846154
29	0.0145	-31.5986149584	23.7168421053	0.318548387097	-29.32
30	0.015	-21.7443213296	15.2094736842	3.14919354839	-43.3815384615
31	0.0155	-17.5210526316	3.86631578947	3.14919354839	-41.9753846154
32	0.016	-7.66675900277	-1.80526315789	-1.09677419355	-46.1938461538
33	0.0165	-4.8512465374	1.03052631579	-8.17338709677	-50.4123076923
34	0.017	-13.2977839335	3.86631578947	-9.58870967742	-43.3815384615
35	0.0175	-20.336565097	8.12	0.318548387097	-41.9753846154
36	0.018	-27.3753462604	18.0452631579	1.73387096774	-39.1630769231
37	0.0185	-38.6373961219	-8.89473684211	3.14919354839	-32.1323076923
38	0.019	-54.1227146814	-6.05894736842	4.56451612903	-27.9138461538
39	0.0195	-62.5692520776	3.86631578947	4.56451612903	-18.0707692308
40	0.02	-61.1614958449	3.86631578947	5.97983870968	-5.41538461538
41	0.0205	-48.4916897507	8.12	4.56451612903	15.6769230769
42	0.021	-48.4916897507	6.70210526316	1.73387096774	25.52
43	0.0215	-37.2296398892	6.70210526316	4.56451612903	12.8646153846
44	0.022	-31.5986149584	6.70210526316	3.14919354839	5.83384615385
45	0.0225	-28.7831024931	5.28421052632	8.81048387097	5.83384615385
46	0.023	-25.9675900277	2.44842105263	7.39516129032	-2.60307692308
47	0.0235	-20.336565097	-1.80526315789	-8.17338709677	-6.82153846154
48	0.024	-14.7055401662	-6.05894736842	-11.0040322581	-11.04
49	0.0245	-6.25900277008	6.70210526316	-1.09677419355	-12.4461538462
50	0.025	-9.07451523546	27.9705263158	-1.09677419355	-13.8523076923
51	0.0255	-10.4822714681	18.0452631579	3.14919354839	-11.04
52	0.026	-14.7055401662	13.7915789474	1.73387096774	-8.22769230769
53	0.0265	-14.7055401662	6.70210526316	1.73387096774	-8.22769230769
54	0.027	-9.07451523546	23.7168421053	0.318548387097	-11.04
55	0.0275	-13.2977839335	27.9705263158	-9.58870967742	5.83384615385
56	0.028	-10.4822714681	23.7168421053	-13.8346774194	14.2707692308
57	0.0285	-10.4822714681	13.7915789474	-11.0040322581	-2.60307692308
58	0.029	-11.8900277008	6.70210526316	1.73387096774	5.83384615385
59	0.0295	-4.8512465374	-1.80526315789	-15.25	1.61538461538
60	0.03	16.2650969529	-4.64105263158	-13.8346774194	7.24
61	0.0305	35.9736842105	-11.7305263158	-2.51209677419	4.42769230769
62	0.031	47.235734072	-6.05894736842	-5.34274193548	3.02153846154
63	0.0315	37.3814404432	-8.89473684211	-5.34274193548	0.209230769231
64	0.032	20.488365651	-4.64105263158	-2.51209677419	-5.41538461538
65	0.0325	10.6340720222	-3.22315789474	-1.09677419355	-6.82153846154
66	0.033	-21.7443213296	9.53789473684	-1.09677419355	-6.82153846154
67	0.0335	-37.2296398892	6.70210526316	-18.0806451613	-6.82153846154
68	0.034	-40.0451523546	8.12	-13.8346774194	-4.00923076923
69	0.0345	-33.0063711911	3.86631578947	-5.34274193548	-25.1015384615
70	0.035	-30.1908587258	-3.22315789474	-8.17338709677	-29.32
71	0.0355	-21.7443213296	-18.82	-13.8346774194	-23.6953846154
72	0.036	-9.07451523546	-21.6557894737	-6.75806451613	-22.2892307692
73	0.0365	3.59529085873	-11.7305263158	-5.34274193548	-16.6646153846
74	0.037	20.488365651	-8.89473684211	-1.09677419355	-8.22769230769
75	0.0375	28.9349030471	-8.89473684211	4.56451612903	-1.19692307692
76	0.038	27.5271468144	1.03052631579	13.0564516129	0.209230769231
77	0.0385	21.8961218837	5.28421052632	1.73387096774	3.02153846154
78	0.039	19.0806094183	-1.80526315789	-3.92741935484	4.42769230769
79	0.0395	12.0418282548	2.44842105263	-5.34274193548	5.83384615385
80	0.04	37.3814404432	6.70210526316	-3.92741935484	15.6769230769
81	0.0405	23.3038781163	6.70210526316	-3.92741935484	28.3323076923
82	0.041	14.8573407202	5.28421052632	-1.09677419355	15.6769230769
83	0.0415	12.0418282548	3.86631578947	-2.51209677419	4.42769230769
84	0.042	3.59529085873	5.28421052632	-2.51209677419	21.3015384615
85	0.0425	-0.627977839335	6.70210526316	-3.92741935484	21.3015384615
86	0.043	-3.44349030471	2.44842105263	-2.51209677419	35.3630769231
87	0.0435	-0.627977839335	-10.3126315789	-2.51209677419	43.8
88	0.044	-0.627977839335	-3.22315789474	-3.92741935484	49.4246153846
89	0.0445	-4.8512465374	26.5526315789	-1.09677419355	53.6430769231
90	0.045	-6.25900277008	27.9705263158	-6.75806451613	56.4553846154
91	0.0455	-13.2977839335	1.03052631579	-1.09677419355	55.0492307692
92	0.046	-21.7443213296	-3.22315789474	1.73387096774	59.2676923077
93	0.0465	-28.7831024931	-3.22315789474	-8.17338709677	63.4861538462
94	0.047	-44.2684210526	-6.05894736842	-8.17338709677	55.0492307692
95	0.0475	-51.3072022161	-7.47684210526	-6.75806451613	50.8307692308
96	0.048	-30.1908587258	-14.5663157895	0.318548387097	48.0184615385
97	0.0485	-13.2977839335	-15.9842105263	-1.09677419355	43.8
98	0.049	3.59529085873	-14.5663157895	-6.75806451613	46.6123076923
99	0.0495	16.2650969529	-6.05894736842	-16.6653225806	50.8307692308
100	0.05	17.6728531856	-3.22315789474	-12.4193548387	52.2369230769
101	0.0505	20.488365651	-8.89473684211	-2.51209677419	55.0492307692
102	0.051	20.488365651	-6.05894736842	-1.09677419355	57.8615384615
103	0.0515	14.8573407202	3.86631578947	-1.09677419355	53.6430769231
104	0.052	9.22631578947	20.8810526316	-1.09677419355	45.2061538462
105	0.0525	0.779778393352	27.9705263158	-1.09677419355	35.3630769231
106	0.053	23.3038781163	29.3884210526	-2.51209677419	31.1446153846
107	0.0535	35.9736842105	30.8063157895	-2.51209677419	29.7384615385
108	0.054	26.1193905817	26.5526315789	3.14919354839	39.5815384615
109	0.0545	14.8573407202	13.7915789474	4.56451612903	26.9261538462
110	0.055	-9.07451523546	5.28421052632	7.39516129032	36.7692307692
111	0.0555	-24.559833795	1.03052631579	1.73387096774	55.0492307692
112	0.056	-34.4141274238	1.03052631579	7.39516129032	69.1107692308
113	0.0565	-37.2296398892	-1.80526315789	7.39516129032	76.1415384615
114	0.057	-42.8606648199	-1.80526315789	4.56451612903	81.7661538462
115	0.0575	-44.2684210526	-14.5663157895	3.14919354839	78.9538461538
116	0.058	-40.0451523546	-8.89473684211	4.56451612903	71.9230769231
117	0.0585	-30.1908587258	-1.80526315789	8.81048387097	66.2984615385
118	0.059	-16.1132963989	1.03052631579	8.81048387097	64.8923076923
119	0.0595	6.4108033241	3.86631578947	4.56451612903	56.4553846154
120	0.06	-13.2977839335	3.86631578947	5.97983870968	33.9569230769
121	0.0605	-4.8512465374	-0.387368421053	5.97983870968	38.1753846154
122	0.061	10.6340720222	1.03052631579	5.97983870968	33.9569230769
123	0.0615	10.6340720222	2.44842105263	20.1330645161	43.8
124	0.062	0.779778393352	3.86631578947	7.39516129032	40.9876923077
125	0.0625	-6.25900277008	5.28421052632	20.1330645161	43.8
126	0.063	-13.2977839335	6.70210526316	14.4717741935	45.2061538462
127	0.0635	-7.66675900277	2.44842105263	4.56451612903	46.6123076923
128	0.064	-2.03573407202	-3.22315789474	1.73387096774	42.3938461538
129	0.0645	-3.44349030471	-0.387368421053	1.73387096774	38.1753846154
130	0.065	-11.8900277008	15.2094736842	5.97983870968	39.5815384615
131	0.0655	-41.4529085873	6.70210526316	4.56451612903	49.4246153846
132	0.066	-21.7443213296	-6.05894736842	3.14919354839	63.4861538462
133	0.0665	-48.4916897507	-11.7305263158	1.73387096774	69.1107692308
134	0.067	-35.8218836565	-24.4915789474	3.14919354839	90.2030769231
135	0.0675	-24.559833795	-32.9989473684	7.39516129032	97.2338461538
136	0.068	-16.1132963989	-23.0736842105	4.56451612903	88.7969230769
137	0.0685	-3.44349030471	-14.5663157895	13.0564516129	76.1415384615
138	0.069	0.779778393352	-8.89473684211	3.14919354839	74.7353846154
139	0.0695	12.0418282548	-23.0736842105	1.73387096774	76.1415384615
140	0.07	26.1193905817	-25.9094736842	0.318548387097	77.5476923077
141	0.0705	34.5659279778	-14.5663157895	3.14919354839	81.7661538462
142	0.071	33.1581717452	1.03052631579	-1.09677419355	78.9538461538
143	0.0715	14.8573407202	6.70210526316	-1.09677419355	76.1415384615
144	0.072	9.22631578947	5.28421052632	4.56451612903	76.1415384615
145	0.0725	23.3038781163	3.86631578947	7.39516129032	70.5169230769
146	0.073	16.2650969529	2.44842105263	8.81048387097	64.8923076923
147	0.0735	3.59529085873	2.44842105263	13.0564516129	52.2369230769
148	0.074	-3.44349030471	13.7915789474	3.14919354839	66.2984615385
149	0.0745	-0.627977839335	23.7168421053	11.6411290323	88.7969230769
150	0.075	2.18753462604	26.5526315789	-8.17338709677	76.1415384615
151	0.0755	10.6340720222	25.1347368421	3.14919354839	80.36
152	0.076	5.00304709141	15.2094736842	4.56451612903	73.3292307692
153	0.0765	10.6340720222	15.2094736842	4.56451612903	62.08
154	0.077	19.0806094183	18.0452631579	4.56451612903	55.0492307692
155	0.0775	34.5659279778	22.2989473684	3.14919354839	49.4246153846
156	0.078	66.9443213296	22.2989473684	4.56451612903	57.8615384615
157	0.0785	93.6916897507	23.7168421053	1.73387096774	67.7046153846
158	0.079	89.4684210526	25.1347368421	1.73387096774	63.4861538462
159	0.0795	107.769252078	27.9705263158	4.56451612903	56.4553846154
160	0.08	106.361495845	20.8810526316	-2.51209677419	43.8
161	0.0805	85.2451523546	10.9557894737	14.4717741935	45.2061538462
162	0.081	61.3132963989	15.2094736842	15.8870967742	49.4246153846
163	0.0815	54.2745152355	23.7168421053	0.318548387097	62.08
164	0.082	55.6822714681	18.0452631579	-1.09677419355	73.3292307692
165	0.0825	68.3520775623	9.53789473684	5.97983870968	81.7661538462
166	0.083	72.5753462604	1.03052631579	15.8870967742	77.5476923077
167	0.0835	64.1288088643	-8.89473684211	4.56451612903	76.1415384615
168	0.084	38.7891966759	-11.7305263158	-1.09677419355	71.9230769231
169	0.0845	33.1581717452	-17.4021052632	1.73387096774	64.8923076923
170	0.085	37.3814404432	-20.2378947368	1.73387096774	59.2676923077
171	0.0855	50.0512465374	-23.0736842105	8.81048387097	56.4553846154
172	0.086	44.4202216066	-27.3273684211	15.8870967742	49.4246153846
173	0.0865	40.1969529086	-20.2378947368	3.14919354839	49.4246153846
174	0.087	21.8961218837	-23.0736842105	0.318548387097	50.8307692308
175	0.0875	0.779778393352	-20.2378947368	0.318548387097	48.0184615385
176	0.088	-23.1520775623	-13.1484210526	11.6411290323	49.4246153846
177	0.0885	-38.6373961219	-18.82	11.6411290323	49.4246153846
178	0.089	-48.4916897507	-15.9842105263	4.56451612903	56.4553846154
179	0.0895	-49.8994459834	-0.387368421053	3.14919354839	70.5169230769
180	0.09	-44.2684210526	-1.80526315789	4.56451612903	80.36
181	0.0905	-37.2296398892	-10.3126315789	5.97983870968	78.9538461538
182	0.091	-18.9288088643	-1.80526315789	3.14919354839	71.9230769231
183	0.0915	-11.8900277008	-4.64105263158	7.39516129032	78.9538461538
184	0.092	9.22631578947	-8.89473684211	8.81048387097	71.9230769231
185	0.0925	21.8961218837	-1.80526315789	7.39516129032	59.2676923077
186	0.093	10.6340720222	-0.387368421053	21.5483870968	63.4861538462
187	0.0935	-7.66675900277	-0.387368421053	4.56451612903	50.8307692308
188	0.094	-33.0063711911	-0.387368421053	5.97983870968	56.4553846154
189	0.0945	-65.3847645429	-1.80526315789	7.39516129032	55.0492307692
190	0.095	-94.9476454294	16.6273684211	3.14919354839	53.6430769231
191	0.0955	-104.801939058	15.2094736842	1.73387096774	52.2369230769
192	0.096	-107.617451524	-13.1484210526	4.56451612903	53.6430769231
193	0.0965	-92.132132964	-14.5663157895	5.97983870968	62.08
194	0.097	-66.7925207756	-7.47684210526	3.14919354839	66.2984615385
195	0.0975	-56.9382271468	-11.7305263158	-1.09677419355	56.4553846154
196	0.098	-40.0451523546	-18.82	4.56451612903	62.08
197	0.0985	-16.1132963989	-17.4021052632	4.56451612903	53.6430769231
198	0.099	-11.8900277008	-13.1484210526	-6.75806451613	62.08
199	0.0995	-7.66675900277	-11.7305263158	-5.34274193548	53.6430769231
200	0.1	-6.25900277008	-10.3126315789	21.5483870968	45.2061538462
201	0.1005	-6.25900277008	-1.80526315789	20.1330645161	43.8
202	0.101	-9.07451523546	-0.387368421053	-3.92741935484	46.6123076923
203	0.1015	-2.03573407202	-1.80526315789	0.318548387097	52.2369230769
204	0.102	3.59529085873	1.03052631579	3.14919354839	50.8307692308
205	0.1025	9.22631578947	16.6273684211	7.39516129032	48.0184615385
206	0.103	2.18753462604	2.44842105263	11.6411290323	46.6123076923
207	0.1035	-6.25900277008	5.28421052632	5.97983870968	46.6123076923
208	0.104	-13.2977839335	6.70210526316	7.39516129032	48.0184615385
209	0.1045	-24.559833795	23.7168421053	4.56451612903	48.0184615385
210	0.105	-21.7443213296	26.5526315789	4.56451612903	46.6123076923
211	0.1055	-3.44349030471	20.8810526316	-1.09677419355	52.2369230769
212	0.106	12.0418282548	15.2094736842	3.14919354839	66.2984615385
213	0.1065	23.3038781163	8.12	7.39516129032	64.8923076923
214	0.107	41.6047091413	1.03052631579	3.14919354839	60.6738461538
215	0.1075	62.7210526316	-4.64105263158	-3.92741935484	57.8615384615
216	0.108	75.3908587258	-8.89473684211	0.318548387097	50.8307692308
217	0.1085	76.7986149584	-14.5663157895	3.14919354839	49.4246153846
218	0.109	76.7986149584	-13.1484210526	5.97983870968	55.0492307692
219	0.1095	89.4684210526	-11.7305263158	5.97983870968	55.0492307692
220	0.11	102.138227147	10.9557894737	3.14919354839	55.0492307692
221	0.1105	99.3227146814	1.03052631579	3.14919354839	56.4553846154
222	0.111	104.953739612	8.12	0.318548387097	53.6430769231
223	0.1115	88.0606648199	13.7915789474	-1.09677419355	57.8615384615
224	0.112	68.3520775623	6.70210526316	8.81048387097	53.6430769231
225	0.1125	33.1581717452	3.86631578947	11.6411290323	39.5815384615
226	0.113	-17.5210526316	9.53789473684	13.0564516129	35.3630769231
227	0.1135	-66.7925207756	22.2989473684	7.39516129032	35.3630769231
228	0.114	-101.986426593	19.4631578947	14.4717741935	39.5815384615
229	0.1145	-104.801939058	19.4631578947	7.39516129032	39.5815384615
230	0.115	-89.3166204986	33.6421052632	7.39516129032	36.7692307692
231	0.1155	-72.4235457064	29.3884210526	-1.09677419355	33.9569230769
232	0.116	-62.5692520776	-4.64105263158	4.56451612903	29.7384615385
233	0.1165	-44.2684210526	-10.3126315789	4.56451612903	22.7076923077
234	0.117	-31.5986149584	-6.05894736842	5.97983870968	19.8953846154
235	0.1175	-18.9288088643	-8.89473684211	8.81048387097	18.4892307692
236	0.118	-4.8512465374	-11.7305263158	7.39516129032	8.64615384615
237	0.1185	-9.07451523546	-13.1484210526	8.81048387097	10.0523076923
238	0.119	-13.2977839335	-10.3126315789	3.14919354839	-6.82153846154
239	0.1195	-21.7443213296	-10.3126315789	3.14919354839	18.4892307692
240	0.12	-24.559833795	-14.5663157895	-8.17338709677	5.83384615385
241	0.1205	-25.9675900277	-13.1484210526	-3.92741935484	17.0830769231
242	0.121	-30.1908587258	-14.5663157895	13.0564516129	21.3015384615
243	0.1215	-28.7831024931	-14.5663157895	11.6411290323	25.52
244	0.122	-21.7443213296	-18.82	-1.09677419355	33.9569230769
245	0.1225	-17.5210526316	-8.89473684211	-1.09677419355	33.9569230769
246	0.123	-25.9675900277	-6.05894736842	4.56451612903	32.5507692308
247	0.1235	-27.3753462604	16.6273684211	5.97983870968	28.3323076923
248	0.124	-21.7443213296	9.53789473684	8.81048387097	36.7692307692
249	0.1245	-25.9675900277	9.53789473684	14.4717741935	21.3015384615
250	0.125	-35.8218836565	8.12	10.2258064516	18.4892307692
251	0.1255	-33.0063711911	10.9557894737	11.6411290323	14.2707692308
252	0.126	-34.4141274238	9.53789473684	17.3024193548	5.83384615385
253	0.1265	-40.0451523546	10.9557894737	15.8870967742	3.02153846154
254	0.127	-49.8994459834	5.28421052632	24.3790322581	-1.19692307692
255	0.1275	-49.8994459834	-11.7305263158	7.39516129032	5.83384615385
256	0.128	-45.6761772853	-24.4915789474	5.97983870968	12.8646153846
257	0.1285	-44.2684210526	-8.89473684211	14.4717741935	15.6769230769
258	0.129	-38.6373961219	-0.387368421053	15.8870967742	19.8953846154
259	0.1295	-27.3753462604	-14.5663157895	11.6411290323	24.1138461538
260	0.13	-17.5210526316	-10.3126315789	7.39516129032	32.5507692308
261	0.1305	2.18753462604	-1.80526315789	5.97983870968	29.7384615385
262	0.131	10.6340720222	1.03052631579	5.97983870968	14.2707692308
263	0.1315	12.0418282548	10.9557894737	-1.09677419355	29.7384615385
264	0.132	21.8961218837	26.5526315789	0.318548387097	12.8646153846
265	0.1325	31.7504155125	29.3884210526	1.73387096774	5.83384615385
266	0.133	34.5659279778	27.9705263158	-6.75806451613	-1.19692307692
267	0.1335	19.0806094183	16.6273684211	-6.75806451613	-6.82153846154
268	0.134	14.8573407202	3.86631578947	5.97983870968	-6.82153846154
269	0.1345	26.1193905817	-1.80526315789	14.4717741935	-8.22769230769
270	0.135	48.6434903047	13.7915789474	5.97983870968	-11.04
271	0.1355	68.3520775623	16.6273684211	3.14919354839	-16.6646153846
272	0.136	75.3908587258	-4.64105263158	4.56451612903	-19.4769230769
273	0.1365	90.8761772853	-13.1484210526	5.97983870968	-16.6646153846
274	0.137	99.3227146814	-11.7305263158	8.81048387097	-11.04
275	0.1375	103.54598338	-15.9842105263	3.14919354839	-9.63384615385
276	0.138	73.9831024931	-18.82	7.39516129032	8.64615384615
277	0.1385	48.6434903047	-10.3126315789	3.14919354839	-16.6646153846
278	0.139	13.4495844875	-7.47684210526	3.14919354839	-11.04
279	0.1395	-23.1520775623	-0.387368421053	-6.75806451613	-20.8830769231
280	0.14	-51.3072022161	3.86631578947	3.14919354839	-16.6646153846
281	0.1405	-66.7925207756	9.53789473684	21.5483870968	-13.8523076923
282	0.141	-56.9382271468	13.7915789474	7.39516129032	-11.04
283	0.1415	-40.0451523546	26.5526315789	0.318548387097	-11.04
284	0.142	-31.5986149584	36.4778947368	-6.75806451613	-5.41538461538
285	0.1425	-25.9675900277	18.0452631579	-11.0040322581	-6.82153846154
286	0.143	-28.7831024931	16.6273684211	-6.75806451613	-15.2584615385
287	0.1435	-17.5210526316	6.70210526316	-1.09677419355	-15.2584615385
288	0.144	-27.3753462604	3.86631578947	-6.75806451613	-16.6646153846
289	0.1445	-30.1908587258	1.03052631579	-1.09677419355	-13.8523076923
290	0.145	-33.0063711911	-4.64105263158	-11.0040322581	-23.6953846154
291	0.1455	-40.0451523546	-13.1484210526	-1.09677419355	-15.2584615385
292	0.146	-41.4529085873	-7.47684210526	5.97983870968	-19.4769230769
293	0.1465	-21.7443213296	-11.7305263158	0.318548387097	-11.04
294	0.147	0.779778393352	-25.9094736842	1.73387096774	-2.60307692308
295	0.1475	14.8573407202	-18.82	1.73387096774	3.02153846154
296	0.148	16.2650969529	12.3736842105	1.73387096774	0.209230769231
297	0.1485	14.8573407202	10.9557894737	0.318548387097	-9.63384615385
298	0.149	2.18753462604	-1.80526315789	1.73387096774	-18.0707692308
299	0.1495	16.2650969529	-7.47684210526	0.318548387097	-18.0707692308
300	0.15	13.4495844875	-14.5663157895	3.14919354839	-22.2892307692
301	0.1505	-24.559833795	-15.9842105263	-2.51209677419	-29.32
302	0.151	-23.1520775623	-15.9842105263	-1.09677419355	-33.5384615385
303	0.1515	-31.5986149584	-8.89473684211	-2.51209677419	-33.5384615385
304	0.152	-37.2296398892	-7.47684210526	15.8870967742	-33.5384615385
305	0.1525	-41.4529085873	1.03052631579	14.4717741935	-40.5692307692
306	0.153	-34.4141274238	15.2094736842	-1.09677419355	-36.3507692308
307	0.1535	-24.559833795	16.6273684211	-5.34274193548	-29.32
308	0.154	-17.5210526316	9.53789473684	-6.75806451613	-33.5384615385
309	0.1545	-7.66675900277	6.70210526316	0.318548387097	-33.5384615385
310	0.155	-4.8512465374	3.86631578947	-1.09677419355	-34.9446153846
311	0.1555	2.18753462604	3.86631578947	4.56451612903	-34.9446153846
312	0.156	-3.44349030471	-0.387368421053	5.97983870968	-37.7569230769
313	0.1565	13.4495844875	2.44842105263	3.14919354839	-37.7569230769
314	0.157	5.00304709141	6.70210526316	0.318548387097	-19.4769230769
315	0.1575	16.2650969529	19.4631578947	1.73387096774	-16.6646153846
316	0.158	9.22631578947	27.9705263158	-1.09677419355	-22.2892307692
317	0.1585	-9.07451523546	33.6421052632	-6.75806451613	-26.5076923077
318	0.159	-20.336565097	29.3884210526	21.5483870968	-23.6953846154
319	0.1595	-23.1520775623	22.2989473684	21.5483870968	-16.6646153846
320	0.16	-25.9675900277	5.28421052632	-6.75806451613	-19.4769230769
321	0.1605	-27.3753462604	-13.1484210526	-1.09677419355	-27.9138461538
322	0.161	-18.9288088643	-15.9842105263	3.14919354839	-22.2892307692
323	0.1615	-16.1132963989	-31.5810526316	3.14919354839	-8.22769230769
324	0.162	-21.7443213296	-25.9094736842	-1.09677419355	1.61538461538
325	0.1625	-14.7055401662	-23.0736842105	0.318548387097	0.209230769231
326	0.163	-24.559833795	-10.3126315789	1.73387096774	-12.4461538462
327	0.1635	-18.9288088643	-15.9842105263	1.73387096774	-18.0707692308
328	0.164	-10.4822714681	-10.3126315789	3.14919354839	-25.1015384615
329	0.1645	-7.66675900277	3.86631578947	4.56451612903	-27.9138461538
330	0.165	-6.25900277008	8.12	4.56451612903	-39.1630769231
331	0.1655	-9.07451523546	-0.387368421053	24.3790322581	-43.3815384615
332	0.166	-20.336565097	-3.22315789474	31.4556451613	-39.1630769231
333	0.1665	-28.7831024931	5.28421052632	3.14919354839	-44.7876923077
334	0.167	-34.4141274238	-8.89473684211	-1.09677419355	-50.4123076923
335	0.1675	-37.2296398892	-1.80526315789	-3.92741935484	-49.0061538462
336	0.168	-37.2296398892	-4.64105263158	-1.09677419355	-53.2246153846
337	0.1685	-40.0451523546	1.03052631579	-1.09677419355	-47.6
338	0.169	-45.6761772853	3.86631578947	-1.09677419355	-44.7876923077
339	0.1695	-35.8218836565	5.28421052632	0.318548387097	-47.6
340	0.17	7.81855955679	6.70210526316	-1.09677419355	-46.1938461538
341	0.1705	12.0418282548	18.0452631579	-3.92741935484	-39.1630769231
342	0.171	3.59529085873	26.5526315789	3.14919354839	-25.1015384615
343	0.1715	10.6340720222	26.5526315789	-1.09677419355	-40.5692307692
344	0.172	16.2650969529	19.4631578947	-1.09677419355	-29.32
345	0.1725	21.8961218837	13.7915789474	5.97983870968	-20.8830769231
346	0.173	31.7504155125	9.53789473684	1.73387096774	-16.6646153846
347	0.1735	48.6434903047	8.12	0.318548387097	-11.04
348	0.174	61.3132963989	-3.22315789474	-1.09677419355	-11.04
349	0.1745	69.759833795	-15.9842105263	-1.09677419355	-15.2584615385
350	0.175	69.759833795	-23.0736842105	-2.51209677419	-19.4769230769
351	0.1755	79.6141274238	-10.3126315789	-6.75806451613	-26.5076923077
352	0.176	73.9831024931	-18.82	-6.75806451613	-32.1323076923
353	0.1765	66.9443213296	-8.89473684211	-2.51209677419	-43.3815384615
354	0.177	45.8279778393	1.03052631579	5.97983870968	-39.1630769231
355	0.1775	26.1193905817	8.12	-1.09677419355	-37.7569230769
356	0.178	5.00304709141	2.44842105263	-6.75806451613	-46.1938461538
357	0.1785	-6.25900277008	-1.80526315789	-5.34274193548	-43.3815384615
358	0.179	-6.25900277008	6.70210526316	4.56451612903	-51.8184615385
359	0.1795	-2.03573407202	22.2989473684	7.39516129032	-58.8492307692
360	0.18	12.0418282548	23.7168421053	-2.51209677419	-57.4430769231
361	0.1805	12.0418282548	27.9705263158	3.14919354839	-57.4430769231
362	0.181	3.59529085873	20.8810526316	3.14919354839	-56.0369230769
363	0.1815	3.59529085873	23.7168421053	-1.09677419355	-49.0061538462
364	0.182	-0.627977839335	16.6273684211	3.14919354839	-51.8184615385
365	0.1825	13.4495844875	-1.80526315789	4.56451612903	-46.1938461538
366	0.183	5.00304709141	-17.4021052632	1.73387096774	-34.9446153846
367	0.1835	-3.44349030471	-8.89473684211	-1.09677419355	-33.5384615385
368	0.184	-10.4822714681	-7.47684210526	1.73387096774	-26.5076923077
369	0.1845	-17.5210526316	-10.3126315789	3.14919354839	-32.1323076923
370	0.185	-27.3753462604	-14.5663157895	1.73387096774	-18.0707692308
371	0.1855	-35.8218836565	-17.4021052632	0.318548387097	-6.82153846154
372	0.186	-42.8606648199	-15.9842105263	-9.58870967742	-29.32
373	0.1865	-47.083933518	-13.1484210526	0.318548387097	-25.1015384615
374	0.187	-47.083933518	-8.89473684211	1.73387096774	-18.0707692308
375	0.1875	-41.4529085873	-10.3126315789	1.73387096774	-19.4769230769
376	0.188	-37.2296398892	-8.89473684211	-3.92741935484	-18.0707692308
377	0.1885	-40.0451523546	-3.22315789474	0.318548387097	-22.2892307692
378	0.189	-52.7149584488	1.03052631579	-3.92741935484	-33.5384615385
379	0.1895	-79.4623268698	6.70210526316	-5.34274193548	-40.5692307692
380	0.19	-73.8313019391	5.28421052632	-6.75806451613	-36.3507692308
381	0.1905	-25.9675900277	5.28421052632	-1.09677419355	-34.9446153846
382	0.191	-27.3753462604	3.86631578947	-6.75806451613	-27.9138461538
383	0.1915	-4.8512465374	6.70210526316	-2.51209677419	-47.6
384	0.192	14.8573407202	9.53789473684	1.73387096774	-46.1938461538
385	0.1925	44.4202216066	15.2094736842	7.39516129032	-34.9446153846
386	0.193	59.9055401662	16.6273684211	-3.92741935484	-37.7569230769
387	0.1935	72.5753462604	8.12	4.56451612903	-39.1630769231
388	0.194	89.4684210526	9.53789473684	21.5483870968	-43.3815384615
389	0.1945	111.992520776	5.28421052632	3.14919354839	-47.6
390	0.195	128.885595568	15.2094736842	3.14919354839	-54.6307692308
391	0.1955	137.332132964	9.53789473684	0.318548387097	-58.8492307692
392	0.196	137.332132964	6.70210526316	-1.09677419355	-58.8492307692
393	0.1965	130.293351801	5.28421052632	0.318548387097	-54.6307692308
394	0.197	104.953739612	-4.64105263158	-2.51209677419	-53.2246153846
395	0.1975	41.6047091413	-3.22315789474	-15.25	-50.4123076923
396	0.198	9.22631578947	-4.64105263158	-9.58870967742	-54.6307692308
397	0.1985	-20.336565097	-1.80526315789	-6.75806451613	-57.4430769231
398	0.199	-55.5304709141	-4.64105263158	7.39516129032	-50.4123076923
399	0.1995	-79.4623268698	-8.89473684211	-1.09677419355	-47.6
400	0.2	-94.9476454294	-11.7305263158	-8.17338709677	-37.7569230769
401	0.2005	-97.7631578947	-28.7452631579	-5.34274193548	-25.1015384615
402	0.201	-96.355401662	-32.9989473684	-5.34274193548	-19.4769230769
403	0.2015	-83.6855955679	-17.4021052632	0.318548387097	-12.4461538462
404	0.202	-62.5692520776	-1.80526315789	-1.09677419355	-8.22769230769
405	0.2025	-48.4916897507	-24.4915789474	-1.09677419355	-11.04
406	0.203	-47.083933518	-11.7305263158	-1.09677419355	-16.6646153846
407	0.2035	-41.4529085873	-1.80526315789	3.14919354839	-22.2892307692
408	0.204	-35.8218836565	1.03052631579	4.56451612903	-18.0707692308
409	0.2045	-54.1227146814	-0.387368421053	4.56451612903	-8.22769230769
410	0.205	-61.1614958449	-3.22315789474	8.81048387097	-33.5384615385
411	0.2055	-62.5692520776	-6.05894736842	4.56451612903	-36.3507692308
412	0.206	-59.7537396122	-6.05894736842	-1.09677419355	-43.3815384615
413	0.2065	-54.1227146814	-0.387368421053	0.318548387097	-40.5692307692
414	0.207	-49.8994459834	5.28421052632	4.56451612903	-39.1630769231
415	0.2075	-41.4529085873	10.9557894737	4.56451612903	-34.9446153846
416	0.208	-35.8218836565	6.70210526316	-1.09677419355	-29.32
417	0.2085	-27.3753462604	18.0452631579	3.14919354839	-22.2892307692
418	0.209	-10.4822714681	-8.89473684211	4.56451612903	-13.8523076923
419	0.2095	7.81855955679	-3.22315789474	0.318548387097	-8.22769230769
420	0.21	21.8961218837	8.12	1.73387096774	-5.41538461538
421	0.2105	41.6047091413	5.28421052632	-3.92741935484	-15.2584615385
422	0.211	38.7891966759	9.53789473684	1.73387096774	-20.8830769231
423	0.2115	14.8573407202	9.53789473684	5.97983870968	-19.4769230769
424	0.212	-3.44349030471	8.12	5.97983870968	-16.6646153846
425	0.2125	-16.1132963989	6.70210526316	1.73387096774	-27.9138461538
426	0.213	-30.1908587258	2.44842105263	4.56451612903	-19.4769230769
427	0.2135	-40.0451523546	-4.64105263158	1.73387096774	-15.2584615385
428	0.214	-42.8606648199	-13.1484210526	-3.92741935484	-19.4769230769
429	0.2145	-35.8218836565	-13.1484210526	-1.09677419355	-32.1323076923
430	0.215	-31.5986149584	-15.9842105263	0.318548387097	-41.9753846154
431	0.2155	-27.3753462604	-15.9842105263	8.81048387097	-41.9753846154
432	0.216	-13.2977839335	-40.0884210526	3.14919354839	-41.9753846154
433	0.2165	-3.44349030471	-30.1631578947	0.318548387097	-34.9446153846
434	0.217	13.4495844875	-18.82	5.97983870968	-27.9138461538
435	0.2175	21.8961218837	-11.7305263158	4.56451612903	-19.4769230769
436	0.218	34.5659279778	-4.64105263158	4.56451612903	-19.4769230769
437	0.2185	20.488365651	5.28421052632	4.56451612903	-26.5076923077
438	0.219	34.5659279778	20.8810526316	7.39516129032	-32.1323076923
439	0.2195	52.8667590028	32.2242105263	3.14919354839	-18.0707692308
440	0.22	71.1675900277	30.8063157895	-5.34274193548	-39.1630769231
441	0.2205	83.8373961219	33.6421052632	-1.09677419355	-40.5692307692
442	0.221	90.8761772853	40.7315789474	1.73387096774	-43.3815384615
443	0.2215	86.6529085873	29.3884210526	-2.51209677419	-44.7876923077
444	0.222	75.3908587258	1.03052631579	7.39516129032	-44.7876923077
445	0.2225	52.8667590028	-10.3126315789	8.81048387097	-46.1938461538
446	0.223	16.2650969529	8.12	8.81048387097	-44.7876923077
447	0.2235	-10.4822714681	-4.64105263158	4.56451612903	-47.6
448	0.224	-31.5986149584	-11.7305263158	3.14919354839	-46.1938461538
449	0.2245	-45.6761772853	-15.9842105263	4.56451612903	-39.1630769231
450	0.225	-69.608033241	-15.9842105263	0.318548387097	-29.32
451	0.2255	-69.608033241	-18.82	7.39516129032	-33.5384615385
452	0.226	-63.9770083102	-23.0736842105	0.318548387097	-36.3507692308
453	0.2265	-48.4916897507	-23.0736842105	-5.34274193548	-33.5384615385
454	0.227	-18.9288088643	-13.1484210526	22.9637096774	-33.5384615385
455	0.2275	6.4108033241	-4.64105263158	7.39516129032	-32.1323076923
456	0.228	21.8961218837	-6.05894736842	13.0564516129	-27.9138461538
457	0.2285	21.8961218837	6.70210526316	7.39516129032	-27.9138461538
458	0.229	24.711634349	18.0452631579	7.39516129032	-33.5384615385
459	0.2295	24.711634349	-4.64105263158	7.39516129032	-36.3507692308
460	0.23	23.3038781163	-4.64105263158	4.56451612903	-43.3815384615
461	0.2305	26.1193905817	8.12	0.318548387097	-47.6
462	0.231	45.8279778393	9.53789473684	-1.09677419355	-40.5692307692
463	0.2315	34.5659279778	13.7915789474	5.97983870968	-33.5384615385
464	0.232	12.0418282548	6.70210526316	1.73387096774	-26.5076923077
465	0.2325	16.2650969529	9.53789473684	-6.75806451613	-22.2892307692
466	0.233	21.8961218837	8.12	-11.0040322581	-32.1323076923
467	0.2335	23.3038781163	9.53789473684	1.73387096774	-37.7569230769
468	0.234	16.2650969529	10.9557894737	0.318548387097	-39.1630769231
469	0.2345	19.0806094183	10.9557894737	11.6411290323	-36.3507692308
470	0.235	17.6728531856	1.03052631579	-3.92741935484	-33.5384615385
471	0.2355	10.6340720222	-1.80526315789	-6.75806451613	-36.3507692308
472	0.236	14.8573407202	3.86631578947	1.73387096774	-37.7569230769
473	0.2365	33.1581717452	-3.22315789474	4.56451612903	-40.5692307692
474	0.237	62.7210526316	-14.5663157895	4.56451612903	-34.9446153846
475	0.2375	89.4684210526	-4.64105263158	3.14919354839	-29.32
476	0.238	117.623545706	-1.80526315789	4.56451612903	-26.5076923077
477	0.2385	103.54598338	1.03052631579	5.97983870968	-32.1323076923
478	0.239	92.283933518	10.9557894737	1.73387096774	-25.1015384615
479	0.2395	66.9443213296	18.0452631579	4.56451612903	-20.8830769231
480	0.24	23.3038781163	22.2989473684	8.81048387097	-1.19692307692
481	0.2405	-20.336565097	20.8810526316	11.6411290323	26.9261538462
482	0.241	-51.3072022161	8.12	14.4717741935	15.6769230769
483	0.2415	-80.8700831025	1.03052631579	18.7177419355	14.2707692308
484	0.242	-103.394182825	-0.387368421053	20.1330645161	10.0523076923
485	0.2425	-118.879501385	1.03052631579	4.56451612903	4.42769230769
486	0.243	-135.772576177	-11.7305263158	5.97983870968	0.209230769231
487	0.2435	-145.626869806	-4.64105263158	7.39516129032	-8.22769230769
488	0.244	-139.995844875	-15.9842105263	5.97983870968	-16.6646153846
489	0.2445	-118.879501385	-11.7305263158	4.56451612903	-13.8523076923
490	0.245	-109.025207756	-7.47684210526	7.39516129032	-18.0707692308
491	0.2455	-92.132132964	-8.89473684211	3.14919354839	-16.6646153846
492	0.246	-85.0933518006	-15.9842105263	1.73387096774	-8.22769230769
493	0.2465	-80.8700831025	-15.9842105263	3.14919354839	-9.63384615385
494	0.247	-79.4623268698	-7.47684210526	24.3790322581	-15.2584615385
495	0.2475	-69.608033241	3.86631578947	3.14919354839	-22.2892307692
496	0.248	-48.4916897507	3.86631578947	-12.4193548387	-20.8830769231
497	0.2485	-16.1132963989	-6.05894736842	-11.0040322581	-18.0707692308
498	0.249	3.59529085873	-7.47684210526	-2.51209677419	-13.8523076923
499	0.2495	23.3038781163	-4.64105263158	-1.09677419355	-16.6646153846
500	0.25	31.7504155125	-13.1484210526	-5.34274193548	-15.2584615385
501	0.2505	16.2650969529	-0.387368421053	-5.34274193548	-8.22769230769
502	0.251	12.0418282548	13.7915789474	-3.92741935484	-9.63384615385
503	0.2515	17.6728531856	16.6273684211	-1.09677419355	-16.6646153846
504	0.252	-7.66675900277	9.53789473684	8.81048387097	-19.4769230769
505	0.2525	-13.2977839335	-0.387368421053	4.56451612903	-25.1015384615
506	0.253	-13.2977839335	-10.3126315789	-12.4193548387	-36.3507692308
507	0.2535	-0.627977839335	-18.82	-2.51209677419	-29.32
508	0.254	-0.627977839335	-17.4021052632	-5.34274193548	-54.6307692308
509	0.2545	-14.7055401662	-7.47684210526	-3.92741935484	-54.6307692308
510	0.255	-27.3753462604	1.03052631579	3.14919354839	-56.0369230769
511	0.2555	-35.8218836565	-4.64105263158	5.97983870968	-61.6615384615
512	0.256	-37.2296398892	3.86631578947	14.4717741935	-64.4738461538
513	0.2565	-30.1908587258	9.53789473684	18.7177419355	-61.6615384615
514	0.257	-17.5210526316	13.7915789474	13.0564516129	-53.2246153846
515	0.2575	2.18753462604	9.53789473684	13.0564516129	-39.1630769231
516	0.258	41.6047091413	-0.387368421053	5.97983870968	-9.63384615385
517	0.2585	85.2451523546	-6.05894736842	4.56451612903	-5.41538461538
518	0.259	106.361495845	-13.1484210526	1.73387096774	1.61538461538
519	0.2595	120.439058172	-14.5663157895	-9.58870967742	10.0523076923
520	0.26	137.332132964	-10.3126315789	-5.34274193548	28.3323076923
521	0.2605	148.594182825	5.28421052632	-1.09677419355	32.5507692308
522	0.261	155.632963989	15.2094736842	1.73387096774	32.5507692308
523	0.2615	164.079501385	-8.89473684211	3.14919354839	24.1138461538
524	0.262	159.856232687	-11.7305263158	7.39516129032	15.6769230769
525	0.2625	138.739889197	-8.89473684211	4.56451612903	3.02153846154
526	0.263	99.3227146814	3.86631578947	4.56451612903	15.6769230769
527	0.2635	57.0900277008	-0.387368421053	4.56451612903	21.3015384615
528	0.264	38.7891966759	-3.22315789474	4.56451612903	10.0523076923
529	0.2645	34.5659279778	-11.7305263158	5.97983870968	0.209230769231
530	0.265	35.9736842105	-20.2378947368	5.97983870968	-12.4461538462
531	0.2655	34.5659279778	-15.9842105263	-1.09677419355	-18.0707692308
532	0.266	35.9736842105	-4.64105263158	13.0564516129	-16.6646153846
533	0.2665	43.012465374	9.53789473684	15.8870967742	-11.04
534	0.267	51.4590027701	29.3884210526	3.14919354839	-6.82153846154
535	0.2675	58.4977839335	16.6273684211	1.73387096774	-6.82153846154
536	0.268	64.1288088643	13.7915789474	1.73387096774	-11.04
537	0.2685	55.6822714681	6.70210526316	4.56451612903	-11.04
538	0.269	48.6434903047	15.2094736842	5.97983870968	-2.60307692308
539	0.2695	58.4977839335	18.0452631579	8.81048387097	-5.41538461538
540	0.27	83.8373961219	18.0452631579	5.97983870968	-9.63384615385
541	0.2705	88.0606648199	13.7915789474	-2.51209677419	-19.4769230769
542	0.271	65.536565097	6.70210526316	-2.51209677419	-23.6953846154
543	0.2715	58.4977839335	-0.387368421053	-6.75806451613	-39.1630769231
544	0.272	57.0900277008	-8.89473684211	-1.09677419355	-22.2892307692
545	0.2725	65.536565097	-8.89473684211	-12.4193548387	-23.6953846154
546	0.273	68.3520775623	-8.89473684211	-8.17338709677	-20.8830769231
547	0.2735	64.1288088643	-10.3126315789	18.7177419355	-25.1015384615
548	0.274	55.6822714681	-15.9842105263	22.9637096774	-26.5076923077
549	0.2745	61.3132963989	-24.4915789474	7.39516129032	-19.4769230769
550	0.275	78.2063711911	-37.2526315789	1.73387096774	-8.22769230769
551	0.2755	104.953739612	-13.1484210526	-5.34274193548	-6.82153846154
552	0.276	119.031301939	-23.0736842105	-1.09677419355	-15.2584615385
553	0.2765	113.400277008	-10.3126315789	5.97983870968	-23.6953846154
554	0.277	99.3227146814	-10.3126315789	3.14919354839	-23.6953846154
555	0.2775	57.0900277008	-8.89473684211	1.73387096774	-15.2584615385
556	0.278	10.6340720222	2.44842105263	0.318548387097	-13.8523076923
557	0.2785	-76.6468144044	8.12	15.8870967742	3.02153846154
558	0.279	-148.442382271	6.70210526316	-3.92741935484	-6.82153846154
559	0.2795	-194.89833795	5.28421052632	5.97983870968	1.61538461538
560	0.28	-220.237950139	3.86631578947	-2.51209677419	8.64615384615
561	0.2805	-232.907756233	16.6273684211	5.97983870968	14.2707692308
562	0.281	-232.907756233	46.4031578947	7.39516129032	22.7076923077
563	0.2815	-232.907756233	57.7463157895	11.6411290323	19.8953846154
564	0.282	-204.752631579	43.5673684211	4.56451612903	18.4892307692
565	0.2825	-176.597506925	52.0747368421	1.73387096774	19.8953846154
566	0.283	-132.957063712	44.9852631579	3.14919354839	12.8646153846
567	0.2835	-106.209695291	20.8810526316	5.97983870968	8.64615384615
568	0.284	-79.4623268698	-0.387368421053	5.97983870968	8.64615384615
569	0.2845	-59.7537396122	-20.2378947368	4.56451612903	14.2707692308
570	0.285	-51.3072022161	-25.9094736842	3.14919354839	12.8646153846
571	0.2855	-41.4529085873	-25.9094736842	13.0564516129	7.24
572	0.286	-42.8606648199	-17.4021052632	-9.58870967742	1.61538461538
573	0.2865	-47.083933518	-15.9842105263	-6.75806451613	0.209230769231
574	0.287	-44.2684210526	-11.7305263158	1.73387096774	-6.82153846154
575	0.2875	-38.6373961219	2.44842105263	5.97983870968	-13.8523076923
576	0.288	-40.0451523546	-13.1484210526	7.39516129032	-26.5076923077
577	0.2885	-35.8218836565	-13.1484210526	7.39516129032	-36.3507692308
578	0.289	-34.4141274238	-6.05894736842	1.73387096774	-37.7569230769
579	0.2895	2.18753462604	6.70210526316	-1.09677419355	-41.9753846154
580	0.29	-21.7443213296	13.7915789474	-2.51209677419	-53.2246153846
581	0.2905	-23.1520775623	19.4631578947	-2.51209677419	-53.2246153846
582	0.291	-20.336565097	20.8810526316	-2.51209677419	-61.6615384615
583	0.2915	-34.4141274238	16.6273684211	-9.58870967742	-54.6307692308
584	0.292	-58.3459833795	10.9557894737	-12.4193548387	-39.1630769231
585	0.2925	-75.2390581717	6.70210526316	20.1330645161	-15.2584615385
586	0.293	-85.0933518006	1.03052631579	-3.92741935484	-1.19692307692
587	0.2935	-87.9088642659	-8.89473684211	-6.75806451613	5.83384615385
588	0.294	-86.5011080332	-20.2378947368	-6.75806451613	5.83384615385
589	0.2945	-80.8700831025	-24.4915789474	-1.09677419355	1.61538461538
590	0.295	-79.4623268698	-20.2378947368	-6.75806451613	3.02153846154
591	0.2955	-85.0933518006	-14.5663157895	-1.09677419355	14.2707692308
592	0.296	-80.8700831025	-11.7305263158	4.56451612903	24.1138461538
593	0.2965	-68.2002770083	-11.7305263158	7.39516129032	35.3630769231
594	0.297	-44.2684210526	-6.05894736842	11.6411290323	24.1138461538
595	0.2975	-31.5986149584	-1.80526315789	1.73387096774	43.8
596	0.298	-20.336565097	-0.387368421053	3.14919354839	32.5507692308
597	0.2985	-13.2977839335	6.70210526316	4.56451612903	3.02153846154
598	0.299	-16.1132963989	5.28421052632	7.39516129032	3.02153846154
599	0.2995	-14.7055401662	2.44842105263	4.56451612903	-1.19692307692
600	0.3	-17.5210526316	9.53789473684	7.39516129032	-6.82153846154
601	0.3005	-34.4141274238	13.7915789474	-3.92741935484	-11.04
602	0.301	-56.9382271468	6.70210526316	1.73387096774	-11.04
603	0.3015	-71.0157894737	5.28421052632	-2.51209677419	-11.04
604	0.302	-73.8313019391	6.70210526316	-3.92741935484	-8.22769230769
605	0.3025	-78.0545706371	2.44842105263	-3.92741935484	5.83384615385
606	0.303	-93.5398891967	10.9557894737	-3.92741935484	24.1138461538
607	0.3035	-83.6855955679	18.0452631579	-1.09677419355	18.4892307692
608	0.304	-68.2002770083	18.0452631579	-1.09677419355	19.8953846154
609	0.3045	-63.9770083102	20.8810526316	-5.34274193548	39.5815384615
610	0.305	-54.1227146814	19.4631578947	3.14919354839	24.1138461538
611	0.3055	-49.8994459834	16.6273684211	13.0564516129	21.3015384615
612	0.306	-51.3072022161	13.7915789474	10.2258064516	10.0523076923
613	0.3065	-51.3072022161	6.70210526316	15.8870967742	7.24
614	0.307	-37.2296398892	15.2094736842	3.14919354839	0.209230769231
615	0.3075	-20.336565097	10.9557894737	3.14919354839	-1.19692307692
616	0.308	-16.1132963989	-15.9842105263	7.39516129032	0.209230769231
617	0.3085	-4.8512465374	-15.9842105263	11.6411290323	-2.60307692308
618	0.309	2.18753462604	-13.1484210526	8.81048387097	0.209230769231
619	0.3095	14.8573407202	-15.9842105263	11.6411290323	-2.60307692308
620	0.31	14.8573407202	-17.4021052632	14.4717741935	-22.2892307692
621	0.3105	24.711634349	-24.4915789474	17.3024193548	-33.5384615385
622	0.311	33.1581717452	-27.3273684211	14.4717741935	-18.0707692308
623	0.3115	30.3426592798	-24.4915789474	1.73387096774	-11.04
624	0.312	24.711634349	-25.9094736842	-1.09677419355	-6.82153846154
625	0.3125	20.488365651	-25.9094736842	-3.92741935484	-18.0707692308
626	0.313	12.0418282548	-18.82	8.81048387097	-13.8523076923
627	0.3135	0.779778393352	-15.9842105263	0.318548387097	-16.6646153846
628	0.314	-13.2977839335	-10.3126315789	4.56451612903	-16.6646153846
629	0.3145	-34.4141274238	-4.64105263158	4.56451612903	-13.8523076923
630	0.315	-59.7537396122	2.44842105263	1.73387096774	-11.04
631	0.3155	-73.8313019391	29.3884210526	1.73387096774	-5.41538461538
632	0.316	-73.8313019391	20.8810526316	-3.92741935484	-11.04
633	0.3165	-80.8700831025	20.8810526316	-5.34274193548	-11.04
634	0.317	-76.6468144044	18.0452631579	-8.17338709677	10.0523076923
635	0.3175	-62.5692520776	19.4631578947	-9.58870967742	-8.22769230769
636	0.318	-55.5304709141	15.2094736842	-8.17338709677	-5.41538461538
637	0.3185	-47.083933518	9.53789473684	8.81048387097	-19.4769230769
638	0.319	-40.0451523546	3.86631578947	-2.51209677419	-20.8830769231
639	0.3195	-30.1908587258	-1.80526315789	1.73387096774	-11.04
640	0.32	-23.1520775623	-8.89473684211	4.56451612903	-11.04
641	0.3205	-14.7055401662	1.03052631579	-1.09677419355	-9.63384615385
642	0.321	-11.8900277008	18.0452631579	-2.51209677419	-15.2584615385
643	0.3215	-11.8900277008	-1.80526315789	-2.51209677419	-22.2892307692
644	0.322	-13.2977839335	-4.64105263158	3.14919354839	-23.6953846154
645	0.3225	7.81855955679	-4.64105263158	7.39516129032	-12.4461538462
646	0.323	5.00304709141	-4.64105263158	8.81048387097	-11.04
647	0.3235	-9.07451523546	-0.387368421053	1.73387096774	-12.4461538462
648	0.324	-0.627977839335	1.03052631579	1.73387096774	-16.6646153846
649	0.3245	3.59529085873	-1.80526315789	1.73387096774	-12.4461538462
650	0.325	9.22631578947	-8.89473684211	4.56451612903	-6.82153846154
651	0.3255	5.00304709141	-21.6557894737	1.73387096774	-2.60307692308
652	0.326	10.6340720222	-28.7452631579	4.56451612903	-2.60307692308
653	0.3265	14.8573407202	-35.8347368421	3.14919354839	-6.82153846154
654	0.327	7.81855955679	-28.7452631579	-1.09677419355	-13.8523076923
655	0.3275	16.2650969529	-34.4168421053	0.318548387097	-20.8830769231
656	0.328	19.0806094183	-28.7452631579	1.73387096774	-18.0707692308
657	0.3285	12.0418282548	-24.4915789474	4.56451612903	-20.8830769231
658	0.329	41.6047091413	-13.1484210526	3.14919354839	-26.5076923077
659	0.3295	59.9055401662	-8.89473684211	3.14919354839	-26.5076923077
660	0.33	41.6047091413	-6.05894736842	3.14919354839	-26.5076923077
661	0.3305	34.5659279778	-1.80526315789	4.56451612903	-32.1323076923
662	0.331	27.5271468144	5.28421052632	0.318548387097	-46.1938461538
663	0.3315	12.0418282548	9.53789473684	7.39516129032	-43.3815384615
664	0.332	-3.44349030471	9.53789473684	11.6411290323	-36.3507692308
665	0.3325	-7.66675900277	1.03052631579	-3.92741935484	-29.32
666	0.333	7.81855955679	-10.3126315789	-1.09677419355	-32.1323076923
667	0.3335	27.5271468144	8.12	0.318548387097	-27.9138461538
668	0.334	30.3426592798	23.7168421053	0.318548387097	-22.2892307692
669	0.3345	27.5271468144	2.44842105263	1.73387096774	-18.0707692308
670	0.335	35.9736842105	10.9557894737	-1.09677419355	-11.04
671	0.3355	43.012465374	6.70210526316	-2.51209677419	-11.04
672	0.336	40.1969529086	10.9557894737	-1.09677419355	-12.4461538462
673	0.3365	27.5271468144	22.2989473684	1.73387096774	-16.6646153846
674	0.337	34.5659279778	30.8063157895	1.73387096774	-36.3507692308
675	0.3375	41.6047091413	29.3884210526	7.39516129032	-22.2892307692
676	0.338	55.6822714681	22.2989473684	4.56451612903	-13.8523076923
677	0.3385	69.759833795	22.2989473684	3.14919354839	-6.82153846154
678	0.339	81.0218836565	20.8810526316	-3.92741935484	-4.00923076923
679	0.3395	79.6141274238	9.53789473684	13.0564516129	-13.8523076923
680	0.34	81.0218836565	16.6273684211	7.39516129032	-18.0707692308
681	0.3405	93.6916897507	-13.1484210526	13.0564516129	-13.8523076923
682	0.341	116.215789474	-7.47684210526	10.2258064516	0.209230769231
683	0.3415	130.293351801	18.0452631579	5.97983870968	3.02153846154
684	0.342	131.701108033	2.44842105263	4.56451612903	12.8646153846
685	0.3425	119.031301939	-4.64105263158	3.14919354839	-4.00923076923
686	0.343	117.623545706	-8.89473684211	0.318548387097	-19.4769230769
687	0.3435	114.808033241	-4.64105263158	1.73387096774	0.209230769231
688	0.344	100.730470914	1.03052631579	0.318548387097	-16.6646153846
689	0.3445	68.3520775623	-8.89473684211	11.6411290323	-16.6646153846
690	0.345	38.7891966759	-14.5663157895	-8.17338709677	-16.6646153846
691	0.3455	12.0418282548	-25.9094736842	-12.4193548387	-11.04
692	0.346	-16.1132963989	-30.1631578947	-2.51209677419	-16.6646153846
693	0.3465	-41.4529085873	-15.9842105263	-3.92741935484	-22.2892307692
694	0.347	-72.4235457064	-0.387368421053	-1.09677419355	-39.1630769231
695	0.3475	-94.9476454294	5.28421052632	-2.51209677419	-51.8184615385
696	0.348	-121.69501385	9.53789473684	4.56451612903	-51.8184615385
697	0.3485	-113.248476454	3.86631578947	4.56451612903	-36.3507692308
698	0.349	-111.840720222	6.70210526316	0.318548387097	-29.32
699	0.3495	-120.287257618	8.12	4.56451612903	-23.6953846154
700	0.35	-117.471745152	8.12	8.81048387097	-30.7261538462
701	0.3505	-104.801939058	1.03052631579	11.6411290323	-29.32
702	0.351	-94.9476454294	2.44842105263	25.7943548387	-16.6646153846
703	0.3515	-90.7243767313	18.0452631579	-12.4193548387	-22.2892307692
704	0.352	-87.9088642659	37.8957894737	-8.17338709677	-25.1015384615
705	0.3525	-94.9476454294	33.6421052632	8.81048387097	-20.8830769231
706	0.353	-96.355401662	19.4631578947	4.56451612903	-15.2584615385
707	0.3535	-76.6468144044	15.2094736842	4.56451612903	-11.04
708	0.354	-51.3072022161	29.3884210526	-1.09677419355	-4.00923076923
709	0.3545	-14.7055401662	16.6273684211	0.318548387097	-8.22769230769
710	0.355	23.3038781163	1.03052631579	8.81048387097	-16.6646153846
711	0.3555	68.3520775623	-0.387368421053	4.56451612903	-11.04
712	0.356	55.6822714681	-6.05894736842	3.14919354839	-6.82153846154
713	0.3565	59.9055401662	-8.89473684211	-1.09677419355	-8.22769230769
714	0.357	55.6822714681	-7.47684210526	1.73387096774	-13.8523076923
715	0.3575	34.5659279778	-6.05894736842	15.8870967742	-19.4769230769
716	0.358	13.4495844875	-10.3126315789	-5.34274193548	-19.4769230769
717	0.3585	-17.5210526316	-8.89473684211	-13.8346774194	-15.2584615385
718	0.359	-52.7149584488	-8.89473684211	1.73387096774	-11.04
719	0.3595	-73.8313019391	-6.05894736842	-1.09677419355	-15.2584615385
720	0.36	-79.4623268698	-1.80526315789	0.318548387097	-16.6646153846
721	0.3605	-83.6855955679	-13.1484210526	0.318548387097	-13.8523076923
722	0.361	-73.8313019391	-18.82	4.56451612903	-12.4461538462
723	0.3615	-61.1614958449	-17.4021052632	3.14919354839	-15.2584615385
724	0.362	-66.7925207756	-18.82	-3.92741935484	-22.2892307692
725	0.3625	-90.7243767313	-13.1484210526	-3.92741935484	-27.9138461538
726	0.363	-72.4235457064	-1.80526315789	4.56451612903	-27.9138461538
727	0.3635	-54.1227146814	8.12	8.81048387097	-15.2584615385
728	0.364	-41.4529085873	16.6273684211	20.1330645161	-2.60307692308
729	0.3645	-28.7831024931	9.53789473684	5.97983870968	-9.63384615385
730	0.365	-14.7055401662	2.44842105263	-6.75806451613	-18.0707692308
731	0.3655	13.4495844875	-0.387368421053	-5.34274193548	-19.4769230769
732	0.366	45.8279778393	-6.05894736842	0.318548387097	-20.8830769231
733	0.3665	50.0512465374	-0.387368421053	0.318548387097	-16.6646153846
734	0.367	30.3426592798	13.7915789474	1.73387096774	-11.04
735	0.3675	9.22631578947	15.2094736842	0.318548387097	-1.19692307692
736	0.368	-21.7443213296	15.2094736842	1.73387096774	-4.00923076923
737	0.3685	-24.559833795	9.53789473684	3.14919354839	-2.60307692308
738	0.369	-45.6761772853	3.86631578947	5.97983870968	-11.04
739	0.3695	-86.5011080332	-6.05894736842	4.56451612903	-12.4461538462
740	0.37	-80.8700831025	-20.2378947368	1.73387096774	-22.2892307692
741	0.3705	-69.608033241	-31.5810526316	-1.09677419355	-23.6953846154
742	0.371	-54.1227146814	-31.5810526316	-3.92741935484	-20.8830769231
743	0.3715	-34.4141274238	-21.6557894737	1.73387096774	-2.60307692308
744	0.372	-24.559833795	-6.05894736842	0.318548387097	-2.60307692308
745	0.3725	-21.7443213296	1.03052631579	-1.09677419355	1.61538461538
746	0.373	-24.559833795	-1.80526315789	-1.09677419355	5.83384615385
747	0.3735	-33.0063711911	-3.22315789474	-1.09677419355	14.2707692308
748	0.374	-42.8606648199	2.44842105263	0.318548387097	18.4892307692
749	0.3745	-42.8606648199	-0.387368421053	0.318548387097	15.6769230769
750	0.375	-58.3459833795	1.03052631579	1.73387096774	10.0523076923
751	0.3755	-51.3072022161	-3.22315789474	8.81048387097	15.6769230769
752	0.376	-37.2296398892	-7.47684210526	8.81048387097	12.8646153846
753	0.3765	-4.8512465374	-7.47684210526	4.56451612903	0.209230769231
754	0.377	10.6340720222	-4.64105263158	5.97983870968	5.83384615385
755	0.3775	17.6728531856	-6.05894736842	4.56451612903	4.42769230769
756	0.378	23.3038781163	1.03052631579	14.4717741935	1.61538461538
757	0.3785	23.3038781163	5.28421052632	3.14919354839	-6.82153846154
758	0.379	14.8573407202	6.70210526316	-2.51209677419	-9.63384615385
759	0.3795	13.4495844875	8.12	21.5483870968	-9.63384615385
760	0.38	19.0806094183	39.3136842105	0.318548387097	-6.82153846154
761	0.3805	16.2650969529	32.2242105263	7.39516129032	0.209230769231
762	0.381	16.2650969529	19.4631578947	11.6411290323	1.61538461538
763	0.3815	12.0418282548	-17.4021052632	11.6411290323	-2.60307692308
764	0.382	0.779778393352	-14.5663157895	3.14919354839	-9.63384615385
765	0.3825	-4.8512465374	-10.3126315789	-2.51209677419	-15.2584615385
766	0.383	-4.8512465374	-7.47684210526	3.14919354839	-15.2584615385
767	0.3835	-16.1132963989	-7.47684210526	0.318548387097	-6.82153846154
768	0.384	-20.336565097	-6.05894736842	-3.92741935484	-18.0707692308
769	0.3845	-25.9675900277	-11.7305263158	-2.51209677419	-19.4769230769
770	0.385	-28.7831024931	-13.1484210526	3.14919354839	-22.2892307692
771	0.3855	-18.9288088643	-11.7305263158	1.73387096774	-19.4769230769
772	0.386	-3.44349030471	-14.5663157895	7.39516129032	-19.4769230769
773	0.3865	16.2650969529	-24.4915789474	3.14919354839	-22.2892307692
774	0.387	12.0418282548	-13.1484210526	3.14919354839	-23.6953846154
775	0.3875	0.779778393352	3.86631578947	4.56451612903	-18.0707692308
776	0.388	-16.1132963989	15.2094736842	-1.09677419355	-11.04
777	0.3885	-21.7443213296	2.44842105263	-2.51209677419	-8.22769230769
778	0.389	-38.6373961219	-0.387368421053	0.318548387097	-6.82153846154
779	0.3895	-41.4529085873	2.44842105263	1.73387096774	-8.22769230769
780	0.39	-47.083933518	13.7915789474	4.56451612903	-12.4461538462
781	0.3905	-61.1614958449	16.6273684211	8.81048387097	-13.8523076923
782	0.391	-78.0545706371	16.6273684211	14.4717741935	-12.4461538462
783	0.3915	-80.8700831025	12.3736842105	4.56451612903	-9.63384615385
784	0.392	-89.3166204986	13.7915789474	15.8870967742	-2.60307692308
785	0.3925	-90.7243767313	15.2094736842	7.39516129032	-6.82153846154
786	0.393	-83.6855955679	6.70210526316	3.14919354839	-15.2584615385
787	0.3935	-72.4235457064	-1.80526315789	-6.75806451613	-16.6646153846
788	0.394	-66.7925207756	-4.64105263158	-8.17338709677	-16.6646153846
789	0.3945	-58.3459833795	6.70210526316	-1.09677419355	-8.22769230769
790	0.395	-52.7149584488	-3.22315789474	-1.09677419355	-9.63384615385
791	0.3955	-55.5304709141	-8.89473684211	-2.51209677419	-22.2892307692
792	0.396	-40.0451523546	-6.05894736842	5.97983870968	-19.4769230769
793	0.3965	-37.2296398892	-10.3126315789	4.56451612903	-13.8523076923
794	0.397	-34.4141274238	-18.82	4.56451612903	-29.32
795	0.3975	-24.559833795	-18.82	0.318548387097	-30.7261538462
796	0.398	-16.1132963989	-11.7305263158	1.73387096774	-20.8830769231
797	0.3985	-6.25900277008	-8.89473684211	1.73387096774	-15.2584615385
798	0.399	-2.03573407202	-1.80526315789	13.0564516129	-9.63384615385
799	0.3995	-10.4822714681	9.53789473684	17.3024193548	-5.41538461538
800	0.4	-11.8900277008	8.12	3.14919354839	-2.60307692308
801	0.4005	-17.5210526316	9.53789473684	3.14919354839	-1.19692307692
802	0.401	-24.559833795	20.8810526316	-2.51209677419	-2.60307692308
803	0.4015	-30.1908587258	22.2989473684	-3.92741935484	-2.60307692308
804	0.402	-33.0063711911	40.7315789474	0.318548387097	-6.82153846154
805	0.4025	-24.559833795	26.5526315789	1.73387096774	-12.4461538462
806	0.403	-35.8218836565	19.4631578947	1.73387096774	-12.4461538462
807	0.4035	-69.608033241	13.7915789474	3.14919354839	-18.0707692308
808	0.404	-72.4235457064	10.9557894737	4.56451612903	-20.8830769231
809	0.4045	-59.7537396122	8.12	-1.09677419355	-22.2892307692
810	0.405	-48.4916897507	5.28421052632	-2.51209677419	-15.2584615385
811	0.4055	-44.2684210526	-4.64105263158	15.8870967742	-27.9138461538
812	0.406	-35.8218836565	-10.3126315789	0.318548387097	-27.9138461538
813	0.4065	-28.7831024931	-30.1631578947	4.56451612903	-23.6953846154
814	0.407	-23.1520775623	-40.0884210526	4.56451612903	-25.1015384615
815	0.4075	-16.1132963989	-15.9842105263	3.14919354839	-23.6953846154
816	0.408	-10.4822714681	-7.47684210526	-2.51209677419	-19.4769230769
817	0.4085	-4.8512465374	-28.7452631579	-5.34274193548	-18.0707692308
818	0.409	-10.4822714681	-20.2378947368	-1.09677419355	-13.8523076923
819	0.4095	-14.7055401662	-11.7305263158	-1.09677419355	-12.4461538462
820	0.41	13.4495844875	-10.3126315789	3.14919354839	-6.82153846154
821	0.4105	-16.1132963989	-6.05894736842	3.14919354839	-11.04
822	0.411	-24.559833795	3.86631578947	4.56451612903	-12.4461538462
823	0.4115	-27.3753462604	9.53789473684	0.318548387097	-16.6646153846
824	0.412	-23.1520775623	16.6273684211	4.56451612903	-15.2584615385
825	0.4125	-18.9288088643	18.0452631579	18.7177419355	-13.8523076923
826	0.413	-16.1132963989	18.0452631579	7.39516129032	-13.8523076923
827	0.4135	-10.4822714681	8.12	0.318548387097	-11.04
828	0.414	-2.03573407202	8.12	1.73387096774	-11.04
829	0.4145	2.18753462604	8.12	0.318548387097	-15.2584615385
830	0.415	0.779778393352	5.28421052632	4.56451612903	-11.04
831	0.4155	3.59529085873	29.3884210526	0.318548387097	-15.2584615385
832	0.416	12.0418282548	2.44842105263	-6.75806451613	-18.0707692308
833	0.4165	38.7891966759	-10.3126315789	-1.09677419355	-30.7261538462
834	0.417	38.7891966759	-11.7305263158	0.318548387097	-26.5076923077
835	0.4175	57.0900277008	-14.5663157895	4.56451612903	-44.7876923077
836	0.418	71.1675900277	-20.2378947368	4.56451612903	-39.1630769231
837	0.4185	68.3520775623	-23.0736842105	-6.75806451613	-49.0061538462
838	0.419	71.1675900277	-21.6557894737	-11.0040322581	-53.2246153846
839	0.4195	66.9443213296	-18.82	-2.51209677419	-50.4123076923
840	0.42	64.1288088643	-10.3126315789	13.0564516129	-44.7876923077
841	0.4205	75.3908587258	-10.3126315789	-1.09677419355	-43.3815384615
842	0.421	89.4684210526	-13.1484210526	1.73387096774	-36.3507692308
843	0.4215	88.0606648199	-10.3126315789	3.14919354839	-32.1323076923
844	0.422	64.1288088643	-13.1484210526	3.14919354839	-33.5384615385
845	0.4225	47.235734072	-13.1484210526	0.318548387097	-36.3507692308
846	0.423	64.1288088643	-8.89473684211	1.73387096774	-27.9138461538
847	0.4235	27.5271468144	-6.05894736842	3.14919354839	-5.41538461538
848	0.424	3.59529085873	-3.22315789474	4.56451612903	-12.4461538462
849	0.4245	-10.4822714681	-1.80526315789	8.81048387097	-9.63384615385
850	0.425	-16.1132963989	-1.80526315789	5.97983870968	-1.19692307692
851	0.4255	-7.66675900277	-1.80526315789	18.7177419355	4.42769230769
852	0.426	-2.03573407202	-1.80526315789	1.73387096774	7.24
853	0.4265	-2.03573407202	-6.05894736842	1.73387096774	10.0523076923
854	0.427	-11.8900277008	10.9557894737	3.14919354839	3.02153846154
855	0.4275	-24.559833795	16.6273684211	3.14919354839	-1.19692307692
856	0.428	-54.1227146814	-15.9842105263	5.97983870968	-8.22769230769
857	0.4285	-83.6855955679	-10.3126315789	3.14919354839	-13.8523076923
858	0.429	-92.132132964	2.44842105263	0.318548387097	-15.2584615385
859	0.4295	-92.132132964	1.03052631579	3.14919354839	-15.2584615385
860	0.43	-116.06398892	5.28421052632	4.56451612903	-23.6953846154
861	0.4305	-99.1709141274	8.12	10.2258064516	-40.5692307692
862	0.431	-82.2778393352	10.9557894737	11.6411290323	-40.5692307692
863	0.4315	-73.8313019391	16.6273684211	0.318548387097	-36.3507692308
864	0.432	-71.0157894737	20.8810526316	-8.17338709677	-40.5692307692
865	0.4325	-73.8313019391	20.8810526316	14.4717741935	-39.1630769231
866	0.433	-76.6468144044	15.2094736842	-1.09677419355	-40.5692307692
867	0.4335	-69.608033241	-0.387368421053	-5.34274193548	-44.7876923077
868	0.434	-62.5692520776	-8.89473684211	1.73387096774	-44.7876923077
869	0.4345	-56.9382271468	-1.80526315789	1.73387096774	-39.1630769231
870	0.435	-48.4916897507	-11.7305263158	0.318548387097	-34.9446153846
871	0.4355	-58.3459833795	-10.3126315789	-1.09677419355	-32.1323076923
872	0.436	-24.559833795	-13.1484210526	1.73387096774	-32.1323076923
873	0.4365	-25.9675900277	-14.5663157895	3.14919354839	-40.5692307692
874	0.437	-23.1520775623	-13.1484210526	0.318548387097	-37.7569230769
875	0.4375	-17.5210526316	-14.5663157895	-6.75806451613	-25.1015384615
876	0.438	-16.1132963989	-20.2378947368	-13.8346774194	-37.7569230769
877	0.4385	-16.1132963989	-24.4915789474	-1.09677419355	-43.3815384615
878	0.439	-14.7055401662	-32.9989473684	-1.09677419355	-41.9753846154
879	0.4395	-20.336565097	-27.3273684211	3.14919354839	-44.7876923077
880	0.44	-23.1520775623	1.03052631579	1.73387096774	-44.7876923077
881	0.4405	-14.7055401662	23.7168421053	-2.51209677419	-43.3815384615
882	0.441	-3.44349030471	15.2094736842	3.14919354839	-44.7876923077
883	0.4415	0.779778393352	16.6273684211	5.97983870968	-50.4123076923
884	0.442	31.7504155125	19.4631578947	5.97983870968	-44.7876923077
885	0.4425	47.235734072	15.2094736842	1.73387096774	-41.9753846154
886	0.443	47.235734072	8.12	1.73387096774	-19.4769230769
887	0.4435	54.2745152355	-1.80526315789	4.56451612903	-30.7261538462
888	0.444	52.8667590028	-7.47684210526	-1.09677419355	-27.9138461538
889	0.4445	50.0512465374	-7.47684210526	7.39516129032	-27.9138461538
890	0.445	43.012465374	-1.80526315789	-3.92741935484	-32.1323076923
891	0.4455	27.5271468144	1.03052631579	-3.92741935484	-37.7569230769
892	0.446	12.0418282548	-4.64105263158	-9.58870967742	-34.9446153846
893	0.4465	-4.8512465374	-8.89473684211	1.73387096774	-32.1323076923
894	0.447	-21.7443213296	6.70210526316	0.318548387097	-26.5076923077
895	0.4475	-25.9675900277	1.03052631579	1.73387096774	-32.1323076923
896	0.448	-49.8994459834	10.9557894737	1.73387096774	-32.1323076923
897	0.4485	-38.6373961219	16.6273684211	4.56451612903	-32.1323076923
898	0.449	-51.3072022161	15.2094736842	5.97983870968	-34.9446153846
899	0.4495	-49.8994459834	13.7915789474	4.56451612903	-43.3815384615
900	0.45	-40.0451523546	16.6273684211	4.56451612903	-23.6953846154
901	0.4505	-37.2296398892	15.2094736842	11.6411290323	-41.9753846154
902	0.451	-40.0451523546	10.9557894737	13.0564516129	-56.0369230769
903	0.4515	-44.2684210526	1.03052631579	-3.92741935484	-60.2553846154
904	0.452	-44.2684210526	1.03052631579	-8.17338709677	-57.4430769231
905	0.4525	-40.0451523546	-6.05894736842	-6.75806451613	-63.0676923077
906	0.453	-30.1908587258	-7.47684210526	4.56451612903	-74.3169230769
907	0.4535	-27.3753462604	-6.05894736842	4.56451612903	-74.3169230769
908	0.454	-18.9288088643	-15.9842105263	4.56451612903	-57.4430769231
909	0.4545	-6.25900277008	-15.9842105263	4.56451612903	-54.6307692308
910	0.455	-9.07451523546	-17.4021052632	5.97983870968	-53.2246153846
911	0.4555	-4.8512465374	-8.89473684211	5.97983870968	-64.4738461538
912	0.456	-21.7443213296	-3.22315789474	1.73387096774	-70.0984615385
913	0.4565	-16.1132963989	-6.05894736842	3.14919354839	-71.5046153846
914	0.457	-11.8900277008	-13.1484210526	-6.75806451613	-68.6923076923
915	0.4575	-13.2977839335	-18.82	-5.34274193548	-68.6923076923
916	0.458	-13.2977839335	-21.6557894737	-3.92741935484	-68.6923076923
917	0.4585	-6.25900277008	-17.4021052632	3.14919354839	-57.4430769231
918	0.459	-0.627977839335	-20.2378947368	13.0564516129	-41.9753846154
919	0.4595	2.18753462604	-28.7452631579	1.73387096774	-33.5384615385
920	0.46	2.18753462604	-15.9842105263	-1.09677419355	-32.1323076923
921	0.4605	3.59529085873	-7.47684210526	-1.09677419355	-32.1323076923
922	0.461	13.4495844875	-6.05894736842	-3.92741935484	-34.9446153846
923	0.4615	28.9349030471	-4.64105263158	1.73387096774	-44.7876923077
924	0.462	23.3038781163	5.28421052632	-2.51209677419	-51.8184615385
925	0.4625	-11.8900277008	9.53789473684	-5.34274193548	-49.0061538462
926	0.463	-11.8900277008	15.2094736842	-3.92741935484	-43.3815384615
927	0.4635	5.00304709141	16.6273684211	3.14919354839	-46.1938461538
928	0.464	16.2650969529	15.2094736842	3.14919354839	-49.0061538462
929	0.4645	12.0418282548	18.0452631579	-2.51209677419	-44.7876923077
930	0.465	3.59529085873	22.2989473684	-6.75806451613	-46.1938461538
931	0.4655	5.00304709141	23.7168421053	-1.09677419355	-49.0061538462
932	0.466	21.8961218837	5.28421052632	8.81048387097	-44.7876923077
933	0.4665	48.6434903047	-3.22315789474	8.81048387097	-41.9753846154
934	0.467	52.8667590028	-3.22315789474	0.318548387097	-44.7876923077
935	0.4675	30.3426592798	-7.47684210526	0.318548387097	-44.7876923077
936	0.468	14.8573407202	-15.9842105263	-1.09677419355	-47.6
937	0.4685	30.3426592798	-18.82	0.318548387097	-50.4123076923
938	0.469	38.7891966759	-17.4021052632	4.56451612903	-46.1938461538
939	0.4695	10.6340720222	-18.82	8.81048387097	-33.5384615385
940	0.47	-16.1132963989	-13.1484210526	13.0564516129	-58.8492307692
941	0.4705	-42.8606648199	-8.89473684211	-1.09677419355	-54.6307692308
942	0.471	-58.3459833795	2.44842105263	-6.75806451613	-50.4123076923
943	0.4715	-72.4235457064	8.12	4.56451612903	-40.5692307692
944	0.472	-79.4623268698	12.3736842105	0.318548387097	-34.9446153846
945	0.4725	-78.0545706371	10.9557894737	11.6411290323	-32.1323076923
946	0.473	-56.9382271468	9.53789473684	-2.51209677419	-37.7569230769
947	0.4735	-16.1132963989	20.8810526316	3.14919354839	-43.3815384615
948	0.474	16.2650969529	-3.22315789474	4.56451612903	-44.7876923077
949	0.4745	35.9736842105	-6.05894736842	1.73387096774	-44.7876923077
950	0.475	33.1581717452	-8.89473684211	7.39516129032	-47.6
951	0.4755	31.7504155125	-10.3126315789	5.97983870968	-49.0061538462
952	0.476	31.7504155125	-11.7305263158	4.56451612903	-40.5692307692
953	0.4765	27.5271468144	-8.89473684211	7.39516129032	-34.9446153846
954	0.477	28.9349030471	-6.05894736842	5.97983870968	-39.1630769231
955	0.4775	23.3038781163	-0.387368421053	1.73387096774	-9.63384615385
956	0.478	14.8573407202	-1.80526315789	-3.92741935484	-6.82153846154
957	0.4785	23.3038781163	-3.22315789474	-5.34274193548	-20.8830769231
958	0.479	35.9736842105	-0.387368421053	-8.17338709677	-29.32
959	0.4795	51.4590027701	2.44842105263	-1.09677419355	-36.3507692308
960	0.48	57.0900277008	-8.89473684211	0.318548387097	-37.7569230769
961	0.4805	51.4590027701	-3.22315789474	5.97983870968	-40.5692307692
962	0.481	45.8279778393	1.03052631579	1.73387096774	-44.7876923077
963	0.4815	26.1193905817	23.7168421053	-2.51209677419	-44.7876923077
964	0.482	-6.25900277008	16.6273684211	-1.09677419355	-34.9446153846
965	0.4825	-13.2977839335	10.9557894737	1.73387096774	-34.9446153846
966	0.483	-14.7055401662	8.12	-2.51209677419	-29.32
967	0.4835	0.779778393352	8.12	-8.17338709677	-30.7261538462
968	0.484	23.3038781163	6.70210526316	-11.0040322581	-44.7876923077
969	0.4845	44.4202216066	3.86631578947	-8.17338709677	-53.2246153846
970	0.485	43.012465374	1.03052631579	7.39516129032	-53.2246153846
971	0.4855	37.3814404432	-3.22315789474	-1.09677419355	-58.8492307692
972	0.486	28.9349030471	-18.82	7.39516129032	-46.1938461538
973	0.4865	17.6728531856	-21.6557894737	5.97983870968	-33.5384615385
974	0.487	-3.44349030471	-10.3126315789	3.14919354839	-32.1323076923
975	0.4875	-27.3753462604	-3.22315789474	1.73387096774	-36.3507692308
976	0.488	-47.083933518	-10.3126315789	3.14919354839	-39.1630769231
977	0.4885	-72.4235457064	-10.3126315789	11.6411290323	-43.3815384615
978	0.489	-73.8313019391	-15.9842105263	3.14919354839	-47.6
979	0.4895	-73.8313019391	-13.1484210526	-3.92741935484	-47.6
980	0.49	-65.3847645429	-6.05894736842	-5.34274193548	-44.7876923077
981	0.4905	-69.608033241	-4.64105263158	-2.51209677419	-36.3507692308
982	0.491	-62.5692520776	-4.64105263158	-1.09677419355	-23.6953846154
983	0.4915	-56.9382271468	-4.64105263158	13.0564516129	-19.4769230769
984	0.492	-61.1614958449	-10.3126315789	21.5483870968	-9.63384615385
985	0.4925	-73.8313019391	-11.7305263158	-9.58870967742	-2.60307692308
986	0.493	-85.0933518006	-23.0736842105	-1.09677419355	-1.19692307692
987	0.4935	-94.9476454294	-11.7305263158	0.318548387097	-2.60307692308
988	0.494	-93.5398891967	-6.05894736842	0.318548387097	-11.04
989	0.4945	-87.9088642659	-3.22315789474	4.56451612903	-9.63384615385
990	0.495	-85.0933518006	-8.89473684211	4.56451612903	-5.41538461538
991	0.4955	-66.7925207756	-8.89473684211	5.97983870968	-6.82153846154
992	0.496	-56.9382271468	-6.05894736842	4.56451612903	-6.82153846154
993	0.4965	-18.9288088643	-4.64105263158	3.14919354839	-2.60307692308
994	0.497	-28.7831024931	-3.22315789474	-1.09677419355	-1.19692307692
995	0.4975	-13.2977839335	3.86631578947	-2.51209677419	-27.9138461538
996	0.498	-4.8512465374	3.86631578947	-3.92741935484	-27.9138461538
997	0.4985	3.59529085873	-1.80526315789	-8.17338709677	-20.8830769231
998	0.499	16.2650969529	-1.80526315789	-9.58870967742	-33.5384615385
999	0.4995	24.711634349	-7.47684210526	1.73387096774	-29.32
1000	0.5	21.8961218837	-7.47684210526	22.9637096774	-29.32
1001	0.5005	16.2650969529	-0.387368421053	5.97983870968	-29.32
1002	0.501	5.00304709141	-6.05894736842	3.14919354839	-30.7261538462
1003	0.5015	-3.44349030471	-6.05894736842	1.73387096774	-27.9138461538
1004	0.502	-3.44349030471	3.86631578947	0.318548387097	-23.6953846154
1005	0.5025	-16.1132963989	10.9557894737	1.73387096774	-23.6953846154
1006	0.503	-48.4916897507	16.6273684211	1.73387096774	-15.2584615385
1007	0.5035	-51.3072022161	16.6273684211	3.14919354839	-30.7261538462
1008	0.504	-44.2684210526	19.4631578947	-1.09677419355	-49.0061538462
1009	0.5045	-37.2296398892	15.2094736842	0.318548387097	-51.8184615385
1010	0.505	-30.1908587258	13.7915789474	-6.75806451613	-49.0061538462
1011	0.5055	-35.8218836565	2.44842105263	-6.75806451613	-50.4123076923
1012	0.506	-41.4529085873	-8.89473684211	7.39516129032	-47.6
1013	0.5065	-40.0451523546	-4.64105263158	0.318548387097	-44.7876923077
1014	0.507	-41.4529085873	-17.4021052632	1.73387096774	-40.5692307692
1015	0.5075	-59.7537396122	-10.3126315789	4.56451612903	-34.9446153846
1016	0.508	-54.1227146814	-11.7305263158	4.56451612903	-32.1323076923
1017	0.5085	-40.0451523546	-4.64105263158	5.97983870968	-16.6646153846
1018	0.509	-30.1908587258	-1.80526315789	4.56451612903	-9.63384615385
1019	0.5095	-23.1520775623	-6.05894736842	-2.51209677419	-20.8830769231
1020	0.51	-11.8900277008	-7.47684210526	3.14919354839	-26.5076923077
1021	0.5105	-4.8512465374	-10.3126315789	8.81048387097	-29.32
1022	0.511	0.779778393352	-14.5663157895	7.39516129032	-23.6953846154
1023	0.5115	5.00304709141	-15.9842105263	7.39516129032	-13.8523076923
1024	0.512	5.00304709141	-15.9842105263	7.39516129032	-11.04
1025	0.5125	19.0806094183	-20.2378947368	-6.75806451613	-2.60307692308
1026	0.513	26.1193905817	-13.1484210526	-5.34274193548	7.24
1027	0.5135	27.5271468144	-13.1484210526	0.318548387097	5.83384615385
1028	0.514	23.3038781163	-8.89473684211	1.73387096774	0.209230769231
1029	0.5145	37.3814404432	-7.47684210526	1.73387096774	-6.82153846154
1030	0.515	27.5271468144	-4.64105263158	4.56451612903	-4.00923076923
1031	0.5155	5.00304709141	6.70210526316	3.14919354839	-5.41538461538
1032	0.516	-23.1520775623	8.12	0.318548387097	-20.8830769231
1033	0.5165	-31.5986149584	8.12	3.14919354839	-20.8830769231
1034	0.517	-35.8218836565	18.0452631579	-1.09677419355	-27.9138461538
1035	0.5175	-31.5986149584	20.8810526316	0.318548387097	-39.1630769231
1036	0.518	-25.9675900277	16.6273684211	4.56451612903	-40.5692307692
1037	0.5185	-23.1520775623	16.6273684211	-1.09677419355	-49.0061538462
1038	0.519	-23.1520775623	9.53789473684	-5.34274193548	-54.6307692308
1039	0.5195	-23.1520775623	-7.47684210526	-1.09677419355	-57.4430769231
1040	0.52	-16.1132963989	-6.05894736842	4.56451612903	-61.6615384615
1041	0.5205	-0.627977839335	-3.22315789474	4.56451612903	-60.2553846154
1042	0.521	-3.44349030471	6.70210526316	7.39516129032	-56.0369230769
1043	0.5215	19.0806094183	1.03052631579	1.73387096774	-46.1938461538
1044	0.522	28.9349030471	-1.80526315789	-1.09677419355	-58.8492307692
1045	0.5225	28.9349030471	-1.80526315789	0.318548387097	-41.9753846154
1046	0.523	28.9349030471	3.86631578947	7.39516129032	-34.9446153846
1047	0.5235	12.0418282548	-0.387368421053	8.81048387097	-16.6646153846
1048	0.524	-9.07451523546	-7.47684210526	25.7943548387	-12.4461538462
1049	0.5245	-21.7443213296	-8.89473684211	13.0564516129	-4.00923076923
1050	0.525	-35.8218836565	-6.05894736842	-3.92741935484	5.83384615385
1051	0.5255	-48.4916897507	-0.387368421053	-16.6653225806	15.6769230769
1052	0.526	-55.5304709141	2.44842105263	-6.75806451613	21.3015384615
1053	0.5265	-62.5692520776	23.7168421053	-5.34274193548	22.7076923077
1054	0.527	-62.5692520776	15.2094736842	-3.92741935484	18.4892307692
1055	0.5275	-72.4235457064	8.12	-2.51209677419	15.6769230769
1056	0.528	-52.7149584488	8.12	5.97983870968	5.83384615385
1057	0.5285	-25.9675900277	8.12	3.14919354839	0.209230769231
1058	0.529	-14.7055401662	6.70210526316	-2.51209677419	10.0523076923
1059	0.5295	-4.8512465374	5.28421052632	-3.92741935484	-18.0707692308
1060	0.53	5.00304709141	1.03052631579	-3.92741935484	-23.6953846154
1061	0.5305	9.22631578947	-0.387368421053	11.6411290323	-20.8830769231
1062	0.531	7.81855955679	-1.80526315789	3.14919354839	-33.5384615385
1063	0.5315	2.18753462604	-4.64105263158	14.4717741935	-39.1630769231
1064	0.532	7.81855955679	-4.64105263158	0.318548387097	-49.0061538462
1065	0.5325	16.2650969529	-6.05894736842	3.14919354839	-53.2246153846
1066	0.533	21.8961218837	1.03052631579	4.56451612903	-47.6
1067	0.5335	23.3038781163	-10.3126315789	4.56451612903	-43.3815384615
1068	0.534	24.711634349	1.03052631579	3.14919354839	-39.1630769231
1069	0.5345	23.3038781163	-18.82	4.56451612903	-33.5384615385
1070	0.535	21.8961218837	-15.9842105263	11.6411290323	-41.9753846154
1071	0.5355	-0.627977839335	-15.9842105263	1.73387096774	-27.9138461538
1072	0.536	-6.25900277008	-14.5663157895	-3.92741935484	-30.7261538462
1073	0.5365	-16.1132963989	-10.3126315789	-8.17338709677	-11.04
1074	0.537	-21.7443213296	-6.05894736842	0.318548387097	-9.63384615385
1075	0.5375	-24.559833795	-0.387368421053	5.97983870968	-11.04
1076	0.538	-24.559833795	5.28421052632	1.73387096774	-8.22769230769
1077	0.5385	-14.7055401662	8.12	-1.09677419355	-6.82153846154
1078	0.539	0.779778393352	5.28421052632	-8.17338709677	-9.63384615385
1079	0.5395	17.6728531856	5.28421052632	0.318548387097	-9.63384615385
1080	0.54	21.8961218837	6.70210526316	3.14919354839	-20.8830769231
1081	0.5405	19.0806094183	5.28421052632	3.14919354839	-29.32
1082	0.541	-3.44349030471	-1.80526315789	-1.09677419355	-30.7261538462
1083	0.5415	-11.8900277008	-1.80526315789	-2.51209677419	-32.1323076923
1084	0.542	-4.8512465374	3.86631578947	5.97983870968	-53.2246153846
1085	0.5425	-11.8900277008	5.28421052632	4.56451612903	-50.4123076923
1086	0.543	-18.9288088643	3.86631578947	8.81048387097	-44.7876923077
1087	0.5435	-21.7443213296	-0.387368421053	0.318548387097	-46.1938461538
1088	0.544	-21.7443213296	-0.387368421053	4.56451612903	-25.1015384615
1089	0.5445	-13.2977839335	-1.80526315789	-8.17338709677	-32.1323076923
1090	0.545	-7.66675900277	-6.05894736842	-3.92741935484	-25.1015384615
1091	0.5455	2.18753462604	-10.3126315789	-1.09677419355	-22.2892307692
1092	0.546	9.22631578947	5.28421052632	0.318548387097	-22.2892307692
1093	0.5465	13.4495844875	-14.5663157895	0.318548387097	-25.1015384615
1094	0.547	19.0806094183	-11.7305263158	0.318548387097	-29.32
1095	0.5475	17.6728531856	-10.3126315789	0.318548387097	-29.32
1096	0.548	26.1193905817	-4.64105263158	4.56451612903	-25.1015384615
1097	0.5485	9.22631578947	-1.80526315789	1.73387096774	-27.9138461538
1098	0.549	17.6728531856	-3.22315789474	-1.09677419355	-13.8523076923
1099	0.5495	33.1581717452	2.44842105263	5.97983870968	-18.0707692308
1100	0.55	33.1581717452	8.12	-6.75806451613	-23.6953846154
1101	0.5505	27.5271468144	9.53789473684	17.3024193548	-22.2892307692
1102	0.551	26.1193905817	2.44842105263	1.73387096774	-25.1015384615
1103	0.5515	17.6728531856	2.44842105263	7.39516129032	-19.4769230769
1104	0.552	16.2650969529	-10.3126315789	0.318548387097	-33.5384615385
1105	0.5525	10.6340720222	-10.3126315789	-1.09677419355	-41.9753846154
1106	0.553	-2.03573407202	10.9557894737	4.56451612903	-41.9753846154
1107	0.5535	-7.66675900277	10.9557894737	5.97983870968	-32.1323076923
1108	0.554	-9.07451523546	-1.80526315789	1.73387096774	-25.1015384615
1109	0.5545	-7.66675900277	1.03052631579	0.318548387097	-22.2892307692
1110	0.555	-4.8512465374	-7.47684210526	0.318548387097	-22.2892307692
1111	0.5555	-6.25900277008	-7.47684210526	3.14919354839	-20.8830769231
1112	0.556	0.779778393352	-8.89473684211	4.56451612903	-11.04
1113	0.5565	7.81855955679	-6.05894736842	1.73387096774	-25.1015384615
1114	0.557	17.6728531856	-4.64105263158	-1.09677419355	-43.3815384615
1115	0.5575	14.8573407202	1.03052631579	25.7943548387	-39.1630769231
1116	0.558	13.4495844875	5.28421052632	21.5483870968	-34.9446153846
1117	0.5585	16.2650969529	3.86631578947	-8.17338709677	-36.3507692308
1118	0.559	14.8573407202	2.44842105263	-8.17338709677	-43.3815384615
1119	0.5595	9.22631578947	5.28421052632	-1.09677419355	-47.6
1120	0.56	2.18753462604	8.12	-1.09677419355	-47.6
1121	0.5605	-3.44349030471	-7.47684210526	4.56451612903	-39.1630769231
1122	0.561	-11.8900277008	-1.80526315789	4.56451612903	-39.1630769231
1123	0.5615	-23.1520775623	3.86631578947	5.97983870968	-39.1630769231
1124	0.562	-23.1520775623	1.03052631579	0.318548387097	-36.3507692308
1125	0.5625	-21.7443213296	-8.89473684211	-1.09677419355	-34.9446153846
1126	0.563	-17.5210526316	-13.1484210526	-1.09677419355	-16.6646153846
1127	0.5635	-6.25900277008	-21.6557894737	3.14919354839	5.83384615385
1128	0.564	-3.44349030471	-23.0736842105	0.318548387097	14.2707692308
1129	0.5645	7.81855955679	-27.3273684211	-5.34274193548	14.2707692308
1130	0.565	13.4495844875	-27.3273684211	-6.75806451613	-6.82153846154
1131	0.5655	35.9736842105	-13.1484210526	-6.75806451613	-11.04
1132	0.566	50.0512465374	-8.89473684211	1.73387096774	-5.41538461538
1133	0.5665	57.0900277008	-14.5663157895	4.56451612903	-4.00923076923
1134	0.567	44.4202216066	-10.3126315789	1.73387096774	-4.00923076923
1135	0.5675	45.8279778393	-0.387368421053	7.39516129032	-9.63384615385
1136	0.568	44.4202216066	3.86631578947	7.39516129032	-15.2584615385
1137	0.5685	44.4202216066	10.9557894737	4.56451612903	-22.2892307692
1138	0.569	35.9736842105	5.28421052632	5.97983870968	-25.1015384615
1139	0.5695	30.3426592798	2.44842105263	0.318548387097	-29.32
1140	0.57	20.488365651	1.03052631579	-1.09677419355	-27.9138461538
1141	0.5705	17.6728531856	3.86631578947	-13.8346774194	-27.9138461538
1142	0.571	10.6340720222	1.03052631579	13.0564516129	-23.6953846154
1143	0.5715	-3.44349030471	5.28421052632	15.8870967742	-25.1015384615
1144	0.572	-25.9675900277	5.28421052632	1.73387096774	-26.5076923077
1145	0.5725	-33.0063711911	5.28421052632	0.318548387097	-26.5076923077
1146	0.573	-31.5986149584	-6.05894736842	-8.17338709677	-30.7261538462
1147	0.5735	-25.9675900277	-17.4021052632	1.73387096774	-40.5692307692
1148	0.574	-16.1132963989	-0.387368421053	5.97983870968	-44.7876923077
1149	0.5745	-20.336565097	-10.3126315789	4.56451612903	-43.3815384615
1150	0.575	19.0806094183	-6.05894736842	5.97983870968	-36.3507692308
1151	0.5755	27.5271468144	-1.80526315789	4.56451612903	-34.9446153846
1152	0.576	7.81855955679	-3.22315789474	4.56451612903	-34.9446153846
1153	0.5765	3.59529085873	-1.80526315789	3.14919354839	-40.5692307692
1154	0.577	-4.8512465374	3.86631578947	5.97983870968	-27.9138461538
1155	0.5775	-2.03573407202	10.9557894737	20.1330645161	-36.3507692308
1156	0.578	-10.4822714681	9.53789473684	-5.34274193548	-34.9446153846
1157	0.5785	-21.7443213296	8.12	-8.17338709677	-33.5384615385
1158	0.579	-34.4141274238	-0.387368421053	-1.09677419355	-29.32
1159	0.5795	-48.4916897507	9.53789473684	3.14919354839	-34.9446153846
1160	0.58	-59.7537396122	-0.387368421053	3.14919354839	-32.1323076923
1161	0.5805	-61.1614958449	8.12	3.14919354839	-32.1323076923
1162	0.581	-62.5692520776	9.53789473684	1.73387096774	-25.1015384615
1163	0.5815	-49.8994459834	9.53789473684	-1.09677419355	-15.2584615385
1164	0.582	-0.627977839335	6.70210526316	1.73387096774	-15.2584615385
1165	0.5825	14.8573407202	5.28421052632	4.56451612903	-11.04
1166	0.583	12.0418282548	-1.80526315789	4.56451612903	4.42769230769
1167	0.5835	20.488365651	-4.64105263158	1.73387096774	-11.04
1168	0.584	13.4495844875	-3.22315789474	0.318548387097	-9.63384615385
1169	0.5845	5.00304709141	-0.387368421053	4.56451612903	-1.19692307692
1170	0.585	-6.25900277008	-3.22315789474	-2.51209677419	-8.22769230769
1171	0.5855	-24.559833795	2.44842105263	17.3024193548	-22.2892307692
1172	0.586	-31.5986149584	2.44842105263	-5.34274193548	-27.9138461538
1173	0.5865	-38.6373961219	-4.64105263158	-5.34274193548	-27.9138461538
1174	0.587	-45.6761772853	1.03052631579	-6.75806451613	-22.2892307692
1175	0.5875	-47.083933518	-0.387368421053	-6.75806451613	-23.6953846154
1176	0.588	-21.7443213296	-3.22315789474	-3.92741935484	-23.6953846154
1177	0.5885	-13.2977839335	-4.64105263158	-5.34274193548	-18.0707692308
1178	0.589	-6.25900277008	-3.22315789474	-1.09677419355	-19.4769230769
1179	0.5895	-7.66675900277	2.44842105263	-2.51209677419	-18.0707692308
1180	0.59	-0.627977839335	1.03052631579	-12.4193548387	-23.6953846154
1181	0.5905	3.59529085873	-4.64105263158	-2.51209677419	1.61538461538
1182	0.591	10.6340720222	-6.05894736842	-5.34274193548	7.24
1183	0.5915	13.4495844875	-7.47684210526	0.318548387097	-11.04
1184	0.592	14.8573407202	-13.1484210526	-1.09677419355	-11.04
1185	0.5925	13.4495844875	-15.9842105263	0.318548387097	-13.8523076923
1186	0.593	9.22631578947	-20.2378947368	1.73387096774	-16.6646153846
1187	0.5935	0.779778393352	-14.5663157895	1.73387096774	-26.5076923077
1188	0.594	-4.8512465374	-7.47684210526	1.73387096774	-30.7261538462
1189	0.5945	-4.8512465374	-6.05894736842	5.97983870968	-41.9753846154
1190	0.595	23.3038781163	1.03052631579	0.318548387097	-43.3815384615
1191	0.5955	0.779778393352	2.44842105263	-1.09677419355	-27.9138461538
1192	0.596	2.18753462604	6.70210526316	1.73387096774	-37.7569230769
1193	0.5965	-0.627977839335	13.7915789474	1.73387096774	-33.5384615385
1194	0.597	-0.627977839335	10.9557894737	-1.09677419355	-16.6646153846
1195	0.5975	-6.25900277008	6.70210526316	-1.09677419355	-23.6953846154
1196	0.598	-14.7055401662	-0.387368421053	11.6411290323	-20.8830769231
1197	0.5985	-17.5210526316	-1.80526315789	-2.51209677419	-30.7261538462
1198	0.599	-16.1132963989	6.70210526316	-1.09677419355	-27.9138461538
1199	0.5995	-13.2977839335	-1.80526315789	3.14919354839	-8.22769230769
1200	0.6	-6.25900277008	-7.47684210526	4.56451612903	3.02153846154
1201	0.6005	-10.4822714681	-7.47684210526	1.73387096774	4.42769230769
1202	0.601	-3.44349030471	-4.64105263158	-5.34274193548	4.42769230769
1203	0.6015	-6.25900277008	-3.22315789474	-12.4193548387	5.83384615385
1204	0.602	-25.9675900277	-1.80526315789	-3.92741935484	8.64615384615
1205	0.6025	-20.336565097	2.44842105263	3.14919354839	0.209230769231
1206	0.603	-14.7055401662	2.44842105263	7.39516129032	19.8953846154
1207	0.6035	-11.8900277008	-0.387368421053	1.73387096774	7.24
1208	0.604	-4.8512465374	-1.80526315789	-1.09677419355	-11.04
1209	0.6045	5.00304709141	-4.64105263158	3.14919354839	-9.63384615385
1210	0.605	16.2650969529	1.03052631579	7.39516129032	-1.19692307692
1211	0.6055	23.3038781163	-13.1484210526	1.73387096774	1.61538461538
1212	0.606	27.5271468144	-3.22315789474	0.318548387097	1.61538461538
1213	0.6065	20.488365651	16.6273684211	-1.09677419355	-5.41538461538
1214	0.607	20.488365651	2.44842105263	3.14919354839	-8.22769230769
1215	0.6075	16.2650969529	-6.05894736842	3.14919354839	-16.6646153846
1216	0.608	17.6728531856	2.44842105263	4.56451612903	-16.6646153846
1217	0.6085	2.18753462604	-0.387368421053	3.14919354839	-16.6646153846
1218	0.609	-4.8512465374	-0.387368421053	0.318548387097	-18.0707692308
1219	0.6095	-7.66675900277	1.03052631579	3.14919354839	-23.6953846154
1220	0.61	-13.2977839335	-1.80526315789	3.14919354839	0.209230769231
1221	0.6105	-11.8900277008	-0.387368421053	-3.92741935484	-18.0707692308
1222	0.611	-11.8900277008	-1.80526315789	11.6411290323	-22.2892307692
1223	0.6115	-6.25900277008	-4.64105263158	-1.09677419355	-20.8830769231
1224	0.612	-7.66675900277	-6.05894736842	-9.58870967742	-27.9138461538
1225	0.6125	-4.8512465374	9.53789473684	3.14919354839	-27.9138461538
1226	0.613	-7.66675900277	-6.05894736842	3.14919354839	-22.2892307692
1227	0.6135	-7.66675900277	-7.47684210526	0.318548387097	-12.4461538462
1228	0.614	-24.559833795	-6.05894736842	3.14919354839	-6.82153846154
1229	0.6145	-14.7055401662	-0.387368421053	3.14919354839	3.02153846154
1230	0.615	-3.44349030471	3.86631578947	4.56451612903	14.2707692308
1231	0.6155	0.779778393352	6.70210526316	1.73387096774	21.3015384615
1232	0.616	-3.44349030471	2.44842105263	-1.09677419355	28.3323076923
1233	0.6165	-2.03573407202	2.44842105263	4.56451612903	14.2707692308
1234	0.617	-3.44349030471	2.44842105263	14.4717741935	1.61538461538
1235	0.6175	-2.03573407202	1.03052631579	-6.75806451613	-2.60307692308
1236	0.618	-6.25900277008	-13.1484210526	4.56451612903	-1.19692307692
1237	0.6185	-0.627977839335	-13.1484210526	1.73387096774	-1.19692307692
1238	0.619	7.81855955679	-15.9842105263	0.318548387097	-5.41538461538
1239	0.6195	0.779778393352	-10.3126315789	3.14919354839	-6.82153846154
1240	0.62	5.00304709141	-8.89473684211	0.318548387097	-12.4461538462
1241	0.6205	0.779778393352	-7.47684210526	-2.51209677419	-13.8523076923
1242	0.621	19.0806094183	-6.05894736842	-3.92741935484	-23.6953846154
1243	0.6215	2.18753462604	-7.47684210526	0.318548387097	-23.6953846154
1244	0.622	5.00304709141	-6.05894736842	7.39516129032	-33.5384615385
1245	0.6225	-4.8512465374	-0.387368421053	0.318548387097	-33.5384615385
1246	0.623	-16.1132963989	1.03052631579	-5.34274193548	-23.6953846154
1247	0.6235	-16.1132963989	1.03052631579	0.318548387097	-29.32
1248	0.624	-11.8900277008	1.03052631579	21.5483870968	-33.5384615385
1249	0.6245	-0.627977839335	-8.89473684211	3.14919354839	-32.1323076923
1250	0.625	7.81855955679	-6.05894736842	0.318548387097	-32.1323076923
1251	0.6255	5.00304709141	-14.5663157895	-2.51209677419	-30.7261538462
1252	0.626	2.18753462604	-10.3126315789	-3.92741935484	-23.6953846154
1253	0.6265	0.779778393352	-13.1484210526	0.318548387097	-19.4769230769
1254	0.627	28.9349030471	-1.80526315789	8.81048387097	-11.04
1255	0.6275	7.81855955679	-4.64105263158	7.39516129032	-2.60307692308
1256	0.628	20.488365651	-7.47684210526	-6.75806451613	15.6769230769
1257	0.6285	27.5271468144	-6.05894736842	-15.25	8.64615384615
1258	0.629	33.1581717452	2.44842105263	-2.51209677419	-2.60307692308
1259	0.6295	33.1581717452	6.70210526316	-6.75806451613	-1.19692307692
1260	0.63	24.711634349	6.70210526316	-5.34274193548	3.02153846154
1261	0.6305	14.8573407202	-1.80526315789	3.14919354839	8.64615384615
1262	0.631	10.6340720222	10.9557894737	3.14919354839	12.8646153846
1263	0.6315	0.779778393352	-8.89473684211	1.73387096774	15.6769230769
1264	0.632	-7.66675900277	2.44842105263	1.73387096774	12.8646153846
1265	0.6325	13.4495844875	-0.387368421053	1.73387096774	3.02153846154
1266	0.633	37.3814404432	6.70210526316	1.73387096774	-5.41538461538
1267	0.6335	35.9736842105	5.28421052632	0.318548387097	-11.04
1268	0.634	61.3132963989	-1.80526315789	-2.51209677419	-15.2584615385
1269	0.6345	61.3132963989	-1.80526315789	0.318548387097	1.61538461538
1270	0.635	64.1288088643	2.44842105263	15.8870967742	-6.82153846154
1271	0.6355	57.0900277008	-0.387368421053	0.318548387097	-19.4769230769
1272	0.636	51.4590027701	-3.22315789474	-1.09677419355	-13.8523076923
1273	0.6365	47.235734072	-13.1484210526	-2.51209677419	-16.6646153846
1274	0.637	51.4590027701	3.86631578947	1.73387096774	-18.0707692308
1275	0.6375	54.2745152355	-10.3126315789	5.97983870968	-20.8830769231
1276	0.638	45.8279778393	-10.3126315789	7.39516129032	-26.5076923077
1277	0.6385	26.1193905817	-11.7305263158	0.318548387097	-26.5076923077
1278	0.639	38.7891966759	-7.47684210526	-3.92741935484	-30.7261538462
1279	0.6395	0.779778393352	-1.80526315789	0.318548387097	-30.7261538462
1280	0.64	-21.7443213296	-1.80526315789	7.39516129032	-29.32
1281	0.6405	-33.0063711911	-10.3126315789	3.14919354839	-39.1630769231
1282	0.641	-38.6373961219	-10.3126315789	3.14919354839	-33.5384615385
1283	0.6415	-33.0063711911	-6.05894736842	14.4717741935	-23.6953846154
1284	0.642	-28.7831024931	-4.64105263158	13.0564516129	-12.4461538462
1285	0.6425	-20.336565097	-0.387368421053	0.318548387097	-6.82153846154
1286	0.643	-11.8900277008	16.6273684211	-1.09677419355	-4.00923076923
1287	0.6435	-7.66675900277	29.3884210526	-2.51209677419	-4.00923076923
1288	0.644	-13.2977839335	19.4631578947	0.318548387097	-5.41538461538
1289	0.6445	-17.5210526316	18.0452631579	-2.51209677419	-8.22769230769
1290	0.645	13.4495844875	16.6273684211	1.73387096774	-9.63384615385
1291	0.6455	10.6340720222	2.44842105263	-1.09677419355	-12.4461538462
1292	0.646	-9.07451523546	-1.80526315789	0.318548387097	-6.82153846154
1293	0.6465	-10.4822714681	-1.80526315789	-1.09677419355	0.209230769231
1294	0.647	-11.8900277008	3.86631578947	-3.92741935484	7.24
1295	0.6475	-16.1132963989	5.28421052632	-5.34274193548	0.209230769231
1296	0.648	-14.7055401662	1.03052631579	0.318548387097	-5.41538461538
1297	0.6485	-14.7055401662	-3.22315789474	1.73387096774	-15.2584615385
1298	0.649	-10.4822714681	-20.2378947368	4.56451612903	-20.8830769231
1299	0.6495	-4.8512465374	-27.3273684211	-1.09677419355	-11.04
1300	0.65	2.18753462604	-13.1484210526	-6.75806451613	4.42769230769
1301	0.6505	10.6340720222	-15.9842105263	-2.51209677419	8.64615384615
1302	0.651	10.6340720222	-17.4021052632	1.73387096774	14.2707692308
1303	0.6515	38.7891966759	-11.7305263158	3.14919354839	12.8646153846
1304	0.652	30.3426592798	-4.64105263158	1.73387096774	3.02153846154
1305	0.6525	41.6047091413	8.12	3.14919354839	12.8646153846
1306	0.653	40.1969529086	10.9557894737	0.318548387097	4.42769230769
1307	0.6535	35.9736842105	9.53789473684	0.318548387097	5.83384615385
1308	0.654	23.3038781163	13.7915789474	-1.09677419355	3.02153846154
1309	0.6545	14.8573407202	16.6273684211	11.6411290323	8.64615384615
1310	0.655	0.779778393352	19.4631578947	-2.51209677419	5.83384615385
1311	0.6555	-4.8512465374	27.9705263158	0.318548387097	4.42769230769
1312	0.656	-11.8900277008	2.44842105263	4.56451612903	17.0830769231
1313	0.6565	-14.7055401662	-1.80526315789	3.14919354839	24.1138461538
1314	0.657	-4.8512465374	5.28421052632	3.14919354839	28.3323076923
1315	0.6575	2.18753462604	1.03052631579	-2.51209677419	24.1138461538
1316	0.658	9.22631578947	-6.05894736842	0.318548387097	19.8953846154
1317	0.6585	17.6728531856	-6.05894736842	-2.51209677419	42.3938461538
1318	0.659	33.1581717452	-10.3126315789	-1.09677419355	49.4246153846
1319	0.6595	45.8279778393	-13.1484210526	1.73387096774	57.8615384615
1320	0.66	54.2745152355	-10.3126315789	15.8870967742	56.4553846154
1321	0.6605	50.0512465374	-13.1484210526	14.4717741935	55.0492307692
1322	0.661	40.1969529086	-15.9842105263	-1.09677419355	60.6738461538
1323	0.6615	26.1193905817	-17.4021052632	-3.92741935484	60.6738461538
1324	0.662	7.81855955679	-6.05894736842	0.318548387097	60.6738461538
1325	0.6625	-13.2977839335	9.53789473684	4.56451612903	50.8307692308
1326	0.663	-38.6373961219	3.86631578947	7.39516129032	38.1753846154
1327	0.6635	-40.0451523546	-0.387368421053	3.14919354839	39.5815384615
1328	0.664	-25.9675900277	-0.387368421053	3.14919354839	42.3938461538
1329	0.6645	-21.7443213296	-0.387368421053	-1.09677419355	69.1107692308
1330	0.665	-16.1132963989	-0.387368421053	3.14919354839	71.9230769231
1331	0.6655	-0.627977839335	-6.05894736842	-5.34274193548	69.1107692308
1332	0.666	13.4495844875	-6.05894736842	15.8870967742	42.3938461538
1333	0.6665	21.8961218837	-1.80526315789	15.8870967742	33.9569230769
1334	0.667	19.0806094183	-4.64105263158	0.318548387097	40.9876923077
1335	0.6675	5.00304709141	-3.22315789474	-2.51209677419	45.2061538462
1336	0.668	-6.25900277008	-0.387368421053	-3.92741935484	45.2061538462
1337	0.6685	-16.1132963989	13.7915789474	-6.75806451613	46.6123076923
1338	0.669	-27.3753462604	9.53789473684	-5.34274193548	48.0184615385
1339	0.6695	-18.9288088643	9.53789473684	-6.75806451613	59.2676923077
1340	0.67	-11.8900277008	9.53789473684	-6.75806451613	67.7046153846
1341	0.6705	-20.336565097	2.44842105263	0.318548387097	45.2061538462
1342	0.671	-10.4822714681	-4.64105263158	0.318548387097	15.6769230769
1343	0.6715	-2.03573407202	-7.47684210526	-3.92741935484	8.64615384615
1344	0.672	-3.44349030471	-3.22315789474	-12.4193548387	-8.22769230769
1345	0.6725	-3.44349030471	-4.64105263158	-9.58870967742	-20.8830769231
1346	0.673	-10.4822714681	-0.387368421053	0.318548387097	-43.3815384615
1347	0.6735	-10.4822714681	-6.05894736842	4.56451612903	-63.0676923077
1348	0.674	-13.2977839335	-6.05894736842	3.14919354839	-85.5661538462
1349	0.6745	-18.9288088643	2.44842105263	5.97983870968	-103.846153846
1350	0.675	-14.7055401662	1.03052631579	5.97983870968	-123.532307692
1351	0.6755	-23.1520775623	5.28421052632	5.97983870968	-140.406153846
1352	0.676	-14.7055401662	6.70210526316	4.56451612903	-154.467692308
1353	0.6765	-4.8512465374	2.44842105263	4.56451612903	-171.341538462
1354	0.677	-7.66675900277	-6.05894736842	5.97983870968	-182.590769231
1355	0.6775	-7.66675900277	-6.05894736842	11.6411290323	-195.246153846
1356	0.678	-2.03573407202	-6.05894736842	0.318548387097	-200.870769231
1357	0.6785	5.00304709141	-1.80526315789	4.56451612903	-223.369230769
1358	0.679	10.6340720222	2.44842105263	5.97983870968	-252.898461538
1359	0.6795	13.4495844875	-7.47684210526	8.81048387097	-272.584615385
1360	0.68	17.6728531856	-14.5663157895	7.39516129032	-297.895384615
1361	0.6805	17.6728531856	8.12	3.14919354839	-326.018461538
1362	0.681	14.8573407202	1.03052631579	4.56451612903	-344.298461538
1363	0.6815	3.59529085873	-7.47684210526	5.97983870968	-363.984615385
1364	0.682	31.7504155125	-10.3126315789	7.39516129032	-380.858461538
1365	0.6825	14.8573407202	-8.89473684211	13.0564516129	-401.950769231
1366	0.683	17.6728531856	-8.89473684211	8.81048387097	-434.292307692
1367	0.6835	27.5271468144	-6.05894736842	14.4717741935	-448.353846154
1368	0.684	23.3038781163	-6.05894736842	4.56451612903	-455.384615385
1369	0.6845	16.2650969529	-1.80526315789	17.3024193548	-480.695384615
1370	0.685	2.18753462604	-3.22315789474	11.6411290323	-490.538461538
1371	0.6855	-7.66675900277	-6.05894736842	11.6411290323	-490.538461538
1372	0.686	-11.8900277008	-11.7305263158	8.81048387097	-489.132307692
1373	0.6865	-14.7055401662	22.2989473684	-2.51209677419	-483.507692308
1374	0.687	-13.2977839335	18.0452631579	3.14919354839	-473.664615385
1375	0.6875	-20.336565097	-6.05894736842	4.56451612903	-453.978461538
1376	0.688	-23.1520775623	3.86631578947	10.2258064516	-446.947692308
1377	0.6885	-34.4141274238	3.86631578947	13.0564516129	-445.541538462
1378	0.689	-25.9675900277	-1.80526315789	13.0564516129	-438.510769231
1379	0.6895	-44.2684210526	-10.3126315789	8.81048387097	-427.261538462
1380	0.69	-33.0063711911	-14.5663157895	5.97983870968	-413.2
1381	0.6905	-24.559833795	-14.5663157895	-1.09677419355	-400.544615385
1382	0.691	-14.7055401662	-10.3126315789	14.4717741935	-373.827692308
1383	0.6915	-10.4822714681	-3.22315789474	17.3024193548	-359.766153846
1384	0.692	-4.8512465374	-0.387368421053	4.56451612903	-341.486153846
1385	0.6925	12.0418282548	-1.80526315789	8.81048387097	-330.236923077
1386	0.693	26.1193905817	-4.64105263158	11.6411290323	-318.987692308
1387	0.6935	38.7891966759	-4.64105263158	7.39516129032	-309.144615385
1388	0.694	54.2745152355	1.03052631579	1.73387096774	-302.113846154
1389	0.6945	66.9443213296	6.70210526316	8.81048387097	-290.864615385
1390	0.695	73.9831024931	3.86631578947	15.8870967742	-276.803076923
1391	0.6955	24.711634349	2.44842105263	15.8870967742	-265.553846154
1392	0.696	10.6340720222	-1.80526315789	14.4717741935	-250.086153846
1393	0.6965	-0.627977839335	-0.387368421053	4.56451612903	-221.963076923
1394	0.697	-10.4822714681	2.44842105263	1.73387096774	-207.901538462
1395	0.6975	-20.336565097	3.86631578947	4.56451612903	-214.932307692
1396	0.698	-16.1132963989	2.44842105263	4.56451612903	-202.276923077
1397	0.6985	-13.2977839335	-1.80526315789	5.97983870968	-185.403076923
1398	0.699	-6.25900277008	-6.05894736842	1.73387096774	-168.529230769
1399	0.6995	3.59529085873	-20.2378947368	11.6411290323	-151.655384615
1400	0.7	9.22631578947	-15.9842105263	8.81048387097	-130.563076923
1401	0.7005	13.4495844875	-11.7305263158	-1.09677419355	-113.689230769
1402	0.701	23.3038781163	-3.22315789474	-3.92741935484	-101.033846154
1403	0.7015	20.488365651	-3.22315789474	-1.09677419355	-94.0030769231
1404	0.702	14.8573407202	-6.05894736842	5.97983870968	-86.9723076923
1405	0.7025	33.1581717452	-10.3126315789	-2.51209677419	-82.7538461538
1406	0.703	47.235734072	-14.5663157895	7.39516129032	-63.0676923077
1407	0.7035	55.6822714681	-20.2378947368	22.9637096774	-72.9107692308
1408	0.704	48.6434903047	-17.4021052632	4.56451612903	-71.5046153846
1409	0.7045	33.1581717452	-13.1484210526	4.56451612903	-54.6307692308
1410	0.705	14.8573407202	-10.3126315789	0.318548387097	-46.1938461538
1411	0.7055	-9.07451523546	2.44842105263	3.14919354839	-46.1938461538
1412	0.706	-25.9675900277	15.2094736842	4.56451612903	-37.7569230769
1413	0.7065	-48.4916897507	9.53789473684	-2.51209677419	-33.5384615385
1414	0.707	-65.3847645429	8.12	-3.92741935484	-33.5384615385
1415	0.7075	-37.2296398892	16.6273684211	-1.09677419355	-36.3507692308
1416	0.708	-48.4916897507	19.4631578947	0.318548387097	-23.6953846154
1417	0.7085	-40.0451523546	18.0452631579	1.73387096774	-34.9446153846
1418	0.709	-25.9675900277	13.7915789474	1.73387096774	-32.1323076923
1419	0.7095	-18.9288088643	10.9557894737	-5.34274193548	-30.7261538462
1420	0.71	-9.07451523546	2.44842105263	-8.17338709677	-27.9138461538
1421	0.7105	-2.03573407202	-0.387368421053	0.318548387097	-20.8830769231
1422	0.711	9.22631578947	-1.80526315789	1.73387096774	-18.0707692308
1423	0.7115	12.0418282548	-14.5663157895	0.318548387097	-16.6646153846
1424	0.712	17.6728531856	-8.89473684211	1.73387096774	-16.6646153846
1425	0.7125	20.488365651	-4.64105263158	3.14919354839	-9.63384615385
1426	0.713	23.3038781163	-4.64105263158	3.14919354839	0.209230769231
1427	0.7135	33.1581717452	-6.05894736842	-3.92741935484	12.8646153846
1428	0.714	24.711634349	-4.64105263158	-2.51209677419	18.4892307692
1429	0.7145	7.81855955679	-6.05894736842	0.318548387097	22.7076923077
1430	0.715	10.6340720222	-4.64105263158	-9.58870967742	22.7076923077
1431	0.7155	2.18753462604	-3.22315789474	0.318548387097	42.3938461538
1432	0.716	2.18753462604	-7.47684210526	-8.17338709677	32.5507692308
1433	0.7165	0.779778393352	-6.05894736842	7.39516129032	35.3630769231
1434	0.717	3.59529085873	-17.4021052632	0.318548387097	35.3630769231
1435	0.7175	16.2650969529	-17.4021052632	-2.51209677419	39.5815384615
1436	0.718	19.0806094183	-4.64105263158	-2.51209677419	43.8
1437	0.7185	26.1193905817	-11.7305263158	-3.92741935484	49.4246153846
1438	0.719	12.0418282548	-0.387368421053	-1.09677419355	52.2369230769
1439	0.7195	17.6728531856	1.03052631579	0.318548387097	52.2369230769
1440	0.72	31.7504155125	1.03052631579	-2.51209677419	48.0184615385
1441	0.7205	19.0806094183	-0.387368421053	-1.09677419355	33.9569230769
1442	0.721	10.6340720222	-1.80526315789	0.318548387097	32.5507692308
1443	0.7215	2.18753462604	-3.22315789474	-1.09677419355	38.1753846154
1444	0.722	-3.44349030471	-4.64105263158	3.14919354839	45.2061538462
1445	0.7225	-10.4822714681	-14.5663157895	-3.92741935484	50.8307692308
1446	0.723	-18.9288088643	-20.2378947368	-12.4193548387	46.6123076923
1447	0.7235	-18.9288088643	-23.0736842105	0.318548387097	42.3938461538
1448	0.724	-13.2977839335	-15.9842105263	-1.09677419355	38.1753846154
1449	0.7245	-10.4822714681	-25.9094736842	-1.09677419355	39.5815384615
1450	0.725	-18.9288088643	-17.4021052632	0.318548387097	45.2061538462
1451	0.7255	-9.07451523546	-14.5663157895	-1.09677419355	50.8307692308
1452	0.726	3.59529085873	-8.89473684211	-2.51209677419	62.08
1453	0.7265	-4.8512465374	2.44842105263	3.14919354839	63.4861538462
1454	0.727	9.22631578947	9.53789473684	-1.09677419355	62.08
1455	0.7275	20.488365651	13.7915789474	-5.34274193548	66.2984615385
1456	0.728	24.711634349	20.8810526316	1.73387096774	66.2984615385
1457	0.7285	34.5659279778	23.7168421053	3.14919354839	63.4861538462
1458	0.729	41.6047091413	25.1347368421	-1.09677419355	67.7046153846
1459	0.7295	48.6434903047	18.0452631579	-6.75806451613	69.1107692308
1460	0.73	61.3132963989	19.4631578947	-8.17338709677	74.7353846154
1461	0.7305	62.7210526316	10.9557894737	-3.92741935484	76.1415384615
1462	0.731	55.6822714681	6.70210526316	-6.75806451613	80.36
1463	0.7315	40.1969529086	-6.05894736842	-5.34274193548	78.9538461538
1464	0.732	21.8961218837	2.44842105263	-2.51209677419	80.36
1465	0.7325	5.00304709141	5.28421052632	0.318548387097	67.7046153846
1466	0.733	-6.25900277008	6.70210526316	-8.17338709677	87.3907692308
1467	0.7335	-14.7055401662	5.28421052632	-6.75806451613	87.3907692308
1468	0.734	-13.2977839335	2.44842105263	-12.4193548387	63.4861538462
1469	0.7345	-17.5210526316	-3.22315789474	-5.34274193548	56.4553846154
1470	0.735	-23.1520775623	-4.64105263158	5.97983870968	64.8923076923
1471	0.7355	-25.9675900277	-11.7305263158	-1.09677419355	66.2984615385
1472	0.736	-20.336565097	-13.1484210526	-9.58870967742	64.8923076923
1473	0.7365	-11.8900277008	2.44842105263	0.318548387097	69.1107692308
1474	0.737	-0.627977839335	-10.3126315789	-1.09677419355	70.5169230769
1475	0.7375	10.6340720222	-18.82	-2.51209677419	67.7046153846
1476	0.738	5.00304709141	-10.3126315789	-5.34274193548	67.7046153846
1477	0.7385	24.711634349	-10.3126315789	3.14919354839	66.2984615385
1478	0.739	28.9349030471	-6.05894736842	1.73387096774	71.9230769231
1479	0.7395	13.4495844875	-6.05894736842	3.14919354839	57.8615384615
1480	0.74	-3.44349030471	-8.89473684211	3.14919354839	64.8923076923
1481	0.7405	-16.1132963989	-8.89473684211	18.7177419355	69.1107692308
1482	0.741	-27.3753462604	-11.7305263158	-1.09677419355	66.2984615385
1483	0.7415	-30.1908587258	-8.89473684211	-3.92741935484	64.8923076923
1484	0.742	-30.1908587258	-3.22315789474	-1.09677419355	62.08
1485	0.7425	-33.0063711911	-7.47684210526	-2.51209677419	55.0492307692
1486	0.743	-34.4141274238	-3.22315789474	0.318548387097	49.4246153846
1487	0.7435	-30.1908587258	2.44842105263	4.56451612903	46.6123076923
1488	0.744	-28.7831024931	1.03052631579	3.14919354839	45.2061538462
1489	0.7445	-30.1908587258	-1.80526315789	0.318548387097	46.6123076923
1490	0.745	-4.8512465374	-0.387368421053	-1.09677419355	50.8307692308
1491	0.7455	-14.7055401662	-1.80526315789	-3.92741935484	56.4553846154
1492	0.746	-9.07451523546	-0.387368421053	-1.09677419355	50.8307692308
1493	0.7465	-4.8512465374	-4.64105263158	-15.25	49.4246153846
1494	0.747	0.779778393352	-6.05894736842	-8.17338709677	49.4246153846
1495	0.7475	10.6340720222	-1.80526315789	-3.92741935484	57.8615384615
1496	0.748	16.2650969529	2.44842105263	-2.51209677419	66.2984615385
1497	0.7485	19.0806094183	-11.7305263158	-3.92741935484	73.3292307692
1498	0.749	19.0806094183	-10.3126315789	-2.51209677419	83.1723076923
1499	0.7495	26.1193905817	-6.05894736842	1.73387096774	88.7969230769
1500	0.75	23.3038781163	-4.64105263158	1.73387096774	90.2030769231
1501	0.7505	30.3426592798	-4.64105263158	-2.51209677419	88.7969230769
1502	0.751	35.9736842105	1.03052631579	-5.34274193548	85.9846153846
1503	0.7515	23.3038781163	9.53789473684	1.73387096774	81.7661538462
1504	0.752	16.2650969529	9.53789473684	-5.34274193548	66.2984615385
1505	0.7525	5.00304709141	6.70210526316	0.318548387097	64.8923076923
1506	0.753	-6.25900277008	3.86631578947	-2.51209677419	69.1107692308
1507	0.7535	-13.2977839335	6.70210526316	13.0564516129	73.3292307692
1508	0.754	-16.1132963989	3.86631578947	-6.75806451613	77.5476923077
1509	0.7545	-17.5210526316	-0.387368421053	1.73387096774	71.9230769231
1510	0.755	-6.25900277008	10.9557894737	0.318548387097	67.7046153846
1511	0.7555	3.59529085873	20.8810526316	-1.09677419355	63.4861538462
1512	0.756	9.22631578947	-4.64105263158	-1.09677419355	60.6738461538
1513	0.7565	16.2650969529	-0.387368421053	-1.09677419355	62.08
1514	0.757	26.1193905817	-1.80526315789	0.318548387097	64.8923076923
1515	0.7575	20.488365651	-7.47684210526	1.73387096774	67.7046153846
1516	0.758	24.711634349	-10.3126315789	1.73387096774	60.6738461538
1517	0.7585	41.6047091413	-11.7305263158	-3.92741935484	67.7046153846
1518	0.759	50.0512465374	-10.3126315789	0.318548387097	71.9230769231
1519	0.7595	47.235734072	-0.387368421053	8.81048387097	67.7046153846
1520	0.76	48.6434903047	-0.387368421053	3.14919354839	66.2984615385
1521	0.7605	43.012465374	-1.80526315789	-3.92741935484	59.2676923077
1522	0.761	33.1581717452	-15.9842105263	0.318548387097	53.6430769231
1523	0.7615	26.1193905817	-20.2378947368	-2.51209677419	46.6123076923
1524	0.762	20.488365651	-24.4915789474	-8.17338709677	46.6123076923
1525	0.7625	23.3038781163	-20.2378947368	-6.75806451613	45.2061538462
1526	0.763	-2.03573407202	-20.2378947368	-6.75806451613	45.2061538462
1527	0.7635	-6.25900277008	-17.4021052632	-2.51209677419	52.2369230769
1528	0.764	17.6728531856	-6.05894736842	-1.09677419355	56.4553846154
1529	0.7645	0.779778393352	1.03052631579	-3.92741935484	64.8923076923
1530	0.765	-0.627977839335	6.70210526316	-2.51209677419	50.8307692308
1531	0.7655	2.18753462604	6.70210526316	-2.51209677419	69.1107692308
1532	0.766	2.18753462604	9.53789473684	-12.4193548387	62.08
1533	0.7665	-3.44349030471	10.9557894737	-11.0040322581	64.8923076923
1534	0.767	-7.66675900277	13.7915789474	-1.09677419355	71.9230769231
1535	0.7675	-16.1132963989	1.03052631579	-3.92741935484	69.1107692308
1536	0.768	-25.9675900277	-4.64105263158	-1.09677419355	66.2984615385
1537	0.7685	-27.3753462604	-3.22315789474	0.318548387097	56.4553846154
1538	0.769	-20.336565097	-1.80526315789	0.318548387097	55.0492307692
1539	0.7695	-27.3753462604	-3.22315789474	3.14919354839	55.0492307692
1540	0.77	-10.4822714681	2.44842105263	3.14919354839	59.2676923077
1541	0.7705	-11.8900277008	2.44842105263	0.318548387097	67.7046153846
1542	0.771	-3.44349030471	3.86631578947	5.97983870968	40.9876923077
1543	0.7715	-0.627977839335	-3.22315789474	-3.92741935484	43.8
1544	0.772	-0.627977839335	-0.387368421053	-5.34274193548	42.3938461538
1545	0.7725	2.18753462604	2.44842105263	-3.92741935484	45.2061538462
1546	0.773	9.22631578947	-0.387368421053	-1.09677419355	45.2061538462
1547	0.7735	21.8961218837	-13.1484210526	0.318548387097	45.2061538462
1548	0.774	28.9349030471	-15.9842105263	7.39516129032	50.8307692308
1549	0.7745	33.1581717452	-10.3126315789	17.3024193548	49.4246153846
1550	0.775	33.1581717452	-11.7305263158	3.14919354839	52.2369230769
1551	0.7755	26.1193905817	-4.64105263158	-8.17338709677	53.6430769231
1552	0.776	31.7504155125	-3.22315789474	-8.17338709677	53.6430769231
1553	0.7765	31.7504155125	-3.22315789474	-1.09677419355	45.2061538462
1554	0.777	30.3426592798	-0.387368421053	0.318548387097	48.0184615385
1555	0.7775	17.6728531856	1.03052631579	-3.92741935484	52.2369230769
1556	0.778	13.4495844875	-1.80526315789	4.56451612903	50.8307692308
1557	0.7785	12.0418282548	1.03052631579	11.6411290323	46.6123076923
1558	0.779	9.22631578947	2.44842105263	-3.92741935484	42.3938461538
1559	0.7795	10.6340720222	-4.64105263158	-1.09677419355	35.3630769231
1560	0.78	19.0806094183	2.44842105263	-3.92741935484	28.3323076923
1561	0.7805	28.9349030471	13.7915789474	0.318548387097	24.1138461538
1562	0.781	40.1969529086	-1.80526315789	0.318548387097	22.7076923077
1563	0.7815	48.6434903047	-0.387368421053	0.318548387097	28.3323076923
1564	0.782	61.3132963989	2.44842105263	0.318548387097	33.9569230769
1565	0.7825	59.9055401662	3.86631578947	-1.09677419355	36.7692307692
1566	0.783	37.3814404432	-0.387368421053	-1.09677419355	43.8
1567	0.7835	26.1193905817	-6.05894736842	1.73387096774	14.2707692308
1568	0.784	16.2650969529	-6.05894736842	0.318548387097	17.0830769231
1569	0.7845	9.22631578947	-6.05894736842	3.14919354839	28.3323076923
1570	0.785	-4.8512465374	-4.64105263158	5.97983870968	32.5507692308
1571	0.7855	-16.1132963989	2.44842105263	-8.17338709677	39.5815384615
1572	0.786	-18.9288088643	15.2094736842	-6.75806451613	45.2061538462
1573	0.7865	-23.1520775623	-6.05894736842	-2.51209677419	45.2061538462
1574	0.787	-35.8218836565	-6.05894736842	-3.92741935484	49.4246153846
1575	0.7875	-34.4141274238	1.03052631579	-2.51209677419	57.8615384615
1576	0.788	-25.9675900277	1.03052631579	-1.09677419355	60.6738461538
1577	0.7885	-28.7831024931	2.44842105263	1.73387096774	52.2369230769
1578	0.789	-28.7831024931	-1.80526315789	1.73387096774	49.4246153846
1579	0.7895	-17.5210526316	-6.05894736842	-2.51209677419	67.7046153846
1580	0.79	-17.5210526316	-6.05894736842	-9.58870967742	48.0184615385
1581	0.7905	-20.336565097	-4.64105263158	3.14919354839	32.5507692308
1582	0.791	-18.9288088643	-4.64105263158	3.14919354839	31.1446153846
1583	0.7915	-7.66675900277	-3.22315789474	5.97983870968	36.7692307692
1584	0.792	3.59529085873	-13.1484210526	-1.09677419355	35.3630769231
1585	0.7925	10.6340720222	-1.80526315789	-3.92741935484	38.1753846154
1586	0.793	17.6728531856	13.7915789474	-2.51209677419	35.3630769231
1587	0.7935	19.0806094183	2.44842105263	-1.09677419355	36.7692307692
1588	0.794	26.1193905817	2.44842105263	-1.09677419355	36.7692307692
1589	0.7945	27.5271468144	-3.22315789474	-1.09677419355	42.3938461538
1590	0.795	10.6340720222	-1.80526315789	0.318548387097	43.8
1591	0.7955	2.18753462604	-4.64105263158	0.318548387097	28.3323076923
1592	0.796	0.779778393352	-11.7305263158	0.318548387097	29.7384615385
1593	0.7965	-7.66675900277	-10.3126315789	7.39516129032	42.3938461538
1594	0.797	-16.1132963989	-8.89473684211	15.8870967742	48.0184615385
1595	0.7975	-11.8900277008	-3.22315789474	-8.17338709677	50.8307692308
1596	0.798	0.779778393352	-3.22315789474	0.318548387097	55.0492307692
1597	0.7985	7.81855955679	2.44842105263	1.73387096774	50.8307692308
1598	0.799	17.6728531856	-11.7305263158	4.56451612903	46.6123076923
1599	0.7995	16.2650969529	-10.3126315789	0.318548387097	39.5815384615
1600	0.8	10.6340720222	-6.05894736842	0.318548387097	32.5507692308
1601	0.8005	34.5659279778	-8.89473684211	3.14919354839	31.1446153846
1602	0.801	31.7504155125	-4.64105263158	1.73387096774	28.3323076923
1603	0.8015	23.3038781163	-0.387368421053	-1.09677419355	32.5507692308
1604	0.802	26.1193905817	-1.80526315789	-1.09677419355	33.9569230769
1605	0.8025	28.9349030471	-1.80526315789	1.73387096774	56.4553846154
1606	0.803	27.5271468144	-6.05894736842	1.73387096774	42.3938461538
1607	0.8035	17.6728531856	-1.80526315789	13.0564516129	28.3323076923
1608	0.804	7.81855955679	1.03052631579	3.14919354839	25.52
1609	0.8045	-0.627977839335	-8.89473684211	4.56451612903	22.7076923077
1610	0.805	-6.25900277008	-0.387368421053	1.73387096774	18.4892307692
1611	0.8055	-16.1132963989	-0.387368421053	3.14919354839	22.7076923077
1612	0.806	-33.0063711911	-3.22315789474	0.318548387097	28.3323076923
1613	0.8065	-38.6373961219	-4.64105263158	0.318548387097	35.3630769231
1614	0.807	-30.1908587258	-7.47684210526	0.318548387097	40.9876923077
1615	0.8075	-11.8900277008	-4.64105263158	-1.09677419355	43.8
1616	0.808	-6.25900277008	-4.64105263158	1.73387096774	40.9876923077
1617	0.8085	-7.66675900277	-7.47684210526	-13.8346774194	39.5815384615
1618	0.809	-7.66675900277	-8.89473684211	-12.4193548387	46.6123076923
1619	0.8095	-4.8512465374	-8.89473684211	-9.58870967742	39.5815384615
1620	0.81	-10.4822714681	-6.05894736842	1.73387096774	31.1446153846
1621	0.8105	-7.66675900277	-8.89473684211	-5.34274193548	26.9261538462
1622	0.811	-4.8512465374	-10.3126315789	1.73387096774	19.8953846154
1623	0.8115	3.59529085873	-4.64105263158	5.97983870968	15.6769230769
1624	0.812	5.00304709141	18.0452631579	4.56451612903	28.3323076923
1625	0.8125	-6.25900277008	10.9557894737	0.318548387097	29.7384615385
1626	0.813	-10.4822714681	15.2094736842	3.14919354839	17.0830769231
1627	0.8135	-20.336565097	15.2094736842	0.318548387097	25.52
1628	0.814	-7.66675900277	10.9557894737	-1.09677419355	38.1753846154
1629	0.8145	-3.44349030471	5.28421052632	-1.09677419355	28.3323076923
1630	0.815	7.81855955679	-0.387368421053	14.4717741935	43.8
1631	0.8155	13.4495844875	-6.05894736842	-12.4193548387	46.6123076923
1632	0.816	14.8573407202	-6.05894736842	-3.92741935484	45.2061538462
1633	0.8165	17.6728531856	-4.64105263158	-3.92741935484	39.5815384615
1634	0.817	23.3038781163	1.03052631579	-3.92741935484	45.2061538462
1635	0.8175	17.6728531856	-20.2378947368	-2.51209677419	55.0492307692
1636	0.818	9.22631578947	-17.4021052632	0.318548387097	50.8307692308
1637	0.8185	-10.4822714681	-10.3126315789	-1.09677419355	50.8307692308
1638	0.819	10.6340720222	-4.64105263158	0.318548387097	49.4246153846
1639	0.8195	-13.2977839335	-0.387368421053	-2.51209677419	56.4553846154
1640	0.82	-17.5210526316	-3.22315789474	3.14919354839	36.7692307692
1641	0.8205	-21.7443213296	-4.64105263158	1.73387096774	25.52
1642	0.821	-23.1520775623	-3.22315789474	-3.92741935484	28.3323076923
1643	0.8215	-16.1132963989	-6.05894736842	-11.0040322581	25.52
1644	0.822	-3.44349030471	-6.05894736842	-6.75806451613	22.7076923077
1645	0.8225	7.81855955679	-7.47684210526	-1.09677419355	24.1138461538
1646	0.823	10.6340720222	-7.47684210526	1.73387096774	21.3015384615
1647	0.8235	9.22631578947	-11.7305263158	1.73387096774	28.3323076923
1648	0.824	13.4495844875	-3.22315789474	1.73387096774	24.1138461538
1649	0.8245	13.4495844875	-1.80526315789	0.318548387097	22.7076923077
1650	0.825	14.8573407202	-0.387368421053	-2.51209677419	21.3015384615
1651	0.8255	10.6340720222	-1.80526315789	1.73387096774	38.1753846154
1652	0.826	-0.627977839335	-0.387368421053	3.14919354839	33.9569230769
1653	0.8265	-7.66675900277	-1.80526315789	-3.92741935484	17.0830769231
1654	0.827	-10.4822714681	1.03052631579	0.318548387097	38.1753846154
1655	0.8275	-6.25900277008	-0.387368421053	-6.75806451613	28.3323076923
1656	0.828	-3.44349030471	1.03052631579	1.73387096774	31.1446153846
1657	0.8285	-3.44349030471	-6.05894736842	3.14919354839	32.5507692308
1658	0.829	0.779778393352	1.03052631579	1.73387096774	39.5815384615
1659	0.8295	9.22631578947	-1.80526315789	5.97983870968	38.1753846154
1660	0.83	14.8573407202	20.8810526316	1.73387096774	39.5815384615
1661	0.8305	13.4495844875	5.28421052632	-2.51209677419	38.1753846154
1662	0.831	26.1193905817	2.44842105263	0.318548387097	35.3630769231
1663	0.8315	23.3038781163	2.44842105263	1.73387096774	40.9876923077
1664	0.832	24.711634349	-0.387368421053	4.56451612903	31.1446153846
1665	0.8325	27.5271468144	-6.05894736842	0.318548387097	29.7384615385
1666	0.833	28.9349030471	-10.3126315789	13.0564516129	29.7384615385
1667	0.8335	26.1193905817	-8.89473684211	15.8870967742	22.7076923077
1668	0.834	26.1193905817	-11.7305263158	15.8870967742	21.3015384615
1669	0.8345	23.3038781163	-14.5663157895	0.318548387097	15.6769230769
1670	0.835	19.0806094183	-21.6557894737	1.73387096774	19.8953846154
1671	0.8355	14.8573407202	6.70210526316	0.318548387097	17.0830769231
1672	0.836	12.0418282548	-6.05894736842	1.73387096774	14.2707692308
1673	0.8365	2.18753462604	-4.64105263158	0.318548387097	4.42769230769
1674	0.837	-2.03573407202	-7.47684210526	0.318548387097	5.83384615385
1675	0.8375	17.6728531856	-0.387368421053	0.318548387097	8.64615384615
1676	0.838	0.779778393352	3.86631578947	1.73387096774	31.1446153846
1677	0.8385	2.18753462604	1.03052631579	3.14919354839	19.8953846154
1678	0.839	0.779778393352	2.44842105263	-1.09677419355	14.2707692308
1679	0.8395	-0.627977839335	2.44842105263	0.318548387097	21.3015384615
1680	0.84	-4.8512465374	1.03052631579	-8.17338709677	24.1138461538
1681	0.8405	-6.25900277008	-1.80526315789	-5.34274193548	25.52
1682	0.841	-9.07451523546	-1.80526315789	4.56451612903	32.5507692308
1683	0.8415	-7.66675900277	-11.7305263158	0.318548387097	33.9569230769
1684	0.842	-11.8900277008	-17.4021052632	-1.09677419355	32.5507692308
1685	0.8425	-4.8512465374	5.28421052632	-1.09677419355	33.9569230769
1686	0.843	-0.627977839335	-6.05894736842	-1.09677419355	29.7384615385
1687	0.8435	16.2650969529	1.03052631579	1.73387096774	28.3323076923
1688	0.844	-9.07451523546	8.12	-1.09677419355	28.3323076923
1689	0.8445	-7.66675900277	10.9557894737	1.73387096774	22.7076923077
1690	0.845	-20.336565097	9.53789473684	8.81048387097	25.52
1691	0.8455	-27.3753462604	6.70210526316	-8.17338709677	25.52
1692	0.846	-21.7443213296	6.70210526316	-5.34274193548	38.1753846154
1693	0.8465	-14.7055401662	12.3736842105	4.56451612903	24.1138461538
1694	0.847	-7.66675900277	12.3736842105	1.73387096774	21.3015384615
1695	0.8475	-6.25900277008	-1.80526315789	-2.51209677419	18.4892307692
1696	0.848	-6.25900277008	-7.47684210526	3.14919354839	17.0830769231
1697	0.8485	-4.8512465374	-4.64105263158	0.318548387097	18.4892307692
1698	0.849	-7.66675900277	-3.22315789474	1.73387096774	24.1138461538
1699	0.8495	-13.2977839335	-4.64105263158	0.318548387097	31.1446153846
1700	0.85	-10.4822714681	-3.22315789474	1.73387096774	38.1753846154
1701	0.8505	-4.8512465374	-7.47684210526	1.73387096774	38.1753846154
1702	0.851	-4.8512465374	-10.3126315789	3.14919354839	32.5507692308
1703	0.8515	2.18753462604	-8.89473684211	-1.09677419355	38.1753846154
1704	0.852	3.59529085873	-7.47684210526	11.6411290323	33.9569230769
1705	0.8525	-2.03573407202	-6.05894736842	-1.09677419355	35.3630769231
1706	0.853	-9.07451523546	-3.22315789474	-12.4193548387	38.1753846154
1707	0.8535	-6.25900277008	-6.05894736842	-1.09677419355	39.5815384615
1708	0.854	-0.627977839335	1.03052631579	7.39516129032	39.5815384615
1709	0.8545	7.81855955679	-8.89473684211	0.318548387097	33.9569230769
1710	0.855	16.2650969529	-7.47684210526	0.318548387097	24.1138461538
1711	0.8555	17.6728531856	-10.3126315789	-1.09677419355	14.2707692308
1712	0.856	26.1193905817	-10.3126315789	1.73387096774	5.83384615385
1713	0.8565	43.012465374	-7.47684210526	0.318548387097	8.64615384615
1714	0.857	45.8279778393	-10.3126315789	3.14919354839	-9.63384615385
1715	0.8575	43.012465374	-8.89473684211	3.14919354839	-4.00923076923
1716	0.858	37.3814404432	-7.47684210526	-5.34274193548	-6.82153846154
1717	0.8585	33.1581717452	-8.89473684211	17.3024193548	-2.60307692308
1718	0.859	26.1193905817	-10.3126315789	-5.34274193548	0.209230769231
1719	0.8595	19.0806094183	-10.3126315789	-2.51209677419	1.61538461538
1720	0.86	17.6728531856	-4.64105263158	0.318548387097	4.42769230769
1721	0.8605	14.8573407202	2.44842105263	3.14919354839	1.61538461538
1722	0.861	3.59529085873	6.70210526316	0.318548387097	3.02153846154
1723	0.8615	-10.4822714681	5.28421052632	3.14919354839	12.8646153846
1724	0.862	-11.8900277008	2.44842105263	1.73387096774	17.0830769231
1725	0.8625	-16.1132963989	1.03052631579	3.14919354839	0.209230769231
1726	0.863	-17.5210526316	3.86631578947	14.4717741935	-1.19692307692
1727	0.8635	-17.5210526316	-0.387368421053	1.73387096774	3.02153846154
1728	0.864	-7.66675900277	-3.22315789474	0.318548387097	8.64615384615
1729	0.8645	-4.8512465374	-4.64105263158	0.318548387097	12.8646153846
1730	0.865	-0.627977839335	-0.387368421053	1.73387096774	17.0830769231
1731	0.8655	2.18753462604	-8.89473684211	3.14919354839	19.8953846154
1732	0.866	10.6340720222	-7.47684210526	4.56451612903	26.9261538462
1733	0.8665	0.779778393352	-1.80526315789	1.73387096774	21.3015384615
1734	0.867	9.22631578947	-1.80526315789	1.73387096774	15.6769230769
1735	0.8675	9.22631578947	2.44842105263	-1.09677419355	15.6769230769
1736	0.868	12.0418282548	2.44842105263	-2.51209677419	26.9261538462
1737	0.8685	3.59529085873	-1.80526315789	-1.09677419355	3.02153846154
1738	0.869	10.6340720222	1.03052631579	-1.09677419355	7.24
1739	0.8695	2.18753462604	-0.387368421053	-2.51209677419	15.6769230769
1740	0.87	-0.627977839335	-7.47684210526	-11.0040322581	19.8953846154
1741	0.8705	5.00304709141	-10.3126315789	1.73387096774	25.52
1742	0.871	7.81855955679	-0.387368421053	3.14919354839	26.9261538462
1743	0.8715	5.00304709141	-13.1484210526	3.14919354839	29.7384615385
1744	0.872	3.59529085873	-13.1484210526	4.56451612903	29.7384615385
1745	0.8725	17.6728531856	-8.89473684211	3.14919354839	35.3630769231
1746	0.873	16.2650969529	-8.89473684211	-1.09677419355	31.1446153846
1747	0.8735	-10.4822714681	-10.3126315789	-2.51209677419	21.3015384615
1748	0.874	-2.03573407202	-10.3126315789	-6.75806451613	40.9876923077
1749	0.8745	-0.627977839335	-10.3126315789	-2.51209677419	29.7384615385
1750	0.875	3.59529085873	-6.05894736842	14.4717741935	21.3015384615
1751	0.8755	7.81855955679	-7.47684210526	13.0564516129	25.52
1752	0.876	16.2650969529	-0.387368421053	-1.09677419355	19.8953846154
1753	0.8765	20.488365651	-7.47684210526	3.14919354839	8.64615384615
1754	0.877	23.3038781163	6.70210526316	0.318548387097	3.02153846154
1755	0.8775	24.711634349	19.4631578947	-2.51209677419	0.209230769231
1756	0.878	20.488365651	8.12	-2.51209677419	0.209230769231
1757	0.8785	21.8961218837	8.12	1.73387096774	-8.22769230769
1758	0.879	19.0806094183	5.28421052632	0.318548387097	-9.63384615385
1759	0.8795	30.3426592798	-0.387368421053	-1.09677419355	-9.63384615385
1760	0.88	20.488365651	2.44842105263	-1.09677419355	-18.0707692308
1761	0.8805	23.3038781163	-3.22315789474	4.56451612903	-13.8523076923
1762	0.881	24.711634349	-7.47684210526	-1.09677419355	-9.63384615385
1763	0.8815	33.1581717452	-8.89473684211	5.97983870968	0.209230769231
1764	0.882	40.1969529086	-4.64105263158	-1.09677419355	12.8646153846
