	Time	Channel 1	Channel 2	Channel 3	Channel 4
0	0.0	0.810526315789	8.2	1.33225806452	10.4266990291
1	0.0005	0.810526315789	-0.472727272727	-0.116129032258	14.6485436893
2	0.001	2.25	-0.472727272727	-0.116129032258	18.8703883495
3	0.0015	0.810526315789	-7.7	15.8161290323	17.4631067961
4	0.002	18.0842105263	-1.91818181818	-5.90967741935	16.0558252427
5	0.0025	-6.38684210526	-0.472727272727	2.78064516129	16.0558252427
6	0.003	-3.50789473684	-1.91818181818	1.33225806452	16.0558252427
7	0.0035	-2.06842105263	-1.91818181818	1.33225806452	16.0558252427
8	0.004	2.25	-1.91818181818	-1.56451612903	4.79757281553
9	0.0045	0.810526315789	16.8727272727	-3.01290322581	14.6485436893
10	0.005	-2.06842105263	0.972727272727	-0.116129032258	16.0558252427
11	0.0055	-12.1447368421	-1.91818181818	-1.56451612903	13.2412621359
12	0.006	0.810526315789	-10.5909090909	1.33225806452	13.2412621359
13	0.0065	0.810526315789	0.972727272727	-1.56451612903	13.2412621359
14	0.007	3.68947368421	-4.80909090909	-1.56451612903	13.2412621359
15	0.0075	3.68947368421	-4.80909090909	1.33225806452	17.4631067961
16	0.008	-10.7052631579	-1.91818181818	-0.116129032258	16.0558252427
17	0.0085	-12.1447368421	-0.472727272727	-0.116129032258	9.01941747573
18	0.009	-9.26578947368	-0.472727272727	2.78064516129	4.79757281553
19	0.0095	0.810526315789	-0.472727272727	-0.116129032258	24.4995145631
20	0.01	0.810526315789	-0.472727272727	1.33225806452	14.6485436893
21	0.0105	-2.06842105263	-0.472727272727	-1.56451612903	9.01941747573
22	0.011	0.810526315789	-0.472727272727	1.33225806452	21.6849514563
23	0.0115	-2.06842105263	0.972727272727	2.78064516129	20.2776699029
24	0.012	-0.628947368421	0.972727272727	-7.35806451613	7.61213592233
25	0.0125	-0.628947368421	0.972727272727	7.12580645161	9.01941747573
26	0.013	2.25	-6.25454545455	1.33225806452	7.61213592233
27	0.0135	0.810526315789	-9.14545454545	1.33225806452	7.61213592233
28	0.014	0.810526315789	13.9818181818	-1.56451612903	9.01941747573
29	0.0145	8.00789473684	-1.91818181818	1.33225806452	10.4266990291
30	0.015	3.68947368421	-0.472727272727	-1.56451612903	13.2412621359
31	0.0155	0.810526315789	-6.25454545455	-0.116129032258	10.4266990291
32	0.016	-4.94736842105	0.972727272727	1.33225806452	10.4266990291
33	0.0165	-7.82631578947	0.972727272727	-0.116129032258	6.20485436893
34	0.017	-7.82631578947	-0.472727272727	2.78064516129	13.2412621359
35	0.0175	-6.38684210526	0.972727272727	-1.56451612903	16.0558252427
36	0.018	-4.94736842105	-0.472727272727	-8.8064516129	6.20485436893
37	0.0185	-2.06842105263	-1.91818181818	-10.2548387097	1.98300970874
38	0.019	0.810526315789	-1.91818181818	2.78064516129	0.57572815534
39	0.0195	5.12894736842	-0.472727272727	15.8161290323	9.01941747573
40	0.02	3.68947368421	-3.36363636364	-0.116129032258	10.4266990291
41	0.0205	-0.628947368421	-4.80909090909	-1.56451612903	10.4266990291
42	0.021	2.25	-6.25454545455	-0.116129032258	7.61213592233
43	0.0215	2.25	2.41818181818	-1.56451612903	6.20485436893
44	0.022	8.00789473684	-4.80909090909	-1.56451612903	13.2412621359
45	0.0225	8.00789473684	-9.14545454545	1.33225806452	9.01941747573
46	0.023	-9.26578947368	-3.36363636364	1.33225806452	10.4266990291
47	0.0235	-10.7052631579	-0.472727272727	2.78064516129	9.01941747573
48	0.024	-6.38684210526	-1.91818181818	-0.116129032258	4.79757281553
49	0.0245	-10.7052631579	-1.91818181818	-0.116129032258	7.61213592233
50	0.025	-10.7052631579	-3.36363636364	-1.56451612903	9.01941747573
51	0.0255	-2.06842105263	-0.472727272727	-7.35806451613	14.6485436893
52	0.026	-0.628947368421	-3.36363636364	-8.8064516129	9.01941747573
53	0.0265	-3.50789473684	-0.472727272727	-10.2548387097	1.98300970874
54	0.027	-0.628947368421	-3.36363636364	-5.90967741935	10.4266990291
55	0.0275	-2.06842105263	-3.36363636364	18.7129032258	10.4266990291
56	0.028	0.810526315789	-0.472727272727	11.4709677419	14.6485436893
57	0.0285	0.810526315789	5.30909090909	2.78064516129	16.0558252427
58	0.029	-0.628947368421	0.972727272727	4.22903225806	17.4631067961
59	0.0295	0.810526315789	0.972727272727	-1.56451612903	20.2776699029
60	0.03	15.2052631579	0.972727272727	-0.116129032258	18.8703883495
61	0.0305	16.6447368421	0.972727272727	-0.116129032258	21.6849514563
62	0.031	18.0842105263	-0.472727272727	1.33225806452	23.0922330097
63	0.0315	-9.26578947368	-1.91818181818	2.78064516129	6.20485436893
64	0.032	-9.26578947368	-0.472727272727	-0.116129032258	16.0558252427
65	0.0325	-0.628947368421	-0.472727272727	2.78064516129	6.20485436893
66	0.033	-2.06842105263	-1.91818181818	-1.56451612903	7.61213592233
67	0.0335	-0.628947368421	-1.91818181818	1.33225806452	16.0558252427
68	0.034	-2.06842105263	-1.91818181818	12.9193548387	16.0558252427
69	0.0345	-0.628947368421	3.86363636364	-1.56451612903	16.0558252427
70	0.035	0.810526315789	5.30909090909	-0.116129032258	16.0558252427
71	0.0355	0.810526315789	-3.36363636364	-5.90967741935	17.4631067961
72	0.036	0.810526315789	-12.0363636364	-0.116129032258	17.4631067961
73	0.0365	-2.06842105263	-12.0363636364	-1.56451612903	17.4631067961
74	0.037	-0.628947368421	-10.5909090909	-1.56451612903	16.0558252427
75	0.0375	2.25	15.4272727273	-1.56451612903	16.0558252427
76	0.038	10.8868421053	-3.36363636364	-1.56451612903	16.0558252427
77	0.0385	8.00789473684	-0.472727272727	-1.56451612903	10.4266990291
78	0.039	-0.628947368421	-0.472727272727	1.33225806452	3.39029126214
79	0.0395	0.810526315789	0.972727272727	-1.56451612903	28.7213592233
80	0.04	-0.628947368421	-0.472727272727	-0.116129032258	16.0558252427
81	0.0405	0.810526315789	-0.472727272727	-3.01290322581	13.2412621359
82	0.041	2.25	-0.472727272727	-1.56451612903	3.39029126214
83	0.0415	-0.628947368421	0.972727272727	-0.116129032258	10.4266990291
84	0.042	2.25	-1.91818181818	-10.2548387097	10.4266990291
85	0.0425	2.25	-3.36363636364	-7.35806451613	10.4266990291
86	0.043	3.68947368421	-0.472727272727	4.22903225806	11.8339805825
87	0.0435	2.25	6.75454545455	2.78064516129	10.4266990291
88	0.044	-0.628947368421	-6.25454545455	2.78064516129	13.2412621359
89	0.0445	-10.7052631579	-0.472727272727	1.33225806452	10.4266990291
90	0.045	-10.7052631579	-0.472727272727	2.78064516129	10.4266990291
91	0.0455	-4.94736842105	0.972727272727	-1.56451612903	4.79757281553
92	0.046	19.5236842105	-0.472727272727	-1.56451612903	7.61213592233
93	0.0465	3.68947368421	0.972727272727	2.78064516129	0.57572815534
94	0.047	0.810526315789	0.972727272727	5.67741935484	1.98300970874
95	0.0475	0.810526315789	2.41818181818	1.33225806452	-0.831553398058
96	0.048	-2.06842105263	0.972727272727	18.7129032258	6.20485436893
97	0.0485	-2.06842105263	0.972727272727	-8.8064516129	4.79757281553
98	0.049	-3.50789473684	2.41818181818	-7.35806451613	6.20485436893
99	0.0495	-2.06842105263	-1.91818181818	-8.8064516129	9.01941747573
100	0.05	-2.06842105263	8.2	-0.116129032258	10.4266990291
101	0.0505	2.25	-4.80909090909	-0.116129032258	13.2412621359
102	0.051	-2.06842105263	-4.80909090909	1.33225806452	13.2412621359
103	0.0515	-3.50789473684	-6.25454545455	1.33225806452	9.01941747573
104	0.052	-10.7052631579	-1.91818181818	-0.116129032258	13.2412621359
105	0.0525	-13.5842105263	-1.91818181818	-1.56451612903	7.61213592233
106	0.053	20.9631578947	-1.91818181818	1.33225806452	10.4266990291
107	0.0535	18.0842105263	-1.91818181818	-0.116129032258	13.2412621359
108	0.054	0.810526315789	-1.91818181818	-0.116129032258	20.2776699029
109	0.0545	0.810526315789	-1.91818181818	-5.90967741935	4.79757281553
110	0.055	0.810526315789	-1.91818181818	-0.116129032258	13.2412621359
111	0.0555	-0.628947368421	-1.91818181818	-13.1516129032	16.0558252427
112	0.056	-0.628947368421	-1.91818181818	-13.1516129032	7.61213592233
113	0.0565	2.25	-3.36363636364	-5.90967741935	7.61213592233
114	0.057	0.810526315789	-0.472727272727	-7.35806451613	9.01941747573
115	0.0575	0.810526315789	-4.80909090909	-0.116129032258	7.61213592233
116	0.058	3.68947368421	-4.80909090909	-1.56451612903	7.61213592233
117	0.0585	0.810526315789	-1.91818181818	-3.01290322581	7.61213592233
118	0.059	0.810526315789	-3.36363636364	-1.56451612903	6.20485436893
119	0.0595	20.9631578947	-0.472727272727	-1.56451612903	4.79757281553
120	0.06	20.9631578947	-0.472727272727	1.33225806452	10.4266990291
121	0.0605	19.5236842105	0.972727272727	2.78064516129	9.01941747573
122	0.061	-7.82631578947	-0.472727272727	2.78064516129	9.01941747573
123	0.0615	2.25	0.972727272727	5.67741935484	13.2412621359
124	0.062	-0.628947368421	-0.472727272727	-7.35806451613	7.61213592233
125	0.0625	0.810526315789	-0.472727272727	-7.35806451613	6.20485436893
126	0.063	0.810526315789	-1.91818181818	15.8161290323	9.01941747573
127	0.0635	0.810526315789	-0.472727272727	-1.56451612903	1.98300970874
128	0.064	-2.06842105263	-0.472727272727	2.78064516129	13.2412621359
129	0.0645	-0.628947368421	-10.5909090909	1.33225806452	9.01941747573
130	0.065	-2.06842105263	-12.0363636364	-1.56451612903	9.01941747573
131	0.0655	-0.628947368421	-6.25454545455	1.33225806452	7.61213592233
132	0.066	2.25	-3.36363636364	-0.116129032258	7.61213592233
133	0.0665	18.0842105263	0.972727272727	1.33225806452	7.61213592233
134	0.067	18.0842105263	-0.472727272727	-1.56451612903	7.61213592233
135	0.0675	5.12894736842	-0.472727272727	-0.116129032258	10.4266990291
136	0.068	-0.628947368421	0.972727272727	-0.116129032258	1.98300970874
137	0.0685	0.810526315789	-0.472727272727	-0.116129032258	6.20485436893
138	0.069	-0.628947368421	-1.91818181818	-3.01290322581	14.6485436893
139	0.0695	-2.06842105263	-0.472727272727	-1.56451612903	25.9067961165
140	0.07	-0.628947368421	-0.472727272727	7.12580645161	21.6849514563
141	0.0705	-2.06842105263	0.972727272727	11.4709677419	14.6485436893
142	0.071	2.25	2.41818181818	-1.56451612903	16.0558252427
143	0.0715	2.25	15.4272727273	-0.116129032258	16.0558252427
144	0.072	2.25	9.64545454545	-0.116129032258	16.0558252427
145	0.0725	0.810526315789	-12.0363636364	-0.116129032258	14.6485436893
146	0.073	0.810526315789	-7.7	4.22903225806	20.2776699029
147	0.0735	-10.7052631579	-3.36363636364	-0.116129032258	21.6849514563
148	0.074	-4.94736842105	-1.91818181818	4.22903225806	21.6849514563
149	0.0745	-6.38684210526	-0.472727272727	1.33225806452	18.8703883495
150	0.075	-4.94736842105	-0.472727272727	1.33225806452	13.2412621359
151	0.0755	0.810526315789	0.972727272727	-1.56451612903	20.2776699029
152	0.076	2.25	-3.36363636364	-8.8064516129	18.8703883495
153	0.0765	2.25	-0.472727272727	14.3677419355	23.0922330097
154	0.077	3.68947368421	-1.91818181818	4.22903225806	17.4631067961
155	0.0775	2.25	0.972727272727	1.33225806452	23.0922330097
156	0.078	0.810526315789	-1.91818181818	1.33225806452	27.3140776699
157	0.0785	0.810526315789	-7.7	4.22903225806	27.3140776699
158	0.079	0.810526315789	13.9818181818	1.33225806452	32.9432038835
159	0.0795	3.68947368421	-0.472727272727	-1.56451612903	37.1650485437
160	0.08	3.68947368421	-0.472727272727	-3.01290322581	37.1650485437
161	0.0805	-10.7052631579	3.86363636364	-3.01290322581	39.9796116505
162	0.081	-9.26578947368	0.972727272727	-1.56451612903	41.3868932039
163	0.0815	-6.38684210526	-1.91818181818	-3.01290322581	48.4233009709
164	0.082	-4.94736842105	-3.36363636364	-1.56451612903	51.2378640777
165	0.0825	2.25	-1.91818181818	-4.46129032258	65.3106796117
166	0.083	2.25	0.972727272727	-1.56451612903	59.6815533981
167	0.0835	-0.628947368421	0.972727272727	-5.90967741935	76.5689320388
168	0.084	2.25	2.41818181818	-8.8064516129	65.3106796117
169	0.0845	3.68947368421	-1.91818181818	-4.46129032258	69.5325242718
170	0.085	3.68947368421	5.30909090909	-1.56451612903	72.3470873786
171	0.0855	3.68947368421	0.972727272727	-1.56451612903	69.5325242718
172	0.086	0.810526315789	-10.5909090909	-5.90967741935	72.3470873786
173	0.0865	0.810526315789	-7.7	-3.01290322581	72.3470873786
174	0.087	-3.50789473684	-9.14545454545	-1.56451612903	69.5325242718
175	0.0875	8.00789473684	-0.472727272727	-1.56451612903	68.1252427184
176	0.088	3.68947368421	2.41818181818	-1.56451612903	62.4961165049
177	0.0885	15.2052631579	-0.472727272727	-3.01290322581	62.4961165049
178	0.089	-4.94736842105	-0.472727272727	-1.56451612903	63.9033980583
179	0.0895	-2.06842105263	-0.472727272727	-1.56451612903	72.3470873786
180	0.09	2.25	0.972727272727	-1.56451612903	54.0524271845
181	0.0905	0.810526315789	-0.472727272727	5.67741935484	56.8669902913
182	0.091	3.68947368421	-0.472727272727	18.7129032258	63.9033980583
183	0.0915	-0.628947368421	-1.91818181818	15.8161290323	61.0888349515
184	0.092	-0.628947368421	-1.91818181818	11.4709677419	59.6815533981
185	0.0925	0.810526315789	-0.472727272727	-4.46129032258	61.0888349515
186	0.093	-0.628947368421	-4.80909090909	-7.35806451613	62.4961165049
187	0.0935	-3.50789473684	8.2	-3.01290322581	59.6815533981
188	0.094	2.25	9.64545454545	-0.116129032258	54.0524271845
189	0.0945	-0.628947368421	11.0909090909	-0.116129032258	51.2378640777
190	0.095	6.56842105263	-1.91818181818	-1.56451612903	45.6087378641
191	0.0955	2.25	-0.472727272727	-1.56451612903	31.5359223301
192	0.096	9.44736842105	-1.91818181818	-0.116129032258	13.2412621359
193	0.0965	-3.50789473684	-3.36363636364	2.78064516129	-0.831553398058
194	0.097	-2.06842105263	-1.91818181818	2.78064516129	-5.05339805825
195	0.0975	0.810526315789	-1.91818181818	7.12580645161	-45.8645631068
196	0.098	3.68947368421	-1.91818181818	-3.01290322581	-59.9373786408
197	0.0985	0.810526315789	-1.91818181818	-7.35806451613	-65.5665048544
198	0.099	-2.06842105263	-0.472727272727	-4.46129032258	-90.8975728155
199	0.0995	-2.06842105263	-6.25454545455	-1.56451612903	-109.19223301
200	0.1	-3.50789473684	-3.36363636364	4.22903225806	-127.486893204
201	0.1005	-3.50789473684	6.75454545455	8.57419354839	-147.188834951
202	0.101	-7.82631578947	0.972727272727	7.12580645161	-164.076213592
203	0.1015	-6.38684210526	-1.91818181818	5.67741935484	-186.592718447
204	0.102	-9.26578947368	-0.472727272727	8.57419354839	-203.480097087
205	0.1025	-4.94736842105	-3.36363636364	7.12580645161	-224.589320388
206	0.103	-12.1447368421	-3.36363636364	11.4709677419	-245.698543689
207	0.1035	-2.06842105263	-1.91818181818	8.57419354839	-265.400485437
208	0.104	-9.26578947368	-0.472727272727	7.12580645161	-279.473300971
209	0.1045	-7.82631578947	-1.91818181818	14.3677419355	-314.655339806
210	0.105	-7.82631578947	-4.80909090909	14.3677419355	-337.17184466
211	0.1055	-12.1447368421	-4.80909090909	8.57419354839	-334.357281553
212	0.106	-7.82631578947	-3.36363636364	14.3677419355	-368.132038835
213	0.1065	-9.26578947368	-1.91818181818	21.6096774194	-380.797572816
214	0.107	-10.7052631579	0.972727272727	8.57419354839	-390.648543689
215	0.1075	-10.7052631579	-0.472727272727	11.4709677419	-406.128640777
216	0.108	-10.7052631579	9.64545454545	14.3677419355	-418.794174757
217	0.1085	-13.5842105263	-0.472727272727	11.4709677419	-432.866990291
218	0.109	-10.7052631579	-4.80909090909	12.9193548387	-442.717961165
219	0.1095	-22.2210526316	-1.91818181818	10.0225806452	-449.754368932
220	0.11	-17.9026315789	-3.36363636364	8.57419354839	-459.605339806
221	0.1105	3.68947368421	-6.25454545455	8.57419354839	-462.419902913
222	0.111	0.810526315789	-1.91818181818	8.57419354839	-465.234466019
223	0.1115	-13.5842105263	-1.91818181818	11.4709677419	-466.641747573
224	0.112	-12.1447368421	-0.472727272727	14.3677419355	-469.45631068
225	0.1125	-12.1447368421	-1.91818181818	-0.116129032258	-472.270873786
226	0.113	-12.1447368421	-0.472727272727	-0.116129032258	-472.270873786
227	0.1135	-10.7052631579	-1.91818181818	2.78064516129	-472.270873786
228	0.114	-10.7052631579	-4.80909090909	10.0225806452	-470.863592233
229	0.1145	-12.1447368421	0.972727272727	5.67741935484	-465.234466019
230	0.115	-10.7052631579	-0.472727272727	-0.116129032258	-461.012621359
231	0.1155	-12.1447368421	9.64545454545	8.57419354839	-449.754368932
232	0.116	-12.1447368421	-0.472727272727	8.57419354839	-438.496116505
233	0.1165	-7.82631578947	-4.80909090909	5.67741935484	-423.016019417
234	0.117	-4.94736842105	-0.472727272727	7.12580645161	-408.943203883
235	0.1175	3.68947368421	-1.91818181818	7.12580645161	-393.463106796
236	0.118	5.12894736842	-0.472727272727	7.12580645161	-379.390291262
237	0.1185	-16.4631578947	0.972727272727	7.12580645161	-361.095631068
238	0.119	-9.26578947368	0.972727272727	4.22903225806	-331.542718447
239	0.1195	-10.7052631579	0.972727272727	2.78064516129	-338.579126214
240	0.12	-6.38684210526	-0.472727272727	-1.56451612903	-310.433495146
241	0.1205	-6.38684210526	-0.472727272727	4.22903225806	-278.066019417
242	0.121	-6.38684210526	-1.91818181818	-1.56451612903	-252.734951456
243	0.1215	-4.94736842105	-1.91818181818	-1.56451612903	-225.996601942
244	0.122	-3.50789473684	-9.14545454545	7.12580645161	-204.887378641
245	0.1225	-3.50789473684	-4.80909090909	5.67741935484	-192.22184466
246	0.123	-6.38684210526	0.972727272727	4.22903225806	-178.149029126
247	0.1235	-0.628947368421	-4.80909090909	5.67741935484	-168.298058252
248	0.124	-13.5842105263	0.972727272727	5.67741935484	-152.817961165
249	0.1245	-16.4631578947	0.972727272727	7.12580645161	-137.337864078
250	0.125	-13.5842105263	-1.91818181818	5.67741935484	-131.708737864
251	0.1255	16.6447368421	0.972727272727	4.22903225806	-117.63592233
252	0.126	-0.628947368421	0.972727272727	7.12580645161	-112.006796117
253	0.1265	-6.38684210526	0.972727272727	8.57419354839	-95.1194174757
254	0.127	-4.94736842105	-0.472727272727	5.67741935484	-96.5266990291
255	0.1275	-0.628947368421	2.41818181818	21.6096774194	-81.0466019417
256	0.128	-0.628947368421	2.41818181818	-4.46129032258	-74.0101941748
257	0.1285	-2.06842105263	0.972727272727	-3.01290322581	-66.9737864078
258	0.129	2.25	-0.472727272727	-1.56451612903	-64.159223301
259	0.1295	-2.06842105263	-0.472727272727	4.22903225806	-59.9373786408
260	0.13	-0.628947368421	3.86363636364	-0.116129032258	-54.3082524272
261	0.1305	-0.628947368421	-4.80909090909	4.22903225806	-47.2718446602
262	0.131	5.12894736842	-1.91818181818	2.78064516129	-41.6427184466
263	0.1315	-15.0236842105	0.972727272727	2.78064516129	-36.013592233
264	0.132	-13.5842105263	0.972727272727	1.33225806452	-34.6063106796
265	0.1325	12.3263157895	0.972727272727	-0.116129032258	-28.977184466
266	0.133	-3.50789473684	2.41818181818	2.78064516129	-23.3480582524
267	0.1335	-0.628947368421	-0.472727272727	4.22903225806	-17.7189320388
268	0.134	-0.628947368421	0.972727272727	2.78064516129	-21.940776699
269	0.1345	-0.628947368421	0.972727272727	-1.56451612903	-13.4970873786
270	0.135	-3.50789473684	-1.91818181818	1.33225806452	0.57572815534
271	0.1355	-0.628947368421	-3.36363636364	-4.46129032258	3.39029126214
272	0.136	0.810526315789	-0.472727272727	17.264516129	7.61213592233
273	0.1365	2.25	-1.91818181818	-1.56451612903	10.4266990291
274	0.137	-2.06842105263	5.30909090909	-0.116129032258	13.2412621359
275	0.1375	-2.06842105263	-1.91818181818	-1.56451612903	16.0558252427
276	0.138	-4.94736842105	-6.25454545455	-1.56451612903	21.6849514563
277	0.1385	-10.7052631579	0.972727272727	-1.56451612903	23.0922330097
278	0.139	-3.50789473684	-0.472727272727	-1.56451612903	25.9067961165
279	0.1395	8.00789473684	0.972727272727	-1.56451612903	30.1286407767
280	0.14	-4.94736842105	0.972727272727	-0.116129032258	34.3504854369
281	0.1405	-2.06842105263	0.972727272727	-3.01290322581	45.6087378641
282	0.141	-0.628947368421	0.972727272727	-1.56451612903	27.3140776699
283	0.1415	-0.628947368421	-3.36363636364	-3.01290322581	31.5359223301
284	0.142	0.810526315789	-0.472727272727	2.78064516129	37.1650485437
285	0.1425	-0.628947368421	-3.36363636364	14.3677419355	39.9796116505
286	0.143	-0.628947368421	0.972727272727	-1.56451612903	41.3868932039
287	0.1435	0.810526315789	-0.472727272727	-1.56451612903	45.6087378641
288	0.144	0.810526315789	5.30909090909	-4.46129032258	48.4233009709
289	0.1445	-2.06842105263	-1.91818181818	-3.01290322581	52.6451456311
290	0.145	-3.50789473684	-3.36363636364	-0.116129032258	54.0524271845
291	0.1455	2.25	-1.91818181818	-1.56451612903	54.0524271845
292	0.146	19.5236842105	-0.472727272727	-1.56451612903	58.2742718447
293	0.1465	16.6447368421	-1.91818181818	-4.46129032258	56.8669902913
294	0.147	12.3263157895	-0.472727272727	-5.90967741935	61.0888349515
295	0.1475	-6.38684210526	0.972727272727	-1.56451612903	61.0888349515
296	0.148	-2.06842105263	0.972727272727	-3.01290322581	52.6451456311
297	0.1485	-3.50789473684	0.972727272727	-3.01290322581	56.8669902913
298	0.149	-2.06842105263	0.972727272727	-7.35806451613	66.717961165
299	0.1495	-3.50789473684	2.41818181818	-0.116129032258	68.1252427184
300	0.15	-0.628947368421	3.86363636364	-8.8064516129	70.9398058252
301	0.1505	0.810526315789	8.2	-4.46129032258	69.5325242718
302	0.151	0.810526315789	6.75454545455	-1.56451612903	75.1616504854
303	0.1515	3.68947368421	-4.80909090909	-0.116129032258	73.754368932
304	0.152	0.810526315789	-4.80909090909	-3.01290322581	73.754368932
305	0.1525	2.25	-3.36363636364	-1.56451612903	76.5689320388
306	0.153	19.5236842105	0.972727272727	-1.56451612903	76.5689320388
307	0.1535	22.4026315789	2.41818181818	-3.01290322581	82.1980582524
308	0.154	19.5236842105	-0.472727272727	-3.01290322581	83.6053398058
309	0.1545	-6.38684210526	-0.472727272727	-3.01290322581	76.5689320388
310	0.155	0.810526315789	-0.472727272727	-4.46129032258	99.0854368932
311	0.1555	-0.628947368421	-0.472727272727	-1.56451612903	92.0490291262
312	0.156	0.810526315789	3.86363636364	-0.116129032258	80.790776699
313	0.1565	0.810526315789	-0.472727272727	15.8161290323	85.0126213592
314	0.157	0.810526315789	-1.91818181818	7.12580645161	82.1980582524
315	0.1575	-0.628947368421	-13.4818181818	-1.56451612903	82.1980582524
316	0.158	0.810526315789	-10.5909090909	-0.116129032258	80.790776699
317	0.1585	2.25	8.2	-0.116129032258	82.1980582524
318	0.159	8.00789473684	0.972727272727	1.33225806452	80.790776699
319	0.1595	2.25	0.972727272727	-1.56451612903	80.790776699
320	0.16	0.810526315789	0.972727272727	1.33225806452	77.9762135922
321	0.1605	-3.50789473684	0.972727272727	-0.116129032258	79.3834951456
322	0.161	0.810526315789	0.972727272727	1.33225806452	80.790776699
323	0.1615	-0.628947368421	0.972727272727	-3.01290322581	76.5689320388
324	0.162	-2.06842105263	-4.80909090909	4.22903225806	75.1616504854
325	0.1625	2.25	0.972727272727	1.33225806452	73.754368932
326	0.163	0.810526315789	2.41818181818	-1.56451612903	75.1616504854
327	0.1635	-0.628947368421	0.972727272727	1.33225806452	83.6053398058
328	0.164	-0.628947368421	-3.36363636364	10.0225806452	86.4199029126
329	0.1645	-0.628947368421	3.86363636364	-3.01290322581	85.0126213592
330	0.165	0.810526315789	2.41818181818	-1.56451612903	87.827184466
331	0.1655	0.810526315789	-1.91818181818	-1.56451612903	89.2344660194
332	0.166	-0.628947368421	0.972727272727	-1.56451612903	86.4199029126
333	0.1665	-12.1447368421	-1.91818181818	-1.56451612903	89.2344660194
334	0.167	-6.38684210526	0.972727272727	-1.56451612903	87.827184466
335	0.1675	0.810526315789	0.972727272727	-1.56451612903	86.4199029126
336	0.168	9.44736842105	0.972727272727	1.33225806452	85.0126213592
337	0.1685	0.810526315789	-0.472727272727	-1.56451612903	89.2344660194
338	0.169	3.68947368421	-1.91818181818	2.78064516129	90.6417475728
339	0.1695	3.68947368421	-0.472727272727	2.78064516129	79.3834951456
340	0.17	3.68947368421	-3.36363636364	2.78064516129	83.6053398058
341	0.1705	5.12894736842	3.86363636364	15.8161290323	85.0126213592
342	0.171	2.25	-1.91818181818	-11.7032258065	85.0126213592
343	0.1715	-2.06842105263	-0.472727272727	-8.8064516129	85.0126213592
344	0.172	-0.628947368421	-0.472727272727	-11.7032258065	87.827184466
345	0.1725	0.810526315789	-0.472727272727	-4.46129032258	85.0126213592
346	0.173	2.25	0.972727272727	-3.01290322581	83.6053398058
347	0.1735	3.68947368421	-1.91818181818	-1.56451612903	83.6053398058
348	0.174	5.12894736842	0.972727272727	1.33225806452	83.6053398058
349	0.1745	-6.38684210526	-0.472727272727	2.78064516129	86.4199029126
350	0.175	-7.82631578947	-4.80909090909	-0.116129032258	85.0126213592
351	0.1755	-2.06842105263	-0.472727272727	-0.116129032258	85.0126213592
352	0.176	2.25	0.972727272727	1.33225806452	90.6417475728
353	0.1765	0.810526315789	2.41818181818	-3.01290322581	101.9
354	0.177	2.25	-1.91818181818	-1.56451612903	99.0854368932
355	0.1775	2.25	-0.472727272727	15.8161290323	83.6053398058
356	0.178	0.810526315789	-0.472727272727	-0.116129032258	76.5689320388
357	0.1785	0.810526315789	2.41818181818	12.9193548387	83.6053398058
358	0.179	0.810526315789	0.972727272727	-4.46129032258	83.6053398058
359	0.1795	0.810526315789	6.75454545455	-3.01290322581	83.6053398058
360	0.18	0.810526315789	6.75454545455	-1.56451612903	83.6053398058
361	0.1805	2.25	11.0909090909	-3.01290322581	80.790776699
362	0.181	3.68947368421	-13.4818181818	-0.116129032258	79.3834951456
363	0.1815	3.68947368421	-9.14545454545	-3.01290322581	79.3834951456
364	0.182	-3.50789473684	0.972727272727	-0.116129032258	77.9762135922
365	0.1825	5.12894736842	-1.91818181818	1.33225806452	79.3834951456
366	0.183	3.68947368421	0.972727272727	-3.01290322581	79.3834951456
367	0.1835	-2.06842105263	-0.472727272727	-1.56451612903	69.5325242718
368	0.184	3.68947368421	-3.36363636364	1.33225806452	70.9398058252
369	0.1845	0.810526315789	-1.91818181818	-14.6	79.3834951456
370	0.185	0.810526315789	-1.91818181818	-4.46129032258	93.4563106796
371	0.1855	2.25	-3.36363636364	-7.35806451613	76.5689320388
372	0.186	0.810526315789	-0.472727272727	4.22903225806	77.9762135922
373	0.1865	2.25	-10.5909090909	-5.90967741935	77.9762135922
374	0.187	0.810526315789	-9.14545454545	-3.01290322581	79.3834951456
375	0.1875	0.810526315789	-9.14545454545	-1.56451612903	79.3834951456
376	0.188	6.56842105263	15.4272727273	-1.56451612903	75.1616504854
377	0.1885	5.12894736842	-1.91818181818	-1.56451612903	77.9762135922
378	0.189	5.12894736842	-3.36363636364	-1.56451612903	76.5689320388
379	0.1895	8.00789473684	-0.472727272727	-0.116129032258	73.754368932
380	0.19	0.810526315789	-0.472727272727	-1.56451612903	75.1616504854
381	0.1905	-4.94736842105	0.972727272727	2.78064516129	65.3106796117
382	0.191	-2.06842105263	0.972727272727	1.33225806452	75.1616504854
383	0.1915	-0.628947368421	0.972727272727	1.33225806452	87.827184466
384	0.192	-0.628947368421	2.41818181818	-1.56451612903	66.717961165
385	0.1925	-0.628947368421	-0.472727272727	-7.35806451613	63.9033980583
386	0.193	0.810526315789	0.972727272727	2.78064516129	61.0888349515
387	0.1935	0.810526315789	2.41818181818	14.3677419355	69.5325242718
388	0.194	-0.628947368421	-6.25454545455	-0.116129032258	72.3470873786
389	0.1945	-0.628947368421	-9.14545454545	-1.56451612903	75.1616504854
390	0.195	0.810526315789	0.972727272727	-4.46129032258	73.754368932
391	0.1955	3.68947368421	11.0909090909	-1.56451612903	70.9398058252
392	0.196	3.68947368421	2.41818181818	2.78064516129	69.5325242718
393	0.1965	3.68947368421	0.972727272727	1.33225806452	73.754368932
394	0.197	3.68947368421	-10.5909090909	-0.116129032258	72.3470873786
395	0.1975	18.0842105263	-0.472727272727	-0.116129032258	73.754368932
396	0.198	-6.38684210526	-0.472727272727	-0.116129032258	69.5325242718
397	0.1985	-4.94736842105	-0.472727272727	1.33225806452	72.3470873786
398	0.199	-4.94736842105	-3.36363636364	-1.56451612903	76.5689320388
399	0.1995	2.25	-3.36363636364	-11.7032258065	69.5325242718
400	0.2	0.810526315789	0.972727272727	17.264516129	72.3470873786
401	0.2005	3.68947368421	-1.91818181818	2.78064516129	62.4961165049
402	0.201	0.810526315789	-3.36363636364	14.3677419355	69.5325242718
403	0.2015	0.810526315789	-7.7	-0.116129032258	72.3470873786
404	0.202	-2.06842105263	-7.7	-1.56451612903	69.5325242718
405	0.2025	-0.628947368421	-12.0363636364	-1.56451612903	72.3470873786
406	0.203	0.810526315789	-6.25454545455	-1.56451612903	72.3470873786
407	0.2035	-0.628947368421	-7.7	-1.56451612903	72.3470873786
408	0.204	-2.06842105263	15.4272727273	-1.56451612903	72.3470873786
409	0.2045	18.0842105263	-0.472727272727	-1.56451612903	69.5325242718
410	0.205	13.7657894737	0.972727272727	-1.56451612903	63.9033980583
411	0.2055	-4.94736842105	-0.472727272727	1.33225806452	63.9033980583
412	0.206	-3.50789473684	-0.472727272727	-1.56451612903	73.754368932
413	0.2065	-0.628947368421	-0.472727272727	-1.56451612903	85.0126213592
414	0.207	0.810526315789	-1.91818181818	-5.90967741935	70.9398058252
415	0.2075	-0.628947368421	-1.91818181818	14.3677419355	69.5325242718
416	0.208	0.810526315789	-1.91818181818	1.33225806452	69.5325242718
417	0.2085	-0.628947368421	-1.91818181818	-3.01290322581	65.3106796117
418	0.209	-2.06842105263	0.972727272727	-1.56451612903	66.717961165
419	0.2095	-2.06842105263	13.9818181818	-1.56451612903	65.3106796117
420	0.21	0.810526315789	11.0909090909	-0.116129032258	66.717961165
421	0.2105	0.810526315789	-7.7	-1.56451612903	68.1252427184
422	0.211	0.810526315789	-6.25454545455	-0.116129032258	70.9398058252
423	0.2115	18.0842105263	0.972727272727	-0.116129032258	66.717961165
424	0.212	22.4026315789	-1.91818181818	-1.56451612903	66.717961165
425	0.2125	16.6447368421	-0.472727272727	1.33225806452	62.4961165049
426	0.213	3.68947368421	0.972727272727	1.33225806452	62.4961165049
427	0.2135	3.68947368421	-0.472727272727	1.33225806452	63.9033980583
428	0.214	3.68947368421	-1.91818181818	-1.56451612903	83.6053398058
429	0.2145	3.68947368421	-4.80909090909	-7.35806451613	66.717961165
430	0.215	3.68947368421	-1.91818181818	-7.35806451613	69.5325242718
431	0.2155	2.25	0.972727272727	1.33225806452	68.1252427184
432	0.216	0.810526315789	-0.472727272727	-4.46129032258	66.717961165
433	0.2165	-0.628947368421	-12.0363636364	1.33225806452	66.717961165
434	0.217	-0.628947368421	-10.5909090909	1.33225806452	65.3106796117
435	0.2175	3.68947368421	-7.7	1.33225806452	68.1252427184
436	0.218	2.25	-3.36363636364	1.33225806452	68.1252427184
437	0.2185	-7.82631578947	-0.472727272727	1.33225806452	68.1252427184
438	0.219	-4.94736842105	2.41818181818	-1.56451612903	68.1252427184
439	0.2195	-7.82631578947	-1.91818181818	1.33225806452	56.8669902913
440	0.22	-7.82631578947	-0.472727272727	1.33225806452	65.3106796117
441	0.2205	2.25	-1.91818181818	-0.116129032258	66.717961165
442	0.221	-0.628947368421	-1.91818181818	-10.2548387097	69.5325242718
443	0.2215	-0.628947368421	-0.472727272727	14.3677419355	62.4961165049
444	0.222	0.810526315789	0.972727272727	18.7129032258	62.4961165049
445	0.2225	3.68947368421	-0.472727272727	2.78064516129	62.4961165049
446	0.223	2.25	-3.36363636364	1.33225806452	63.9033980583
447	0.2235	0.810526315789	-6.25454545455	-3.01290322581	62.4961165049
448	0.224	-2.06842105263	-0.472727272727	-0.116129032258	65.3106796117
449	0.2245	-2.06842105263	-1.91818181818	-1.56451612903	62.4961165049
450	0.225	5.12894736842	-1.91818181818	1.33225806452	65.3106796117
451	0.2255	-4.94736842105	-3.36363636364	-0.116129032258	62.4961165049
452	0.226	5.12894736842	0.972727272727	-0.116129032258	65.3106796117
453	0.2265	0.810526315789	-3.36363636364	4.22903225806	52.6451456311
454	0.227	-2.06842105263	-1.91818181818	1.33225806452	59.6815533981
455	0.2275	2.25	0.972727272727	4.22903225806	54.0524271845
456	0.228	2.25	0.972727272727	-3.01290322581	56.8669902913
457	0.2285	-2.06842105263	0.972727272727	-8.8064516129	65.3106796117
458	0.229	0.810526315789	-4.80909090909	-5.90967741935	63.9033980583
459	0.2295	2.25	-0.472727272727	2.78064516129	65.3106796117
460	0.23	0.810526315789	0.972727272727	-1.56451612903	65.3106796117
461	0.2305	0.810526315789	-4.80909090909	-7.35806451613	66.717961165
462	0.231	0.810526315789	-1.91818181818	-0.116129032258	65.3106796117
463	0.2315	0.810526315789	9.64545454545	-0.116129032258	65.3106796117
464	0.232	3.68947368421	-0.472727272727	-1.56451612903	63.9033980583
465	0.2325	22.4026315789	-0.472727272727	-0.116129032258	69.5325242718
466	0.233	19.5236842105	-0.472727272727	-0.116129032258	69.5325242718
467	0.2335	-7.82631578947	0.972727272727	-1.56451612903	66.717961165
468	0.234	-7.82631578947	-0.472727272727	1.33225806452	68.1252427184
469	0.2345	-0.628947368421	-0.472727272727	-4.46129032258	66.717961165
470	0.235	0.810526315789	-3.36363636364	-4.46129032258	83.6053398058
471	0.2355	0.810526315789	-0.472727272727	1.33225806452	80.790776699
472	0.236	0.810526315789	-3.36363636364	12.9193548387	69.5325242718
473	0.2365	-0.628947368421	3.86363636364	-1.56451612903	69.5325242718
474	0.237	2.25	5.30909090909	-3.01290322581	65.3106796117
475	0.2375	2.25	-1.91818181818	-4.46129032258	65.3106796117
476	0.238	3.68947368421	-10.5909090909	-1.56451612903	65.3106796117
477	0.2385	3.68947368421	-9.14545454545	-1.56451612903	65.3106796117
478	0.239	0.810526315789	-6.25454545455	-1.56451612903	65.3106796117
479	0.2395	-12.1447368421	-3.36363636364	-0.116129032258	65.3106796117
480	0.24	-10.7052631579	-1.91818181818	-1.56451612903	68.1252427184
481	0.2405	-9.26578947368	-1.91818181818	-1.56451612903	63.9033980583
482	0.241	-7.82631578947	0.972727272727	-0.116129032258	62.4961165049
483	0.2415	-2.06842105263	-1.91818181818	-1.56451612903	72.3470873786
484	0.242	0.810526315789	-4.80909090909	-10.2548387097	61.0888349515
485	0.2425	-0.628947368421	-1.91818181818	-7.35806451613	62.4961165049
486	0.243	-2.06842105263	-1.91818181818	20.1612903226	59.6815533981
487	0.2435	-2.06842105263	-0.472727272727	18.7129032258	63.9033980583
488	0.244	-0.628947368421	-4.80909090909	1.33225806452	61.0888349515
489	0.2445	-0.628947368421	-0.472727272727	-4.46129032258	65.3106796117
490	0.245	3.68947368421	6.75454545455	2.78064516129	63.9033980583
491	0.2455	3.68947368421	-3.36363636364	2.78064516129	62.4961165049
492	0.246	5.12894736842	-0.472727272727	-0.116129032258	65.3106796117
493	0.2465	3.68947368421	-6.25454545455	-3.01290322581	61.0888349515
494	0.247	-12.1447368421	-1.91818181818	-1.56451612903	61.0888349515
495	0.2475	-7.82631578947	0.972727272727	-0.116129032258	61.0888349515
496	0.248	-7.82631578947	-0.472727272727	-0.116129032258	56.8669902913
497	0.2485	-7.82631578947	-1.91818181818	-1.56451612903	61.0888349515
498	0.249	-3.50789473684	-0.472727272727	-3.01290322581	72.3470873786
499	0.2495	-0.628947368421	-1.91818181818	-10.2548387097	58.2742718447
500	0.25	-0.628947368421	-1.91818181818	17.264516129	56.8669902913
501	0.2505	-3.50789473684	-3.36363636364	1.33225806452	54.0524271845
502	0.251	-2.06842105263	-1.91818181818	4.22903225806	59.6815533981
503	0.2515	-0.628947368421	-12.0363636364	-0.116129032258	61.0888349515
504	0.252	-0.628947368421	-13.4818181818	-0.116129032258	61.0888349515
505	0.2525	0.810526315789	16.8727272727	-1.56451612903	59.6815533981
506	0.253	0.810526315789	6.75454545455	-0.116129032258	61.0888349515
507	0.2535	-13.5842105263	-0.472727272727	-4.46129032258	61.0888349515
508	0.254	-10.7052631579	-0.472727272727	-4.46129032258	58.2742718447
509	0.2545	19.5236842105	-1.91818181818	-1.56451612903	61.0888349515
510	0.255	16.6447368421	-0.472727272727	-1.56451612903	61.0888349515
511	0.2555	-2.06842105263	-3.36363636364	1.33225806452	69.5325242718
512	0.256	0.810526315789	-1.91818181818	5.67741935484	68.1252427184
513	0.2565	-2.06842105263	0.972727272727	-4.46129032258	59.6815533981
514	0.257	-0.628947368421	0.972727272727	-8.8064516129	62.4961165049
515	0.2575	0.810526315789	-0.472727272727	18.7129032258	61.0888349515
516	0.258	0.810526315789	0.972727272727	8.57419354839	62.4961165049
517	0.2585	0.810526315789	-10.5909090909	-0.116129032258	61.0888349515
518	0.259	-0.628947368421	-10.5909090909	-0.116129032258	62.4961165049
519	0.2595	0.810526315789	-13.4818181818	-0.116129032258	61.0888349515
520	0.26	0.810526315789	-9.14545454545	2.78064516129	59.6815533981
521	0.2605	2.25	-7.7	1.33225806452	62.4961165049
522	0.261	3.68947368421	-6.25454545455	1.33225806452	63.9033980583
523	0.2615	18.0842105263	-0.472727272727	-0.116129032258	65.3106796117
524	0.262	-6.38684210526	-0.472727272727	1.33225806452	65.3106796117
525	0.2625	-3.50789473684	0.972727272727	-0.116129032258	61.0888349515
526	0.263	-3.50789473684	-1.91818181818	-0.116129032258	56.8669902913
527	0.2635	0.810526315789	-1.91818181818	-11.7032258065	56.8669902913
528	0.264	0.810526315789	-3.36363636364	-11.7032258065	56.8669902913
529	0.2645	0.810526315789	0.972727272727	-14.6	55.4597087379
530	0.265	0.810526315789	0.972727272727	14.3677419355	59.6815533981
531	0.2655	0.810526315789	0.972727272727	-3.01290322581	59.6815533981
532	0.266	0.810526315789	-4.80909090909	1.33225806452	59.6815533981
533	0.2665	0.810526315789	-7.7	2.78064516129	59.6815533981
534	0.267	-0.628947368421	5.30909090909	-0.116129032258	58.2742718447
535	0.2675	0.810526315789	-1.91818181818	2.78064516129	59.6815533981
536	0.268	5.12894736842	0.972727272727	2.78064516129	59.6815533981
537	0.2685	2.25	-10.5909090909	2.78064516129	56.8669902913
538	0.269	-3.50789473684	-1.91818181818	-1.56451612903	59.6815533981
539	0.2695	-3.50789473684	-0.472727272727	-0.116129032258	56.8669902913
540	0.27	-4.94736842105	2.41818181818	-4.46129032258	66.717961165
541	0.2705	-3.50789473684	0.972727272727	-3.01290322581	58.2742718447
542	0.271	-0.628947368421	-0.472727272727	-3.01290322581	69.5325242718
543	0.2715	0.810526315789	-0.472727272727	-8.8064516129	54.0524271845
544	0.272	-2.06842105263	-0.472727272727	11.4709677419	54.0524271845
545	0.2725	-2.06842105263	0.972727272727	4.22903225806	54.0524271845
546	0.273	-4.94736842105	-0.472727272727	-0.116129032258	52.6451456311
547	0.2735	-2.06842105263	-12.0363636364	1.33225806452	55.4597087379
548	0.274	-3.50789473684	-12.0363636364	-0.116129032258	54.0524271845
549	0.2745	-3.50789473684	-1.91818181818	-0.116129032258	52.6451456311
550	0.275	-4.94736842105	2.41818181818	-1.56451612903	52.6451456311
551	0.2755	-13.5842105263	-3.36363636364	-0.116129032258	51.2378640777
552	0.276	-15.0236842105	-0.472727272727	1.33225806452	51.2378640777
553	0.2765	-16.4631578947	-3.36363636364	2.78064516129	48.4233009709
554	0.277	18.0842105263	0.972727272727	-0.116129032258	54.0524271845
555	0.2775	-7.82631578947	0.972727272727	-0.116129032258	51.2378640777
556	0.278	-0.628947368421	0.972727272727	-1.56451612903	54.0524271845
557	0.2785	-6.38684210526	-1.91818181818	-11.7032258065	48.4233009709
558	0.279	-4.94736842105	-3.36363636364	17.264516129	54.0524271845
559	0.2795	-2.06842105263	-1.91818181818	1.33225806452	45.6087378641
560	0.28	-2.06842105263	3.86363636364	15.8161290323	52.6451456311
561	0.2805	-4.94736842105	-6.25454545455	-0.116129032258	51.2378640777
562	0.281	-2.06842105263	-13.4818181818	-1.56451612903	52.6451456311
563	0.2815	-0.628947368421	-10.5909090909	-1.56451612903	54.0524271845
564	0.282	0.810526315789	-10.5909090909	1.33225806452	54.0524271845
565	0.2825	3.68947368421	-6.25454545455	-0.116129032258	52.6451456311
566	0.283	8.00789473684	-4.80909090909	-1.56451612903	54.0524271845
567	0.2835	19.5236842105	-0.472727272727	-1.56451612903	55.4597087379
568	0.284	-7.82631578947	-1.91818181818	-1.56451612903	54.0524271845
569	0.2845	-4.94736842105	-0.472727272727	-0.116129032258	51.2378640777
570	0.285	-3.50789473684	-0.472727272727	-0.116129032258	54.0524271845
571	0.2855	-0.628947368421	2.41818181818	-1.56451612903	61.0888349515
572	0.286	2.25	0.972727272727	-11.7032258065	49.8305825243
573	0.2865	0.810526315789	0.972727272727	-8.8064516129	41.3868932039
574	0.287	-0.628947368421	2.41818181818	-5.90967741935	51.2378640777
575	0.2875	2.25	-0.472727272727	1.33225806452	48.4233009709
576	0.288	2.25	-7.7	-0.116129032258	48.4233009709
577	0.2885	0.810526315789	-10.5909090909	-0.116129032258	49.8305825243
578	0.289	-0.628947368421	-7.7	-1.56451612903	47.0160194175
579	0.2895	-0.628947368421	-9.14545454545	-0.116129032258	48.4233009709
580	0.29	-2.06842105263	19.7636363636	-0.116129032258	49.8305825243
581	0.2905	19.5236842105	0.972727272727	2.78064516129	45.6087378641
582	0.291	15.2052631579	0.972727272727	-0.116129032258	49.8305825243
583	0.2915	12.3263157895	-1.91818181818	1.33225806452	44.2014563107
584	0.292	-4.94736842105	-1.91818181818	1.33225806452	47.0160194175
585	0.2925	-3.50789473684	-0.472727272727	7.12580645161	54.0524271845
586	0.293	-2.06842105263	-0.472727272727	1.33225806452	54.0524271845
587	0.2935	-2.06842105263	-1.91818181818	-1.56451612903	55.4597087379
588	0.294	-3.50789473684	-0.472727272727	-10.2548387097	41.3868932039
589	0.2945	-0.628947368421	-1.91818181818	-8.8064516129	42.7941747573
590	0.295	-0.628947368421	-1.91818181818	-10.2548387097	41.3868932039
591	0.2955	0.810526315789	-4.80909090909	-0.116129032258	39.9796116505
592	0.296	0.810526315789	-1.91818181818	-0.116129032258	39.9796116505
593	0.2965	-0.628947368421	0.972727272727	-1.56451612903	39.9796116505
594	0.297	-4.94736842105	-1.91818181818	1.33225806452	38.5723300971
595	0.2975	-16.4631578947	-1.91818181818	-0.116129032258	37.1650485437
596	0.298	16.6447368421	-0.472727272727	-0.116129032258	38.5723300971
597	0.2985	8.00789473684	-0.472727272727	1.33225806452	39.9796116505
598	0.299	3.68947368421	0.972727272727	2.78064516129	39.9796116505
599	0.2995	-3.50789473684	-0.472727272727	1.33225806452	34.3504854369
600	0.3	0.810526315789	0.972727272727	4.22903225806	34.3504854369
601	0.3005	-4.94736842105	0.972727272727	-10.2548387097	38.5723300971
602	0.301	-2.06842105263	-1.91818181818	-10.2548387097	37.1650485437
603	0.3015	-0.628947368421	0.972727272727	11.4709677419	38.5723300971
604	0.302	-3.50789473684	-1.91818181818	-1.56451612903	37.1650485437
605	0.3025	-0.628947368421	-4.80909090909	-1.56451612903	37.1650485437
606	0.303	0.810526315789	-10.5909090909	1.33225806452	39.9796116505
607	0.3035	-3.50789473684	-4.80909090909	-1.56451612903	35.7577669903
608	0.304	0.810526315789	-9.14545454545	-1.56451612903	38.5723300971
609	0.3045	0.810526315789	6.75454545455	-1.56451612903	39.9796116505
610	0.305	-7.82631578947	0.972727272727	-3.01290322581	41.3868932039
611	0.3055	-3.50789473684	0.972727272727	-3.01290322581	44.2014563107
612	0.306	-6.38684210526	-1.91818181818	-0.116129032258	38.5723300971
613	0.3065	-6.38684210526	0.972727272727	2.78064516129	37.1650485437
614	0.307	0.810526315789	-0.472727272727	-0.116129032258	42.7941747573
615	0.3075	-0.628947368421	-1.91818181818	-5.90967741935	42.7941747573
616	0.308	-3.50789473684	-1.91818181818	15.8161290323	41.3868932039
617	0.3085	-2.06842105263	-3.36363636364	4.22903225806	38.5723300971
618	0.309	0.810526315789	0.972727272727	18.7129032258	42.7941747573
619	0.3095	0.810526315789	-0.472727272727	-1.56451612903	41.3868932039
620	0.31	-0.628947368421	-4.80909090909	-0.116129032258	42.7941747573
621	0.3105	0.810526315789	-6.25454545455	1.33225806452	39.9796116505
622	0.311	-3.50789473684	-1.91818181818	1.33225806452	38.5723300971
623	0.3115	5.12894736842	-3.36363636364	-1.56451612903	39.9796116505
624	0.312	3.68947368421	-0.472727272727	-1.56451612903	41.3868932039
625	0.3125	0.810526315789	-7.7	2.78064516129	39.9796116505
626	0.313	3.68947368421	-1.91818181818	1.33225806452	35.7577669903
627	0.3135	-3.50789473684	-1.91818181818	4.22903225806	45.6087378641
628	0.314	-0.628947368421	0.972727272727	-1.56451612903	56.8669902913
629	0.3145	-0.628947368421	0.972727272727	-1.56451612903	45.6087378641
630	0.315	0.810526315789	0.972727272727	-7.35806451613	42.7941747573
631	0.3155	0.810526315789	0.972727272727	4.22903225806	38.5723300971
632	0.316	2.25	-1.91818181818	4.22903225806	39.9796116505
633	0.3165	-2.06842105263	-1.91818181818	-1.56451612903	38.5723300971
634	0.317	-0.628947368421	3.86363636364	-4.46129032258	38.5723300971
635	0.3175	-0.628947368421	3.86363636364	-0.116129032258	37.1650485437
636	0.318	0.810526315789	-4.80909090909	-0.116129032258	42.7941747573
637	0.3185	-3.50789473684	-3.36363636364	1.33225806452	41.3868932039
638	0.319	-0.628947368421	3.86363636364	-0.116129032258	42.7941747573
639	0.3195	-12.1447368421	-0.472727272727	-0.116129032258	44.2014563107
640	0.32	-15.0236842105	-1.91818181818	1.33225806452	37.1650485437
641	0.3205	-10.7052631579	-0.472727272727	-0.116129032258	37.1650485437
642	0.321	-2.06842105263	-1.91818181818	-0.116129032258	42.7941747573
643	0.3215	-0.628947368421	-1.91818181818	-0.116129032258	45.6087378641
644	0.322	0.810526315789	-0.472727272727	2.78064516129	37.1650485437
645	0.3225	-0.628947368421	0.972727272727	2.78064516129	34.3504854369
646	0.323	2.25	0.972727272727	-0.116129032258	35.7577669903
647	0.3235	-2.06842105263	-4.80909090909	7.12580645161	39.9796116505
648	0.324	-2.06842105263	-12.0363636364	1.33225806452	41.3868932039
649	0.3245	0.810526315789	-13.4818181818	1.33225806452	41.3868932039
650	0.325	0.810526315789	15.4272727273	-1.56451612903	41.3868932039
651	0.3255	0.810526315789	16.8727272727	-0.116129032258	39.9796116505
652	0.326	2.25	-9.14545454545	2.78064516129	39.9796116505
653	0.3265	-0.628947368421	-6.25454545455	-1.56451612903	39.9796116505
654	0.327	15.2052631579	-1.91818181818	1.33225806452	39.9796116505
655	0.3275	16.6447368421	-1.91818181818	1.33225806452	42.7941747573
656	0.328	0.810526315789	0.972727272727	1.33225806452	42.7941747573
657	0.3285	-0.628947368421	0.972727272727	-1.56451612903	48.4233009709
658	0.329	-0.628947368421	2.41818181818	-1.56451612903	32.9432038835
659	0.3295	-0.628947368421	0.972727272727	2.78064516129	32.9432038835
660	0.33	3.68947368421	2.41818181818	17.264516129	39.9796116505
661	0.3305	-0.628947368421	-0.472727272727	-7.35806451613	39.9796116505
662	0.331	0.810526315789	-1.91818181818	4.22903225806	42.7941747573
663	0.3315	2.25	16.8727272727	-1.56451612903	37.1650485437
664	0.332	0.810526315789	19.7636363636	1.33225806452	42.7941747573
665	0.3325	2.25	18.3181818182	-1.56451612903	41.3868932039
666	0.333	-3.50789473684	-1.91818181818	-4.46129032258	41.3868932039
667	0.3335	-6.38684210526	-0.472727272727	-7.35806451613	39.9796116505
668	0.334	-13.5842105263	-0.472727272727	-4.46129032258	42.7941747573
669	0.3345	19.5236842105	-0.472727272727	-5.90967741935	42.7941747573
670	0.335	18.0842105263	-0.472727272727	-3.01290322581	44.2014563107
671	0.3355	-0.628947368421	-0.472727272727	-4.46129032258	54.0524271845
672	0.336	-2.06842105263	-0.472727272727	-0.116129032258	39.9796116505
673	0.3365	-3.50789473684	-0.472727272727	1.33225806452	42.7941747573
674	0.337	-2.06842105263	0.972727272727	17.264516129	45.6087378641
675	0.3375	-2.06842105263	0.972727272727	-7.35806451613	47.0160194175
676	0.338	-4.94736842105	0.972727272727	2.78064516129	45.6087378641
677	0.3385	-2.06842105263	2.41818181818	-3.01290322581	45.6087378641
678	0.339	-4.94736842105	5.30909090909	-0.116129032258	44.2014563107
679	0.3395	0.810526315789	-9.14545454545	-1.56451612903	45.6087378641
680	0.34	-0.628947368421	-3.36363636364	1.33225806452	44.2014563107
681	0.3405	0.810526315789	0.972727272727	-3.01290322581	47.0160194175
682	0.341	-12.1447368421	-0.472727272727	-1.56451612903	47.0160194175
683	0.3415	13.7657894737	-1.91818181818	-0.116129032258	45.6087378641
684	0.342	8.00789473684	-1.91818181818	1.33225806452	41.3868932039
685	0.3425	-2.06842105263	0.972727272727	2.78064516129	37.1650485437
686	0.343	0.810526315789	0.972727272727	4.22903225806	41.3868932039
687	0.3435	-0.628947368421	-0.472727272727	4.22903225806	42.7941747573
688	0.344	2.25	-0.472727272727	-1.56451612903	44.2014563107
689	0.3445	0.810526315789	-0.472727272727	2.78064516129	51.2378640777
690	0.345	3.68947368421	-0.472727272727	12.9193548387	52.6451456311
691	0.3455	2.25	3.86363636364	-1.56451612903	52.6451456311
692	0.346	2.25	2.41818181818	1.33225806452	52.6451456311
693	0.3465	2.25	8.2	-0.116129032258	52.6451456311
694	0.347	3.68947368421	3.86363636364	-0.116129032258	48.4233009709
695	0.3475	-0.628947368421	13.9818181818	-1.56451612903	49.8305825243
696	0.348	2.25	-4.80909090909	-1.56451612903	52.6451456311
697	0.3485	22.4026315789	0.972727272727	1.33225806452	48.4233009709
698	0.349	19.5236842105	-1.91818181818	-1.56451612903	49.8305825243
699	0.3495	16.6447368421	-0.472727272727	2.78064516129	45.6087378641
700	0.35	0.810526315789	-0.472727272727	2.78064516129	52.6451456311
701	0.3505	0.810526315789	-0.472727272727	2.78064516129	44.2014563107
702	0.351	0.810526315789	-0.472727272727	4.22903225806	44.2014563107
703	0.3515	-2.06842105263	0.972727272727	15.8161290323	52.6451456311
704	0.352	-2.06842105263	-1.91818181818	5.67741935484	45.6087378641
705	0.3525	-0.628947368421	-1.91818181818	2.78064516129	55.4597087379
706	0.353	-0.628947368421	-10.5909090909	-0.116129032258	56.8669902913
707	0.3535	-2.06842105263	-13.4818181818	-0.116129032258	56.8669902913
708	0.354	0.810526315789	-10.5909090909	-1.56451612903	55.4597087379
709	0.3545	-4.94736842105	-7.7	-1.56451612903	54.0524271845
710	0.355	-2.06842105263	-6.25454545455	-0.116129032258	56.8669902913
711	0.3555	-2.06842105263	-1.91818181818	-1.56451612903	59.6815533981
712	0.356	-9.26578947368	-3.36363636364	-0.116129032258	61.0888349515
713	0.3565	-12.1447368421	-0.472727272727	1.33225806452	44.2014563107
714	0.357	-15.0236842105	-1.91818181818	-1.56451612903	55.4597087379
715	0.3575	-3.50789473684	0.972727272727	1.33225806452	54.0524271845
716	0.358	-0.628947368421	2.41818181818	-4.46129032258	51.2378640777
717	0.3585	-0.628947368421	-1.91818181818	15.8161290323	55.4597087379
718	0.359	0.810526315789	-0.472727272727	2.78064516129	48.4233009709
719	0.3595	-2.06842105263	0.972727272727	18.7129032258	55.4597087379
720	0.36	-0.628947368421	3.86363636364	-7.35806451613	55.4597087379
721	0.3605	-3.50789473684	6.75454545455	-0.116129032258	52.6451456311
722	0.361	-0.628947368421	5.30909090909	-1.56451612903	56.8669902913
723	0.3615	0.810526315789	6.75454545455	-0.116129032258	55.4597087379
724	0.362	3.68947368421	-1.91818181818	-0.116129032258	54.0524271845
725	0.3625	5.12894736842	0.972727272727	-1.56451612903	56.8669902913
726	0.363	0.810526315789	2.41818181818	-0.116129032258	56.8669902913
727	0.3635	8.00789473684	2.41818181818	-0.116129032258	61.0888349515
728	0.364	0.810526315789	2.41818181818	4.22903225806	54.0524271845
729	0.3645	-0.628947368421	2.41818181818	1.33225806452	61.0888349515
730	0.365	-0.628947368421	-1.91818181818	5.67741935484	55.4597087379
731	0.3655	-2.06842105263	0.972727272727	-10.2548387097	66.717961165
732	0.366	-0.628947368421	0.972727272727	-1.56451612903	79.3834951456
733	0.3665	0.810526315789	2.41818181818	-10.2548387097	62.4961165049
734	0.367	-3.50789473684	0.972727272727	-7.35806451613	62.4961165049
735	0.3675	-2.06842105263	2.41818181818	-3.01290322581	62.4961165049
736	0.368	-0.628947368421	-9.14545454545	-1.56451612903	62.4961165049
737	0.3685	-0.628947368421	-10.5909090909	-0.116129032258	62.4961165049
738	0.369	-3.50789473684	-10.5909090909	-1.56451612903	62.4961165049
739	0.3695	0.810526315789	-12.0363636364	1.33225806452	62.4961165049
740	0.37	-0.628947368421	-10.5909090909	-0.116129032258	62.4961165049
741	0.3705	-7.82631578947	-7.7	-0.116129032258	63.9033980583
742	0.371	-10.7052631579	-0.472727272727	-1.56451612903	63.9033980583
743	0.3715	-6.38684210526	-0.472727272727	-1.56451612903	59.6815533981
744	0.372	0.810526315789	-1.91818181818	-1.56451612903	63.9033980583
745	0.3725	2.25	-1.91818181818	-0.116129032258	55.4597087379
746	0.373	0.810526315789	2.41818181818	1.33225806452	61.0888349515
747	0.3735	2.25	0.972727272727	2.78064516129	58.2742718447
748	0.374	0.810526315789	0.972727272727	20.1612903226	62.4961165049
749	0.3745	0.810526315789	-0.472727272727	15.8161290323	56.8669902913
750	0.375	2.25	-0.472727272727	11.4709677419	63.9033980583
751	0.3755	0.810526315789	-7.7	-1.56451612903	65.3106796117
752	0.376	-0.628947368421	-12.0363636364	1.33225806452	65.3106796117
753	0.3765	-2.06842105263	3.86363636364	-1.56451612903	66.717961165
754	0.377	-3.50789473684	-0.472727272727	-0.116129032258	65.3106796117
755	0.3775	-3.50789473684	-0.472727272727	-0.116129032258	65.3106796117
756	0.378	-9.26578947368	-0.472727272727	2.78064516129	62.4961165049
757	0.3785	-13.5842105263	0.972727272727	1.33225806452	63.9033980583
758	0.379	0.810526315789	0.972727272727	1.33225806452	56.8669902913
759	0.3795	0.810526315789	-0.472727272727	-1.56451612903	69.5325242718
760	0.38	-2.06842105263	0.972727272727	1.33225806452	54.0524271845
761	0.3805	0.810526315789	-1.91818181818	2.78064516129	55.4597087379
762	0.381	-2.06842105263	2.41818181818	15.8161290323	62.4961165049
763	0.3815	-2.06842105263	2.41818181818	-4.46129032258	61.0888349515
764	0.382	-3.50789473684	2.41818181818	-3.01290322581	63.9033980583
765	0.3825	-3.50789473684	3.86363636364	1.33225806452	59.6815533981
766	0.383	-4.94736842105	-12.0363636364	-1.56451612903	61.0888349515
767	0.3835	-4.94736842105	-10.5909090909	-0.116129032258	58.2742718447
768	0.384	-4.94736842105	-0.472727272727	-1.56451612903	59.6815533981
769	0.3845	-7.82631578947	-1.91818181818	-1.56451612903	58.2742718447
770	0.385	-10.7052631579	-1.91818181818	-1.56451612903	54.0524271845
771	0.3855	-13.5842105263	-1.91818181818	-1.56451612903	52.6451456311
772	0.386	-9.26578947368	-0.472727272727	1.33225806452	42.7941747573
773	0.3865	-2.06842105263	-3.36363636364	2.78064516129	45.6087378641
774	0.387	-2.06842105263	-1.91818181818	-1.56451612903	54.0524271845
775	0.3875	-3.50789473684	-0.472727272727	1.33225806452	52.6451456311
776	0.388	-2.06842105263	-0.472727272727	2.78064516129	44.2014563107
777	0.3885	0.810526315789	-0.472727272727	15.8161290323	52.6451456311
778	0.389	0.810526315789	-0.472727272727	14.3677419355	51.2378640777
779	0.3895	-0.628947368421	0.972727272727	-5.90967741935	54.0524271845
780	0.39	0.810526315789	8.2	2.78064516129	51.2378640777
781	0.3905	-0.628947368421	9.64545454545	1.33225806452	51.2378640777
782	0.391	-0.628947368421	-10.5909090909	-1.56451612903	51.2378640777
783	0.3915	-2.06842105263	-4.80909090909	1.33225806452	51.2378640777
784	0.392	-13.5842105263	0.972727272727	2.78064516129	52.6451456311
785	0.3925	-6.38684210526	-1.91818181818	-0.116129032258	48.4233009709
786	0.393	-3.50789473684	0.972727272727	-0.116129032258	48.4233009709
787	0.3935	12.3263157895	0.972727272727	1.33225806452	39.9796116505
788	0.394	-3.50789473684	-0.472727272727	4.22903225806	44.2014563107
789	0.3945	0.810526315789	-1.91818181818	-10.2548387097	45.6087378641
790	0.395	0.810526315789	-0.472727272727	-10.2548387097	47.0160194175
791	0.3955	-2.06842105263	-0.472727272727	18.7129032258	48.4233009709
792	0.396	-2.06842105263	-0.472727272727	1.33225806452	44.2014563107
793	0.3965	-0.628947368421	-0.472727272727	7.12580645161	49.8305825243
794	0.397	-3.50789473684	-7.7	1.33225806452	54.0524271845
795	0.3975	-0.628947368421	-9.14545454545	-0.116129032258	55.4597087379
796	0.398	-3.50789473684	16.8727272727	-1.56451612903	52.6451456311
797	0.3985	-0.628947368421	-0.472727272727	-0.116129032258	52.6451456311
798	0.399	-3.50789473684	0.972727272727	-1.56451612903	51.2378640777
799	0.3995	-4.94736842105	0.972727272727	-0.116129032258	52.6451456311
800	0.4	-2.06842105263	0.972727272727	-0.116129032258	49.8305825243
801	0.4005	3.68947368421	2.41818181818	-0.116129032258	51.2378640777
802	0.401	-4.94736842105	-0.472727272727	1.33225806452	51.2378640777
803	0.4015	-0.628947368421	0.972727272727	-1.56451612903	62.4961165049
804	0.402	-0.628947368421	-3.36363636364	4.22903225806	37.1650485437
805	0.4025	-0.628947368421	-1.91818181818	-0.116129032258	39.9796116505
806	0.403	-0.628947368421	-1.91818181818	1.33225806452	45.6087378641
807	0.4035	0.810526315789	-1.91818181818	-1.56451612903	44.2014563107
808	0.404	0.810526315789	-4.80909090909	-7.35806451613	47.0160194175
809	0.4045	0.810526315789	-10.5909090909	-1.56451612903	45.6087378641
810	0.405	0.810526315789	-6.25454545455	-1.56451612903	45.6087378641
811	0.4055	-0.628947368421	3.86363636364	-4.46129032258	47.0160194175
812	0.406	2.25	-1.91818181818	-1.56451612903	47.0160194175
813	0.4065	5.12894736842	-3.36363636364	-1.56451612903	49.8305825243
814	0.407	0.810526315789	-10.5909090909	-0.116129032258	51.2378640777
815	0.4075	10.8868421053	-1.91818181818	-0.116129032258	54.0524271845
816	0.408	-6.38684210526	-1.91818181818	-0.116129032258	45.6087378641
817	0.4085	-3.50789473684	0.972727272727	1.33225806452	54.0524271845
818	0.409	-3.50789473684	2.41818181818	4.22903225806	65.3106796117
819	0.4095	-2.06842105263	-0.472727272727	-11.7032258065	48.4233009709
820	0.41	-0.628947368421	-1.91818181818	-0.116129032258	58.2742718447
821	0.4105	-4.94736842105	-0.472727272727	4.22903225806	44.2014563107
822	0.411	-2.06842105263	0.972727272727	-3.01290322581	42.7941747573
823	0.4115	-2.06842105263	3.86363636364	-1.56451612903	42.7941747573
824	0.412	-2.06842105263	2.41818181818	-0.116129032258	44.2014563107
825	0.4125	-0.628947368421	19.7636363636	1.33225806452	42.7941747573
826	0.413	-0.628947368421	16.8727272727	-1.56451612903	41.3868932039
827	0.4135	-2.06842105263	-0.472727272727	-0.116129032258	41.3868932039
828	0.414	-13.5842105263	-0.472727272727	-0.116129032258	38.5723300971
829	0.4145	16.6447368421	0.972727272727	1.33225806452	38.5723300971
830	0.415	18.0842105263	-1.91818181818	1.33225806452	38.5723300971
831	0.4155	15.2052631579	-1.91818181818	-0.116129032258	35.7577669903
832	0.416	2.25	-0.472727272727	2.78064516129	30.1286407767
833	0.4165	3.68947368421	0.972727272727	4.22903225806	35.7577669903
834	0.417	0.810526315789	0.972727272727	-8.8064516129	30.1286407767
835	0.4175	0.810526315789	0.972727272727	-1.56451612903	47.0160194175
836	0.418	2.25	0.972727272727	-3.01290322581	32.9432038835
837	0.4185	-0.628947368421	0.972727272727	-1.56451612903	28.7213592233
838	0.419	0.810526315789	2.41818181818	-0.116129032258	25.9067961165
839	0.4195	-0.628947368421	-1.91818181818	-8.8064516129	25.9067961165
840	0.42	-0.628947368421	0.972727272727	-0.116129032258	25.9067961165
841	0.4205	3.68947368421	0.972727272727	-0.116129032258	25.9067961165
842	0.421	5.12894736842	0.972727272727	-3.01290322581	23.0922330097
843	0.4215	-0.628947368421	0.972727272727	-1.56451612903	25.9067961165
844	0.422	-4.94736842105	0.972727272727	-1.56451612903	16.0558252427
845	0.4225	-4.94736842105	0.972727272727	-0.116129032258	31.5359223301
846	0.423	-3.50789473684	2.41818181818	-0.116129032258	21.6849514563
847	0.4235	-0.628947368421	0.972727272727	-1.56451612903	6.20485436893
848	0.424	0.810526315789	2.41818181818	-8.8064516129	17.4631067961
849	0.4245	-0.628947368421	-0.472727272727	14.3677419355	14.6485436893
850	0.425	-3.50789473684	-0.472727272727	1.33225806452	14.6485436893
851	0.4255	-3.50789473684	-3.36363636364	-0.116129032258	10.4266990291
852	0.426	-0.628947368421	-10.5909090909	-0.116129032258	9.01941747573
853	0.4265	2.25	15.4272727273	-1.56451612903	10.4266990291
854	0.427	-2.06842105263	9.64545454545	2.78064516129	6.20485436893
855	0.4275	0.810526315789	5.30909090909	1.33225806452	4.79757281553
856	0.428	-10.7052631579	-1.91818181818	1.33225806452	3.39029126214
857	0.4285	20.9631578947	-3.36363636364	1.33225806452	3.39029126214
858	0.429	18.0842105263	-1.91818181818	4.22903225806	0.57572815534
859	0.4295	-0.628947368421	0.972727272727	4.22903225806	-2.23883495146
860	0.43	0.810526315789	2.41818181818	-0.116129032258	-3.64611650485
861	0.4305	-0.628947368421	0.972727272727	2.78064516129	1.98300970874
862	0.431	0.810526315789	0.972727272727	1.33225806452	-12.0898058252
863	0.4315	0.810526315789	-0.472727272727	2.78064516129	-9.27524271845
864	0.432	0.810526315789	2.41818181818	15.8161290323	-5.05339805825
865	0.4325	2.25	-0.472727272727	-3.01290322581	-2.23883495146
866	0.433	2.25	-7.7	-0.116129032258	-5.05339805825
867	0.4335	2.25	3.86363636364	1.33225806452	-5.05339805825
868	0.434	2.25	13.9818181818	2.78064516129	-7.86796116505
869	0.4345	0.810526315789	15.4272727273	-0.116129032258	-6.46067961165
870	0.435	0.810526315789	-0.472727272727	2.78064516129	-7.86796116505
871	0.4355	-10.7052631579	0.972727272727	-0.116129032258	-9.27524271845
872	0.436	18.0842105263	0.972727272727	1.33225806452	-6.46067961165
873	0.4365	-6.38684210526	2.41818181818	-0.116129032258	-7.86796116505
874	0.437	-4.94736842105	2.41818181818	1.33225806452	-13.4970873786
875	0.4375	0.810526315789	0.972727272727	1.33225806452	-5.05339805825
876	0.438	0.810526315789	0.972727272727	1.33225806452	-12.0898058252
877	0.4385	-3.50789473684	2.41818181818	15.8161290323	-13.4970873786
878	0.439	-4.94736842105	2.41818181818	15.8161290323	-13.4970873786
879	0.4395	-3.50789473684	0.972727272727	12.9193548387	-16.3116504854
880	0.44	-3.50789473684	0.972727272727	2.78064516129	-17.7189320388
881	0.4405	-2.06842105263	-10.5909090909	1.33225806452	-19.1262135922
882	0.441	-0.628947368421	3.86363636364	1.33225806452	-20.5334951456
883	0.4415	2.25	18.3181818182	2.78064516129	-20.5334951456
884	0.442	2.25	-0.472727272727	2.78064516129	-23.3480582524
885	0.4425	-6.38684210526	0.972727272727	-0.116129032258	-23.3480582524
886	0.443	-4.94736842105	-3.36363636364	1.33225806452	-21.940776699
887	0.4435	9.44736842105	0.972727272727	1.33225806452	-23.3480582524
888	0.444	-3.50789473684	-0.472727272727	5.67741935484	-33.1990291262
889	0.4445	-0.628947368421	0.972727272727	-0.116129032258	-9.27524271845
890	0.445	-2.06842105263	2.41818181818	-1.56451612903	-21.940776699
891	0.4455	-0.628947368421	0.972727272727	-7.35806451613	-26.1626213592
892	0.446	-2.06842105263	3.86363636364	4.22903225806	-34.6063106796
893	0.4465	-0.628947368421	-0.472727272727	14.3677419355	-26.1626213592
894	0.447	-0.628947368421	0.972727272727	-4.46129032258	-24.7553398058
895	0.4475	-2.06842105263	2.41818181818	-1.56451612903	-26.1626213592
896	0.448	0.810526315789	15.4272727273	-0.116129032258	-28.977184466
897	0.4485	0.810526315789	18.3181818182	-0.116129032258	-28.977184466
898	0.449	3.68947368421	16.8727272727	1.33225806452	-28.977184466
899	0.4495	2.25	-6.25454545455	-1.56451612903	-34.6063106796
900	0.45	3.68947368421	-6.25454545455	4.22903225806	-33.1990291262
901	0.4505	-4.94736842105	-1.91818181818	1.33225806452	-30.3844660194
902	0.451	20.9631578947	0.972727272727	2.78064516129	-33.1990291262
903	0.4515	23.8421052632	0.972727272727	2.78064516129	-28.977184466
904	0.452	3.68947368421	-1.91818181818	1.33225806452	-20.5334951456
905	0.4525	-0.628947368421	-0.472727272727	2.78064516129	-36.013592233
906	0.453	-0.628947368421	0.972727272727	4.22903225806	-28.977184466
907	0.4535	0.810526315789	0.972727272727	14.3677419355	-36.013592233
908	0.454	0.810526315789	0.972727272727	-8.8064516129	-33.1990291262
909	0.4545	-3.50789473684	0.972727272727	-4.46129032258	-34.6063106796
910	0.455	-0.628947368421	0.972727272727	8.57419354839	-34.6063106796
911	0.4555	-0.628947368421	15.4272727273	4.22903225806	-33.1990291262
912	0.456	-2.06842105263	15.4272727273	-1.56451612903	-34.6063106796
913	0.4565	-3.50789473684	8.2	2.78064516129	-34.6063106796
914	0.457	-7.82631578947	-1.91818181818	2.78064516129	-31.7917475728
915	0.4575	-13.5842105263	-0.472727272727	-0.116129032258	-34.6063106796
916	0.458	-12.1447368421	-3.36363636364	2.78064516129	-33.1990291262
917	0.4585	-4.94736842105	0.972727272727	4.22903225806	-31.7917475728
918	0.459	-3.50789473684	-1.91818181818	-1.56451612903	-24.7553398058
919	0.4595	3.68947368421	0.972727272727	-1.56451612903	-20.5334951456
920	0.46	2.25	0.972727272727	4.22903225806	-38.8281553398
921	0.4605	3.68947368421	0.972727272727	1.33225806452	-41.6427184466
922	0.461	-0.628947368421	-0.472727272727	4.22903225806	-40.2354368932
923	0.4615	0.810526315789	-0.472727272727	14.3677419355	-33.1990291262
924	0.462	0.810526315789	-0.472727272727	8.57419354839	-31.7917475728
925	0.4625	2.25	-4.80909090909	-0.116129032258	-31.7917475728
926	0.463	0.810526315789	2.41818181818	-0.116129032258	-33.1990291262
927	0.4635	0.810526315789	11.0909090909	1.33225806452	-33.1990291262
928	0.464	0.810526315789	0.972727272727	2.78064516129	-34.6063106796
929	0.4645	3.68947368421	-6.25454545455	4.22903225806	-31.7917475728
930	0.465	2.25	-4.80909090909	2.78064516129	-33.1990291262
931	0.4655	13.7657894737	-0.472727272727	-0.116129032258	-33.1990291262
932	0.466	10.8868421053	-0.472727272727	1.33225806452	-33.1990291262
933	0.4665	3.68947368421	-0.472727272727	4.22903225806	-41.6427184466
934	0.467	9.44736842105	-1.91818181818	-0.116129032258	-33.1990291262
935	0.4675	3.68947368421	-3.36363636364	2.78064516129	-34.6063106796
936	0.468	3.68947368421	0.972727272727	2.78064516129	-23.3480582524
937	0.4685	-0.628947368421	2.41818181818	-11.7032258065	-34.6063106796
938	0.469	2.25	0.972727272727	-10.2548387097	-34.6063106796
939	0.4695	2.25	-0.472727272727	-5.90967741935	-34.6063106796
940	0.47	0.810526315789	-0.472727272727	-4.46129032258	-33.1990291262
941	0.4705	0.810526315789	-1.91818181818	-3.01290322581	-31.7917475728
942	0.471	0.810526315789	-13.4818181818	-0.116129032258	-33.1990291262
943	0.4715	2.25	-12.0363636364	-1.56451612903	-36.013592233
944	0.472	-0.628947368421	-4.80909090909	1.33225806452	-31.7917475728
945	0.4725	-0.628947368421	-4.80909090909	1.33225806452	-30.3844660194
946	0.473	10.8868421053	0.972727272727	2.78064516129	-33.1990291262
947	0.4735	12.3263157895	0.972727272727	1.33225806452	-31.7917475728
948	0.474	19.5236842105	-1.91818181818	1.33225806452	-33.1990291262
949	0.4745	-0.628947368421	-1.91818181818	1.33225806452	-28.977184466
950	0.475	-2.06842105263	-0.472727272727	1.33225806452	-20.5334951456
951	0.4755	0.810526315789	-3.36363636364	-0.116129032258	-33.1990291262
952	0.476	-2.06842105263	-1.91818181818	4.22903225806	-31.7917475728
953	0.4765	-2.06842105263	0.972727272727	17.264516129	-33.1990291262
954	0.477	-0.628947368421	-0.472727272727	-8.8064516129	-28.977184466
955	0.4775	-0.628947368421	-0.472727272727	-8.8064516129	-30.3844660194
956	0.478	0.810526315789	-1.91818181818	-4.46129032258	-31.7917475728
957	0.4785	0.810526315789	5.30909090909	1.33225806452	-30.3844660194
958	0.479	2.25	15.4272727273	-0.116129032258	-31.7917475728
959	0.4795	0.810526315789	-9.14545454545	1.33225806452	-28.977184466
960	0.48	0.810526315789	-7.7	2.78064516129	-31.7917475728
961	0.4805	5.12894736842	-0.472727272727	-1.56451612903	-26.1626213592
962	0.481	19.5236842105	-0.472727272727	-0.116129032258	-27.5699029126
963	0.4815	19.5236842105	-1.91818181818	-3.01290322581	-28.977184466
964	0.482	12.3263157895	0.972727272727	-3.01290322581	-26.1626213592
965	0.4825	0.810526315789	-1.91818181818	1.33225806452	-28.977184466
966	0.483	2.25	0.972727272727	4.22903225806	-30.3844660194
967	0.4835	-0.628947368421	0.972727272727	-1.56451612903	-10.6825242718
968	0.484	0.810526315789	5.30909090909	-7.35806451613	-20.5334951456
969	0.4845	0.810526315789	0.972727272727	-1.56451612903	-12.0898058252
970	0.485	2.25	2.41818181818	8.57419354839	-20.5334951456
971	0.4855	0.810526315789	5.30909090909	-0.116129032258	-21.940776699
972	0.486	5.12894736842	18.3181818182	1.33225806452	-19.1262135922
973	0.4865	3.68947368421	18.3181818182	1.33225806452	-20.5334951456
974	0.487	3.68947368421	18.3181818182	1.33225806452	-19.1262135922
975	0.4875	2.25	-9.14545454545	-0.116129032258	-17.7189320388
976	0.488	-3.50789473684	-4.80909090909	-0.116129032258	-19.1262135922
977	0.4885	9.44736842105	-0.472727272727	-0.116129032258	-17.7189320388
978	0.489	15.2052631579	-3.36363636364	-1.56451612903	-13.4970873786
979	0.4895	18.0842105263	-0.472727272727	2.78064516129	-13.4970873786
980	0.49	-0.628947368421	-1.91818181818	4.22903225806	-9.27524271845
981	0.4905	0.810526315789	-0.472727272727	4.22903225806	-16.3116504854
982	0.491	0.810526315789	-0.472727272727	-11.7032258065	-13.4970873786
983	0.4915	-0.628947368421	0.972727272727	-1.56451612903	-2.23883495146
984	0.492	0.810526315789	3.86363636364	-1.56451612903	-14.904368932
985	0.4925	-2.06842105263	6.75454545455	1.33225806452	-16.3116504854
986	0.493	-2.06842105263	6.75454545455	2.78064516129	-16.3116504854
987	0.4935	-3.50789473684	-4.80909090909	2.78064516129	-17.7189320388
988	0.494	-2.06842105263	6.75454545455	2.78064516129	-19.1262135922
989	0.4945	2.25	-0.472727272727	2.78064516129	-17.7189320388
990	0.495	-2.06842105263	0.972727272727	4.22903225806	-16.3116504854
991	0.4955	-0.628947368421	-7.7	2.78064516129	-17.7189320388
992	0.496	6.56842105263	0.972727272727	2.78064516129	-21.940776699
993	0.4965	15.2052631579	0.972727272727	1.33225806452	-13.4970873786
994	0.497	0.810526315789	0.972727272727	-0.116129032258	-0.831553398058
995	0.4975	0.810526315789	-0.472727272727	-1.56451612903	-0.831553398058
996	0.498	-3.50789473684	-1.91818181818	-1.56451612903	-13.4970873786
997	0.4985	-3.50789473684	0.972727272727	2.78064516129	-9.27524271845
998	0.499	-0.628947368421	0.972727272727	20.1612903226	-7.86796116505
999	0.4995	0.810526315789	-0.472727272727	-5.90967741935	-6.46067961165
1000	0.5	-2.06842105263	0.972727272727	-3.01290322581	-5.05339805825
1001	0.5005	-2.06842105263	2.41818181818	1.33225806452	-7.86796116505
1002	0.501	0.810526315789	2.41818181818	1.33225806452	-5.05339805825
1003	0.5015	3.68947368421	9.64545454545	1.33225806452	-5.05339805825
1004	0.502	0.810526315789	2.41818181818	1.33225806452	-2.23883495146
1005	0.5025	-9.26578947368	6.75454545455	-0.116129032258	-5.05339805825
1006	0.503	-6.38684210526	0.972727272727	1.33225806452	-6.46067961165
1007	0.5035	-4.94736842105	0.972727272727	1.33225806452	-10.6825242718
1008	0.504	-2.06842105263	0.972727272727	-1.56451612903	-3.64611650485
1009	0.5045	-2.06842105263	-0.472727272727	-1.56451612903	-0.831553398058
1010	0.505	5.12894736842	0.972727272727	-3.01290322581	-17.7189320388
1011	0.5055	3.68947368421	-0.472727272727	-11.7032258065	4.79757281553
1012	0.506	5.12894736842	-1.91818181818	-8.8064516129	-10.6825242718
1013	0.5065	2.25	0.972727272727	-1.56451612903	0.57572815534
1014	0.507	2.25	0.972727272727	8.57419354839	-10.6825242718
1015	0.5075	2.25	0.972727272727	-0.116129032258	-9.27524271845
1016	0.508	0.810526315789	-0.472727272727	-1.56451612903	-9.27524271845
1017	0.5085	3.68947368421	-10.5909090909	1.33225806452	-13.4970873786
1018	0.509	2.25	-7.7	-0.116129032258	-7.86796116505
1019	0.5095	3.68947368421	-7.7	-1.56451612903	-7.86796116505
1020	0.51	19.5236842105	-1.91818181818	-0.116129032258	-10.6825242718
1021	0.5105	22.4026315789	-1.91818181818	2.78064516129	-9.27524271845
1022	0.511	19.5236842105	-0.472727272727	2.78064516129	-9.27524271845
1023	0.5115	-4.94736842105	-1.91818181818	2.78064516129	-16.3116504854
1024	0.512	0.810526315789	-1.91818181818	-0.116129032258	-2.23883495146
1025	0.5125	0.810526315789	-1.91818181818	-8.8064516129	-12.0898058252
1026	0.513	0.810526315789	-1.91818181818	-4.46129032258	-9.27524271845
1027	0.5135	-0.628947368421	-1.91818181818	-3.01290322581	3.39029126214
1028	0.514	2.25	-0.472727272727	2.78064516129	-10.6825242718
1029	0.5145	-0.628947368421	2.41818181818	-0.116129032258	-10.6825242718
1030	0.515	0.810526315789	5.30909090909	2.78064516129	-9.27524271845
1031	0.5155	-0.628947368421	5.30909090909	1.33225806452	-7.86796116505
1032	0.516	0.810526315789	18.3181818182	1.33225806452	-10.6825242718
1033	0.5165	2.25	15.4272727273	-0.116129032258	-6.46067961165
1034	0.517	-3.50789473684	-1.91818181818	1.33225806452	-6.46067961165
1035	0.5175	-7.82631578947	-4.80909090909	1.33225806452	-9.27524271845
1036	0.518	20.9631578947	-0.472727272727	2.78064516129	-10.6825242718
1037	0.5185	0.810526315789	0.972727272727	2.78064516129	-20.5334951456
1038	0.519	0.810526315789	-1.91818181818	1.33225806452	-6.46067961165
1039	0.5195	2.25	-1.91818181818	4.22903225806	0.57572815534
1040	0.52	2.25	0.972727272727	1.33225806452	-5.05339805825
1041	0.5205	0.810526315789	0.972727272727	11.4709677419	-6.46067961165
1042	0.521	0.810526315789	2.41818181818	20.1612903226	-7.86796116505
1043	0.5215	0.810526315789	-0.472727272727	-7.35806451613	-7.86796116505
1044	0.522	0.810526315789	-1.91818181818	-4.46129032258	-7.86796116505
1045	0.5225	2.25	-1.91818181818	-5.90967741935	-9.27524271845
1046	0.523	3.68947368421	6.75454545455	2.78064516129	-7.86796116505
1047	0.5235	8.00789473684	11.0909090909	2.78064516129	-10.6825242718
1048	0.524	5.12894736842	-3.36363636364	1.33225806452	-9.27524271845
1049	0.5245	-7.82631578947	-0.472727272727	-0.116129032258	-10.6825242718
1050	0.525	-0.628947368421	-0.472727272727	1.33225806452	-7.86796116505
1051	0.5255	2.25	-0.472727272727	-0.116129032258	-7.86796116505
1052	0.526	-0.628947368421	0.972727272727	-0.116129032258	1.98300970874
1053	0.5265	0.810526315789	-0.472727272727	-0.116129032258	-5.05339805825
1054	0.527	3.68947368421	-1.91818181818	2.78064516129	4.79757281553
1055	0.5275	0.810526315789	-1.91818181818	-1.56451612903	-14.904368932
1056	0.528	2.25	-4.80909090909	-0.116129032258	-7.86796116505
1057	0.5285	0.810526315789	-4.80909090909	-4.46129032258	-9.27524271845
1058	0.529	0.810526315789	-4.80909090909	-0.116129032258	-10.6825242718
1059	0.5295	0.810526315789	0.972727272727	-0.116129032258	-10.6825242718
1060	0.53	2.25	-0.472727272727	-1.56451612903	-10.6825242718
1061	0.5305	3.68947368421	-6.25454545455	1.33225806452	-12.0898058252
1062	0.531	-0.628947368421	-1.91818181818	1.33225806452	-13.4970873786
1063	0.5315	-2.06842105263	-9.14545454545	-1.56451612903	-12.0898058252
1064	0.532	-7.82631578947	0.972727272727	-1.56451612903	-10.6825242718
1065	0.5325	12.3263157895	-0.472727272727	-0.116129032258	-7.86796116505
1066	0.533	0.810526315789	-0.472727272727	4.22903225806	-16.3116504854
1067	0.5335	0.810526315789	-0.472727272727	1.33225806452	-19.1262135922
1068	0.534	2.25	2.41818181818	-1.56451612903	6.20485436893
1069	0.5345	-0.628947368421	0.972727272727	-0.116129032258	-9.27524271845
1070	0.535	0.810526315789	-1.91818181818	-1.56451612903	-0.831553398058
1071	0.5355	2.25	2.41818181818	7.12580645161	-7.86796116505
1072	0.536	2.25	-1.91818181818	-4.46129032258	-7.86796116505
1073	0.5365	2.25	0.972727272727	-7.35806451613	-6.46067961165
1074	0.537	0.810526315789	-10.5909090909	1.33225806452	-5.05339805825
1075	0.5375	-3.50789473684	-4.80909090909	1.33225806452	-5.05339805825
1076	0.538	0.810526315789	-1.91818181818	1.33225806452	-2.23883495146
1077	0.5385	-0.628947368421	-6.25454545455	-0.116129032258	-2.23883495146
1078	0.539	0.810526315789	0.972727272727	-0.116129032258	0.57572815534
1079	0.5395	-10.7052631579	0.972727272727	1.33225806452	-3.64611650485
1080	0.54	-4.94736842105	-0.472727272727	1.33225806452	-2.23883495146
1081	0.5405	-7.82631578947	-0.472727272727	-0.116129032258	-3.64611650485
1082	0.541	-6.38684210526	-3.36363636364	4.22903225806	-14.904368932
1083	0.5415	-0.628947368421	-3.36363636364	4.22903225806	-14.904368932
1084	0.542	0.810526315789	-1.91818181818	-3.01290322581	-9.27524271845
1085	0.5425	-0.628947368421	-3.36363636364	-0.116129032258	-12.0898058252
1086	0.543	0.810526315789	-4.80909090909	4.22903225806	-7.86796116505
1087	0.5435	3.68947368421	-4.80909090909	-0.116129032258	-6.46067961165
1088	0.544	0.810526315789	-1.91818181818	-3.01290322581	-2.23883495146
1089	0.5445	2.25	-7.7	2.78064516129	-5.05339805825
1090	0.545	3.68947368421	3.86363636364	1.33225806452	-0.831553398058
1091	0.5455	3.68947368421	-12.0363636364	4.22903225806	-5.05339805825
1092	0.546	-0.628947368421	-9.14545454545	2.78064516129	-6.46067961165
1093	0.5465	-9.26578947368	-0.472727272727	-1.56451612903	-6.46067961165
1094	0.547	-0.628947368421	-0.472727272727	-0.116129032258	-7.86796116505
1095	0.5475	13.7657894737	-1.91818181818	-0.116129032258	-5.05339805825
1096	0.548	2.25	-0.472727272727	1.33225806452	-7.86796116505
1097	0.5485	3.68947368421	-1.91818181818	1.33225806452	-13.4970873786
1098	0.549	2.25	-0.472727272727	2.78064516129	-13.4970873786
1099	0.5495	0.810526315789	-0.472727272727	-0.116129032258	-6.46067961165
1100	0.55	0.810526315789	0.972727272727	8.57419354839	-5.05339805825
1101	0.5505	-0.628947368421	0.972727272727	14.3677419355	-7.86796116505
1102	0.551	-0.628947368421	3.86363636364	-0.116129032258	-6.46067961165
1103	0.5515	-2.06842105263	-14.9272727273	-1.56451612903	-5.05339805825
1104	0.552	0.810526315789	-10.5909090909	1.33225806452	-2.23883495146
1105	0.5525	2.25	-10.5909090909	-1.56451612903	-5.05339805825
1106	0.553	-0.628947368421	-7.7	-0.116129032258	-2.23883495146
1107	0.5535	0.810526315789	-1.91818181818	2.78064516129	-2.23883495146
1108	0.554	-7.82631578947	0.972727272727	-0.116129032258	0.57572815534
1109	0.5545	16.6447368421	-4.80909090909	1.33225806452	-2.23883495146
1110	0.555	-4.94736842105	-4.80909090909	1.33225806452	-0.831553398058
1111	0.5555	-7.82631578947	-1.91818181818	-1.56451612903	0.57572815534
1112	0.556	0.810526315789	-0.472727272727	-0.116129032258	0.57572815534
1113	0.5565	-0.628947368421	-1.91818181818	-1.56451612903	13.2412621359
1114	0.557	0.810526315789	-0.472727272727	-0.116129032258	-2.23883495146
1115	0.5575	2.25	0.972727272727	4.22903225806	-0.831553398058
1116	0.558	3.68947368421	-4.80909090909	-0.116129032258	-2.23883495146
1117	0.5585	0.810526315789	-4.80909090909	-0.116129032258	-2.23883495146
1118	0.559	3.68947368421	0.972727272727	20.1612903226	-3.64611650485
1119	0.5595	2.25	2.41818181818	-0.116129032258	-5.05339805825
1120	0.56	3.68947368421	-1.91818181818	2.78064516129	-3.64611650485
1121	0.5605	0.810526315789	9.64545454545	1.33225806452	-5.05339805825
1122	0.561	-0.628947368421	8.2	4.22903225806	-2.23883495146
1123	0.5615	-7.82631578947	-0.472727272727	-0.116129032258	-2.23883495146
1124	0.562	18.0842105263	0.972727272727	2.78064516129	-2.23883495146
1125	0.5625	19.5236842105	-1.91818181818	-0.116129032258	-5.05339805825
1126	0.563	-0.628947368421	-1.91818181818	2.78064516129	-7.86796116505
1127	0.5635	0.810526315789	-0.472727272727	-0.116129032258	-5.05339805825
1128	0.564	0.810526315789	-1.91818181818	4.22903225806	0.57572815534
1129	0.5645	0.810526315789	0.972727272727	2.78064516129	0.57572815534
1130	0.565	0.810526315789	2.41818181818	20.1612903226	-5.05339805825
1131	0.5655	0.810526315789	-0.472727272727	21.6096774194	0.57572815534
1132	0.566	0.810526315789	0.972727272727	-7.35806451613	1.98300970874
1133	0.5665	-0.628947368421	-3.36363636364	-5.90967741935	0.57572815534
1134	0.567	0.810526315789	0.972727272727	2.78064516129	-0.831553398058
1135	0.5675	-0.628947368421	9.64545454545	-1.56451612903	0.57572815534
1136	0.568	0.810526315789	13.9818181818	-0.116129032258	0.57572815534
1137	0.5685	3.68947368421	-3.36363636364	-1.56451612903	1.98300970874
1138	0.569	-9.26578947368	-0.472727272727	-0.116129032258	0.57572815534
1139	0.5695	-0.628947368421	0.972727272727	-0.116129032258	-0.831553398058
1140	0.57	3.68947368421	-0.472727272727	2.78064516129	0.57572815534
1141	0.5705	-3.50789473684	-0.472727272727	-0.116129032258	1.98300970874
1142	0.571	-2.06842105263	0.972727272727	-1.56451612903	14.6485436893
1143	0.5715	-0.628947368421	0.972727272727	1.33225806452	-6.46067961165
1144	0.572	0.810526315789	2.41818181818	8.57419354839	4.79757281553
1145	0.5725	-0.628947368421	2.41818181818	12.9193548387	-0.831553398058
1146	0.573	-0.628947368421	-0.472727272727	18.7129032258	-0.831553398058
1147	0.5735	3.68947368421	2.41818181818	-0.116129032258	0.57572815534
1148	0.574	-2.06842105263	-0.472727272727	-4.46129032258	1.98300970874
1149	0.5745	2.25	9.64545454545	-0.116129032258	1.98300970874
1150	0.575	5.12894736842	16.8727272727	2.78064516129	1.98300970874
1151	0.5755	2.25	-10.5909090909	4.22903225806	1.98300970874
1152	0.576	-10.7052631579	0.972727272727	2.78064516129	3.39029126214
1153	0.5765	-10.7052631579	-1.91818181818	1.33225806452	-0.831553398058
1154	0.577	-10.7052631579	-0.472727272727	4.22903225806	-2.23883495146
1155	0.5775	15.2052631579	-0.472727272727	1.33225806452	-3.64611650485
1156	0.578	2.25	2.41818181818	-0.116129032258	0.57572815534
1157	0.5785	0.810526315789	3.86363636364	1.33225806452	-2.23883495146
1158	0.579	3.68947368421	0.972727272727	4.22903225806	4.79757281553
1159	0.5795	3.68947368421	3.86363636364	15.8161290323	0.57572815534
1160	0.58	5.12894736842	5.30909090909	-8.8064516129	1.98300970874
1161	0.5805	2.25	0.972727272727	-8.8064516129	1.98300970874
1162	0.581	3.68947368421	0.972727272727	-0.116129032258	3.39029126214
1163	0.5815	3.68947368421	2.41818181818	-0.116129032258	0.57572815534
1164	0.582	3.68947368421	-3.36363636364	-0.116129032258	0.57572815534
1165	0.5825	2.25	-4.80909090909	2.78064516129	0.57572815534
1166	0.583	6.56842105263	-1.91818181818	2.78064516129	-0.831553398058
1167	0.5835	5.12894736842	-3.36363636364	1.33225806452	-0.831553398058
1168	0.584	20.9631578947	-1.91818181818	1.33225806452	-0.831553398058
1169	0.5845	18.0842105263	-4.80909090909	1.33225806452	0.57572815534
1170	0.585	13.7657894737	-4.80909090909	2.78064516129	1.98300970874
1171	0.5855	0.810526315789	-1.91818181818	2.78064516129	-2.23883495146
1172	0.586	2.25	-0.472727272727	5.67741935484	4.79757281553
1173	0.5865	0.810526315789	-1.91818181818	4.22903225806	-6.46067961165
1174	0.587	2.25	-3.36363636364	7.12580645161	-6.46067961165
1175	0.5875	-2.06842105263	0.972727272727	17.264516129	-2.23883495146
1176	0.588	-0.628947368421	0.972727272727	-0.116129032258	-0.831553398058
1177	0.5885	2.25	-0.472727272727	-1.56451612903	-0.831553398058
1178	0.589	0.810526315789	2.41818181818	-0.116129032258	0.57572815534
1179	0.5895	0.810526315789	16.8727272727	2.78064516129	0.57572815534
1180	0.59	-2.06842105263	18.3181818182	2.78064516129	-0.831553398058
1181	0.5905	-0.628947368421	-6.25454545455	-1.56451612903	-2.23883495146
1182	0.591	0.810526315789	-7.7	2.78064516129	0.57572815534
1183	0.5915	8.00789473684	-3.36363636364	4.22903225806	0.57572815534
1184	0.592	0.810526315789	-1.91818181818	4.22903225806	-6.46067961165
1185	0.5925	-3.50789473684	-4.80909090909	2.78064516129	3.39029126214
1186	0.593	0.810526315789	-1.91818181818	4.22903225806	-6.46067961165
1187	0.5935	0.810526315789	-0.472727272727	4.22903225806	7.61213592233
1188	0.594	8.00789473684	-1.91818181818	1.33225806452	16.0558252427
1189	0.5945	3.68947368421	-0.472727272727	12.9193548387	6.20485436893
1190	0.595	0.810526315789	0.972727272727	15.8161290323	-0.831553398058
1191	0.5955	2.25	0.972727272727	15.8161290323	3.39029126214
1192	0.596	2.25	0.972727272727	-1.56451612903	4.79757281553
1193	0.5965	0.810526315789	-0.472727272727	-3.01290322581	4.79757281553
1194	0.597	0.810526315789	9.64545454545	-3.01290322581	1.98300970874
1195	0.5975	0.810526315789	8.2	-1.56451612903	1.98300970874
1196	0.598	2.25	-0.472727272727	-1.56451612903	3.39029126214
1197	0.5985	5.12894736842	-0.472727272727	-0.116129032258	3.39029126214
1198	0.599	16.6447368421	0.972727272727	-0.116129032258	1.98300970874
1199	0.5995	-4.94736842105	0.972727272727	4.22903225806	0.57572815534
1200	0.6	-4.94736842105	0.972727272727	-1.56451612903	14.6485436893
1201	0.6005	-2.06842105263	-0.472727272727	-0.116129032258	6.20485436893
1202	0.601	0.810526315789	0.972727272727	-8.8064516129	6.20485436893
1203	0.6015	0.810526315789	0.972727272727	-3.01290322581	-5.05339805825
1204	0.602	3.68947368421	0.972727272727	11.4709677419	-0.831553398058
1205	0.6025	3.68947368421	-0.472727272727	2.78064516129	0.57572815534
1206	0.603	0.810526315789	-0.472727272727	-1.56451612903	-0.831553398058
1207	0.6035	3.68947368421	16.8727272727	-0.116129032258	0.57572815534
1208	0.604	2.25	16.8727272727	1.33225806452	-2.23883495146
1209	0.6045	2.25	15.4272727273	-0.116129032258	0.57572815534
1210	0.605	0.810526315789	-6.25454545455	-0.116129032258	1.98300970874
1211	0.6055	-10.7052631579	-3.36363636364	2.78064516129	-0.831553398058
1212	0.606	22.4026315789	-0.472727272727	1.33225806452	-2.23883495146
1213	0.6065	20.9631578947	-1.91818181818	1.33225806452	0.57572815534
1214	0.607	-6.38684210526	-0.472727272727	-0.116129032258	-2.23883495146
1215	0.6075	0.810526315789	-0.472727272727	-3.01290322581	9.01941747573
1216	0.608	-0.628947368421	-1.91818181818	4.22903225806	-5.05339805825
1217	0.6085	2.25	-3.36363636364	2.78064516129	-9.27524271845
1218	0.609	0.810526315789	-1.91818181818	12.9193548387	-2.23883495146
1219	0.6095	0.810526315789	-1.91818181818	-1.56451612903	-0.831553398058
1220	0.61	0.810526315789	-3.36363636364	-3.01290322581	-0.831553398058
1221	0.6105	3.68947368421	-3.36363636364	4.22903225806	-3.64611650485
1222	0.611	2.25	9.64545454545	1.33225806452	-5.05339805825
1223	0.6115	0.810526315789	-13.4818181818	2.78064516129	-5.05339805825
1224	0.612	0.810526315789	-7.7	-0.116129032258	-3.64611650485
1225	0.6125	8.00789473684	-1.91818181818	-0.116129032258	-5.05339805825
1226	0.613	15.2052631579	-0.472727272727	2.78064516129	-5.05339805825
1227	0.6135	-6.38684210526	0.972727272727	2.78064516129	-3.64611650485
1228	0.614	-10.7052631579	0.972727272727	-0.116129032258	-6.46067961165
1229	0.6145	0.810526315789	-0.472727272727	1.33225806452	-10.6825242718
1230	0.615	-0.628947368421	-0.472727272727	-4.46129032258	-10.6825242718
1231	0.6155	0.810526315789	3.86363636364	-7.35806451613	-7.86796116505
1232	0.616	0.810526315789	-0.472727272727	15.8161290323	-2.23883495146
1233	0.6165	0.810526315789	2.41818181818	2.78064516129	-5.05339805825
1234	0.617	0.810526315789	0.972727272727	1.33225806452	-5.05339805825
1235	0.6175	-0.628947368421	-1.91818181818	1.33225806452	-5.05339805825
1236	0.618	-0.628947368421	6.75454545455	1.33225806452	-3.64611650485
1237	0.6185	-2.06842105263	0.972727272727	1.33225806452	-5.05339805825
1238	0.619	-2.06842105263	-4.80909090909	1.33225806452	-3.64611650485
1239	0.6195	-7.82631578947	0.972727272727	-1.56451612903	-3.64611650485
1240	0.62	-0.628947368421	-0.472727272727	-1.56451612903	-3.64611650485
1241	0.6205	10.8868421053	0.972727272727	2.78064516129	-0.831553398058
1242	0.621	-6.38684210526	2.41818181818	1.33225806452	0.57572815534
1243	0.6215	-0.628947368421	0.972727272727	-3.01290322581	-10.6825242718
1244	0.622	-2.06842105263	-0.472727272727	-3.01290322581	-7.86796116505
1245	0.6225	-0.628947368421	-0.472727272727	-3.01290322581	4.79757281553
1246	0.623	-0.628947368421	-4.80909090909	-11.7032258065	-3.64611650485
1247	0.6235	-4.94736842105	-4.80909090909	-5.90967741935	-0.831553398058
1248	0.624	-3.50789473684	-0.472727272727	17.264516129	-0.831553398058
1249	0.6245	-2.06842105263	-4.80909090909	1.33225806452	-5.05339805825
1250	0.625	0.810526315789	-9.14545454545	1.33225806452	-3.64611650485
1251	0.6255	-2.06842105263	-9.14545454545	4.22903225806	-3.64611650485
1252	0.626	-2.06842105263	-9.14545454545	1.33225806452	-5.05339805825
1253	0.6265	-0.628947368421	-0.472727272727	-0.116129032258	-5.05339805825
1254	0.627	-7.82631578947	-1.91818181818	4.22903225806	-10.6825242718
1255	0.6275	-3.50789473684	0.972727272727	7.12580645161	-20.5334951456
1256	0.628	0.810526315789	-0.472727272727	2.78064516129	-19.1262135922
1257	0.6285	2.25	-0.472727272727	-0.116129032258	1.98300970874
1258	0.629	2.25	0.972727272727	-0.116129032258	-6.46067961165
1259	0.6295	2.25	2.41818181818	-8.8064516129	-12.0898058252
1260	0.63	-2.06842105263	-0.472727272727	-5.90967741935	-10.6825242718
1261	0.6305	-0.628947368421	-1.91818181818	-7.35806451613	-10.6825242718
1262	0.631	-0.628947368421	-1.91818181818	-1.56451612903	-12.0898058252
1263	0.6315	2.25	0.972727272727	11.4709677419	-12.0898058252
1264	0.632	2.25	-9.14545454545	-0.116129032258	-10.6825242718
1265	0.6325	-2.06842105263	-9.14545454545	2.78064516129	-12.0898058252
1266	0.633	2.25	-7.7	2.78064516129	-12.0898058252
1267	0.6335	2.25	-0.472727272727	1.33225806452	-9.27524271845
1268	0.634	22.4026315789	-1.91818181818	-0.116129032258	-7.86796116505
1269	0.6345	-6.38684210526	0.972727272727	-0.116129032258	-10.6825242718
1270	0.635	-4.94736842105	0.972727272727	-1.56451612903	0.57572815534
1271	0.6355	-2.06842105263	-0.472727272727	1.33225806452	-3.64611650485
1272	0.636	0.810526315789	-3.36363636364	-1.56451612903	9.01941747573
1273	0.6365	2.25	-1.91818181818	-8.8064516129	-5.05339805825
1274	0.637	-0.628947368421	-0.472727272727	17.264516129	-6.46067961165
1275	0.6375	0.810526315789	0.972727272727	8.57419354839	-7.86796116505
1276	0.638	-0.628947368421	-9.14545454545	-0.116129032258	-5.05339805825
1277	0.6385	-2.06842105263	-9.14545454545	-1.56451612903	-6.46067961165
1278	0.639	-0.628947368421	5.30909090909	-1.56451612903	-3.64611650485
1279	0.6395	0.810526315789	19.7636363636	-0.116129032258	-3.64611650485
1280	0.64	0.810526315789	13.9818181818	-0.116129032258	-3.64611650485
1281	0.6405	-3.50789473684	-3.36363636364	2.78064516129	0.57572815534
1282	0.641	-4.94736842105	0.972727272727	2.78064516129	0.57572815534
1283	0.6415	3.68947368421	-0.472727272727	1.33225806452	0.57572815534
1284	0.642	-2.06842105263	-0.472727272727	2.78064516129	-0.831553398058
1285	0.6425	-4.94736842105	0.972727272727	5.67741935484	-9.27524271845
1286	0.643	-0.628947368421	-0.472727272727	-1.56451612903	20.2776699029
1287	0.6435	-0.628947368421	-0.472727272727	1.33225806452	-0.831553398058
1288	0.644	-0.628947368421	0.972727272727	12.9193548387	-0.831553398058
1289	0.6445	0.810526315789	-0.472727272727	-1.56451612903	-0.831553398058
1290	0.645	-2.06842105263	0.972727272727	-8.8064516129	-2.23883495146
1291	0.6455	2.25	-1.91818181818	-7.35806451613	-2.23883495146
1292	0.646	2.25	0.972727272727	-1.56451612903	-2.23883495146
1293	0.6465	0.810526315789	5.30909090909	-3.01290322581	-0.831553398058
1294	0.647	0.810526315789	-10.5909090909	-0.116129032258	-2.23883495146
1295	0.6475	2.25	-9.14545454545	-0.116129032258	-0.831553398058
1296	0.648	-17.9026315789	-0.472727272727	1.33225806452	-0.831553398058
1297	0.6485	-9.26578947368	-0.472727272727	-0.116129032258	1.98300970874
1298	0.649	-7.82631578947	0.972727272727	4.22903225806	0.57572815534
1299	0.6495	-7.82631578947	-3.36363636364	-1.56451612903	-9.27524271845
1300	0.65	-6.38684210526	-3.36363636364	-0.116129032258	-0.831553398058
1301	0.6505	0.810526315789	-0.472727272727	-13.1516129032	-3.64611650485
1302	0.651	-0.628947368421	-1.91818181818	-8.8064516129	-6.46067961165
1303	0.6515	0.810526315789	-3.36363636364	17.264516129	-5.05339805825
1304	0.652	0.810526315789	0.972727272727	4.22903225806	-12.0898058252
1305	0.6525	-0.628947368421	-0.472727272727	11.4709677419	-3.64611650485
1306	0.653	-4.94736842105	-10.5909090909	-0.116129032258	-5.05339805825
1307	0.6535	-2.06842105263	-12.0363636364	-1.56451612903	-6.46067961165
1308	0.654	0.810526315789	-14.9272727273	-1.56451612903	-2.23883495146
1309	0.6545	2.25	-7.7	-0.116129032258	-2.23883495146
1310	0.655	0.810526315789	8.2	-1.56451612903	-2.23883495146
1311	0.6555	-7.82631578947	-1.91818181818	-3.01290322581	-3.64611650485
1312	0.656	-12.1447368421	-0.472727272727	-1.56451612903	-2.23883495146
1313	0.6565	-9.26578947368	0.972727272727	-1.56451612903	-2.23883495146
1314	0.657	-7.82631578947	-1.91818181818	-0.116129032258	-5.05339805825
1315	0.6575	-2.06842105263	-1.91818181818	-0.116129032258	0.57572815534
1316	0.658	3.68947368421	-1.91818181818	-1.56451612903	0.57572815534
1317	0.6585	-0.628947368421	0.972727272727	-1.56451612903	13.2412621359
1318	0.659	-0.628947368421	-1.91818181818	-8.8064516129	-0.831553398058
1319	0.6595	0.810526315789	-1.91818181818	18.7129032258	0.57572815534
1320	0.66	0.810526315789	-1.91818181818	-1.56451612903	-2.23883495146
1321	0.6605	2.25	0.972727272727	2.78064516129	3.39029126214
1322	0.661	2.25	-10.5909090909	2.78064516129	0.57572815534
1323	0.6615	3.68947368421	-12.0363636364	4.22903225806	0.57572815534
1324	0.662	2.25	-0.472727272727	1.33225806452	0.57572815534
1325	0.6625	2.25	16.8727272727	4.22903225806	-0.831553398058
1326	0.663	-3.50789473684	0.972727272727	1.33225806452	1.98300970874
1327	0.6635	-9.26578947368	0.972727272727	2.78064516129	-2.23883495146
1328	0.664	-10.7052631579	-0.472727272727	-0.116129032258	1.98300970874
1329	0.6645	-7.82631578947	0.972727272727	1.33225806452	0.57572815534
1330	0.665	0.810526315789	-0.472727272727	1.33225806452	-2.23883495146
1331	0.6655	0.810526315789	-0.472727272727	2.78064516129	7.61213592233
1332	0.666	0.810526315789	0.972727272727	1.33225806452	-6.46067961165
1333	0.6665	2.25	0.972727272727	20.1612903226	-0.831553398058
1334	0.667	0.810526315789	3.86363636364	17.264516129	-9.27524271845
1335	0.6675	-0.628947368421	0.972727272727	8.57419354839	0.57572815534
1336	0.668	2.25	-7.7	-0.116129032258	-0.831553398058
1337	0.6685	-0.628947368421	-12.0363636364	1.33225806452	-2.23883495146
1338	0.669	0.810526315789	-10.5909090909	-0.116129032258	-2.23883495146
1339	0.6695	-3.50789473684	-4.80909090909	-3.01290322581	-0.831553398058
1340	0.67	0.810526315789	-1.91818181818	1.33225806452	-0.831553398058
1341	0.6705	-13.5842105263	0.972727272727	-1.56451612903	0.57572815534
1342	0.671	-13.5842105263	0.972727272727	1.33225806452	0.57572815534
1343	0.6715	-10.7052631579	-0.472727272727	2.78064516129	-2.23883495146
1344	0.672	-6.38684210526	-1.91818181818	-1.56451612903	1.98300970874
1345	0.6725	0.810526315789	-4.80909090909	-1.56451612903	0.57572815534
1346	0.673	-0.628947368421	-1.91818181818	-3.01290322581	14.6485436893
1347	0.6735	0.810526315789	-0.472727272727	-10.2548387097	-3.64611650485
1348	0.674	-0.628947368421	-1.91818181818	-5.90967741935	-12.0898058252
1349	0.6745	-0.628947368421	2.41818181818	-3.01290322581	-5.05339805825
1350	0.675	-2.06842105263	3.86363636364	-3.01290322581	-5.05339805825
1351	0.6755	-0.628947368421	3.86363636364	2.78064516129	-9.27524271845
1352	0.676	-0.628947368421	15.4272727273	2.78064516129	-9.27524271845
1353	0.6765	-0.628947368421	-6.25454545455	4.22903225806	-7.86796116505
1354	0.677	2.25	-6.25454545455	5.67741935484	-9.27524271845
1355	0.6775	-12.1447368421	-1.91818181818	4.22903225806	-9.27524271845
1356	0.678	20.9631578947	-1.91818181818	2.78064516129	-7.86796116505
1357	0.6785	15.2052631579	-0.472727272727	2.78064516129	-6.46067961165
1358	0.679	3.68947368421	-1.91818181818	2.78064516129	-14.904368932
1359	0.6795	2.25	0.972727272727	5.67741935484	-17.7189320388
1360	0.68	0.810526315789	-1.91818181818	2.78064516129	-17.7189320388
1361	0.6805	2.25	-0.472727272727	2.78064516129	3.39029126214
1362	0.681	0.810526315789	-0.472727272727	12.9193548387	-12.0898058252
1363	0.6815	2.25	-0.472727272727	-1.56451612903	-10.6825242718
1364	0.682	0.810526315789	-1.91818181818	18.7129032258	-10.6825242718
1365	0.6825	0.810526315789	3.86363636364	1.33225806452	-10.6825242718
1366	0.683	3.68947368421	15.4272727273	-1.56451612903	-6.46067961165
1367	0.6835	0.810526315789	5.30909090909	-0.116129032258	-7.86796116505
1368	0.684	-0.628947368421	16.8727272727	-1.56451612903	-6.46067961165
1369	0.6845	-0.628947368421	13.9818181818	-0.116129032258	-5.05339805825
1370	0.685	12.3263157895	0.972727272727	1.33225806452	-0.831553398058
1371	0.6855	-4.94736842105	-1.91818181818	1.33225806452	-2.23883495146
1372	0.686	-4.94736842105	0.972727272727	2.78064516129	-7.86796116505
1373	0.6865	-2.06842105263	2.41818181818	4.22903225806	10.4266990291
1374	0.687	-2.06842105263	-0.472727272727	-7.35806451613	-0.831553398058
1375	0.6875	-4.94736842105	-1.91818181818	-0.116129032258	13.2412621359
1376	0.688	-0.628947368421	3.86363636364	2.78064516129	0.57572815534
1377	0.6885	0.810526315789	2.41818181818	-1.56451612903	-2.23883495146
1378	0.689	-2.06842105263	2.41818181818	-0.116129032258	0.57572815534
1379	0.6895	-2.06842105263	-4.80909090909	-0.116129032258	-2.23883495146
1380	0.69	-2.06842105263	-0.472727272727	-0.116129032258	-3.64611650485
1381	0.6905	-2.06842105263	-6.25454545455	1.33225806452	-0.831553398058
1382	0.691	-3.50789473684	19.7636363636	1.33225806452	-3.64611650485
1383	0.6915	-2.06842105263	-0.472727272727	1.33225806452	-7.86796116505
1384	0.692	5.12894736842	-1.91818181818	4.22903225806	-3.64611650485
1385	0.6925	-3.50789473684	-0.472727272727	4.22903225806	-13.4970873786
1386	0.693	-2.06842105263	-0.472727272727	4.22903225806	-16.3116504854
1387	0.6935	-0.628947368421	-3.36363636364	1.33225806452	10.4266990291
1388	0.694	3.68947368421	-3.36363636364	-0.116129032258	7.61213592233
1389	0.6945	2.25	0.972727272727	1.33225806452	6.20485436893
1390	0.695	-0.628947368421	0.972727272727	7.12580645161	-3.64611650485
1391	0.6955	0.810526315789	0.972727272727	20.1612903226	-5.05339805825
1392	0.696	0.810526315789	2.41818181818	4.22903225806	-3.64611650485
1393	0.6965	3.68947368421	-1.91818181818	-1.56451612903	-5.05339805825
1394	0.697	2.25	3.86363636364	1.33225806452	-5.05339805825
1395	0.6975	-0.628947368421	16.8727272727	2.78064516129	-6.46067961165
1396	0.698	3.68947368421	-0.472727272727	1.33225806452	-6.46067961165
1397	0.6985	-0.628947368421	-6.25454545455	2.78064516129	-6.46067961165
1398	0.699	8.00789473684	0.972727272727	4.22903225806	-6.46067961165
1399	0.6995	12.3263157895	-0.472727272727	4.22903225806	-6.46067961165
1400	0.7	-0.628947368421	0.972727272727	-0.116129032258	9.01941747573
1401	0.7005	0.810526315789	2.41818181818	-1.56451612903	10.4266990291
1402	0.701	-0.628947368421	0.972727272727	-1.56451612903	-12.0898058252
1403	0.7015	-0.628947368421	0.972727272727	1.33225806452	-5.05339805825
1404	0.702	0.810526315789	2.41818181818	-7.35806451613	-7.86796116505
1405	0.7025	0.810526315789	-1.91818181818	-5.90967741935	-5.05339805825
1406	0.703	0.810526315789	-3.36363636364	-8.8064516129	-6.46067961165
1407	0.7035	2.25	-0.472727272727	-5.90967741935	-7.86796116505
1408	0.704	-0.628947368421	8.2	-0.116129032258	-6.46067961165
1409	0.7045	-0.628947368421	13.9818181818	-0.116129032258	-6.46067961165
1410	0.705	3.68947368421	-10.5909090909	1.33225806452	-7.86796116505
1411	0.7055	0.810526315789	-6.25454545455	1.33225806452	-9.27524271845
1412	0.706	15.2052631579	-1.91818181818	-0.116129032258	-9.27524271845
1413	0.7065	18.0842105263	0.972727272727	-0.116129032258	-10.6825242718
1414	0.707	2.25	-1.91818181818	1.33225806452	-14.904368932
1415	0.7075	2.25	0.972727272727	-0.116129032258	3.39029126214
1416	0.708	-0.628947368421	-1.91818181818	2.78064516129	-12.0898058252
1417	0.7085	-0.628947368421	-0.472727272727	4.22903225806	-13.4970873786
1418	0.709	-0.628947368421	-0.472727272727	-4.46129032258	-5.05339805825
1419	0.7095	-2.06842105263	0.972727272727	-3.01290322581	-3.64611650485
1420	0.71	-0.628947368421	0.972727272727	1.33225806452	-6.46067961165
1421	0.7105	-0.628947368421	3.86363636364	-1.56451612903	-5.05339805825
1422	0.711	2.25	19.7636363636	-0.116129032258	-6.46067961165
1423	0.7115	2.25	16.8727272727	1.33225806452	-3.64611650485
1424	0.712	2.25	11.0909090909	4.22903225806	-5.05339805825
1425	0.7125	3.68947368421	-7.7	2.78064516129	-5.05339805825
1426	0.713	5.12894736842	-1.91818181818	1.33225806452	-6.46067961165
1427	0.7135	8.00789473684	-0.472727272727	-0.116129032258	-7.86796116505
1428	0.714	10.8868421053	-0.472727272727	-3.01290322581	-6.46067961165
1429	0.7145	-7.82631578947	-1.91818181818	-0.116129032258	-6.46067961165
1430	0.715	-0.628947368421	0.972727272727	-1.56451612903	-5.05339805825
1431	0.7155	-0.628947368421	0.972727272727	1.33225806452	0.57572815534
1432	0.716	-3.50789473684	2.41818181818	-5.90967741935	-10.6825242718
1433	0.7165	-0.628947368421	-0.472727272727	4.22903225806	-5.05339805825
1434	0.717	-0.628947368421	-0.472727272727	1.33225806452	-10.6825242718
1435	0.7175	-3.50789473684	0.972727272727	-1.56451612903	-5.05339805825
1436	0.718	0.810526315789	-12.0363636364	1.33225806452	-7.86796116505
1437	0.7185	0.810526315789	-12.0363636364	1.33225806452	-7.86796116505
1438	0.719	0.810526315789	-6.25454545455	4.22903225806	-9.27524271845
1439	0.7195	-0.628947368421	-4.80909090909	2.78064516129	-6.46067961165
1440	0.72	0.810526315789	-3.36363636364	-1.56451612903	-6.46067961165
1441	0.7205	5.12894736842	-1.91818181818	-1.56451612903	-9.27524271845
1442	0.721	-15.0236842105	-1.91818181818	-1.56451612903	-9.27524271845
1443	0.7215	-7.82631578947	-1.91818181818	1.33225806452	-16.3116504854
1444	0.722	-9.26578947368	-1.91818181818	-0.116129032258	-9.27524271845
1445	0.7225	-0.628947368421	-1.91818181818	-0.116129032258	-16.3116504854
1446	0.723	0.810526315789	-1.91818181818	-3.01290322581	-17.7189320388
1447	0.7235	0.810526315789	-1.91818181818	-4.46129032258	-5.05339805825
1448	0.724	-0.628947368421	-1.91818181818	7.12580645161	-9.27524271845
1449	0.7245	-0.628947368421	-0.472727272727	14.3677419355	-12.0898058252
1450	0.725	-0.628947368421	-1.91818181818	1.33225806452	-12.0898058252
1451	0.7255	-0.628947368421	-0.472727272727	1.33225806452	-10.6825242718
1452	0.726	-2.06842105263	0.972727272727	2.78064516129	-14.904368932
1453	0.7265	0.810526315789	9.64545454545	2.78064516129	-12.0898058252
1454	0.727	0.810526315789	5.30909090909	-0.116129032258	-10.6825242718
1455	0.7275	0.810526315789	-6.25454545455	1.33225806452	-10.6825242718
1456	0.728	15.2052631579	-3.36363636364	-0.116129032258	-13.4970873786
1457	0.7285	16.6447368421	-0.472727272727	-1.56451612903	-12.0898058252
1458	0.729	18.0842105263	-3.36363636364	-0.116129032258	-7.86796116505
1459	0.7295	-10.7052631579	0.972727272727	-1.56451612903	-10.6825242718
1460	0.73	-0.628947368421	-1.91818181818	1.33225806452	-10.6825242718
1461	0.7305	-2.06842105263	-0.472727272727	-1.56451612903	-0.831553398058
1462	0.731	-2.06842105263	0.972727272727	-5.90967741935	-13.4970873786
1463	0.7315	-0.628947368421	0.972727272727	-0.116129032258	-7.86796116505
1464	0.732	-2.06842105263	-0.472727272727	-1.56451612903	-7.86796116505
1465	0.7325	-2.06842105263	-3.36363636364	-4.46129032258	-6.46067961165
1466	0.733	0.810526315789	-4.80909090909	1.33225806452	-3.64611650485
1467	0.7335	-2.06842105263	15.4272727273	-0.116129032258	-6.46067961165
1468	0.734	2.25	8.2	1.33225806452	-6.46067961165
1469	0.7345	-0.628947368421	5.30909090909	1.33225806452	-5.05339805825
1470	0.735	-12.1447368421	-3.36363636364	1.33225806452	-3.64611650485
1471	0.7355	-13.5842105263	0.972727272727	2.78064516129	-3.64611650485
1472	0.736	-12.1447368421	0.972727272727	4.22903225806	-5.05339805825
1473	0.7365	18.0842105263	-0.472727272727	1.33225806452	-6.46067961165
1474	0.737	-0.628947368421	-1.91818181818	2.78064516129	-6.46067961165
1475	0.7375	-3.50789473684	0.972727272727	4.22903225806	-0.831553398058
1476	0.738	-0.628947368421	-0.472727272727	2.78064516129	-5.05339805825
1477	0.7385	-2.06842105263	-1.91818181818	-3.01290322581	6.20485436893
1478	0.739	-0.628947368421	0.972727272727	-7.35806451613	-7.86796116505
1479	0.7395	2.25	0.972727272727	-5.90967741935	-6.46067961165
1480	0.74	-0.628947368421	0.972727272727	-4.46129032258	-7.86796116505
1481	0.7405	0.810526315789	0.972727272727	1.33225806452	-9.27524271845
1482	0.741	2.25	-6.25454545455	2.78064516129	-10.6825242718
1483	0.7415	-0.628947368421	-10.5909090909	-0.116129032258	-9.27524271845
1484	0.742	-0.628947368421	-12.0363636364	2.78064516129	-10.6825242718
1485	0.7425	3.68947368421	-6.25454545455	1.33225806452	-7.86796116505
1486	0.743	19.5236842105	-1.91818181818	2.78064516129	-6.46067961165
1487	0.7435	-6.38684210526	-1.91818181818	2.78064516129	-5.05339805825
1488	0.744	-4.94736842105	-0.472727272727	2.78064516129	-9.27524271845
1489	0.7445	0.810526315789	-1.91818181818	-1.56451612903	-12.0898058252
1490	0.745	2.25	-1.91818181818	4.22903225806	-5.05339805825
1491	0.7455	0.810526315789	-1.91818181818	4.22903225806	7.61213592233
1492	0.746	-2.06842105263	0.972727272727	17.264516129	-12.0898058252
1493	0.7465	-0.628947368421	0.972727272727	14.3677419355	-2.23883495146
1494	0.747	-0.628947368421	-0.472727272727	5.67741935484	-3.64611650485
1495	0.7475	-0.628947368421	-12.0363636364	-0.116129032258	-2.23883495146
1496	0.748	-0.628947368421	-13.4818181818	1.33225806452	-5.05339805825
1497	0.7485	-2.06842105263	-9.14545454545	-1.56451612903	-3.64611650485
1498	0.749	-2.06842105263	-9.14545454545	-1.56451612903	-2.23883495146
1499	0.7495	-0.628947368421	16.8727272727	-1.56451612903	-5.05339805825
1500	0.75	-0.628947368421	0.972727272727	-0.116129032258	-2.23883495146
1501	0.7505	5.12894736842	-0.472727272727	-0.116129032258	-2.23883495146
1502	0.751	2.25	0.972727272727	-1.56451612903	-2.23883495146
1503	0.7515	-3.50789473684	0.972727272727	2.78064516129	-14.904368932
1504	0.752	0.810526315789	-3.36363636364	5.67741935484	-12.0898058252
1505	0.7525	0.810526315789	0.972727272727	-1.56451612903	-9.27524271845
1506	0.753	0.810526315789	0.972727272727	-4.46129032258	0.57572815534
1507	0.7535	3.68947368421	-0.472727272727	10.0225806452	-6.46067961165
1508	0.754	2.25	3.86363636364	-1.56451612903	-3.64611650485
1509	0.7545	-0.628947368421	2.41818181818	-0.116129032258	-6.46067961165
1510	0.755	0.810526315789	3.86363636364	-1.56451612903	-6.46067961165
1511	0.7555	2.25	15.4272727273	-1.56451612903	-6.46067961165
1512	0.756	-0.628947368421	11.0909090909	-1.56451612903	-3.64611650485
1513	0.7565	-0.628947368421	-6.25454545455	1.33225806452	-5.05339805825
1514	0.757	0.810526315789	-4.80909090909	1.33225806452	-0.831553398058
1515	0.7575	18.0842105263	0.972727272727	4.22903225806	-3.64611650485
1516	0.758	15.2052631579	0.972727272727	-0.116129032258	-0.831553398058
1517	0.7585	16.6447368421	-0.472727272727	2.78064516129	-0.831553398058
1518	0.759	-12.1447368421	0.972727272727	4.22903225806	-6.46067961165
1519	0.7595	-10.7052631579	-1.91818181818	2.78064516129	1.98300970874
1520	0.76	-3.50789473684	-3.36363636364	-4.46129032258	1.98300970874
1521	0.7605	2.25	-3.36363636364	17.264516129	4.79757281553
1522	0.761	0.810526315789	-1.91818181818	7.12580645161	-0.831553398058
1523	0.7615	-2.06842105263	0.972727272727	20.1612903226	-2.23883495146
1524	0.762	0.810526315789	0.972727272727	20.1612903226	1.98300970874
1525	0.7625	-3.50789473684	0.972727272727	5.67741935484	0.57572815534
1526	0.763	-2.06842105263	-1.91818181818	1.33225806452	-0.831553398058
1527	0.7635	-2.06842105263	2.41818181818	1.33225806452	-2.23883495146
1528	0.764	-0.628947368421	-3.36363636364	-0.116129032258	-5.05339805825
1529	0.7645	5.12894736842	-1.91818181818	2.78064516129	-5.05339805825
1530	0.765	3.68947368421	0.972727272727	2.78064516129	-3.64611650485
1531	0.7655	15.2052631579	2.41818181818	-1.56451612903	-2.23883495146
1532	0.766	18.0842105263	-1.91818181818	-0.116129032258	-5.05339805825
1533	0.7665	-4.94736842105	0.972727272727	-0.116129032258	-9.27524271845
1534	0.767	-2.06842105263	-0.472727272727	-0.116129032258	1.98300970874
1535	0.7675	3.68947368421	-0.472727272727	-10.2548387097	-6.46067961165
1536	0.768	2.25	-0.472727272727	-5.90967741935	13.2412621359
1537	0.7685	2.25	-0.472727272727	-11.7032258065	-2.23883495146
1538	0.769	2.25	-0.472727272727	-5.90967741935	-3.64611650485
1539	0.7695	2.25	-3.36363636364	-0.116129032258	0.57572815534
1540	0.77	3.68947368421	0.972727272727	5.67741935484	-0.831553398058
1541	0.7705	2.25	-7.7	-1.56451612903	-0.831553398058
1542	0.771	0.810526315789	-6.25454545455	-0.116129032258	-0.831553398058
1543	0.7715	0.810526315789	-9.14545454545	-4.46129032258	-0.831553398058
1544	0.772	0.810526315789	8.2	-1.56451612903	-0.831553398058
1545	0.7725	-3.50789473684	-0.472727272727	-0.116129032258	0.57572815534
1546	0.773	2.25	-0.472727272727	-1.56451612903	0.57572815534
1547	0.7735	-2.06842105263	-0.472727272727	1.33225806452	-2.23883495146
1548	0.774	-4.94736842105	-0.472727272727	5.67741935484	-10.6825242718
1549	0.7745	-6.38684210526	-3.36363636364	4.22903225806	-3.64611650485
1550	0.775	3.68947368421	-3.36363636364	4.22903225806	-10.6825242718
1551	0.7755	0.810526315789	-1.91818181818	2.78064516129	-3.64611650485
1552	0.776	-3.50789473684	-0.472727272727	5.67741935484	0.57572815534
1553	0.7765	-2.06842105263	-1.91818181818	4.22903225806	7.61213592233
1554	0.777	2.25	-0.472727272727	15.8161290323	3.39029126214
1555	0.7775	0.810526315789	5.30909090909	4.22903225806	3.39029126214
1556	0.778	-0.628947368421	2.41818181818	2.78064516129	1.98300970874
1557	0.7785	0.810526315789	-12.0363636364	2.78064516129	1.98300970874
1558	0.779	-2.06842105263	-9.14545454545	2.78064516129	3.39029126214
1559	0.7795	2.25	13.9818181818	2.78064516129	1.98300970874
1560	0.78	-6.38684210526	-1.91818181818	-0.116129032258	0.57572815534
1561	0.7805	-9.26578947368	-1.91818181818	-0.116129032258	-0.831553398058
1562	0.781	-4.94736842105	-0.472727272727	-1.56451612903	-10.6825242718
1563	0.7815	-2.06842105263	-0.472727272727	1.33225806452	0.57572815534
1564	0.782	0.810526315789	-0.472727272727	-3.01290322581	16.0558252427
1565	0.7825	3.68947368421	-0.472727272727	-1.56451612903	13.2412621359
1566	0.783	0.810526315789	0.972727272727	-0.116129032258	-12.0898058252
1567	0.7835	3.68947368421	-1.91818181818	-3.01290322581	-10.6825242718
1568	0.784	0.810526315789	0.972727272727	8.57419354839	-0.831553398058
1569	0.7845	-0.628947368421	-0.472727272727	-5.90967741935	-0.831553398058
1570	0.785	0.810526315789	0.972727272727	2.78064516129	-2.23883495146
1571	0.7855	-0.628947368421	2.41818181818	-1.56451612903	-0.831553398058
1572	0.786	-0.628947368421	15.4272727273	1.33225806452	-0.831553398058
1573	0.7865	-4.94736842105	16.8727272727	1.33225806452	-0.831553398058
1574	0.787	0.810526315789	0.972727272727	2.78064516129	-0.831553398058
1575	0.7875	-3.50789473684	0.972727272727	2.78064516129	-0.831553398058
1576	0.788	0.810526315789	0.972727272727	2.78064516129	3.39029126214
1577	0.7885	3.68947368421	-1.91818181818	1.33225806452	-7.86796116505
1578	0.789	-0.628947368421	-1.91818181818	1.33225806452	-0.831553398058
1579	0.7895	0.810526315789	-0.472727272727	4.22903225806	-9.27524271845
1580	0.79	0.810526315789	-1.91818181818	-0.116129032258	16.0558252427
1581	0.7905	-0.628947368421	0.972727272727	-0.116129032258	0.57572815534
1582	0.791	-0.628947368421	0.972727272727	8.57419354839	0.57572815534
1583	0.7915	0.810526315789	-0.472727272727	-0.116129032258	0.57572815534
1584	0.792	-2.06842105263	-12.0363636364	-0.116129032258	0.57572815534
1585	0.7925	0.810526315789	-10.5909090909	2.78064516129	1.98300970874
1586	0.793	-2.06842105263	-9.14545454545	2.78064516129	-0.831553398058
1587	0.7935	2.25	11.0909090909	1.33225806452	-2.23883495146
1588	0.794	0.810526315789	9.64545454545	2.78064516129	-3.64611650485
1589	0.7945	-3.50789473684	0.972727272727	4.22903225806	-5.05339805825
1590	0.795	8.00789473684	-1.91818181818	4.22903225806	-6.46067961165
1591	0.7955	10.8868421053	-1.91818181818	2.78064516129	-6.46067961165
1592	0.796	-3.50789473684	-1.91818181818	1.33225806452	-3.64611650485
1593	0.7965	-7.82631578947	-1.91818181818	4.22903225806	-17.7189320388
1594	0.797	0.810526315789	-3.36363636364	2.78064516129	-16.3116504854
1595	0.7975	-0.628947368421	-0.472727272727	2.78064516129	6.20485436893
1596	0.798	-0.628947368421	-1.91818181818	-0.116129032258	3.39029126214
1597	0.7985	0.810526315789	-3.36363636364	4.22903225806	-6.46067961165
1598	0.799	0.810526315789	0.972727272727	-3.01290322581	-5.05339805825
1599	0.7995	-0.628947368421	-0.472727272727	1.33225806452	-5.05339805825
1600	0.8	2.25	-4.80909090909	-5.90967741935	-7.86796116505
1601	0.8005	2.25	-12.0363636364	-0.116129032258	-5.05339805825
1602	0.801	3.68947368421	-9.14545454545	1.33225806452	-3.64611650485
1603	0.8015	3.68947368421	-7.7	-0.116129032258	-3.64611650485
1604	0.802	5.12894736842	5.30909090909	1.33225806452	-9.27524271845
1605	0.8025	15.2052631579	-1.91818181818	2.78064516129	-6.46067961165
1606	0.803	-0.628947368421	-0.472727272727	-0.116129032258	-2.23883495146
1607	0.8035	-4.94736842105	-3.36363636364	-0.116129032258	-5.05339805825
1608	0.804	8.00789473684	0.972727272727	1.33225806452	-9.27524271845
1609	0.8045	2.25	0.972727272727	1.33225806452	-5.05339805825
1610	0.805	0.810526315789	0.972727272727	-10.2548387097	-6.46067961165
1611	0.8055	2.25	-0.472727272727	-0.116129032258	6.20485436893
1612	0.806	0.810526315789	2.41818181818	4.22903225806	-6.46067961165
1613	0.8065	-0.628947368421	0.972727272727	-1.56451612903	-6.46067961165
1614	0.807	-0.628947368421	0.972727272727	-0.116129032258	-6.46067961165
1615	0.8075	-3.50789473684	0.972727272727	-0.116129032258	-6.46067961165
1616	0.808	0.810526315789	6.75454545455	1.33225806452	-9.27524271845
1617	0.8085	-12.1447368421	0.972727272727	2.78064516129	-5.05339805825
1618	0.809	-12.1447368421	-0.472727272727	4.22903225806	-5.05339805825
1619	0.8095	-12.1447368421	0.972727272727	1.33225806452	-6.46067961165
1620	0.81	-12.1447368421	-1.91818181818	1.33225806452	-7.86796116505
1621	0.8105	-12.1447368421	-3.36363636364	2.78064516129	-7.86796116505
1622	0.811	-4.94736842105	-0.472727272727	-0.116129032258	-5.05339805825
1623	0.8115	-3.50789473684	-0.472727272727	2.78064516129	-13.4970873786
1624	0.812	-2.06842105263	-3.36363636364	4.22903225806	-7.86796116505
1625	0.8125	-4.94736842105	-0.472727272727	15.8161290323	-12.0898058252
1626	0.813	-2.06842105263	-1.91818181818	15.8161290323	-5.05339805825
1627	0.8135	-4.94736842105	-0.472727272727	-0.116129032258	-5.05339805825
1628	0.814	-4.94736842105	3.86363636364	1.33225806452	-6.46067961165
1629	0.8145	-3.50789473684	9.64545454545	2.78064516129	-7.86796116505
1630	0.815	-3.50789473684	15.4272727273	4.22903225806	-6.46067961165
1631	0.8155	3.68947368421	-1.91818181818	-1.56451612903	-6.46067961165
1632	0.816	5.12894736842	-1.91818181818	-0.116129032258	-2.23883495146
1633	0.8165	-7.82631578947	-0.472727272727	1.33225806452	-6.46067961165
1634	0.817	-7.82631578947	-0.472727272727	-0.116129032258	-2.23883495146
1635	0.8175	-6.38684210526	0.972727272727	-0.116129032258	-6.46067961165
1636	0.818	0.810526315789	0.972727272727	-0.116129032258	-5.05339805825
1637	0.8185	2.25	0.972727272727	1.33225806452	4.79757281553
1638	0.819	8.00789473684	-1.91818181818	5.67741935484	-2.23883495146
1639	0.8195	0.810526315789	-0.472727272727	8.57419354839	-3.64611650485
1640	0.82	2.25	-0.472727272727	-3.01290322581	-2.23883495146
1641	0.8205	2.25	-1.91818181818	-7.35806451613	-2.23883495146
1642	0.821	5.12894736842	-1.91818181818	-1.56451612903	-3.64611650485
1643	0.8215	3.68947368421	-12.0363636364	1.33225806452	-3.64611650485
1644	0.822	3.68947368421	13.9818181818	2.78064516129	-5.05339805825
1645	0.8225	2.25	6.75454545455	-0.116129032258	-12.0898058252
1646	0.823	8.00789473684	-3.36363636364	2.78064516129	-10.6825242718
1647	0.8235	-10.7052631579	0.972727272727	2.78064516129	-7.86796116505
1648	0.824	-10.7052631579	0.972727272727	2.78064516129	-10.6825242718
1649	0.8245	-10.7052631579	-1.91818181818	4.22903225806	-12.0898058252
1650	0.825	0.810526315789	0.972727272727	4.22903225806	-17.7189320388
1651	0.8255	0.810526315789	-0.472727272727	4.22903225806	-12.0898058252
1652	0.826	0.810526315789	-1.91818181818	5.67741935484	-9.27524271845
1653	0.8265	-0.628947368421	2.41818181818	-4.46129032258	-14.904368932
1654	0.827	-2.06842105263	0.972727272727	-8.8064516129	-2.23883495146
1655	0.8275	-2.06842105263	0.972727272727	-5.90967741935	-12.0898058252
1656	0.828	0.810526315789	-0.472727272727	-7.35806451613	-14.904368932
1657	0.8285	-3.50789473684	-3.36363636364	18.7129032258	-16.3116504854
1658	0.829	-3.50789473684	-4.80909090909	1.33225806452	-14.904368932
1659	0.8295	-3.50789473684	0.972727272727	1.33225806452	-14.904368932
1660	0.83	-4.94736842105	-1.91818181818	2.78064516129	-14.904368932
1661	0.8305	-4.94736842105	15.4272727273	2.78064516129	-14.904368932
1662	0.831	2.25	2.41818181818	1.33225806452	-13.4970873786
1663	0.8315	0.810526315789	2.41818181818	2.78064516129	-13.4970873786
1664	0.832	10.8868421053	0.972727272727	-0.116129032258	-14.904368932
1665	0.8325	-7.82631578947	0.972727272727	1.33225806452	-14.904368932
1666	0.833	-4.94736842105	0.972727272727	5.67741935484	-24.7553398058
1667	0.8335	-3.50789473684	-0.472727272727	5.67741935484	-16.3116504854
1668	0.834	-2.06842105263	0.972727272727	-7.35806451613	-9.27524271845
1669	0.8345	-2.06842105263	0.972727272727	-8.8064516129	-7.86796116505
1670	0.835	-2.06842105263	3.86363636364	17.264516129	-7.86796116505
1671	0.8355	-0.628947368421	-0.472727272727	1.33225806452	-12.0898058252
1672	0.836	-4.94736842105	-0.472727272727	2.78064516129	-5.05339805825
1673	0.8365	-3.50789473684	-12.0363636364	2.78064516129	-6.46067961165
1674	0.837	0.810526315789	-10.5909090909	2.78064516129	-7.86796116505
1675	0.8375	-3.50789473684	-0.472727272727	1.33225806452	-5.05339805825
1676	0.838	-3.50789473684	16.8727272727	-3.01290322581	-6.46067961165
1677	0.8385	-9.26578947368	0.972727272727	-0.116129032258	-6.46067961165
1678	0.839	-12.1447368421	0.972727272727	-1.56451612903	-5.05339805825
1679	0.8395	-15.0236842105	-4.80909090909	-1.56451612903	-3.64611650485
1680	0.84	-7.82631578947	-1.91818181818	-1.56451612903	-6.46067961165
1681	0.8405	-3.50789473684	-1.91818181818	2.78064516129	-12.0898058252
1682	0.841	-3.50789473684	-1.91818181818	-1.56451612903	1.98300970874
1683	0.8415	-2.06842105263	-0.472727272727	-0.116129032258	-0.831553398058
1684	0.842	-2.06842105263	-0.472727272727	1.33225806452	6.20485436893
1685	0.8425	-0.628947368421	0.972727272727	-8.8064516129	-7.86796116505
1686	0.843	-0.628947368421	-1.91818181818	-3.01290322581	-7.86796116505
1687	0.8435	-0.628947368421	-4.80909090909	-5.90967741935	-7.86796116505
1688	0.844	-2.06842105263	-1.91818181818	-7.35806451613	-5.05339805825
1689	0.8445	-0.628947368421	-4.80909090909	4.22903225806	-7.86796116505
1690	0.845	0.810526315789	8.2	2.78064516129	-7.86796116505
1691	0.8455	-2.06842105263	9.64545454545	-0.116129032258	-6.46067961165
1692	0.846	-9.26578947368	-0.472727272727	-0.116129032258	-5.05339805825
1693	0.8465	-10.7052631579	0.972727272727	1.33225806452	-6.46067961165
1694	0.847	18.0842105263	-0.472727272727	1.33225806452	-6.46067961165
1695	0.8475	19.5236842105	-0.472727272727	1.33225806452	-7.86796116505
1696	0.848	-0.628947368421	-0.472727272727	-1.56451612903	4.79757281553
1697	0.8485	0.810526315789	0.972727272727	-0.116129032258	-16.3116504854
1698	0.849	-0.628947368421	0.972727272727	-3.01290322581	-16.3116504854
1699	0.8495	-0.628947368421	-0.472727272727	-4.46129032258	-14.904368932
1700	0.85	-0.628947368421	-1.91818181818	2.78064516129	-3.64611650485
1701	0.8505	0.810526315789	-6.25454545455	-3.01290322581	-10.6825242718
1702	0.851	2.25	5.30909090909	-1.56451612903	-10.6825242718
1703	0.8515	-0.628947368421	6.75454545455	1.33225806452	-9.27524271845
1704	0.852	0.810526315789	-1.91818181818	-4.46129032258	-7.86796116505
1705	0.8525	2.25	-9.14545454545	1.33225806452	-9.27524271845
1706	0.853	-2.06842105263	-10.5909090909	2.78064516129	-5.05339805825
1707	0.8535	-0.628947368421	-9.14545454545	1.33225806452	-6.46067961165
1708	0.854	5.12894736842	-1.91818181818	1.33225806452	-6.46067961165
1709	0.8545	12.3263157895	-0.472727272727	1.33225806452	-6.46067961165
1710	0.855	16.6447368421	-1.91818181818	-0.116129032258	-6.46067961165
1711	0.8555	-0.628947368421	0.972727272727	4.22903225806	-2.23883495146
1712	0.856	-2.06842105263	-1.91818181818	-1.56451612903	6.20485436893
1713	0.8565	0.810526315789	-0.472727272727	1.33225806452	-2.23883495146
1714	0.857	0.810526315789	-1.91818181818	-0.116129032258	13.2412621359
1715	0.8575	-0.628947368421	0.972727272727	1.33225806452	-7.86796116505
1716	0.858	0.810526315789	0.972727272727	7.12580645161	-6.46067961165
1717	0.8585	0.810526315789	-1.91818181818	2.78064516129	-5.05339805825
1718	0.859	0.810526315789	-0.472727272727	2.78064516129	-3.64611650485
1719	0.8595	0.810526315789	16.8727272727	4.22903225806	-9.27524271845
1720	0.86	2.25	18.3181818182	4.22903225806	-6.46067961165
1721	0.8605	0.810526315789	-3.36363636364	2.78064516129	-7.86796116505
1722	0.861	0.810526315789	-4.80909090909	2.78064516129	-7.86796116505
1723	0.8615	0.810526315789	-1.91818181818	4.22903225806	-6.46067961165
1724	0.862	-15.0236842105	-0.472727272727	2.78064516129	-6.46067961165
1725	0.8625	13.7657894737	-0.472727272727	2.78064516129	-5.05339805825
1726	0.863	-10.7052631579	-0.472727272727	2.78064516129	-10.6825242718
1727	0.8635	-10.7052631579	-1.91818181818	-1.56451612903	3.39029126214
1728	0.864	-2.06842105263	0.972727272727	-3.01290322581	10.4266990291
1729	0.8645	-2.06842105263	-0.472727272727	-7.35806451613	0.57572815534
1730	0.865	-0.628947368421	-0.472727272727	-8.8064516129	17.4631067961
1731	0.8655	-0.628947368421	-0.472727272727	-3.01290322581	4.79757281553
1732	0.866	-0.628947368421	-0.472727272727	-4.46129032258	1.98300970874
1733	0.8665	-0.628947368421	5.30909090909	-0.116129032258	3.39029126214
1734	0.867	0.810526315789	-1.91818181818	-8.8064516129	0.57572815534
1735	0.8675	-0.628947368421	-7.7	-0.116129032258	0.57572815534
1736	0.868	2.25	-3.36363636364	-0.116129032258	1.98300970874
1737	0.8685	3.68947368421	-6.25454545455	-0.116129032258	0.57572815534
1738	0.869	0.810526315789	-1.91818181818	2.78064516129	0.57572815534
1739	0.8695	20.9631578947	-3.36363636364	1.33225806452	3.39029126214
1740	0.87	-10.7052631579	-0.472727272727	-0.116129032258	1.98300970874
1741	0.8705	-7.82631578947	-3.36363636364	-0.116129032258	1.98300970874
1742	0.871	-6.38684210526	-3.36363636364	-3.01290322581	-2.23883495146
1743	0.8715	-0.628947368421	-3.36363636364	-11.7032258065	-5.05339805825
1744	0.872	-3.50789473684	-0.472727272727	-11.7032258065	-2.23883495146
1745	0.8725	-2.06842105263	-1.91818181818	15.8161290323	-3.64611650485
1746	0.873	0.810526315789	-1.91818181818	17.264516129	-6.46067961165
