	Time	Channel 1	Channel 2	Channel 3	Channel 4
0	0.0	-11.665	-4.86774193548	-17.9486725664	15.1509868421
1	0.0005	-15.9325	-6.31612903226	-19.3646017699	19.3756578947
2	0.001	-14.51	-0.522580645161	-19.3646017699	19.3756578947
3	0.0015	-14.51	2.37419354839	-17.9486725664	16.5592105263
4	0.002	-11.665	-3.41935483871	-20.7805309735	5.29342105263
5	0.0025	-10.2425	-7.76451612903	-27.8601769912	12.3345394737
6	0.003	-1.7075	0.925806451613	-15.1168141593	15.1509868421
7	0.0035	-8.82	-0.522580645161	-16.5327433628	15.1509868421
8	0.004	-7.3975	0.925806451613	-15.1168141593	26.4167763158
9	0.0045	-0.285	-1.97096774194	-17.9486725664	9.51809210526
10	0.005	-5.975	-0.522580645161	-16.5327433628	15.1509868421
11	0.0055	-0.285	0.925806451613	-22.196460177	8.10986842105
12	0.006	2.56	-4.86774193548	-16.5327433628	6.70164473684
13	0.0065	3.9825	-0.522580645161	-16.5327433628	9.51809210526
14	0.007	-7.3975	2.37419354839	-15.1168141593	-3.15592105263
15	0.0075	1.1375	-0.522580645161	-15.1168141593	15.1509868421
16	0.008	-0.285	2.37419354839	-17.9486725664	23.6003289474
17	0.0085	1.1375	-1.97096774194	-20.7805309735	2.47697368421
18	0.009	-0.285	-0.522580645161	-12.2849557522	12.3345394737
19	0.0095	-3.13	0.925806451613	-20.7805309735	6.70164473684
20	0.01	-5.975	-9.21290322581	-19.3646017699	12.3345394737
21	0.0105	-4.5525	-10.6612903226	-19.3646017699	8.10986842105
22	0.011	-3.13	18.3064516129	-16.5327433628	9.51809210526
23	0.0115	-4.5525	-1.97096774194	-17.9486725664	9.51809210526
24	0.012	-1.7075	2.37419354839	-15.1168141593	13.7427631579
25	0.0125	-7.3975	-0.522580645161	-16.5327433628	3.88519736842
26	0.013	-13.0875	-1.97096774194	-15.1168141593	-0.339473684211
27	0.0135	-4.5525	-0.522580645161	-17.9486725664	23.6003289474
28	0.014	-7.3975	0.925806451613	-10.8690265487	8.10986842105
29	0.0145	-5.975	0.925806451613	-15.1168141593	8.10986842105
30	0.015	-5.975	0.925806451613	-6.62123893805	8.10986842105
31	0.0155	-5.975	2.37419354839	-16.5327433628	8.10986842105
32	0.016	-8.82	-10.6612903226	-17.9486725664	8.10986842105
33	0.0165	-11.665	-7.76451612903	-15.1168141593	8.10986842105
34	0.017	-23.045	0.925806451613	-13.7008849558	13.7427631579
35	0.0175	-27.3125	0.925806451613	-13.7008849558	9.51809210526
36	0.018	9.6725	0.925806451613	-12.2849557522	9.51809210526
37	0.0185	-10.2425	0.925806451613	-13.7008849558	19.3756578947
38	0.019	-7.3975	0.925806451613	-15.1168141593	15.1509868421
39	0.0195	-8.82	0.925806451613	-23.6123893805	5.29342105263
40	0.02	-4.5525	0.925806451613	-13.7008849558	-1.74769736842
41	0.0205	-8.82	-0.522580645161	-17.9486725664	5.29342105263
42	0.021	-4.5525	-3.41935483871	-16.5327433628	1.06875
43	0.0215	-0.285	16.8580645161	-17.9486725664	3.88519736842
44	0.022	1.1375	-6.31612903226	-16.5327433628	2.47697368421
45	0.0225	-4.5525	0.925806451613	-15.1168141593	2.47697368421
46	0.023	1.1375	0.925806451613	-17.9486725664	5.29342105263
47	0.0235	2.56	-0.522580645161	-16.5327433628	5.29342105263
48	0.024	-1.7075	-0.522580645161	-15.1168141593	19.3756578947
49	0.0245	1.1375	0.925806451613	-26.4442477876	3.88519736842
50	0.025	1.1375	0.925806451613	-17.9486725664	-0.339473684211
51	0.0255	-1.7075	0.925806451613	-9.45309734513	8.10986842105
52	0.026	-1.7075	-0.522580645161	-25.0283185841	6.70164473684
53	0.0265	-0.285	0.925806451613	-19.3646017699	5.29342105263
54	0.027	1.1375	-12.1096774194	-17.9486725664	8.10986842105
55	0.0275	-5.975	-12.1096774194	-17.9486725664	12.3345394737
56	0.028	-3.13	0.925806451613	-16.5327433628	8.10986842105
57	0.0285	8.25	0.925806451613	-16.5327433628	2.47697368421
58	0.029	-7.3975	0.925806451613	-16.5327433628	9.51809210526
59	0.0295	-7.3975	-0.522580645161	-17.9486725664	22.1921052632
60	0.03	-7.3975	-3.41935483871	-16.5327433628	-3.15592105263
61	0.0305	-8.82	0.925806451613	-8.03716814159	5.29342105263
62	0.031	-7.3975	-0.522580645161	-20.7805309735	5.29342105263
63	0.0315	-5.975	-1.97096774194	-20.7805309735	8.10986842105
64	0.032	-11.665	-9.21290322581	-12.2849557522	6.70164473684
65	0.0325	-11.665	-4.86774193548	-15.1168141593	3.88519736842
66	0.033	-8.82	-1.97096774194	-12.2849557522	8.10986842105
67	0.0335	-15.9325	-0.522580645161	-12.2849557522	3.88519736842
68	0.034	-10.2425	0.925806451613	-13.7008849558	12.3345394737
69	0.0345	-17.355	-1.97096774194	-10.8690265487	-0.339473684211
70	0.035	-14.51	0.925806451613	-13.7008849558	13.7427631579
71	0.0355	-13.0875	-0.522580645161	-16.5327433628	23.6003289474
72	0.036	-10.2425	-1.97096774194	-17.9486725664	20.7838815789
73	0.0365	-7.3975	2.37419354839	-13.7008849558	6.70164473684
74	0.037	-8.82	2.37419354839	-20.7805309735	9.51809210526
75	0.0375	-5.975	-10.6612903226	-19.3646017699	9.51809210526
76	0.038	-3.13	-9.21290322581	-19.3646017699	10.9263157895
77	0.0385	-5.975	-3.41935483871	-19.3646017699	2.47697368421
78	0.039	-11.665	-0.522580645161	-20.7805309735	8.10986842105
79	0.0395	13.94	-1.97096774194	-19.3646017699	12.3345394737
80	0.04	-10.2425	0.925806451613	-20.7805309735	3.88519736842
81	0.0405	-0.285	-3.41935483871	-25.0283185841	-0.339473684211
82	0.041	-1.7075	-0.522580645161	-25.0283185841	9.51809210526
83	0.0415	-1.7075	-0.522580645161	-9.45309734513	5.29342105263
84	0.042	-4.5525	2.37419354839	-29.2761061947	3.88519736842
85	0.0425	-4.5525	-6.31612903226	-20.7805309735	5.29342105263
86	0.043	-7.3975	2.37419354839	-20.7805309735	6.70164473684
87	0.0435	-7.3975	-6.31612903226	-19.3646017699	5.29342105263
88	0.044	-4.5525	-3.41935483871	-19.3646017699	6.70164473684
89	0.0445	12.5175	-0.522580645161	-17.9486725664	5.29342105263
90	0.045	-17.355	-1.97096774194	-19.3646017699	1.06875
91	0.0455	-14.51	-0.522580645161	-17.9486725664	-0.339473684211
92	0.046	-8.82	-1.97096774194	-12.2849557522	9.51809210526
93	0.0465	-8.82	2.37419354839	-19.3646017699	5.29342105263
94	0.047	-11.665	-1.97096774194	-20.7805309735	6.70164473684
95	0.0475	-8.82	0.925806451613	-10.8690265487	6.70164473684
96	0.048	-10.2425	0.925806451613	-19.3646017699	5.29342105263
97	0.0485	-8.82	-3.41935483871	-10.8690265487	13.7427631579
98	0.049	-7.3975	-4.86774193548	-8.03716814159	15.1509868421
99	0.0495	-20.2	-1.97096774194	-8.03716814159	15.1509868421
100	0.05	-18.7775	-0.522580645161	-12.2849557522	12.3345394737
101	0.0505	-14.51	0.925806451613	-13.7008849558	16.5592105263
102	0.051	-11.665	-0.522580645161	-15.1168141593	27.825
103	0.0515	-10.2425	0.925806451613	-6.62123893805	13.7427631579
104	0.052	-10.2425	-0.522580645161	-12.2849557522	17.9674342105
105	0.0525	-5.975	0.925806451613	-19.3646017699	16.5592105263
106	0.053	-4.5525	2.37419354839	-26.4442477876	19.3756578947
107	0.0535	-5.975	-10.6612903226	-17.9486725664	16.5592105263
108	0.054	-5.975	-9.21290322581	-17.9486725664	13.7427631579
109	0.0545	-3.13	-1.97096774194	-17.9486725664	16.5592105263
110	0.055	3.9825	-0.522580645161	-17.9486725664	13.7427631579
111	0.0555	-3.13	0.925806451613	-17.9486725664	15.1509868421
112	0.056	1.1375	-1.97096774194	-17.9486725664	3.88519736842
113	0.0565	2.56	-0.522580645161	-13.7008849558	6.70164473684
114	0.057	3.9825	-0.522580645161	-25.0283185841	15.1509868421
115	0.0575	5.405	-0.522580645161	-20.7805309735	9.51809210526
116	0.058	2.56	-1.97096774194	-17.9486725664	12.3345394737
117	0.0585	3.9825	-12.1096774194	-20.7805309735	9.51809210526
118	0.059	1.1375	-10.6612903226	-20.7805309735	6.70164473684
119	0.0595	-1.7075	0.925806451613	-20.7805309735	5.29342105263
120	0.06	9.6725	-0.522580645161	-23.6123893805	6.70164473684
121	0.0605	15.3625	-3.41935483871	-19.3646017699	13.7427631579
122	0.061	-11.665	-0.522580645161	-19.3646017699	2.47697368421
123	0.0615	-1.7075	-1.97096774194	-17.9486725664	13.7427631579
124	0.062	-4.5525	0.925806451613	-13.7008849558	5.29342105263
125	0.0625	-3.13	-1.97096774194	-20.7805309735	8.10986842105
126	0.063	-4.5525	2.37419354839	-17.9486725664	15.1509868421
127	0.0635	-7.3975	2.37419354839	-22.196460177	13.7427631579
128	0.064	-3.13	-6.31612903226	-15.1168141593	9.51809210526
129	0.0645	-4.5525	-6.31612903226	-12.2849557522	13.7427631579
130	0.065	-13.0875	-3.41935483871	-15.1168141593	9.51809210526
131	0.0655	8.25	0.925806451613	-15.1168141593	17.9674342105
132	0.066	-8.82	-0.522580645161	-16.5327433628	19.3756578947
133	0.0665	-10.2425	-0.522580645161	-13.7008849558	5.29342105263
134	0.067	-13.0875	0.925806451613	-16.5327433628	25.0085526316
135	0.0675	-14.51	-1.97096774194	-6.62123893805	12.3345394737
136	0.068	-10.2425	2.37419354839	-13.7008849558	13.7427631579
137	0.0685	-7.3975	3.82258064516	-23.6123893805	19.3756578947
138	0.069	-10.2425	-6.31612903226	-16.5327433628	17.9674342105
139	0.0695	-7.3975	-7.76451612903	-17.9486725664	20.7838815789
140	0.07	-13.0875	-0.522580645161	-17.9486725664	16.5592105263
141	0.0705	11.095	-1.97096774194	-16.5327433628	17.9674342105
142	0.071	16.785	-3.41935483871	-15.1168141593	12.3345394737
143	0.0715	-0.285	-0.522580645161	-17.9486725664	5.29342105263
144	0.072	1.1375	-0.522580645161	-25.0283185841	13.7427631579
145	0.0725	1.1375	2.37419354839	-12.2849557522	6.70164473684
146	0.073	1.1375	0.925806451613	-2.37345132743	9.51809210526
147	0.0735	-1.7075	-6.31612903226	-17.9486725664	12.3345394737
148	0.074	1.1375	0.925806451613	-16.5327433628	15.1509868421
149	0.0745	-1.7075	3.82258064516	-13.7008849558	12.3345394737
150	0.075	1.1375	-4.86774193548	-15.1168141593	13.7427631579
151	0.0755	-0.285	-3.41935483871	-16.5327433628	12.3345394737
152	0.076	18.2075	-1.97096774194	-17.9486725664	15.1509868421
153	0.0765	-11.665	-0.522580645161	-13.7008849558	9.51809210526
154	0.077	-3.13	-1.97096774194	-15.1168141593	16.5592105263
155	0.0775	-4.5525	-0.522580645161	-12.2849557522	16.5592105263
156	0.078	-3.13	2.37419354839	-16.5327433628	12.3345394737
157	0.0785	-4.5525	-3.41935483871	-15.1168141593	15.1509868421
158	0.079	-3.13	0.925806451613	-0.957522123894	12.3345394737
159	0.0795	-0.285	-0.522580645161	-15.1168141593	9.51809210526
160	0.08	-3.13	15.4096774194	-17.9486725664	15.1509868421
161	0.0805	-5.975	-7.76451612903	-17.9486725664	15.1509868421
162	0.081	-0.285	-1.97096774194	-17.9486725664	16.5592105263
163	0.0815	1.1375	-0.522580645161	-12.2849557522	17.9674342105
164	0.082	-17.355	-0.522580645161	-10.8690265487	5.29342105263
165	0.0825	-11.665	-0.522580645161	-12.2849557522	17.9674342105
166	0.083	-17.355	0.925806451613	-9.45309734513	23.6003289474
167	0.0835	-15.9325	2.37419354839	0.458407079646	16.5592105263
168	0.084	-15.9325	-1.97096774194	-16.5327433628	16.5592105263
169	0.0845	-15.9325	-3.41935483871	-12.2849557522	19.3756578947
170	0.085	-11.665	16.8580645161	-10.8690265487	19.3756578947
171	0.0855	-11.665	-7.76451612903	-12.2849557522	19.3756578947
172	0.086	-10.2425	-7.76451612903	-12.2849557522	17.9674342105
173	0.0865	-21.6225	0.925806451613	-12.2849557522	13.7427631579
174	0.087	-17.355	-0.522580645161	-10.8690265487	9.51809210526
175	0.0875	-5.975	-0.522580645161	-12.2849557522	9.51809210526
176	0.088	-1.7075	0.925806451613	-13.7008849558	19.3756578947
177	0.0885	-3.13	0.925806451613	-13.7008849558	15.1509868421
178	0.089	-0.285	-1.97096774194	-20.7805309735	9.51809210526
179	0.0895	-0.285	-1.97096774194	0.458407079646	12.3345394737
180	0.09	-1.7075	2.37419354839	-15.1168141593	8.10986842105
181	0.0905	3.9825	13.9612903226	-12.2849557522	8.10986842105
182	0.091	2.56	-6.31612903226	-17.9486725664	6.70164473684
183	0.0915	-4.5525	0.925806451613	-12.2849557522	9.51809210526
184	0.092	12.5175	-0.522580645161	-12.2849557522	12.3345394737
185	0.0925	-3.13	-1.97096774194	-13.7008849558	29.2332236842
186	0.093	-3.13	0.925806451613	-6.62123893805	2.47697368421
187	0.0935	-0.285	-0.522580645161	-12.2849557522	22.1921052632
188	0.094	-3.13	0.925806451613	-6.62123893805	8.10986842105
189	0.0945	-4.5525	-3.41935483871	-16.5327433628	6.70164473684
190	0.095	-5.975	-10.6612903226	-13.7008849558	8.10986842105
191	0.0955	-4.5525	16.8580645161	-15.1168141593	9.51809210526
192	0.096	-5.975	-4.86774193548	-13.7008849558	9.51809210526
193	0.0965	-5.975	-6.31612903226	-13.7008849558	5.29342105263
194	0.097	-0.285	0.925806451613	-16.5327433628	13.7427631579
195	0.0975	-17.355	-1.97096774194	-15.1168141593	1.06875
196	0.098	-10.2425	0.925806451613	-12.2849557522	16.5592105263
197	0.0985	-7.3975	-3.41935483871	-15.1168141593	29.2332236842
198	0.099	-13.0875	-0.522580645161	-0.957522123894	16.5592105263
199	0.0995	-15.9325	-1.97096774194	-2.37345132743	19.3756578947
200	0.1	-15.9325	0.925806451613	-10.8690265487	22.1921052632
201	0.1005	-17.355	0.925806451613	-10.8690265487	22.1921052632
202	0.101	-15.9325	-13.5580645161	-10.8690265487	25.0085526316
203	0.1015	-18.7775	11.064516129	-12.2849557522	25.0085526316
204	0.102	-18.7775	-0.522580645161	-10.8690265487	22.1921052632
205	0.1025	2.56	-0.522580645161	-12.2849557522	27.825
206	0.103	-13.0875	-1.97096774194	-13.7008849558	20.7838815789
207	0.1035	-5.975	-0.522580645161	-9.45309734513	6.70164473684
208	0.104	-4.5525	-1.97096774194	-12.2849557522	16.5592105263
209	0.1045	-3.13	-0.522580645161	-13.7008849558	32.0496710526
210	0.105	-0.285	0.925806451613	-16.5327433628	16.5592105263
211	0.1055	1.1375	0.925806451613	-13.7008849558	15.1509868421
212	0.106	2.56	-6.31612903226	-13.7008849558	16.5592105263
213	0.1065	-3.13	-3.41935483871	-16.5327433628	17.9674342105
214	0.107	3.9825	-0.522580645161	-13.7008849558	17.9674342105
215	0.1075	3.9825	-0.522580645161	-13.7008849558	20.7838815789
216	0.108	-13.0875	2.37419354839	-13.7008849558	17.9674342105
217	0.1085	-0.285	-1.97096774194	-13.7008849558	32.0496710526
218	0.109	-1.7075	-0.522580645161	-13.7008849558	9.51809210526
219	0.1095	-0.285	-1.97096774194	-12.2849557522	9.51809210526
220	0.11	-0.285	0.925806451613	-5.20530973451	20.7838815789
221	0.1105	-4.5525	0.925806451613	-19.3646017699	19.3756578947
222	0.111	-1.7075	-10.6612903226	-10.8690265487	22.1921052632
223	0.1115	-4.5525	-10.6612903226	-12.2849557522	22.1921052632
224	0.112	-4.5525	11.064516129	-13.7008849558	22.1921052632
225	0.1125	-7.3975	-7.76451612903	-12.2849557522	22.1921052632
226	0.113	-13.0875	-0.522580645161	-13.7008849558	19.3756578947
227	0.1135	5.405	2.37419354839	-13.7008849558	19.3756578947
228	0.114	-10.2425	0.925806451613	-12.2849557522	17.9674342105
229	0.1145	-7.3975	0.925806451613	-12.2849557522	30.6414473684
230	0.115	-8.82	2.37419354839	-26.4442477876	15.1509868421
231	0.1155	-11.665	0.925806451613	-12.2849557522	12.3345394737
232	0.116	-13.0875	-0.522580645161	-0.957522123894	19.3756578947
233	0.1165	-15.9325	-1.97096774194	-12.2849557522	20.7838815789
234	0.117	-13.0875	0.925806451613	-12.2849557522	22.1921052632
235	0.1175	-15.9325	5.27096774194	-9.45309734513	22.1921052632
236	0.118	-15.9325	-4.86774193548	-10.8690265487	23.6003289474
237	0.1185	1.1375	0.925806451613	-9.45309734513	23.6003289474
238	0.119	5.405	-0.522580645161	-8.03716814159	27.825
239	0.1195	-21.6225	0.925806451613	-6.62123893805	26.4167763158
240	0.12	-10.2425	-0.522580645161	-13.7008849558	32.0496710526
241	0.1205	-10.2425	2.37419354839	-3.78938053097	26.4167763158
242	0.121	-7.3975	2.37419354839	-23.6123893805	25.0085526316
243	0.1215	-7.3975	0.925806451613	-25.0283185841	25.0085526316
244	0.122	-4.5525	-6.31612903226	-12.2849557522	26.4167763158
245	0.1225	-1.7075	8.16774193548	-16.5327433628	26.4167763158
246	0.123	-3.13	-4.86774193548	-15.1168141593	23.6003289474
247	0.1235	-1.7075	0.925806451613	-17.9486725664	23.6003289474
248	0.124	-11.665	-0.522580645161	-17.9486725664	22.1921052632
249	0.1245	-8.82	-1.97096774194	-16.5327433628	25.0085526316
250	0.125	-3.13	-3.41935483871	-10.8690265487	22.1921052632
251	0.1255	-4.5525	-0.522580645161	-26.4442477876	23.6003289474
252	0.126	-4.5525	0.925806451613	-25.0283185841	17.9674342105
253	0.1265	-7.3975	0.925806451613	0.458407079646	22.1921052632
254	0.127	-5.975	-1.97096774194	-12.2849557522	26.4167763158
255	0.1275	-7.3975	-1.97096774194	-9.45309734513	26.4167763158
256	0.128	-7.3975	2.37419354839	-10.8690265487	27.825
257	0.1285	-10.2425	-0.522580645161	-12.2849557522	29.2332236842
258	0.129	-7.3975	-0.522580645161	-10.8690265487	29.2332236842
259	0.1295	8.25	0.925806451613	-13.7008849558	32.0496710526
260	0.13	-15.9325	-0.522580645161	-13.7008849558	20.7838815789
261	0.1305	-11.665	-0.522580645161	-13.7008849558	27.825
262	0.131	-11.665	0.925806451613	-9.45309734513	32.0496710526
263	0.1315	-10.2425	0.925806451613	-15.1168141593	27.825
264	0.132	-11.665	-1.97096774194	-17.9486725664	23.6003289474
265	0.1325	-11.665	2.37419354839	-9.45309734513	25.0085526316
266	0.133	-15.9325	-6.31612903226	-9.45309734513	26.4167763158
267	0.1335	-15.9325	-1.97096774194	-12.2849557522	25.0085526316
268	0.134	-14.51	-3.41935483871	-13.7008849558	26.4167763158
269	0.1345	-25.89	-1.97096774194	-13.7008849558	23.6003289474
270	0.135	2.56	0.925806451613	-13.7008849558	27.825
271	0.1355	-20.2	-3.41935483871	-12.2849557522	16.5592105263
272	0.136	-8.82	-1.97096774194	-10.8690265487	36.2743421053
273	0.1365	-10.2425	-0.522580645161	-15.1168141593	29.2332236842
274	0.137	-8.82	0.925806451613	-15.1168141593	20.7838815789
275	0.1375	-5.975	-0.522580645161	-16.5327433628	23.6003289474
276	0.138	-5.975	6.71935483871	-17.9486725664	23.6003289474
277	0.1385	-3.13	2.37419354839	-25.0283185841	26.4167763158
278	0.139	-0.285	-4.86774193548	-15.1168141593	22.1921052632
279	0.1395	-0.285	-6.31612903226	-20.7805309735	23.6003289474
280	0.14	-5.975	-3.41935483871	-17.9486725664	25.0085526316
281	0.1405	-0.285	-1.97096774194	-17.9486725664	16.5592105263
282	0.141	-4.5525	0.925806451613	-16.5327433628	26.4167763158
283	0.1415	-1.7075	0.925806451613	-19.3646017699	39.0907894737
284	0.142	-0.285	0.925806451613	-15.1168141593	15.1509868421
285	0.1425	-3.13	0.925806451613	-16.5327433628	23.6003289474
286	0.143	-7.3975	0.925806451613	-17.9486725664	20.7838815789
287	0.1435	-4.5525	3.82258064516	-16.5327433628	22.1921052632
288	0.144	-4.5525	-9.21290322581	-13.7008849558	22.1921052632
289	0.1445	-4.5525	3.82258064516	-15.1168141593	23.6003289474
290	0.145	-5.975	-1.97096774194	-13.7008849558	20.7838815789
291	0.1455	-1.7075	-0.522580645161	-12.2849557522	20.7838815789
292	0.146	9.6725	-0.522580645161	-10.8690265487	16.5592105263
293	0.1465	-8.82	-1.97096774194	-13.7008849558	30.6414473684
294	0.147	-4.5525	0.925806451613	-12.2849557522	3.88519736842
295	0.1475	-5.975	0.925806451613	-9.45309734513	6.70164473684
296	0.148	-4.5525	-0.522580645161	-13.7008849558	17.9674342105
297	0.1485	-5.975	2.37419354839	6.12212389381	16.5592105263
298	0.149	-7.3975	2.37419354839	-10.8690265487	17.9674342105
299	0.1495	-10.2425	5.27096774194	-12.2849557522	17.9674342105
300	0.15	-10.2425	-4.86774193548	-12.2849557522	20.7838815789
301	0.1505	-11.665	2.37419354839	-15.1168141593	23.6003289474
302	0.151	-21.6225	0.925806451613	-16.5327433628	25.0085526316
303	0.1515	-11.665	-1.97096774194	-17.9486725664	23.6003289474
304	0.152	-14.51	0.925806451613	-15.1168141593	15.1509868421
305	0.1525	-15.9325	-0.522580645161	-22.196460177	34.8661184211
306	0.153	-11.665	0.925806451613	-6.62123893805	27.825
307	0.1535	-8.82	0.925806451613	-26.4442477876	25.0085526316
308	0.154	-7.3975	-4.86774193548	-17.9486725664	20.7838815789
309	0.1545	-4.5525	6.71935483871	-23.6123893805	23.6003289474
310	0.155	-4.5525	-6.31612903226	-22.196460177	20.7838815789
311	0.1555	-1.7075	-6.31612903226	-19.3646017699	19.3756578947
312	0.156	13.94	2.37419354839	-20.7805309735	19.3756578947
313	0.1565	-7.3975	0.925806451613	-15.1168141593	5.29342105263
314	0.157	2.56	-0.522580645161	-13.7008849558	16.5592105263
315	0.1575	-0.285	-0.522580645161	-17.9486725664	16.5592105263
316	0.158	-1.7075	0.925806451613	-8.03716814159	15.1509868421
317	0.1585	-0.285	0.925806451613	-27.8601769912	16.5592105263
318	0.159	-1.7075	-0.522580645161	-23.6123893805	13.7427631579
319	0.1595	-3.13	-1.97096774194	-22.196460177	13.7427631579
320	0.16	-3.13	5.27096774194	-13.7008849558	13.7427631579
321	0.1605	-0.285	-0.522580645161	-16.5327433628	16.5592105263
322	0.161	-17.355	-0.522580645161	-17.9486725664	15.1509868421
323	0.1615	13.94	-0.522580645161	-17.9486725664	12.3345394737
324	0.162	8.25	0.925806451613	-17.9486725664	15.1509868421
325	0.1625	-5.975	0.925806451613	-12.2849557522	13.7427631579
326	0.163	-4.5525	0.925806451613	-25.0283185841	15.1509868421
327	0.1635	-4.5525	0.925806451613	-20.7805309735	3.88519736842
328	0.164	-5.975	0.925806451613	-17.9486725664	8.10986842105
329	0.1645	-7.3975	-10.6612903226	-17.9486725664	16.5592105263
330	0.165	-8.82	-12.1096774194	-16.5327433628	19.3756578947
331	0.1655	-8.82	-4.86774193548	-13.7008849558	22.1921052632
332	0.166	-14.51	-1.97096774194	-10.8690265487	22.1921052632
333	0.1665	-28.735	-1.97096774194	-12.2849557522	22.1921052632
334	0.167	1.1375	-0.522580645161	-12.2849557522	27.825
335	0.1675	-4.5525	0.925806451613	-12.2849557522	23.6003289474
336	0.168	-15.9325	-1.97096774194	-10.8690265487	13.7427631579
337	0.1685	-14.51	-1.97096774194	-15.1168141593	36.2743421053
338	0.169	-14.51	-0.522580645161	-25.0283185841	22.1921052632
339	0.1695	-11.665	-0.522580645161	-22.196460177	20.7838815789
340	0.17	-10.2425	-9.21290322581	-15.1168141593	17.9674342105
341	0.1705	-10.2425	-15.0064516129	-16.5327433628	17.9674342105
342	0.171	-4.5525	16.8580645161	-16.5327433628	13.7427631579
343	0.1715	-4.5525	0.925806451613	-16.5327433628	15.1509868421
344	0.172	-0.285	0.925806451613	-17.9486725664	13.7427631579
345	0.1725	11.095	-1.97096774194	-17.9486725664	16.5592105263
346	0.173	-7.3975	-0.522580645161	-13.7008849558	1.06875
347	0.1735	-0.285	-1.97096774194	-15.1168141593	15.1509868421
348	0.174	2.56	-0.522580645161	-13.7008849558	6.70164473684
349	0.1745	1.1375	0.925806451613	-2.37345132743	13.7427631579
350	0.175	-0.285	2.37419354839	-25.0283185841	15.1509868421
351	0.1755	-3.13	2.37419354839	-17.9486725664	16.5592105263
352	0.176	-0.285	15.4096774194	-15.1168141593	17.9674342105
353	0.1765	-1.7075	-13.5580645161	-16.5327433628	16.5592105263
354	0.177	-3.13	-7.76451612903	-16.5327433628	19.3756578947
355	0.1775	-8.82	-0.522580645161	-13.7008849558	23.6003289474
356	0.178	-11.665	-1.97096774194	-17.9486725664	23.6003289474
357	0.1785	-13.0875	-1.97096774194	-13.7008849558	13.7427631579
358	0.179	-4.5525	-3.41935483871	-16.5327433628	19.3756578947
359	0.1795	-4.5525	-0.522580645161	-8.03716814159	23.6003289474
360	0.18	-5.975	0.925806451613	-5.20530973451	22.1921052632
361	0.1805	-7.3975	-0.522580645161	-22.196460177	20.7838815789
362	0.181	-5.975	-1.97096774194	-2.37345132743	20.7838815789
363	0.1815	-5.975	5.27096774194	-19.3646017699	20.7838815789
364	0.182	-7.3975	-1.97096774194	-16.5327433628	19.3756578947
365	0.1825	-7.3975	-0.522580645161	-16.5327433628	19.3756578947
366	0.183	3.9825	-0.522580645161	-16.5327433628	25.0085526316
367	0.1835	-23.045	0.925806451613	-17.9486725664	23.6003289474
368	0.184	-23.045	-0.522580645161	-15.1168141593	27.825
369	0.1845	-15.9325	-0.522580645161	-12.2849557522	16.5592105263
370	0.185	-13.0875	0.925806451613	-25.0283185841	19.3756578947
371	0.1855	-14.51	-1.97096774194	-22.196460177	16.5592105263
372	0.186	-10.2425	3.82258064516	-16.5327433628	17.9674342105
373	0.1865	-11.665	-12.1096774194	-17.9486725664	15.1509868421
374	0.187	-7.3975	-10.6612903226	-19.3646017699	17.9674342105
375	0.1875	-7.3975	6.71935483871	-22.196460177	12.3345394737
376	0.188	-15.9325	0.925806451613	-23.6123893805	8.10986842105
377	0.1885	18.2075	0.925806451613	-25.0283185841	15.1509868421
378	0.189	-10.2425	-0.522580645161	-23.6123893805	8.10986842105
379	0.1895	-8.82	0.925806451613	-25.0283185841	5.29342105263
380	0.19	-0.285	0.925806451613	-23.6123893805	10.9263157895
381	0.1905	2.56	0.925806451613	-16.5327433628	5.29342105263
382	0.191	3.9825	-0.522580645161	-27.8601769912	8.10986842105
383	0.1915	2.56	-0.522580645161	-2.37345132743	13.7427631579
384	0.192	1.1375	-0.522580645161	-19.3646017699	16.5592105263
385	0.1925	-0.285	3.82258064516	-15.1168141593	15.1509868421
386	0.193	5.405	-1.97096774194	-13.7008849558	19.3756578947
387	0.1935	-11.665	-0.522580645161	-15.1168141593	13.7427631579
388	0.194	-15.9325	-0.522580645161	-15.1168141593	15.1509868421
389	0.1945	-3.13	0.925806451613	-17.9486725664	23.6003289474
390	0.195	-1.7075	0.925806451613	-23.6123893805	5.29342105263
391	0.1955	-4.5525	-1.97096774194	-23.6123893805	12.3345394737
392	0.196	-1.7075	0.925806451613	3.29026548673	13.7427631579
393	0.1965	-3.13	2.37419354839	-19.3646017699	15.1509868421
394	0.197	-1.7075	-0.522580645161	-12.2849557522	17.9674342105
395	0.1975	-1.7075	2.37419354839	-6.62123893805	19.3756578947
396	0.198	-3.13	5.27096774194	-12.2849557522	20.7838815789
397	0.1985	-1.7075	-1.97096774194	-10.8690265487	22.1921052632
398	0.199	11.095	-1.97096774194	-13.7008849558	26.4167763158
399	0.1995	-21.6225	-0.522580645161	-15.1168141593	22.1921052632
400	0.2	-18.7775	-3.41935483871	-15.1168141593	33.4578947368
401	0.2005	-14.51	-0.522580645161	-12.2849557522	22.1921052632
402	0.201	-13.0875	-0.522580645161	-16.5327433628	25.0085526316
403	0.2015	-13.0875	-4.86774193548	-16.5327433628	30.6414473684
404	0.202	-8.82	-3.41935483871	-17.9486725664	26.4167763158
405	0.2025	-10.2425	-4.86774193548	-17.9486725664	27.825
406	0.203	-10.2425	-3.41935483871	-17.9486725664	23.6003289474
407	0.2035	-4.5525	-0.522580645161	-17.9486725664	22.1921052632
408	0.204	-8.82	-0.522580645161	-17.9486725664	19.3756578947
409	0.2045	12.5175	0.925806451613	-17.9486725664	22.1921052632
410	0.205	-1.7075	-0.522580645161	-23.6123893805	33.4578947368
411	0.2055	1.1375	-1.97096774194	-19.3646017699	9.51809210526
412	0.206	3.9825	-0.522580645161	-26.4442477876	8.10986842105
413	0.2065	1.1375	2.37419354839	-19.3646017699	15.1509868421
414	0.207	1.1375	3.82258064516	-23.6123893805	12.3345394737
415	0.2075	1.1375	-9.21290322581	-22.196460177	13.7427631579
416	0.208	-1.7075	0.925806451613	-17.9486725664	16.5592105263
417	0.2085	-3.13	-3.41935483871	-17.9486725664	17.9674342105
418	0.209	-5.975	-0.522580645161	-17.9486725664	19.3756578947
419	0.2095	9.6725	0.925806451613	-17.9486725664	17.9674342105
420	0.21	-10.2425	2.37419354839	-17.9486725664	33.4578947368
421	0.2105	-5.975	-0.522580645161	-22.196460177	36.2743421053
422	0.211	-4.5525	-0.522580645161	-17.9486725664	16.5592105263
423	0.2115	-5.975	-3.41935483871	-27.8601769912	23.6003289474
424	0.212	-5.975	5.27096774194	-23.6123893805	23.6003289474
425	0.2125	-5.975	3.82258064516	-20.7805309735	25.0085526316
426	0.213	-5.975	-3.41935483871	-17.9486725664	22.1921052632
427	0.2135	-5.975	3.82258064516	-13.7008849558	22.1921052632
428	0.214	-8.82	-1.97096774194	-12.2849557522	19.3756578947
429	0.2145	-18.7775	-1.97096774194	-8.03716814159	20.7838815789
430	0.215	2.56	0.925806451613	-12.2849557522	16.5592105263
431	0.2155	-13.0875	0.925806451613	-12.2849557522	20.7838815789
432	0.216	-14.51	-3.41935483871	-13.7008849558	34.8661184211
433	0.2165	-14.51	2.37419354839	-3.78938053097	23.6003289474
434	0.217	-15.9325	0.925806451613	-25.0283185841	23.6003289474
435	0.2175	-17.355	0.925806451613	-20.7805309735	22.1921052632
436	0.218	-15.9325	0.925806451613	-17.9486725664	22.1921052632
437	0.2185	-11.665	-10.6612903226	-16.5327433628	15.1509868421
438	0.219	-13.0875	-10.6612903226	-16.5327433628	13.7427631579
439	0.2195	-17.355	0.925806451613	-17.9486725664	13.7427631579
440	0.22	-21.6225	2.37419354839	-17.9486725664	16.5592105263
441	0.2205	-20.2	-0.522580645161	-13.7008849558	13.7427631579
442	0.221	-7.3975	-0.522580645161	-12.2849557522	22.1921052632
443	0.2215	-5.975	3.82258064516	-16.5327433628	16.5592105263
444	0.222	-1.7075	2.37419354839	-22.196460177	13.7427631579
445	0.2225	-0.285	-1.97096774194	-16.5327433628	15.1509868421
446	0.223	-3.13	-1.97096774194	-16.5327433628	19.3756578947
447	0.2235	-0.285	8.16774193548	-17.9486725664	15.1509868421
448	0.224	3.9825	18.3064516129	-17.9486725664	16.5592105263
449	0.2245	3.9825	-0.522580645161	-19.3646017699	20.7838815789
450	0.225	-3.13	-1.97096774194	-22.196460177	22.1921052632
451	0.2255	-0.285	2.37419354839	-22.196460177	12.3345394737
452	0.226	-11.665	0.925806451613	-22.196460177	15.1509868421
453	0.2265	-4.5525	0.925806451613	-23.6123893805	36.2743421053
454	0.227	-5.975	2.37419354839	-25.0283185841	27.825
455	0.2275	-4.5525	0.925806451613	-32.1079646018	27.825
456	0.228	-8.82	-1.97096774194	-22.196460177	30.6414473684
457	0.2285	-7.3975	-9.21290322581	-26.4442477876	27.825
458	0.229	-4.5525	16.8580645161	-20.7805309735	26.4167763158
459	0.2295	-4.5525	0.925806451613	-20.7805309735	22.1921052632
460	0.23	-15.9325	-0.522580645161	-20.7805309735	26.4167763158
461	0.2305	-7.3975	0.925806451613	-17.9486725664	26.4167763158
462	0.231	-7.3975	-1.97096774194	-17.9486725664	17.9674342105
463	0.2315	-10.2425	0.925806451613	-20.7805309735	43.3154605263
464	0.232	-5.975	-0.522580645161	-17.9486725664	44.7236842105
465	0.2325	-10.2425	-0.522580645161	-19.3646017699	26.4167763158
466	0.233	-10.2425	-0.522580645161	-16.5327433628	27.825
467	0.2335	-14.51	-12.1096774194	-17.9486725664	27.825
468	0.234	-15.9325	-9.21290322581	-17.9486725664	26.4167763158
469	0.2345	-17.355	6.71935483871	-17.9486725664	25.0085526316
470	0.235	-17.355	-1.97096774194	-17.9486725664	22.1921052632
471	0.2355	2.56	-1.97096774194	-20.7805309735	25.0085526316
472	0.236	-18.7775	0.925806451613	-15.1168141593	23.6003289474
473	0.2365	-15.9325	0.925806451613	-15.1168141593	33.4578947368
474	0.237	-8.82	0.925806451613	-15.1168141593	12.3345394737
475	0.2375	-7.3975	0.925806451613	-8.03716814159	15.1509868421
476	0.238	-5.975	-0.522580645161	-9.45309734513	20.7838815789
477	0.2385	-3.13	-4.86774193548	0.458407079646	17.9674342105
478	0.239	2.56	0.925806451613	-15.1168141593	20.7838815789
479	0.2395	3.9825	3.82258064516	-15.1168141593	20.7838815789
480	0.24	5.405	-3.41935483871	-15.1168141593	25.0085526316
481	0.2405	3.9825	-0.522580645161	-13.7008849558	22.1921052632
482	0.241	-3.13	-0.522580645161	-15.1168141593	19.3756578947
483	0.2415	-1.7075	0.925806451613	-17.9486725664	34.8661184211
484	0.242	-0.285	-0.522580645161	-13.7008849558	16.5592105263
485	0.2425	-1.7075	-0.522580645161	-15.1168141593	23.6003289474
486	0.243	-3.13	-0.522580645161	-27.8601769912	19.3756578947
487	0.2435	-3.13	-1.97096774194	-22.196460177	22.1921052632
488	0.244	-3.13	-9.21290322581	-20.7805309735	22.1921052632
489	0.2445	-4.5525	-10.6612903226	-17.9486725664	20.7838815789
490	0.245	-4.5525	-0.522580645161	-17.9486725664	25.0085526316
491	0.2455	-7.3975	2.37419354839	-20.7805309735	25.0085526316
492	0.246	2.56	-1.97096774194	-19.3646017699	26.4167763158
493	0.2465	-8.82	-0.522580645161	-19.3646017699	33.4578947368
494	0.247	-11.665	0.925806451613	-17.9486725664	29.2332236842
495	0.2475	-8.82	0.925806451613	-26.4442477876	19.3756578947
496	0.248	-10.2425	2.37419354839	-3.78938053097	20.7838815789
497	0.2485	-10.2425	0.925806451613	-10.8690265487	22.1921052632
498	0.249	-13.0875	15.4096774194	-16.5327433628	26.4167763158
499	0.2495	-13.0875	13.9612903226	-16.5327433628	26.4167763158
500	0.25	-13.0875	-1.97096774194	-17.9486725664	29.2332236842
501	0.2505	-3.13	-1.97096774194	-17.9486725664	27.825
502	0.251	-13.0875	-0.522580645161	-16.5327433628	19.3756578947
503	0.2515	-15.9325	-0.522580645161	-20.7805309735	40.4990131579
504	0.252	-13.0875	-0.522580645161	-19.3646017699	20.7838815789
505	0.2525	-11.665	0.925806451613	-19.3646017699	22.1921052632
506	0.253	-10.2425	-1.97096774194	-20.7805309735	23.6003289474
507	0.2535	-8.82	5.27096774194	-12.2849557522	22.1921052632
508	0.254	-7.3975	-0.522580645161	-19.3646017699	22.1921052632
509	0.2545	-3.13	-1.97096774194	-12.2849557522	20.7838815789
510	0.255	1.1375	-0.522580645161	-13.7008849558	19.3756578947
511	0.2555	-14.51	0.925806451613	-15.1168141593	15.1509868421
512	0.256	-5.975	2.37419354839	-15.1168141593	15.1509868421
513	0.2565	-3.13	-0.522580645161	-15.1168141593	2.47697368421
514	0.257	-1.7075	0.925806451613	-10.8690265487	23.6003289474
515	0.2575	-1.7075	-1.97096774194	-15.1168141593	2.47697368421
516	0.258	-1.7075	0.925806451613	-20.7805309735	2.47697368421
517	0.2585	-3.13	-0.522580645161	-25.0283185841	-0.339473684211
518	0.259	-4.5525	-0.522580645161	-15.1168141593	-0.339473684211
519	0.2595	-3.13	-3.41935483871	-12.2849557522	-0.339473684211
520	0.26	-8.82	19.7548387097	-12.2849557522	-1.74769736842
521	0.2605	-7.3975	2.37419354839	-9.45309734513	-3.15592105263
522	0.261	-10.2425	2.37419354839	-5.20530973451	-21.4628289474
523	0.2615	-4.5525	2.37419354839	-5.20530973451	-15.8299342105
524	0.262	-4.5525	2.37419354839	-2.37345132743	-21.4628289474
525	0.2625	-4.5525	2.37419354839	-8.03716814159	-15.8299342105
526	0.263	-4.5525	-1.97096774194	-16.5327433628	-29.9121710526
527	0.2635	-5.975	-0.522580645161	-8.03716814159	-29.9121710526
528	0.264	-5.975	-6.31612903226	-6.62123893805	-29.9121710526
529	0.2645	-3.13	13.9612903226	-5.20530973451	-28.5039473684
530	0.265	-4.5525	-10.6612903226	-2.37345132743	-24.2792763158
531	0.2655	-10.2425	0.925806451613	-0.957522123894	-25.6875
532	0.266	-4.5525	-0.522580645161	-0.957522123894	-21.4628289474
533	0.2665	-7.3975	0.925806451613	0.458407079646	-22.8710526316
534	0.267	-8.82	0.925806451613	0.458407079646	-29.9121710526
535	0.2675	-10.2425	0.925806451613	0.458407079646	-8.78881578947
536	0.268	-11.665	0.925806451613	-9.45309734513	-21.4628289474
537	0.2685	-10.2425	-0.522580645161	-3.78938053097	-21.4628289474
538	0.269	-5.975	-1.97096774194	-0.957522123894	-20.0546052632
539	0.2695	-4.5525	6.71935483871	-0.957522123894	-22.8710526316
540	0.27	-1.7075	-10.6612903226	-0.957522123894	-24.2792763158
541	0.2705	-3.13	-10.6612903226	-0.957522123894	-24.2792763158
542	0.271	9.6725	0.925806451613	0.458407079646	-28.5039473684
543	0.2715	12.5175	0.925806451613	0.458407079646	-24.2792763158
544	0.272	8.25	-0.522580645161	-0.957522123894	-15.8299342105
545	0.2725	13.94	-1.97096774194	-3.78938053097	-38.3615131579
546	0.273	13.94	0.925806451613	18.8654867257	-29.9121710526
547	0.2735	12.5175	-1.97096774194	-2.37345132743	-25.6875
548	0.274	15.3625	0.925806451613	-0.957522123894	-18.6463815789
549	0.2745	13.94	0.925806451613	-2.37345132743	-10.1970394737
550	0.275	12.5175	-9.21290322581	-0.957522123894	1.06875
551	0.2755	11.095	-0.522580645161	-2.37345132743	15.1509868421
552	0.276	-1.7075	-0.522580645161	-3.78938053097	32.0496710526
553	0.2765	25.32	-3.41935483871	-5.20530973451	44.7236842105
554	0.277	-4.5525	-1.97096774194	-6.62123893805	51.7648026316
555	0.2775	-4.5525	-4.86774193548	-12.2849557522	72.8881578947
556	0.278	3.9825	-4.86774193548	-5.20530973451	88.3786184211
557	0.2785	1.1375	-3.41935483871	0.458407079646	102.460855263
558	0.279	-1.7075	-3.41935483871	-27.8601769912	117.951315789
559	0.2795	-1.7075	-4.86774193548	-19.3646017699	129.217105263
560	0.28	-3.13	-0.522580645161	-27.8601769912	147.524013158
561	0.2805	-1.7075	12.5129032258	-30.6920353982	165.830921053
562	0.281	-5.975	-7.76451612903	-33.5238938053	184.137828947
563	0.2815	-7.3975	-4.86774193548	-34.9398230088	201.036513158
564	0.282	-10.2425	-7.76451612903	-37.7716814159	213.710526316
565	0.2825	-20.2	-7.76451612903	-39.1876106195	232.017434211
566	0.283	-11.665	-10.6612903226	-42.0194690265	246.099671053
567	0.2835	-15.9325	-9.21290322581	-51.9309734513	265.814802632
568	0.284	-17.355	-10.6612903226	-46.2672566372	277.080592105
569	0.2845	-15.9325	-12.1096774194	-49.0991150442	291.162828947
570	0.285	-14.51	5.27096774194	-51.9309734513	305.245065789
571	0.2855	-14.51	8.16774193548	-53.3469026549	316.510855263
572	0.286	-14.51	-7.76451612903	-51.9309734513	323.551973684
573	0.2865	-0.285	-9.21290322581	-53.3469026549	333.409539474
574	0.287	-15.9325	-9.21290322581	-54.7628318584	343.267105263
575	0.2875	-13.0875	-12.1096774194	-59.010619469	348.9
576	0.288	-4.5525	-10.6612903226	-68.9221238938	343.267105263
577	0.2885	-5.975	-7.76451612903	-46.2672566372	334.817763158
578	0.289	-3.13	-7.76451612903	-54.7628318584	326.368421053
579	0.2895	-3.13	-4.86774193548	-42.0194690265	324.960197368
580	0.29	-4.5525	-6.31612903226	-59.010619469	327.776644737
581	0.2905	-5.975	2.37419354839	-64.6743362832	329.184868421
582	0.291	-3.13	-13.5580645161	-67.5061946903	332.001315789
583	0.2915	8.25	-9.21290322581	-68.9221238938	337.634210526
584	0.292	-18.7775	-7.76451612903	-68.9221238938	329.184868421
585	0.2925	-21.6225	-10.6612903226	-68.9221238938	327.776644737
586	0.293	-14.51	-6.31612903226	-71.7539823009	317.919078947
587	0.2935	-15.9325	-3.41935483871	-64.6743362832	301.020394737
588	0.294	-18.7775	-4.86774193548	-59.010619469	301.020394737
589	0.2945	-21.6225	-7.76451612903	-64.6743362832	292.571052632
590	0.295	-24.4675	11.064516129	-74.585840708	278.488815789
591	0.2955	-24.4675	13.9612903226	-77.417699115	267.223026316
592	0.296	-27.3125	0.925806451613	-80.2495575221	255.957236842
593	0.2965	-24.4675	-4.86774193548	-80.2495575221	239.058552632
594	0.297	-17.355	-3.41935483871	-81.6654867257	220.751644737
595	0.2975	-35.8475	-3.41935483871	-84.4973451327	213.710526316
596	0.298	-35.8475	-6.31612903226	-83.0814159292	171.463815789
597	0.2985	-35.8475	-1.97096774194	-80.2495575221	155.973355263
598	0.299	-41.5375	-1.97096774194	-77.417699115	153.156907895
599	0.2995	-44.3825	2.37419354839	-84.4973451327	147.524013158
600	0.3	-50.0725	2.37419354839	-84.4973451327	140.482894737
601	0.3005	-48.65	-10.6612903226	-87.3292035398	134.85
602	0.301	-50.0725	-7.76451612903	-87.3292035398	127.808881579
603	0.3015	-61.4525	-1.97096774194	-85.9132743363	116.543092105
604	0.302	-62.875	-0.522580645161	-83.0814159292	108.09375
605	0.3025	-35.8475	0.925806451613	-81.6654867257	99.6444078947
606	0.303	-52.9175	0.925806451613	-83.0814159292	98.2361842105
607	0.3035	-47.2275	-0.522580645161	-83.0814159292	98.2361842105
608	0.304	-50.0725	-0.522580645161	-90.1610619469	95.4197368421
609	0.3045	-48.65	2.37419354839	-68.9221238938	91.1950657895
610	0.305	-47.2275	2.37419354839	-81.6654867257	91.1950657895
611	0.3055	-44.3825	-6.31612903226	-78.8336283186	88.3786184211
612	0.306	-40.115	6.71935483871	-78.8336283186	88.3786184211
613	0.3065	-45.805	0.925806451613	-74.585840708	82.7457236842
614	0.307	-44.3825	0.925806451613	-71.7539823009	78.5210526316
615	0.3075	-33.0025	0.925806451613	-71.7539823009	70.0717105263
616	0.308	-45.805	2.37419354839	-68.9221238938	74.2963815789
617	0.3085	-41.5375	0.925806451613	-68.9221238938	64.4388157895
618	0.309	-41.5375	2.37419354839	-71.7539823009	57.3976973684
619	0.3095	-42.96	0.925806451613	-71.7539823009	54.58125
620	0.31	-41.5375	0.925806451613	-63.2584070796	54.58125
621	0.3105	-37.27	5.27096774194	-53.3469026549	51.7648026316
622	0.311	-33.0025	-10.6612903226	-51.9309734513	51.7648026316
623	0.3115	-37.27	-6.31612903226	-47.6831858407	51.7648026316
624	0.312	-37.27	2.37419354839	-46.2672566372	50.3565789474
625	0.3125	-35.8475	0.925806451613	-42.0194690265	47.5401315789
626	0.313	-38.6925	0.925806451613	-36.3557522124	37.6825657895
627	0.3135	-27.3125	-0.522580645161	-33.5238938053	47.5401315789
628	0.314	-24.4675	0.925806451613	-29.2761061947	37.6825657895
629	0.3145	-28.735	-0.522580645161	-40.603539823	43.3154605263
630	0.315	-27.3125	-0.522580645161	-36.3557522124	41.9072368421
631	0.3155	-30.1575	-10.6612903226	-29.2761061947	43.3154605263
632	0.316	-30.1575	16.8580645161	-30.6920353982	39.0907894737
633	0.3165	-30.1575	18.3064516129	-25.0283185841	34.8661184211
634	0.317	-37.27	-4.86774193548	-22.196460177	32.0496710526
635	0.3175	-17.355	-1.97096774194	-23.6123893805	34.8661184211
636	0.318	-40.115	-0.522580645161	-20.7805309735	26.4167763158
637	0.3185	-35.8475	0.925806451613	-15.1168141593	22.1921052632
638	0.319	-23.045	-0.522580645161	-26.4442477876	13.7427631579
639	0.3195	-24.4675	-1.97096774194	-12.2849557522	2.47697368421
640	0.32	-21.6225	0.925806451613	-3.78938053097	6.70164473684
641	0.3205	-20.2	-9.21290322581	-13.7008849558	-1.74769736842
642	0.321	-17.355	16.8580645161	-12.2849557522	-10.1970394737
643	0.3215	-11.665	-7.76451612903	-12.2849557522	-14.4217105263
644	0.322	-7.3975	-6.31612903226	-8.03716814159	-20.0546052632
645	0.3225	-17.355	0.925806451613	-5.20530973451	-27.0957236842
646	0.323	-14.51	0.925806451613	-6.62123893805	-27.0957236842
647	0.3235	-1.7075	2.37419354839	-6.62123893805	-15.8299342105
648	0.324	-0.285	0.925806451613	-6.62123893805	-28.5039473684
649	0.3245	-1.7075	0.925806451613	-8.03716814159	-15.8299342105
650	0.325	-1.7075	0.925806451613	-15.1168141593	-28.5039473684
651	0.3255	-1.7075	0.925806451613	-3.78938053097	-25.6875
652	0.326	-1.7075	-6.31612903226	-2.37345132743	-22.8710526316
653	0.3265	-4.5525	-6.31612903226	-0.957522123894	-24.2792763158
654	0.327	-3.13	-7.76451612903	-0.957522123894	-24.2792763158
655	0.3275	-7.3975	-0.522580645161	0.458407079646	-24.2792763158
656	0.328	-14.51	0.925806451613	-2.37345132743	-25.6875
657	0.3285	-3.13	2.37419354839	-2.37345132743	-11.6052631579
658	0.329	-7.3975	-0.522580645161	0.458407079646	-21.4628289474
659	0.3295	-3.13	-0.522580645161	-8.03716814159	-31.3203947368
660	0.33	-5.975	0.925806451613	-12.2849557522	-35.5450657895
661	0.3305	-7.3975	0.925806451613	-0.957522123894	-29.9121710526
662	0.331	-5.975	-7.76451612903	1.87433628319	-31.3203947368
663	0.3315	-4.5525	-10.6612903226	0.458407079646	-29.9121710526
664	0.332	-7.3975	11.064516129	3.29026548673	-29.9121710526
665	0.3325	-17.355	2.37419354839	3.29026548673	-28.5039473684
666	0.333	3.9825	0.925806451613	4.70619469027	-25.6875
667	0.3335	-18.7775	-1.97096774194	4.70619469027	-38.3615131579
668	0.334	-18.7775	0.925806451613	8.95398230088	-32.7286184211
669	0.3345	-10.2425	2.37419354839	6.12212389381	-39.7697368421
670	0.335	-10.2425	0.925806451613	8.95398230088	-35.5450657895
671	0.3355	-7.3975	2.37419354839	-3.78938053097	-34.1368421053
672	0.336	-10.2425	2.37419354839	0.458407079646	-35.5450657895
673	0.3365	-4.5525	19.7548387097	3.29026548673	-35.5450657895
674	0.337	-5.975	-7.76451612903	4.70619469027	-34.1368421053
675	0.3375	-3.13	8.16774193548	4.70619469027	-32.7286184211
676	0.338	-14.51	2.37419354839	6.12212389381	-34.1368421053
677	0.3385	21.0525	0.925806451613	4.70619469027	-31.3203947368
678	0.339	2.56	2.37419354839	7.53805309735	-34.1368421053
679	0.3395	3.9825	2.37419354839	6.12212389381	-28.5039473684
680	0.34	2.56	2.37419354839	4.70619469027	-17.2381578947
681	0.3405	8.25	2.37419354839	4.70619469027	-31.3203947368
682	0.341	5.405	0.925806451613	-2.37345132743	-31.3203947368
683	0.3415	5.405	-4.86774193548	7.53805309735	-29.9121710526
684	0.342	3.9825	-1.97096774194	7.53805309735	-32.7286184211
685	0.3425	2.56	-6.31612903226	6.12212389381	-34.1368421053
686	0.343	-1.7075	0.925806451613	4.70619469027	-34.1368421053
687	0.3435	3.9825	0.925806451613	1.87433628319	-34.1368421053
688	0.344	-7.3975	2.37419354839	0.458407079646	-28.5039473684
689	0.3445	2.56	0.925806451613	-5.20530973451	-31.3203947368
690	0.345	-0.285	2.37419354839	0.458407079646	-34.1368421053
691	0.3455	1.1375	3.82258064516	0.458407079646	-32.7286184211
692	0.346	-1.7075	-7.76451612903	0.458407079646	-29.9121710526
693	0.3465	-4.5525	-9.21290322581	-0.957522123894	-29.9121710526
694	0.347	-0.285	13.9612903226	-2.37345132743	-27.0957236842
695	0.3475	-1.7075	-4.86774193548	-0.957522123894	-28.5039473684
696	0.348	16.785	-0.522580645161	-3.78938053097	-24.2792763158
697	0.3485	-14.51	-0.522580645161	-2.37345132743	-35.5450657895
698	0.349	-3.13	2.37419354839	-5.20530973451	-34.1368421053
699	0.3495	-5.975	-0.522580645161	0.458407079646	-32.7286184211
700	0.35	-8.82	0.925806451613	-12.2849557522	-28.5039473684
701	0.3505	-8.82	0.925806451613	-12.2849557522	-24.2792763158
702	0.351	-11.665	0.925806451613	-0.957522123894	-24.2792763158
703	0.3515	-10.2425	-0.522580645161	-8.03716814159	-25.6875
704	0.352	-7.3975	-6.31612903226	-3.78938053097	-24.2792763158
705	0.3525	-4.5525	0.925806451613	-0.957522123894	-21.4628289474
706	0.353	-15.9325	-0.522580645161	-2.37345132743	-22.8710526316
707	0.3535	13.94	-0.522580645161	-0.957522123894	-24.2792763158
708	0.354	-0.285	3.82258064516	4.70619469027	-28.5039473684
709	0.3545	1.1375	-0.522580645161	3.29026548673	-28.5039473684
710	0.355	5.405	-0.522580645161	-0.957522123894	-20.0546052632
711	0.3555	8.25	2.37419354839	-2.37345132743	-29.9121710526
712	0.356	11.095	-0.522580645161	-10.8690265487	-35.5450657895
713	0.3565	12.5175	-3.41935483871	-0.957522123894	-35.5450657895
714	0.357	5.405	-1.97096774194	-2.37345132743	-35.5450657895
715	0.3575	5.405	0.925806451613	-3.78938053097	-32.7286184211
716	0.358	8.25	2.37419354839	-5.20530973451	-32.7286184211
717	0.3585	-0.285	0.925806451613	-3.78938053097	-39.7697368421
718	0.359	3.9825	0.925806451613	-5.20530973451	-17.2381578947
719	0.3595	1.1375	0.925806451613	-3.78938053097	-24.2792763158
720	0.36	2.56	-1.97096774194	-6.62123893805	-10.1970394737
721	0.3605	-0.285	0.925806451613	-9.45309734513	-21.4628289474
722	0.361	-1.7075	-0.522580645161	7.53805309735	-22.8710526316
723	0.3615	-1.7075	-0.522580645161	0.458407079646	-22.8710526316
724	0.362	1.1375	-9.21290322581	0.458407079646	-22.8710526316
725	0.3625	-1.7075	-6.31612903226	-0.957522123894	-22.8710526316
726	0.363	-10.2425	2.37419354839	-2.37345132743	-24.2792763158
727	0.3635	-13.0875	0.925806451613	-5.20530973451	-25.6875
728	0.364	12.5175	0.925806451613	-5.20530973451	-34.1368421053
729	0.3645	1.1375	-0.522580645161	-5.20530973451	-38.3615131579
730	0.365	1.1375	0.925806451613	-12.2849557522	-24.2792763158
731	0.3655	-0.285	-1.97096774194	1.87433628319	-20.0546052632
732	0.366	-3.13	-1.97096774194	-13.7008849558	-18.6463815789
733	0.3665	-4.5525	0.925806451613	8.95398230088	-24.2792763158
734	0.367	-4.5525	0.925806451613	-5.20530973451	-21.4628289474
735	0.3675	-10.2425	-4.86774193548	-9.45309734513	-21.4628289474
736	0.368	-8.82	-0.522580645161	-6.62123893805	-24.2792763158
737	0.3685	-14.51	2.37419354839	-8.03716814159	-24.2792763158
738	0.369	-13.0875	0.925806451613	-8.03716814159	-34.1368421053
739	0.3695	-4.5525	0.925806451613	-9.45309734513	-28.5039473684
740	0.37	-3.13	-0.522580645161	-2.37345132743	-34.1368421053
741	0.3705	-3.13	3.82258064516	7.53805309735	-31.3203947368
742	0.371	1.1375	0.925806451613	-8.03716814159	-32.7286184211
743	0.3715	3.9825	3.82258064516	-3.78938053097	-32.7286184211
744	0.372	5.405	-7.76451612903	-2.37345132743	-32.7286184211
745	0.3725	9.6725	3.82258064516	-3.78938053097	-31.3203947368
746	0.373	11.095	-0.522580645161	-2.37345132743	-28.5039473684
747	0.3735	-0.285	2.37419354839	-6.62123893805	-29.9121710526
748	0.374	13.94	0.925806451613	-6.62123893805	-32.7286184211
749	0.3745	-0.285	2.37419354839	-2.37345132743	-34.1368421053
750	0.375	8.25	-0.522580645161	-8.03716814159	-34.1368421053
751	0.3755	8.25	2.37419354839	-0.957522123894	-27.0957236842
752	0.376	3.9825	2.37419354839	7.53805309735	-25.6875
753	0.3765	5.405	-0.522580645161	-15.1168141593	-24.2792763158
754	0.377	3.9825	2.37419354839	-2.37345132743	-29.9121710526
755	0.3775	8.25	-6.31612903226	-5.20530973451	-29.9121710526
756	0.378	1.1375	-7.76451612903	-5.20530973451	-24.2792763158
757	0.3785	3.9825	2.37419354839	-3.78938053097	-27.0957236842
758	0.379	-11.665	-0.522580645161	-3.78938053097	-31.3203947368
759	0.3795	-4.5525	-1.97096774194	-6.62123893805	-25.6875
760	0.38	3.9825	2.37419354839	-0.957522123894	-28.5039473684
761	0.3805	-0.285	-1.97096774194	-2.37345132743	-27.0957236842
762	0.381	2.56	-0.522580645161	-10.8690265487	-27.0957236842
763	0.3815	1.1375	-0.522580645161	-5.20530973451	-28.5039473684
764	0.382	-0.285	-9.21290322581	-0.957522123894	-24.2792763158
765	0.3825	-0.285	-12.1096774194	-0.957522123894	-24.2792763158
766	0.383	-4.5525	0.925806451613	0.458407079646	-25.6875
767	0.3835	-13.0875	2.37419354839	3.29026548673	-24.2792763158
768	0.384	-17.355	0.925806451613	7.53805309735	-21.4628289474
769	0.3845	9.6725	0.925806451613	6.12212389381	-21.4628289474
770	0.385	-4.5525	0.925806451613	6.12212389381	-34.1368421053
771	0.3855	-4.5525	2.37419354839	8.95398230088	-31.3203947368
772	0.386	-4.5525	0.925806451613	11.785840708	-24.2792763158
773	0.3865	-0.285	0.925806451613	20.2814159292	-24.2792763158
774	0.387	-0.285	-0.522580645161	-0.957522123894	-24.2792763158
775	0.3875	1.1375	0.925806451613	3.29026548673	-24.2792763158
776	0.388	2.56	-7.76451612903	7.53805309735	-24.2792763158
777	0.3885	2.56	-9.21290322581	7.53805309735	-22.8710526316
778	0.389	-0.285	0.925806451613	7.53805309735	-20.0546052632
779	0.3895	-4.5525	3.82258064516	8.95398230088	-28.5039473684
780	0.39	5.405	-0.522580645161	7.53805309735	-20.0546052632
781	0.3905	11.095	2.37419354839	13.2017699115	-25.6875
782	0.391	11.095	0.925806451613	4.70619469027	-18.6463815789
783	0.3915	8.25	0.925806451613	17.4495575221	-22.8710526316
784	0.392	5.405	2.37419354839	11.785840708	-18.6463815789
785	0.3925	8.25	3.82258064516	8.95398230088	-17.2381578947
786	0.393	5.405	-7.76451612903	7.53805309735	-13.0134868421
787	0.3935	3.9825	-7.76451612903	7.53805309735	-15.8299342105
788	0.394	-4.5525	0.925806451613	8.95398230088	-15.8299342105
789	0.3945	-5.975	-0.522580645161	7.53805309735	-28.5039473684
790	0.395	2.56	-0.522580645161	7.53805309735	-14.4217105263
791	0.3955	5.405	-0.522580645161	11.785840708	-25.6875
792	0.396	1.1375	-0.522580645161	-2.37345132743	-24.2792763158
793	0.3965	2.56	0.925806451613	16.0336283186	-27.0957236842
794	0.397	1.1375	0.925806451613	7.53805309735	-31.3203947368
795	0.3975	1.1375	-9.21290322581	10.3699115044	-29.9121710526
796	0.398	1.1375	13.9612903226	7.53805309735	-31.3203947368
797	0.3985	-11.665	0.925806451613	10.3699115044	-31.3203947368
798	0.399	-13.0875	0.925806451613	8.95398230088	-28.5039473684
799	0.3995	-4.5525	0.925806451613	11.785840708	-25.6875
800	0.4	-15.9325	-0.522580645161	7.53805309735	-25.6875
801	0.4005	-7.3975	-0.522580645161	4.70619469027	-25.6875
802	0.401	-8.82	-0.522580645161	13.2017699115	-18.6463815789
803	0.4015	-11.665	3.82258064516	1.87433628319	-18.6463815789
804	0.402	-10.2425	-0.522580645161	-3.78938053097	-13.0134868421
805	0.4025	-5.975	-4.86774193548	1.87433628319	-11.6052631579
806	0.403	-4.5525	-4.86774193548	3.29026548673	-15.8299342105
807	0.4035	-3.13	0.925806451613	1.87433628319	-11.6052631579
808	0.404	-1.7075	-1.97096774194	4.70619469027	-11.6052631579
809	0.4045	-11.665	-0.522580645161	4.70619469027	-11.6052631579
810	0.405	5.405	0.925806451613	3.29026548673	-17.2381578947
811	0.4055	8.25	-0.522580645161	4.70619469027	-24.2792763158
812	0.406	9.6725	0.925806451613	4.70619469027	-24.2792763158
813	0.4065	8.25	-0.522580645161	8.95398230088	-21.4628289474
814	0.407	5.405	2.37419354839	-0.957522123894	-24.2792763158
815	0.4075	12.5175	2.37419354839	-0.957522123894	-27.0957236842
816	0.408	11.095	-6.31612903226	1.87433628319	-27.0957236842
817	0.4085	5.405	-6.31612903226	3.29026548673	-27.0957236842
818	0.409	8.25	0.925806451613	3.29026548673	-28.5039473684
819	0.4095	-8.82	2.37419354839	0.458407079646	-29.9121710526
820	0.41	-5.975	2.37419354839	-2.37345132743	-25.6875
821	0.4105	-0.285	-0.522580645161	1.87433628319	-28.5039473684
822	0.411	-1.7075	0.925806451613	0.458407079646	-34.1368421053
823	0.4115	1.1375	0.925806451613	-9.45309734513	-21.4628289474
824	0.412	1.1375	3.82258064516	-0.957522123894	-18.6463815789
825	0.4125	-1.7075	0.925806451613	-2.37345132743	-18.6463815789
826	0.413	-1.7075	-10.6612903226	0.458407079646	-13.0134868421
827	0.4135	-4.5525	-7.76451612903	-2.37345132743	-10.1970394737
828	0.414	-1.7075	-6.31612903226	-0.957522123894	-11.6052631579
829	0.4145	-3.13	0.925806451613	-0.957522123894	-7.38059210526
830	0.415	-8.82	0.925806451613	-0.957522123894	-8.78881578947
831	0.4155	-14.51	-1.97096774194	0.458407079646	-17.2381578947
832	0.416	-7.3975	0.925806451613	0.458407079646	-7.38059210526
833	0.4165	-10.2425	2.37419354839	1.87433628319	-8.78881578947
834	0.417	-13.0875	-1.97096774194	0.458407079646	-4.56414473684
835	0.4175	-7.3975	-4.86774193548	1.87433628319	-7.38059210526
836	0.418	-8.82	2.37419354839	3.29026548673	-11.6052631579
837	0.4185	-10.2425	-1.97096774194	3.29026548673	-11.6052631579
838	0.419	-8.82	0.925806451613	0.458407079646	-15.8299342105
839	0.4195	-4.5525	2.37419354839	0.458407079646	-18.6463815789
840	0.42	-17.355	2.37419354839	-0.957522123894	-22.8710526316
841	0.4205	12.5175	0.925806451613	-2.37345132743	-22.8710526316
842	0.421	-1.7075	0.925806451613	-2.37345132743	-14.4217105263
843	0.4215	1.1375	0.925806451613	-2.37345132743	-20.0546052632
844	0.422	3.9825	-3.41935483871	-13.7008849558	-28.5039473684
845	0.4225	8.25	-1.97096774194	14.617699115	-27.0957236842
846	0.423	5.405	3.82258064516	14.617699115	-24.2792763158
847	0.4235	8.25	0.925806451613	-6.62123893805	-22.8710526316
848	0.424	12.5175	-9.21290322581	-5.20530973451	-20.0546052632
849	0.4245	9.6725	9.61612903226	-5.20530973451	-18.6463815789
850	0.425	6.8275	5.27096774194	-3.78938053097	-20.0546052632
851	0.4255	-4.5525	-1.97096774194	-3.78938053097	-15.8299342105
852	0.426	26.7425	-1.97096774194	-5.20530973451	-14.4217105263
853	0.4265	-4.5525	-0.522580645161	-6.62123893805	-21.4628289474
854	0.427	-0.285	-1.97096774194	-10.8690265487	-13.0134868421
855	0.4275	3.9825	0.925806451613	-6.62123893805	-22.8710526316
856	0.428	3.9825	2.37419354839	8.95398230088	-17.2381578947
857	0.4285	1.1375	0.925806451613	-15.1168141593	-17.2381578947
858	0.429	2.56	-0.522580645161	-9.45309734513	-20.0546052632
859	0.4295	-0.285	8.16774193548	-3.78938053097	-21.4628289474
860	0.43	-1.7075	-7.76451612903	-3.78938053097	-20.0546052632
861	0.4305	-3.13	-1.97096774194	-5.20530973451	-21.4628289474
862	0.431	-1.7075	-0.522580645161	-2.37345132743	-22.8710526316
863	0.4315	3.9825	-0.522580645161	-8.03716814159	-18.6463815789
864	0.432	-10.2425	-0.522580645161	-8.03716814159	-20.0546052632
865	0.4325	-5.975	-0.522580645161	-10.8690265487	-28.5039473684
866	0.433	-10.2425	3.82258064516	-10.8690265487	-20.0546052632
867	0.4335	-7.3975	0.925806451613	1.87433628319	-14.4217105263
868	0.434	-10.2425	0.925806451613	8.95398230088	-13.0134868421
869	0.4345	-5.975	-1.97096774194	-8.03716814159	-14.4217105263
870	0.435	-7.3975	13.9612903226	-8.03716814159	-14.4217105263
871	0.4355	-5.975	18.3064516129	-8.03716814159	-15.8299342105
872	0.436	-4.5525	2.37419354839	-8.03716814159	-13.0134868421
873	0.4365	-0.285	0.925806451613	-8.03716814159	-11.6052631579
874	0.437	16.785	-0.522580645161	-8.03716814159	-10.1970394737
875	0.4375	1.1375	0.925806451613	-8.03716814159	-20.0546052632
876	0.438	-0.285	0.925806451613	-13.7008849558	-15.8299342105
877	0.4385	2.56	-0.522580645161	6.12212389381	-15.8299342105
878	0.439	2.56	2.37419354839	-17.9486725664	-15.8299342105
879	0.4395	8.25	2.37419354839	-13.7008849558	-15.8299342105
880	0.44	5.405	15.4096774194	-3.78938053097	-14.4217105263
881	0.4405	5.405	-7.76451612903	-6.62123893805	-15.8299342105
882	0.441	3.9825	-4.86774193548	-9.45309734513	-15.8299342105
883	0.4415	-8.82	2.37419354839	-9.45309734513	-22.8710526316
884	0.442	-7.3975	0.925806451613	-12.2849557522	-35.5450657895
885	0.4425	1.1375	0.925806451613	-8.03716814159	-29.9121710526
886	0.443	1.1375	0.925806451613	-6.62123893805	-28.5039473684
887	0.4435	2.56	0.925806451613	-19.3646017699	-31.3203947368
888	0.444	1.1375	0.925806451613	-23.6123893805	-29.9121710526
889	0.4445	-1.7075	-0.522580645161	-8.03716814159	-29.9121710526
890	0.445	1.1375	-3.41935483871	-6.62123893805	-28.5039473684
891	0.4455	-1.7075	2.37419354839	-8.03716814159	-24.2792763158
892	0.446	3.9825	-0.522580645161	-10.8690265487	-21.4628289474
893	0.4465	-11.665	0.925806451613	-10.8690265487	-17.2381578947
894	0.447	-8.82	-3.41935483871	-13.7008849558	-15.8299342105
895	0.4475	-8.82	0.925806451613	-8.03716814159	-11.6052631579
896	0.448	-3.13	0.925806451613	-5.20530973451	-18.6463815789
897	0.4485	-7.3975	0.925806451613	-17.9486725664	-14.4217105263
898	0.449	-7.3975	0.925806451613	-15.1168141593	-24.2792763158
899	0.4495	-10.2425	-1.97096774194	-2.37345132743	-14.4217105263
900	0.45	-10.2425	-12.1096774194	-13.7008849558	-13.0134868421
901	0.4505	-11.665	-10.6612903226	-13.7008849558	-13.0134868421
902	0.451	-11.665	9.61612903226	-12.2849557522	-11.6052631579
903	0.4515	-20.2	-0.522580645161	-10.8690265487	-11.6052631579
904	0.452	-20.2	0.925806451613	-12.2849557522	-14.4217105263
905	0.4525	12.5175	-1.97096774194	-9.45309734513	-11.6052631579
906	0.453	11.095	-1.97096774194	-8.03716814159	-15.8299342105
907	0.4535	-5.975	0.925806451613	-3.78938053097	-14.4217105263
908	0.454	-4.5525	0.925806451613	-17.9486725664	-22.8710526316
909	0.4545	1.1375	0.925806451613	13.2017699115	-22.8710526316
910	0.455	3.9825	2.37419354839	-10.8690265487	-25.6875
911	0.4555	9.6725	6.71935483871	-8.03716814159	-24.2792763158
912	0.456	11.095	13.9612903226	-12.2849557522	-25.6875
913	0.4565	3.9825	-7.76451612903	-10.8690265487	-24.2792763158
914	0.457	5.405	-7.76451612903	-10.8690265487	-17.2381578947
915	0.4575	11.095	2.37419354839	-12.2849557522	-15.8299342105
916	0.458	-1.7075	0.925806451613	-9.45309734513	-25.6875
917	0.4585	3.9825	2.37419354839	-8.03716814159	-20.0546052632
918	0.459	3.9825	-0.522580645161	-8.03716814159	-14.4217105263
919	0.4595	-0.285	0.925806451613	1.87433628319	-24.2792763158
920	0.46	-0.285	-0.522580645161	-12.2849557522	-24.2792763158
921	0.4605	-0.285	-0.522580645161	-2.37345132743	-24.2792763158
922	0.461	-4.5525	-9.21290322581	-3.78938053097	-22.8710526316
923	0.4615	-0.285	18.3064516129	-8.03716814159	-24.2792763158
924	0.462	-1.7075	-0.522580645161	-10.8690265487	-20.0546052632
925	0.4625	-3.13	0.925806451613	-6.62123893805	-18.6463815789
926	0.463	3.9825	-0.522580645161	-10.8690265487	-17.2381578947
927	0.4635	-3.13	-3.41935483871	-6.62123893805	-11.6052631579
928	0.464	-0.285	-0.522580645161	-8.03716814159	-25.6875
929	0.4645	-3.13	-1.97096774194	-5.20530973451	-22.8710526316
930	0.465	-5.975	0.925806451613	-10.8690265487	-17.2381578947
931	0.4655	-7.3975	-1.97096774194	-12.2849557522	-10.1970394737
932	0.466	-8.82	0.925806451613	-10.8690265487	-8.78881578947
933	0.4665	-10.2425	19.7548387097	-10.8690265487	-10.1970394737
934	0.467	-11.665	12.5129032258	-10.8690265487	-11.6052631579
935	0.4675	-11.665	-1.97096774194	-10.8690265487	-10.1970394737
936	0.468	-8.82	-1.97096774194	-9.45309734513	-8.78881578947
937	0.4685	-18.7775	0.925806451613	-10.8690265487	-11.6052631579
938	0.469	-14.51	0.925806451613	-6.62123893805	-5.97236842105
939	0.4695	-3.13	-0.522580645161	-3.78938053097	-8.78881578947
940	0.47	-0.285	0.925806451613	-0.957522123894	1.06875
941	0.4705	-1.7075	3.82258064516	-9.45309734513	-14.4217105263
942	0.471	1.1375	-1.97096774194	-2.37345132743	-21.4628289474
943	0.4715	3.9825	-4.86774193548	1.87433628319	-22.8710526316
944	0.472	2.56	-10.6612903226	4.70619469027	-25.6875
945	0.4725	8.25	16.8580645161	4.70619469027	-22.8710526316
946	0.473	13.94	0.925806451613	7.53805309735	-22.8710526316
947	0.4735	-3.13	3.82258064516	8.95398230088	-22.8710526316
948	0.474	21.0525	-1.97096774194	7.53805309735	-25.6875
949	0.4745	11.095	-0.522580645161	11.785840708	-28.5039473684
950	0.475	8.25	-0.522580645161	8.95398230088	-15.8299342105
951	0.4755	5.405	0.925806451613	4.70619469027	-17.2381578947
952	0.476	5.405	-0.522580645161	0.458407079646	-18.6463815789
953	0.4765	1.1375	-0.522580645161	-0.957522123894	-14.4217105263
954	0.477	5.405	-4.86774193548	7.53805309735	-13.0134868421
955	0.4775	2.56	-6.31612903226	8.95398230088	-10.1970394737
956	0.478	-4.5525	-1.97096774194	8.95398230088	-11.6052631579
957	0.4785	-10.2425	-0.522580645161	14.617699115	-15.8299342105
958	0.479	11.095	-0.522580645161	16.0336283186	-18.6463815789
959	0.4795	-10.2425	-1.97096774194	14.617699115	-17.2381578947
960	0.48	-8.82	-0.522580645161	11.785840708	-11.6052631579
961	0.4805	-5.975	0.925806451613	16.0336283186	-27.0957236842
962	0.481	-4.5525	3.82258064516	30.192920354	-18.6463815789
963	0.4815	-1.7075	-1.97096774194	6.12212389381	-15.8299342105
964	0.482	-4.5525	-1.97096774194	25.9451327434	-14.4217105263
965	0.4825	-7.3975	-7.76451612903	16.0336283186	-14.4217105263
966	0.483	-8.82	-1.97096774194	20.2814159292	-13.0134868421
967	0.4835	-7.3975	-1.97096774194	20.2814159292	-11.6052631579
968	0.484	-15.9325	-0.522580645161	20.2814159292	-14.4217105263
969	0.4845	-3.13	-0.522580645161	17.4495575221	-11.6052631579
970	0.485	-11.665	-0.522580645161	14.617699115	-8.78881578947
971	0.4855	-8.82	-1.97096774194	16.0336283186	-15.8299342105
972	0.486	-8.82	-0.522580645161	4.70619469027	-8.78881578947
973	0.4865	-4.5525	0.925806451613	16.0336283186	-10.1970394737
974	0.487	-4.5525	2.37419354839	8.95398230088	-3.15592105263
975	0.4875	-1.7075	-12.1096774194	8.95398230088	-3.15592105263
976	0.488	2.56	18.3064516129	11.785840708	-7.38059210526
977	0.4885	9.6725	-7.76451612903	13.2017699115	-10.1970394737
978	0.489	8.25	-9.21290322581	14.617699115	-11.6052631579
979	0.4895	12.5175	-0.522580645161	16.0336283186	-10.1970394737
980	0.49	3.9825	-0.522580645161	20.2814159292	-24.2792763158
981	0.4905	9.6725	-1.97096774194	18.8654867257	-14.4217105263
982	0.491	11.095	-1.97096774194	8.95398230088	-3.15592105263
983	0.4915	8.25	2.37419354839	18.8654867257	-22.8710526316
984	0.492	5.405	2.37419354839	6.12212389381	-22.8710526316
985	0.4925	5.405	6.71935483871	6.12212389381	-24.2792763158
986	0.493	3.9825	3.82258064516	-0.957522123894	-24.2792763158
987	0.4935	3.9825	-7.76451612903	7.53805309735	-18.6463815789
988	0.494	1.1375	-7.76451612903	7.53805309735	-18.6463815789
989	0.4945	1.1375	-1.97096774194	7.53805309735	-15.8299342105
990	0.495	-0.285	0.925806451613	14.617699115	-27.0957236842
991	0.4955	8.25	-0.522580645161	14.617699115	-14.4217105263
992	0.496	3.9825	0.925806451613	13.2017699115	-11.6052631579
993	0.4965	8.25	-0.522580645161	0.458407079646	-14.4217105263
994	0.497	5.405	-0.522580645161	27.3610619469	-14.4217105263
995	0.4975	5.405	0.925806451613	33.0247787611	-14.4217105263
996	0.498	3.9825	3.82258064516	16.0336283186	-13.0134868421
997	0.4985	3.9825	-6.31612903226	17.4495575221	-8.78881578947
998	0.499	2.56	-4.86774193548	16.0336283186	-7.38059210526
999	0.4995	-11.665	-0.522580645161	18.8654867257	-7.38059210526
1000	0.5	15.3625	-1.97096774194	16.0336283186	-7.38059210526
1001	0.5005	13.94	0.925806451613	18.8654867257	-7.38059210526
1002	0.501	-14.51	-0.522580645161	16.0336283186	-11.6052631579
1003	0.5015	-3.13	-1.97096774194	17.4495575221	-14.4217105263
1004	0.502	-1.7075	-0.522580645161	4.70619469027	-10.1970394737
1005	0.5025	-1.7075	-3.41935483871	23.1132743363	-14.4217105263
1006	0.503	-0.285	3.82258064516	11.785840708	-17.2381578947
1007	0.5035	2.56	-10.6612903226	13.2017699115	-17.2381578947
1008	0.504	3.9825	24.1	13.2017699115	-22.8710526316
1009	0.5045	8.25	0.925806451613	11.785840708	-22.8710526316
1010	0.505	15.3625	0.925806451613	14.617699115	-20.0546052632
1011	0.5055	25.32	0.925806451613	8.95398230088	-17.2381578947
1012	0.506	2.56	-0.522580645161	13.2017699115	-21.4628289474
1013	0.5065	12.5175	-1.97096774194	14.617699115	-24.2792763158
1014	0.507	11.095	0.925806451613	16.0336283186	-22.8710526316
1015	0.5075	11.095	2.37419354839	0.458407079646	-22.8710526316
1016	0.508	12.5175	-3.41935483871	3.29026548673	-27.0957236842
1017	0.5085	13.94	0.925806451613	7.53805309735	-28.5039473684
1018	0.509	11.095	3.82258064516	7.53805309735	-29.9121710526
1019	0.5095	15.3625	-0.522580645161	6.12212389381	-25.6875
1020	0.51	15.3625	-0.522580645161	8.95398230088	-28.5039473684
1021	0.5105	23.8975	0.925806451613	4.70619469027	-22.8710526316
1022	0.511	1.1375	3.82258064516	7.53805309735	-21.4628289474
1023	0.5115	5.405	0.925806451613	13.2017699115	-20.0546052632
1024	0.512	2.56	2.37419354839	-2.37345132743	-24.2792763158
1025	0.5125	3.9825	0.925806451613	0.458407079646	-29.9121710526
1026	0.513	3.9825	0.925806451613	25.9451327434	-27.0957236842
1027	0.5135	2.56	-0.522580645161	8.95398230088	-25.6875
1028	0.514	1.1375	3.82258064516	6.12212389381	-22.8710526316
1029	0.5145	3.9825	-1.97096774194	4.70619469027	-18.6463815789
1030	0.515	-11.665	0.925806451613	7.53805309735	-14.4217105263
1031	0.5155	-11.665	-1.97096774194	7.53805309735	-13.0134868421
1032	0.516	12.5175	-0.522580645161	6.12212389381	-13.0134868421
1033	0.5165	-11.665	-0.522580645161	14.617699115	-22.8710526316
1034	0.517	-5.975	0.925806451613	-0.957522123894	-20.0546052632
1035	0.5175	-4.5525	-0.522580645161	4.70619469027	-28.5039473684
1036	0.518	-0.285	0.925806451613	21.6973451327	-24.2792763158
1037	0.5185	1.1375	2.37419354839	4.70619469027	-21.4628289474
1038	0.519	-0.285	6.71935483871	4.70619469027	-21.4628289474
1039	0.5195	3.9825	-1.97096774194	3.29026548673	-21.4628289474
1040	0.52	-3.13	-7.76451612903	1.87433628319	-25.6875
1041	0.5205	3.9825	0.925806451613	6.12212389381	-29.9121710526
1042	0.521	15.3625	2.37419354839	7.53805309735	-38.3615131579
1043	0.5215	5.405	-0.522580645161	3.29026548673	-34.1368421053
1044	0.522	13.94	-0.522580645161	4.70619469027	-45.4026315789
1045	0.5225	12.5175	3.82258064516	8.95398230088	-48.2190789474
1046	0.523	12.5175	0.925806451613	-3.78938053097	-46.8108552632
1047	0.5235	12.5175	2.37419354839	16.0336283186	-52.44375
1048	0.524	13.94	2.37419354839	11.785840708	-45.4026315789
1049	0.5245	12.5175	-0.522580645161	11.785840708	-43.9944078947
1050	0.525	12.5175	5.27096774194	4.70619469027	-39.7697368421
1051	0.5255	8.25	0.925806451613	7.53805309735	-36.9532894737
1052	0.526	11.095	0.925806451613	4.70619469027	-34.1368421053
1053	0.5265	23.8975	-1.97096774194	7.53805309735	-31.3203947368
1054	0.527	-3.13	2.37419354839	7.53805309735	-32.7286184211
1055	0.5275	1.1375	2.37419354839	6.12212389381	-34.1368421053
1056	0.528	5.405	0.925806451613	7.53805309735	-39.7697368421
1057	0.5285	3.9825	2.37419354839	20.2814159292	-29.9121710526
1058	0.529	3.9825	-1.97096774194	-3.78938053097	-25.6875
1059	0.5295	5.405	-0.522580645161	16.0336283186	-24.2792763158
1060	0.53	2.56	-3.41935483871	-3.78938053097	-20.0546052632
1061	0.5305	1.1375	-0.522580645161	-2.37345132743	-20.0546052632
1062	0.531	5.405	-0.522580645161	-3.78938053097	-15.8299342105
1063	0.5315	-11.665	-0.522580645161	-3.78938053097	-13.0134868421
1064	0.532	-7.3975	0.925806451613	-0.957522123894	-13.0134868421
1065	0.5325	-5.975	0.925806451613	3.29026548673	-11.6052631579
1066	0.533	-7.3975	-1.97096774194	4.70619469027	-3.15592105263
1067	0.5335	-7.3975	-0.522580645161	-8.03716814159	-15.8299342105
1068	0.534	-8.82	-0.522580645161	4.70619469027	-25.6875
1069	0.5345	-5.975	-1.97096774194	3.29026548673	-18.6463815789
1070	0.535	-5.975	-6.31612903226	-2.37345132743	-21.4628289474
1071	0.5355	-3.13	13.9612903226	1.87433628319	-22.8710526316
1072	0.536	-3.13	-7.76451612903	-0.957522123894	-27.0957236842
1073	0.5365	-11.665	2.37419354839	-2.37345132743	-29.9121710526
1074	0.537	-7.3975	3.82258064516	-0.957522123894	-34.1368421053
1075	0.5375	1.1375	0.925806451613	-0.957522123894	-35.5450657895
1076	0.538	-0.285	0.925806451613	3.29026548673	-24.2792763158
1077	0.5385	3.9825	2.37419354839	-8.03716814159	-36.9532894737
1078	0.539	8.25	3.82258064516	-0.957522123894	-43.9944078947
1079	0.5395	8.25	0.925806451613	6.12212389381	-39.7697368421
1080	0.54	9.6725	5.27096774194	-0.957522123894	-42.5861842105
1081	0.5405	8.25	-7.76451612903	-0.957522123894	-43.9944078947
1082	0.541	5.405	-6.31612903226	-0.957522123894	-39.7697368421
1083	0.5415	5.405	0.925806451613	-3.78938053097	-39.7697368421
1084	0.542	-1.7075	0.925806451613	-6.62123893805	-36.9532894737
1085	0.5425	19.63	-1.97096774194	-6.62123893805	-29.9121710526
1086	0.543	8.25	0.925806451613	-8.03716814159	-13.0134868421
1087	0.5435	5.405	2.37419354839	-5.20530973451	-38.3615131579
1088	0.544	5.405	0.925806451613	-5.20530973451	-18.6463815789
1089	0.5445	3.9825	0.925806451613	1.87433628319	-27.0957236842
1090	0.545	5.405	-1.97096774194	-16.5327433628	-25.6875
1091	0.5455	3.9825	-10.6612903226	-6.62123893805	-21.4628289474
1092	0.546	3.9825	9.61612903226	-8.03716814159	-21.4628289474
1093	0.5465	1.1375	-4.86774193548	-8.03716814159	-21.4628289474
1094	0.547	8.25	-3.41935483871	-8.03716814159	-20.0546052632
1095	0.5475	23.8975	-0.522580645161	-6.62123893805	-17.2381578947
1096	0.548	-4.5525	-0.522580645161	-8.03716814159	-25.6875
1097	0.5485	3.9825	-0.522580645161	-6.62123893805	-14.4217105263
1098	0.549	1.1375	-0.522580645161	-3.78938053097	-22.8710526316
1099	0.5495	-1.7075	-1.97096774194	-17.9486725664	-17.2381578947
1100	0.55	-4.5525	-3.41935483871	-16.5327433628	-14.4217105263
1101	0.5505	-5.975	-3.41935483871	-10.8690265487	-14.4217105263
1102	0.551	-7.3975	6.71935483871	-6.62123893805	-11.6052631579
1103	0.5515	-4.5525	11.064516129	-6.62123893805	-8.78881578947
1104	0.552	-20.2	-1.97096774194	-9.45309734513	-11.6052631579
1105	0.5525	-15.9325	-1.97096774194	-9.45309734513	-10.1970394737
1106	0.553	18.2075	-3.41935483871	-6.62123893805	-11.6052631579
1107	0.5535	-10.2425	0.925806451613	-6.62123893805	-21.4628289474
1108	0.554	-1.7075	-0.522580645161	-5.20530973451	-15.8299342105
1109	0.5545	1.1375	0.925806451613	-6.62123893805	-1.74769736842
1110	0.555	2.56	-0.522580645161	-0.957522123894	-11.6052631579
1111	0.5555	8.25	-0.522580645161	-20.7805309735	-14.4217105263
1112	0.556	5.405	-12.1096774194	-8.03716814159	-8.78881578947
1113	0.5565	8.25	18.3064516129	-8.03716814159	-7.38059210526
1114	0.557	9.6725	11.064516129	-8.03716814159	-4.56414473684
1115	0.5575	11.095	-4.86774193548	-3.78938053097	-3.15592105263
1116	0.558	21.0525	-0.522580645161	-8.03716814159	-0.339473684211
1117	0.5585	1.1375	-1.97096774194	-6.62123893805	-5.97236842105
1118	0.559	-3.13	-0.522580645161	-6.62123893805	-14.4217105263
1119	0.5595	2.56	-1.97096774194	-13.7008849558	-4.56414473684
1120	0.56	1.1375	2.37419354839	-3.78938053097	-0.339473684211
1121	0.5605	2.56	-0.522580645161	-8.03716814159	-1.74769736842
1122	0.561	1.1375	5.27096774194	-9.45309734513	-5.97236842105
1123	0.5615	-0.285	-10.6612903226	-13.7008849558	-11.6052631579
1124	0.562	-1.7075	-7.76451612903	-12.2849557522	-17.2381578947
1125	0.5625	-3.13	0.925806451613	-12.2849557522	-13.0134868421
1126	0.563	-4.5525	0.925806451613	-16.5327433628	-11.6052631579
1127	0.5635	9.6725	-0.522580645161	-17.9486725664	-5.97236842105
1128	0.564	-11.665	0.925806451613	-16.5327433628	-5.97236842105
1129	0.5645	-3.13	-1.97096774194	-13.7008849558	-10.1970394737
1130	0.565	-3.13	-0.522580645161	-12.2849557522	8.10986842105
1131	0.5655	-5.975	-0.522580645161	-0.957522123894	5.29342105263
1132	0.566	-5.975	0.925806451613	-20.7805309735	2.47697368421
1133	0.5665	-8.82	-12.1096774194	-10.8690265487	9.51809210526
1134	0.567	-5.975	18.3064516129	-13.7008849558	13.7427631579
1135	0.5675	-5.975	13.9612903226	-13.7008849558	15.1509868421
1136	0.568	-10.2425	-9.21290322581	-16.5327433628	19.3756578947
1137	0.5685	-7.3975	8.16774193548	-15.1168141593	16.5592105263
1138	0.569	-3.13	0.925806451613	-17.9486725664	19.3756578947
1139	0.5695	-10.2425	2.37419354839	-13.7008849558	5.29342105263
1140	0.57	-5.975	0.925806451613	-17.9486725664	20.7838815789
1141	0.5705	-1.7075	0.925806451613	-20.7805309735	13.7427631579
1142	0.571	-0.285	-0.522580645161	-5.20530973451	15.1509868421
1143	0.5715	3.9825	2.37419354839	-9.45309734513	16.5592105263
1144	0.572	8.25	2.37419354839	-15.1168141593	17.9674342105
1145	0.5725	3.9825	-10.6612903226	-16.5327433628	16.5592105263
1146	0.573	11.095	-0.522580645161	-15.1168141593	19.3756578947
1147	0.5735	8.25	-0.522580645161	-13.7008849558	13.7427631579
1148	0.574	5.405	2.37419354839	-16.5327433628	12.3345394737
1149	0.5745	9.6725	-0.522580645161	-17.9486725664	13.7427631579
1150	0.575	8.25	0.925806451613	-12.2849557522	8.10986842105
1151	0.5755	8.25	-0.522580645161	-12.2849557522	9.51809210526
1152	0.576	1.1375	-0.522580645161	-17.9486725664	26.4167763158
1153	0.5765	1.1375	2.37419354839	-2.37345132743	8.10986842105
1154	0.577	-0.285	-3.41935483871	-13.7008849558	12.3345394737
1155	0.5775	-0.285	-9.21290322581	-12.2849557522	8.10986842105
1156	0.578	1.1375	15.4096774194	-12.2849557522	9.51809210526
1157	0.5785	-1.7075	-7.76451612903	-12.2849557522	9.51809210526
1158	0.579	-14.51	0.925806451613	-12.2849557522	12.3345394737
1159	0.5795	8.25	-0.522580645161	-15.1168141593	16.5592105263
1160	0.58	2.56	-1.97096774194	-13.7008849558	15.1509868421
1161	0.5805	-5.975	-0.522580645161	-13.7008849558	34.8661184211
1162	0.581	-4.5525	-0.522580645161	-15.1168141593	19.3756578947
1163	0.5815	-4.5525	0.925806451613	-15.1168141593	16.5592105263
1164	0.582	-4.5525	2.37419354839	-22.196460177	25.0085526316
1165	0.5825	-8.82	3.82258064516	-15.1168141593	25.0085526316
1166	0.583	-10.2425	-12.1096774194	-16.5327433628	23.6003289474
1167	0.5835	-13.0875	-6.31612903226	-17.9486725664	26.4167763158
1168	0.584	-15.9325	-0.522580645161	-16.5327433628	27.825
1169	0.5845	-20.2	0.925806451613	-17.9486725664	29.2332236842
1170	0.585	9.6725	0.925806451613	-19.3646017699	32.0496710526
1171	0.5855	-7.3975	-0.522580645161	-16.5327433628	32.0496710526
1172	0.586	-4.5525	-1.97096774194	-26.4442477876	26.4167763158
1173	0.5865	-3.13	0.925806451613	-5.20530973451	27.825
1174	0.587	-1.7075	0.925806451613	-0.957522123894	27.825
1175	0.5875	-3.13	-3.41935483871	-25.0283185841	30.6414473684
1176	0.588	-0.285	-3.41935483871	-15.1168141593	33.4578947368
1177	0.5885	-0.285	5.27096774194	-15.1168141593	32.0496710526
1178	0.589	1.1375	-3.41935483871	-15.1168141593	29.2332236842
1179	0.5895	5.405	0.925806451613	-15.1168141593	33.4578947368
1180	0.59	22.475	2.37419354839	-15.1168141593	34.8661184211
1181	0.5905	-7.3975	-0.522580645161	-19.3646017699	22.1921052632
1182	0.591	2.56	-0.522580645161	-19.3646017699	26.4167763158
1183	0.5915	1.1375	2.37419354839	-15.1168141593	20.7838815789
1184	0.592	-0.285	-0.522580645161	-9.45309734513	17.9674342105
1185	0.5925	-3.13	0.925806451613	-19.3646017699	25.0085526316
1186	0.593	-3.13	-0.522580645161	-20.7805309735	25.0085526316
1187	0.5935	-0.285	5.27096774194	-10.8690265487	25.0085526316
1188	0.594	-3.13	-4.86774193548	-10.8690265487	23.6003289474
1189	0.5945	1.1375	0.925806451613	-12.2849557522	26.4167763158
1190	0.595	-0.285	0.925806451613	-12.2849557522	25.0085526316
1191	0.5955	-10.2425	0.925806451613	-12.2849557522	22.1921052632
1192	0.596	2.56	2.37419354839	-9.45309734513	13.7427631579
1193	0.5965	-3.13	-0.522580645161	-9.45309734513	8.10986842105
1194	0.597	-5.975	-0.522580645161	-8.03716814159	34.8661184211
1195	0.5975	-5.975	-0.522580645161	-20.7805309735	20.7838815789
1196	0.598	-5.975	-0.522580645161	-15.1168141593	22.1921052632
1197	0.5985	-4.5525	-3.41935483871	-12.2849557522	26.4167763158
1198	0.599	-5.975	-9.21290322581	-16.5327433628	32.0496710526
1199	0.5995	-8.82	16.8580645161	-12.2849557522	36.2743421053
1200	0.6	-11.665	-0.522580645161	-9.45309734513	39.0907894737
1201	0.6005	-23.045	-1.97096774194	-6.62123893805	36.2743421053
1202	0.601	-15.9325	-1.97096774194	-0.957522123894	37.6825657895
1203	0.6015	-7.3975	-0.522580645161	1.87433628319	33.4578947368
1204	0.602	-11.665	-1.97096774194	6.12212389381	27.825
1205	0.6025	-11.665	-1.97096774194	-8.03716814159	33.4578947368
1206	0.603	-8.82	0.925806451613	16.0336283186	30.6414473684
1207	0.6035	-8.82	-0.522580645161	-5.20530973451	32.0496710526
1208	0.604	-8.82	0.925806451613	-6.62123893805	25.0085526316
1209	0.6045	-4.5525	11.064516129	-3.78938053097	23.6003289474
1210	0.605	-7.3975	-7.76451612903	-5.20530973451	22.1921052632
1211	0.6055	-1.7075	-0.522580645161	-3.78938053097	22.1921052632
1212	0.606	-4.5525	0.925806451613	-3.78938053097	23.6003289474
1213	0.6065	-5.975	-0.522580645161	-0.957522123894	16.5592105263
1214	0.607	-3.13	-0.522580645161	-0.957522123894	30.6414473684
1215	0.6075	1.1375	-0.522580645161	-5.20530973451	23.6003289474
1216	0.608	-0.285	-0.522580645161	-6.62123893805	20.7838815789
1217	0.6085	-3.13	0.925806451613	-5.20530973451	27.825
1218	0.609	-4.5525	2.37419354839	-5.20530973451	26.4167763158
1219	0.6095	-3.13	-10.6612903226	-2.37345132743	29.2332236842
1220	0.61	-4.5525	-7.76451612903	-0.957522123894	27.825
1221	0.6105	-8.82	5.27096774194	-3.78938053097	26.4167763158
1222	0.611	-15.9325	-1.97096774194	-5.20530973451	25.0085526316
1223	0.6115	9.6725	-0.522580645161	-2.37345132743	27.825
1224	0.612	11.095	-1.97096774194	-5.20530973451	27.825
1225	0.6125	-8.82	-1.97096774194	-6.62123893805	43.3154605263
1226	0.613	-7.3975	-0.522580645161	-2.37345132743	20.7838815789
1227	0.6135	-10.2425	0.925806451613	-8.03716814159	27.825
1228	0.614	-10.2425	0.925806451613	6.12212389381	26.4167763158
1229	0.6145	-13.0875	0.925806451613	-10.8690265487	20.7838815789
1230	0.615	-11.665	-9.21290322581	-2.37345132743	20.7838815789
1231	0.6155	-14.51	0.925806451613	3.29026548673	20.7838815789
1232	0.616	-18.7775	-1.97096774194	0.458407079646	22.1921052632
1233	0.6165	-18.7775	-0.522580645161	-0.957522123894	20.7838815789
1234	0.617	1.1375	-0.522580645161	-0.957522123894	23.6003289474
1235	0.6175	2.56	0.925806451613	-0.957522123894	20.7838815789
1236	0.618	-21.6225	-0.522580645161	-2.37345132743	19.3756578947
1237	0.6185	-11.665	-1.97096774194	1.87433628319	32.0496710526
1238	0.619	-8.82	0.925806451613	6.12212389381	23.6003289474
1239	0.6195	-8.82	0.925806451613	14.617699115	25.0085526316
1240	0.62	-3.13	-0.522580645161	-6.62123893805	23.6003289474
1241	0.6205	-4.5525	0.925806451613	-0.957522123894	22.1921052632
1242	0.621	-1.7075	-10.6612903226	-3.78938053097	22.1921052632
1243	0.6215	-3.13	-10.6612903226	-5.20530973451	20.7838815789
1244	0.622	1.1375	-0.522580645161	-6.62123893805	17.9674342105
1245	0.6225	-5.975	0.925806451613	-6.62123893805	12.3345394737
1246	0.623	-4.5525	0.925806451613	-2.37345132743	1.06875
1247	0.6235	2.56	-0.522580645161	-6.62123893805	16.5592105263
1248	0.624	2.56	0.925806451613	-5.20530973451	23.6003289474
1249	0.6245	-0.285	0.925806451613	-3.78938053097	16.5592105263
1250	0.625	-3.13	-0.522580645161	-12.2849557522	15.1509868421
1251	0.6255	-5.975	-1.97096774194	11.785840708	15.1509868421
1252	0.626	-8.82	2.37419354839	-6.62123893805	17.9674342105
1253	0.6265	-8.82	8.16774193548	-6.62123893805	22.1921052632
1254	0.627	-10.2425	11.064516129	-2.37345132743	27.825
1255	0.6275	-3.13	-0.522580645161	-2.37345132743	29.2332236842
1256	0.628	3.9825	0.925806451613	-3.78938053097	27.825
1257	0.6285	-11.665	0.925806451613	-0.957522123894	39.0907894737
1258	0.629	-7.3975	-1.97096774194	-3.78938053097	19.3756578947
1259	0.6295	-5.975	-0.522580645161	-2.37345132743	22.1921052632
1260	0.63	-7.3975	-1.97096774194	7.53805309735	26.4167763158
1261	0.6305	-5.975	2.37419354839	-9.45309734513	25.0085526316
1262	0.631	-10.2425	5.27096774194	-5.20530973451	25.0085526316
1263	0.6315	-10.2425	-9.21290322581	-9.45309734513	27.825
1264	0.632	-10.2425	-7.76451612903	-8.03716814159	25.0085526316
1265	0.6325	-10.2425	-0.522580645161	-8.03716814159	27.825
1266	0.633	-15.9325	-1.97096774194	-12.2849557522	30.6414473684
1267	0.6335	-18.7775	-0.522580645161	-12.2849557522	39.0907894737
1268	0.634	-17.355	-0.522580645161	-15.1168141593	44.7236842105
1269	0.6345	-15.9325	-1.97096774194	-13.7008849558	20.7838815789
1270	0.635	-13.0875	-1.97096774194	-17.9486725664	25.0085526316
1271	0.6355	-11.665	0.925806451613	-12.2849557522	22.1921052632
1272	0.636	-11.665	5.27096774194	-15.1168141593	22.1921052632
1273	0.6365	-8.82	-10.6612903226	-16.5327433628	20.7838815789
1274	0.637	-7.3975	16.8580645161	-17.9486725664	19.3756578947
1275	0.6375	-4.5525	18.3064516129	-17.9486725664	20.7838815789
1276	0.638	-4.5525	-6.31612903226	-17.9486725664	22.1921052632
1277	0.6385	5.405	0.925806451613	-17.9486725664	20.7838815789
1278	0.639	-3.13	0.925806451613	-15.1168141593	6.70164473684
1279	0.6395	1.1375	0.925806451613	-12.2849557522	36.2743421053
1280	0.64	-0.285	2.37419354839	-13.7008849558	34.8661184211
1281	0.6405	-0.285	0.925806451613	-12.2849557522	26.4167763158
1282	0.641	1.1375	0.925806451613	-16.5327433628	26.4167763158
1283	0.6415	1.1375	5.27096774194	-16.5327433628	27.825
1284	0.642	-1.7075	-7.76451612903	-17.9486725664	29.2332236842
1285	0.6425	-1.7075	15.4096774194	-20.7805309735	27.825
1286	0.643	-3.13	13.9612903226	-19.3646017699	23.6003289474
1287	0.6435	-14.51	0.925806451613	-19.3646017699	23.6003289474
1288	0.644	9.6725	0.925806451613	-17.9486725664	27.825
1289	0.6445	-11.665	0.925806451613	-15.1168141593	25.0085526316
1290	0.645	-4.5525	0.925806451613	-12.2849557522	27.825
1291	0.6455	-4.5525	2.37419354839	-23.6123893805	23.6003289474
1292	0.646	-4.5525	0.925806451613	-5.20530973451	22.1921052632
1293	0.6465	-5.975	0.925806451613	-8.03716814159	19.3756578947
1294	0.647	-5.975	3.82258064516	-20.7805309735	19.3756578947
1295	0.6475	-4.5525	9.61612903226	-17.9486725664	20.7838815789
1296	0.648	-5.975	-3.41935483871	-16.5327433628	22.1921052632
1297	0.6485	-8.82	-4.86774193548	-16.5327433628	22.1921052632
1298	0.649	-4.5525	-0.522580645161	-16.5327433628	25.0085526316
1299	0.6495	5.405	-0.522580645161	-12.2849557522	29.2332236842
1300	0.65	-18.7775	-0.522580645161	-15.1168141593	26.4167763158
1301	0.6505	-10.2425	-0.522580645161	-17.9486725664	39.0907894737
1302	0.651	-8.82	0.925806451613	-17.9486725664	23.6003289474
1303	0.6515	-11.665	-0.522580645161	-29.2761061947	26.4167763158
1304	0.652	-10.2425	-1.97096774194	-26.4442477876	32.0496710526
1305	0.6525	-10.2425	2.37419354839	-23.6123893805	32.0496710526
1306	0.653	-3.13	-10.6612903226	-19.3646017699	32.0496710526
1307	0.6535	-4.5525	-9.21290322581	-19.3646017699	33.4578947368
1308	0.654	-3.13	13.9612903226	-19.3646017699	29.2332236842
1309	0.6545	-7.3975	-0.522580645161	-19.3646017699	23.6003289474
1310	0.655	3.9825	0.925806451613	-20.7805309735	25.0085526316
1311	0.6555	-1.7075	0.925806451613	-17.9486725664	6.70164473684
1312	0.656	-0.285	0.925806451613	-17.9486725664	17.9674342105
1313	0.6565	1.1375	0.925806451613	-20.7805309735	29.2332236842
1314	0.657	-0.285	-0.522580645161	-0.957522123894	8.10986842105
1315	0.6575	5.405	0.925806451613	0.458407079646	9.51809210526
1316	0.658	3.9825	-0.522580645161	-22.196460177	9.51809210526
1317	0.6585	2.56	-1.97096774194	-15.1168141593	9.51809210526
1318	0.659	2.56	-1.97096774194	-20.7805309735	13.7427631579
1319	0.6595	-0.285	-6.31612903226	-12.2849557522	17.9674342105
1320	0.66	1.1375	-1.97096774194	-15.1168141593	22.1921052632
1321	0.6605	-7.3975	2.37419354839	-17.9486725664	20.7838815789
1322	0.661	12.5175	0.925806451613	-19.3646017699	26.4167763158
1323	0.6615	-3.13	-1.97096774194	-17.9486725664	27.825
1324	0.662	-3.13	-1.97096774194	-17.9486725664	39.0907894737
1325	0.6625	-4.5525	0.925806451613	-20.7805309735	23.6003289474
1326	0.663	-8.82	0.925806451613	-8.03716814159	25.0085526316
1327	0.6635	-5.975	3.82258064516	-16.5327433628	25.0085526316
1328	0.664	-5.975	-13.5580645161	-15.1168141593	22.1921052632
1329	0.6645	-5.975	-13.5580645161	-12.2849557522	22.1921052632
1330	0.665	-5.975	18.3064516129	-12.2849557522	20.7838815789
1331	0.6655	-10.2425	0.925806451613	-12.2849557522	17.9674342105
1332	0.666	-24.4675	0.925806451613	-15.1168141593	17.9674342105
1333	0.6665	-21.6225	-0.522580645161	-13.7008849558	19.3756578947
1334	0.667	-23.045	-0.522580645161	-12.2849557522	16.5592105263
1335	0.6675	-17.355	0.925806451613	-9.45309734513	9.51809210526
1336	0.668	-17.355	0.925806451613	-12.2849557522	27.825
1337	0.6685	-13.0875	-0.522580645161	-20.7805309735	13.7427631579
1338	0.669	-13.0875	-0.522580645161	-17.9486725664	15.1509868421
1339	0.6695	-13.0875	-7.76451612903	-10.8690265487	16.5592105263
1340	0.67	-11.665	-10.6612903226	-13.7008849558	16.5592105263
1341	0.6705	-5.975	3.82258064516	-12.2849557522	20.7838815789
1342	0.671	-5.975	-0.522580645161	-13.7008849558	19.3756578947
1343	0.6715	-5.975	-0.522580645161	-15.1168141593	15.1509868421
1344	0.672	12.5175	-0.522580645161	-17.9486725664	16.5592105263
1345	0.6725	-1.7075	0.925806451613	-20.7805309735	27.825
1346	0.673	1.1375	0.925806451613	-15.1168141593	2.47697368421
1347	0.6735	1.1375	-0.522580645161	-23.6123893805	12.3345394737
1348	0.674	1.1375	2.37419354839	-16.5327433628	15.1509868421
1349	0.6745	2.56	-0.522580645161	-20.7805309735	13.7427631579
1350	0.675	1.1375	-10.6612903226	-17.9486725664	12.3345394737
1351	0.6755	1.1375	18.3064516129	-15.1168141593	15.1509868421
1352	0.676	-0.285	15.4096774194	-16.5327433628	15.1509868421
1353	0.6765	-1.7075	-9.21290322581	-16.5327433628	15.1509868421
1354	0.677	-5.975	2.37419354839	-17.9486725664	22.1921052632
1355	0.6775	1.1375	-1.97096774194	-15.1168141593	15.1509868421
1356	0.678	-7.3975	0.925806451613	-13.7008849558	25.0085526316
1357	0.6785	-5.975	-0.522580645161	-13.7008849558	33.4578947368
1358	0.679	-4.5525	-1.97096774194	-12.2849557522	15.1509868421
1359	0.6795	-4.5525	0.925806451613	0.458407079646	23.6003289474
1360	0.68	-4.5525	0.925806451613	-29.2761061947	23.6003289474
1361	0.6805	-5.975	0.925806451613	-25.0283185841	22.1921052632
1362	0.681	-7.3975	-1.97096774194	-13.7008849558	20.7838815789
1363	0.6815	-8.82	3.82258064516	-12.2849557522	22.1921052632
1364	0.682	-5.975	-4.86774193548	-9.45309734513	23.6003289474
1365	0.6825	-4.5525	0.925806451613	-13.7008849558	22.1921052632
1366	0.683	-25.89	-0.522580645161	-12.2849557522	17.9674342105
1367	0.6835	-21.6225	-0.522580645161	-12.2849557522	3.88519736842
1368	0.684	-14.51	-1.97096774194	-15.1168141593	23.6003289474
1369	0.6845	-15.9325	0.925806451613	-12.2849557522	8.10986842105
1370	0.685	-14.51	0.925806451613	-12.2849557522	6.70164473684
1371	0.6855	-10.2425	-0.522580645161	-8.03716814159	3.88519736842
1372	0.686	-5.975	3.82258064516	-8.03716814159	3.88519736842
1373	0.6865	-5.975	-1.97096774194	-20.7805309735	6.70164473684
1374	0.687	-1.7075	0.925806451613	-15.1168141593	-1.74769736842
1375	0.6875	-7.3975	-0.522580645161	-13.7008849558	-3.15592105263
1376	0.688	-10.2425	0.925806451613	-17.9486725664	-5.97236842105
1377	0.6885	23.8975	0.925806451613	-13.7008849558	-0.339473684211
1378	0.689	-3.13	0.925806451613	-17.9486725664	-7.38059210526
1379	0.6895	9.6725	0.925806451613	-15.1168141593	12.3345394737
1380	0.69	2.56	-0.522580645161	-13.7008849558	1.06875
1381	0.6905	5.405	0.925806451613	-20.7805309735	8.10986842105
1382	0.691	5.405	-1.97096774194	-13.7008849558	8.10986842105
1383	0.6915	3.9825	-1.97096774194	-15.1168141593	12.3345394737
1384	0.692	3.9825	0.925806451613	-13.7008849558	17.9674342105
1385	0.6925	3.9825	13.9612903226	-8.03716814159	23.6003289474
1386	0.693	2.56	0.925806451613	-10.8690265487	25.0085526316
1387	0.6935	-7.3975	2.37419354839	-12.2849557522	23.6003289474
1388	0.694	-0.285	0.925806451613	-12.2849557522	19.3756578947
1389	0.6945	-8.82	-1.97096774194	-16.5327433628	20.7838815789
1390	0.695	-3.13	-0.522580645161	-16.5327433628	13.7427631579
1391	0.6955	-4.5525	-0.522580645161	-15.1168141593	33.4578947368
1392	0.696	-1.7075	2.37419354839	-23.6123893805	15.1509868421
1393	0.6965	-3.13	0.925806451613	-23.6123893805	8.10986842105
1394	0.697	-3.13	2.37419354839	-6.62123893805	6.70164473684
1395	0.6975	-0.285	-0.522580645161	-15.1168141593	2.47697368421
1396	0.698	-7.3975	-0.522580645161	-13.7008849558	-0.339473684211
1397	0.6985	-1.7075	-0.522580645161	-13.7008849558	1.06875
1398	0.699	-21.6225	-0.522580645161	-15.1168141593	-1.74769736842
1399	0.6995	-21.6225	0.925806451613	-15.1168141593	-1.74769736842
1400	0.7	-11.665	2.37419354839	-15.1168141593	5.29342105263
1401	0.7005	-15.9325	3.82258064516	-13.7008849558	5.29342105263
1402	0.701	-13.0875	0.925806451613	-16.5327433628	12.3345394737
1403	0.7015	-11.665	0.925806451613	-27.8601769912	17.9674342105
1404	0.702	-11.665	-0.522580645161	-25.0283185841	3.88519736842
1405	0.7025	-10.2425	-1.97096774194	-16.5327433628	3.88519736842
1406	0.703	-7.3975	6.71935483871	-15.1168141593	9.51809210526
1407	0.7035	-4.5525	5.27096774194	-16.5327433628	13.7427631579
1408	0.704	1.1375	2.37419354839	-16.5327433628	15.1509868421
1409	0.7045	-11.665	0.925806451613	-17.9486725664	9.51809210526
1410	0.705	21.0525	0.925806451613	-17.9486725664	9.51809210526
1411	0.7055	-4.5525	0.925806451613	-13.7008849558	9.51809210526
1412	0.706	5.405	-3.41935483871	-17.9486725664	5.29342105263
1413	0.7065	9.6725	-0.522580645161	-16.5327433628	8.10986842105
1414	0.707	8.25	2.37419354839	-0.957522123894	13.7427631579
1415	0.7075	3.9825	0.925806451613	-26.4442477876	9.51809210526
1416	0.708	3.9825	-0.522580645161	-17.9486725664	13.7427631579
1417	0.7085	1.1375	2.37419354839	-17.9486725664	8.10986842105
1418	0.709	11.095	-3.41935483871	-23.6123893805	6.70164473684
1419	0.7095	8.25	0.925806451613	-20.7805309735	13.7427631579
1420	0.71	-10.2425	-1.97096774194	-23.6123893805	9.51809210526
1421	0.7105	-5.975	0.925806451613	-25.0283185841	12.3345394737
1422	0.711	-0.285	-0.522580645161	-25.0283185841	25.0085526316
1423	0.7115	-0.285	-0.522580645161	-29.2761061947	9.51809210526
1424	0.712	1.1375	-0.522580645161	-32.1079646018	17.9674342105
1425	0.7125	2.56	-1.97096774194	-22.196460177	19.3756578947
1426	0.713	-0.285	2.37419354839	-22.196460177	15.1509868421
1427	0.7135	-3.13	-7.76451612903	-22.196460177	19.3756578947
1428	0.714	-0.285	9.61612903226	-19.3646017699	20.7838815789
1429	0.7145	-4.5525	8.16774193548	-16.5327433628	17.9674342105
1430	0.715	-11.665	-3.41935483871	-17.9486725664	17.9674342105
1431	0.7155	8.25	2.37419354839	-17.9486725664	20.7838815789
1432	0.716	-10.2425	0.925806451613	-22.196460177	22.1921052632
1433	0.7165	-10.2425	0.925806451613	-22.196460177	5.29342105263
1434	0.717	-7.3975	0.925806451613	-20.7805309735	5.29342105263
1435	0.7175	-10.2425	0.925806451613	-19.3646017699	9.51809210526
1436	0.718	-11.665	-0.522580645161	-12.2849557522	9.51809210526
1437	0.7185	-10.2425	3.82258064516	-22.196460177	3.88519736842
1438	0.719	-7.3975	-12.1096774194	-22.196460177	2.47697368421
1439	0.7195	-4.5525	-7.76451612903	-25.0283185841	2.47697368421
1440	0.72	-10.2425	-0.522580645161	-23.6123893805	-3.15592105263
1441	0.7205	-10.2425	-6.31612903226	-23.6123893805	-0.339473684211
1442	0.721	15.3625	-0.522580645161	-23.6123893805	2.47697368421
1443	0.7215	-4.5525	-0.522580645161	-23.6123893805	-0.339473684211
1444	0.722	2.56	-0.522580645161	-23.6123893805	-5.97236842105
1445	0.7225	9.6725	-0.522580645161	-29.2761061947	15.1509868421
1446	0.723	3.9825	0.925806451613	-20.7805309735	2.47697368421
1447	0.7235	11.095	-0.522580645161	-32.1079646018	1.06875
1448	0.724	9.6725	-10.6612903226	-23.6123893805	6.70164473684
1449	0.7245	3.9825	18.3064516129	-23.6123893805	15.1509868421
1450	0.725	5.405	13.9612903226	-23.6123893805	19.3756578947
1451	0.7255	5.405	-4.86774193548	-23.6123893805	17.9674342105
1452	0.726	13.94	0.925806451613	-22.196460177	22.1921052632
1453	0.7265	1.1375	-3.41935483871	-23.6123893805	9.51809210526
1454	0.727	-3.13	0.925806451613	-20.7805309735	6.70164473684
1455	0.7275	5.405	2.37419354839	-22.196460177	15.1509868421
1456	0.728	3.9825	0.925806451613	-23.6123893805	8.10986842105
1457	0.7285	1.1375	0.925806451613	-34.9398230088	5.29342105263
1458	0.729	1.1375	-1.97096774194	-34.9398230088	3.88519736842
1459	0.7295	-0.285	-1.97096774194	-26.4442477876	1.06875
1460	0.73	-3.13	-0.522580645161	-26.4442477876	-1.74769736842
1461	0.7305	-0.285	5.27096774194	-23.6123893805	-5.97236842105
1462	0.731	-13.0875	-0.522580645161	-26.4442477876	-5.97236842105
1463	0.7315	-17.355	2.37419354839	-23.6123893805	-3.15592105263
1464	0.732	13.94	0.925806451613	-22.196460177	5.29342105263
1465	0.7325	-13.0875	0.925806451613	-25.0283185841	15.1509868421
1466	0.733	-4.5525	0.925806451613	-19.3646017699	13.7427631579
1467	0.7335	-7.3975	-1.97096774194	-22.196460177	27.825
1468	0.734	-5.975	2.37419354839	-33.5238938053	19.3756578947
1469	0.7345	-7.3975	-1.97096774194	-30.6920353982	19.3756578947
1470	0.735	-4.5525	2.37419354839	-23.6123893805	22.1921052632
1471	0.7355	-4.5525	11.064516129	-25.0283185841	15.1509868421
1472	0.736	-4.5525	-4.86774193548	-23.6123893805	8.10986842105
1473	0.7365	-4.5525	-0.522580645161	-25.0283185841	2.47697368421
1474	0.737	-14.51	2.37419354839	-26.4442477876	-3.15592105263
1475	0.7375	16.785	-0.522580645161	-25.0283185841	-0.339473684211
1476	0.738	-11.665	-0.522580645161	-23.6123893805	-7.38059210526
1477	0.7385	2.56	0.925806451613	-29.2761061947	-3.15592105263
1478	0.739	3.9825	-1.97096774194	-20.7805309735	-0.339473684211
1479	0.7395	8.25	0.925806451613	-9.45309734513	5.29342105263
1480	0.74	1.1375	-1.97096774194	-32.1079646018	6.70164473684
1481	0.7405	3.9825	-3.41935483871	-22.196460177	5.29342105263
1482	0.741	5.405	-1.97096774194	-19.3646017699	6.70164473684
1483	0.7415	2.56	13.9612903226	-19.3646017699	5.29342105263
1484	0.742	6.8275	-3.41935483871	-16.5327433628	5.29342105263
1485	0.7425	-5.975	0.925806451613	-17.9486725664	2.47697368421
1486	0.743	-5.975	0.925806451613	-19.3646017699	1.06875
1487	0.7435	-8.82	-0.522580645161	-17.9486725664	8.10986842105
1488	0.744	-0.285	-1.97096774194	-19.3646017699	13.7427631579
1489	0.7445	1.1375	-0.522580645161	-29.2761061947	-0.339473684211
1490	0.745	1.1375	2.37419354839	-0.957522123894	-0.339473684211
1491	0.7455	-0.285	0.925806451613	-17.9486725664	-1.74769736842
1492	0.746	2.56	-4.86774193548	-20.7805309735	1.06875
1493	0.7465	2.56	5.27096774194	-17.9486725664	1.06875
1494	0.747	3.9825	-0.522580645161	-16.5327433628	1.06875
1495	0.7475	-8.82	-1.97096774194	-15.1168141593	-0.339473684211
1496	0.748	22.475	0.925806451613	-16.5327433628	8.10986842105
1497	0.7485	-10.2425	0.925806451613	-15.1168141593	3.88519736842
1498	0.749	1.1375	-0.522580645161	-16.5327433628	6.70164473684
1499	0.7495	-4.5525	0.925806451613	-16.5327433628	9.51809210526
1500	0.75	-4.5525	-1.97096774194	-3.78938053097	9.51809210526
1501	0.7505	-5.975	-1.97096774194	-26.4442477876	8.10986842105
1502	0.751	-7.3975	0.925806451613	-13.7008849558	6.70164473684
1503	0.7515	-10.2425	-9.21290322581	-13.7008849558	3.88519736842
1504	0.752	-10.2425	-9.21290322581	-13.7008849558	-0.339473684211
1505	0.7525	-5.975	0.925806451613	-12.2849557522	-1.74769736842
1506	0.753	-10.2425	-1.97096774194	-2.37345132743	1.06875
1507	0.7535	12.5175	-4.86774193548	-2.37345132743	1.06875
1508	0.754	-3.13	-0.522580645161	-2.37345132743	20.7838815789
1509	0.7545	-1.7075	-1.97096774194	-0.957522123894	2.47697368421
1510	0.755	-0.285	-0.522580645161	-8.03716814159	5.29342105263
1511	0.7555	2.56	-0.522580645161	16.0336283186	8.10986842105
1512	0.756	-0.285	2.37419354839	14.617699115	5.29342105263
1513	0.7565	1.1375	-6.31612903226	1.87433628319	5.29342105263
1514	0.757	3.9825	15.4096774194	0.458407079646	3.88519736842
1515	0.7575	3.9825	18.3064516129	-0.957522123894	3.88519736842
1516	0.758	2.56	-9.21290322581	-0.957522123894	6.70164473684
1517	0.7585	9.6725	-0.522580645161	-0.957522123894	15.1509868421
1518	0.759	-4.5525	-3.41935483871	1.87433628319	9.51809210526
1519	0.7595	-7.3975	-0.522580645161	4.70619469027	3.88519736842
1520	0.76	-0.285	-1.97096774194	-6.62123893805	12.3345394737
1521	0.7605	3.9825	-1.97096774194	20.2814159292	10.9263157895
1522	0.761	1.1375	0.925806451613	14.617699115	12.3345394737
1523	0.7615	-0.285	-0.522580645161	-2.37345132743	8.10986842105
1524	0.762	1.1375	2.37419354839	1.87433628319	8.10986842105
1525	0.7625	-0.285	-9.21290322581	1.87433628319	5.29342105263
1526	0.763	-5.975	-7.76451612903	0.458407079646	5.29342105263
1527	0.7635	-4.5525	-0.522580645161	1.87433628319	1.06875
1528	0.764	-10.2425	-1.97096774194	4.70619469027	-3.15592105263
1529	0.7645	1.1375	0.925806451613	0.458407079646	-1.74769736842
1530	0.765	-10.2425	-0.522580645161	-2.37345132743	17.9674342105
1531	0.7655	-8.82	0.925806451613	4.70619469027	-4.56414473684
1532	0.766	-14.51	-0.522580645161	4.70619469027	1.06875
1533	0.7665	-14.51	-1.97096774194	3.29026548673	3.88519736842
1534	0.767	-15.9325	-1.97096774194	30.192920354	2.47697368421
1535	0.7675	-13.0875	0.925806451613	13.2017699115	-0.339473684211
1536	0.768	-14.51	5.27096774194	13.2017699115	3.88519736842
1537	0.7685	-8.82	0.925806451613	7.53805309735	3.88519736842
1538	0.769	-18.7775	0.925806451613	4.70619469027	3.88519736842
1539	0.7695	-5.975	-1.97096774194	3.29026548673	5.29342105263
1540	0.77	-4.5525	-0.522580645161	4.70619469027	-3.15592105263
1541	0.7705	-5.975	-1.97096774194	1.87433628319	22.1921052632
1542	0.771	-3.13	0.925806451613	4.70619469027	5.29342105263
1543	0.7715	1.1375	2.37419354839	16.0336283186	5.29342105263
1544	0.772	2.56	-0.522580645161	4.70619469027	6.70164473684
1545	0.7725	1.1375	-3.41935483871	25.9451327434	8.10986842105
1546	0.773	3.9825	0.925806451613	8.95398230088	9.51809210526
1547	0.7735	2.56	13.9612903226	0.458407079646	5.29342105263
1548	0.774	3.9825	-4.86774193548	1.87433628319	5.29342105263
1549	0.7745	3.9825	-0.522580645161	-2.37345132743	5.29342105263
1550	0.775	-4.5525	-0.522580645161	1.87433628319	-13.0134868421
1551	0.7755	-3.13	-0.522580645161	-0.957522123894	-0.339473684211
1552	0.776	-3.13	0.925806451613	1.87433628319	6.70164473684
1553	0.7765	-5.975	3.82258064516	3.29026548673	-13.0134868421
1554	0.777	-5.975	-1.97096774194	6.12212389381	-3.15592105263
1555	0.7775	-4.5525	0.925806451613	-0.957522123894	-0.339473684211
1556	0.778	-3.13	3.82258064516	0.458407079646	2.47697368421
1557	0.7785	-4.5525	-12.1096774194	0.458407079646	5.29342105263
1558	0.779	-4.5525	-4.86774193548	-2.37345132743	5.29342105263
1559	0.7795	-4.5525	0.925806451613	-3.78938053097	8.10986842105
1560	0.78	-18.7775	-0.522580645161	-5.20530973451	5.29342105263
1561	0.7805	12.5175	0.925806451613	-6.62123893805	12.3345394737
1562	0.781	-15.9325	0.925806451613	-3.78938053097	15.1509868421
1563	0.7815	-7.3975	-0.522580645161	-6.62123893805	8.10986842105
1564	0.782	-5.975	0.925806451613	-12.2849557522	16.5592105263
1565	0.7825	-10.2425	-0.522580645161	7.53805309735	15.1509868421
1566	0.783	-14.51	3.82258064516	-16.5327433628	15.1509868421
1567	0.7835	-15.9325	-3.41935483871	-16.5327433628	15.1509868421
1568	0.784	-13.0875	2.37419354839	-8.03716814159	12.3345394737
1569	0.7845	-17.355	-3.41935483871	-9.45309734513	9.51809210526
1570	0.785	-10.2425	-0.522580645161	-6.62123893805	3.88519736842
1571	0.7855	-10.2425	-0.522580645161	-3.78938053097	2.47697368421
1572	0.786	-5.975	0.925806451613	-0.957522123894	3.88519736842
1573	0.7865	-5.975	0.925806451613	-2.37345132743	17.9674342105
1574	0.787	-4.5525	0.925806451613	-2.37345132743	-7.38059210526
1575	0.7875	-4.5525	-1.97096774194	-3.78938053097	3.88519736842
1576	0.788	-3.13	0.925806451613	-0.957522123894	6.70164473684
1577	0.7885	1.1375	2.37419354839	-0.957522123894	5.29342105263
1578	0.789	2.56	-10.6612903226	-2.37345132743	15.1509868421
1579	0.7895	2.56	16.8580645161	-3.78938053097	15.1509868421
1580	0.79	2.56	13.9612903226	-0.957522123894	16.5592105263
1581	0.7905	3.9825	-4.86774193548	-2.37345132743	15.1509868421
1582	0.791	21.0525	-3.41935483871	-0.957522123894	15.1509868421
1583	0.7915	19.63	0.925806451613	-9.45309734513	13.7427631579
1584	0.792	-1.7075	-0.522580645161	-9.45309734513	8.10986842105
1585	0.7925	-3.13	-1.97096774194	-16.5327433628	3.88519736842
1586	0.793	-1.7075	0.925806451613	-17.9486725664	5.29342105263
1587	0.7935	-1.7075	0.925806451613	4.70619469027	15.1509868421
1588	0.794	-4.5525	-1.97096774194	-10.8690265487	12.3345394737
1589	0.7945	-1.7075	5.27096774194	-12.2849557522	8.10986842105
1590	0.795	-1.7075	15.4096774194	-15.1168141593	9.51809210526
1591	0.7955	-7.3975	-9.21290322581	-13.7008849558	16.5592105263
1592	0.796	-13.0875	0.925806451613	-16.5327433628	15.1509868421
1593	0.7965	1.1375	-3.41935483871	-16.5327433628	15.1509868421
1594	0.797	-11.665	0.925806451613	-16.5327433628	3.88519736842
1595	0.7975	-4.5525	-0.522580645161	-20.7805309735	32.0496710526
1596	0.798	-4.5525	-0.522580645161	-26.4442477876	9.51809210526
1597	0.7985	-7.3975	-3.41935483871	-13.7008849558	12.3345394737
1598	0.799	-8.82	-1.97096774194	-3.78938053097	9.51809210526
1599	0.7995	-11.665	-0.522580645161	-16.5327433628	12.3345394737
1600	0.8	-14.51	3.82258064516	-17.9486725664	15.1509868421
1601	0.8005	-15.9325	-9.21290322581	-17.9486725664	16.5592105263
1602	0.801	-11.665	-0.522580645161	-19.3646017699	20.7838815789
1603	0.8015	-15.9325	-9.21290322581	-17.9486725664	13.7427631579
1604	0.802	-18.7775	0.925806451613	-19.3646017699	25.0085526316
1605	0.8025	-15.9325	-0.522580645161	-20.7805309735	30.6414473684
1606	0.803	-10.2425	-0.522580645161	-17.9486725664	9.51809210526
1607	0.8035	-8.82	-0.522580645161	-27.8601769912	13.7427631579
1608	0.804	-5.975	-0.522580645161	-17.9486725664	8.10986842105
1609	0.8045	-3.13	0.925806451613	-20.7805309735	16.5592105263
1610	0.805	-4.5525	-9.21290322581	-22.196460177	15.1509868421
1611	0.8055	-0.285	16.8580645161	-25.0283185841	8.10986842105
1612	0.806	1.1375	2.37419354839	-23.6123893805	8.10986842105
1613	0.8065	-4.5525	-1.97096774194	-25.0283185841	3.88519736842
1614	0.807	5.405	-0.522580645161	-27.8601769912	3.88519736842
1615	0.8075	3.9825	-0.522580645161	-27.8601769912	2.47697368421
1616	0.808	3.9825	-0.522580645161	-19.3646017699	-0.339473684211
1617	0.8085	3.9825	-1.97096774194	-34.9398230088	12.3345394737
1618	0.809	1.1375	-1.97096774194	-29.2761061947	9.51809210526
1619	0.8095	2.56	-1.97096774194	-30.6920353982	8.10986842105
1620	0.81	-1.7075	-12.1096774194	-27.8601769912	13.7427631579
1621	0.8105	-1.7075	-13.5580645161	-27.8601769912	16.5592105263
1622	0.811	-1.7075	15.4096774194	-29.2761061947	19.3756578947
1623	0.8115	-3.13	-0.522580645161	-27.8601769912	20.7838815789
1624	0.812	-17.355	-0.522580645161	-30.6920353982	13.7427631579
1625	0.8125	11.095	-0.522580645161	-29.2761061947	17.9674342105
1626	0.813	8.25	0.925806451613	-29.2761061947	13.7427631579
1627	0.8135	-14.51	-0.522580645161	-30.6920353982	8.10986842105
1628	0.814	-7.3975	-0.522580645161	-34.9398230088	2.47697368421
1629	0.8145	-4.5525	2.37419354839	-19.3646017699	6.70164473684
1630	0.815	-4.5525	0.925806451613	-29.2761061947	6.70164473684
1631	0.8155	-7.3975	-1.97096774194	-25.0283185841	6.70164473684
1632	0.816	-10.2425	0.925806451613	-26.4442477876	3.88519736842
1633	0.8165	-13.0875	16.8580645161	-29.2761061947	3.88519736842
1634	0.817	-15.9325	-7.76451612903	-25.0283185841	1.06875
1635	0.8175	-11.665	3.82258064516	-26.4442477876	1.06875
1636	0.818	-21.6225	-3.41935483871	-26.4442477876	1.06875
1637	0.8185	-13.0875	-0.522580645161	-27.8601769912	19.3756578947
1638	0.819	-7.3975	-0.522580645161	-26.4442477876	19.3756578947
1639	0.8195	-7.3975	-0.522580645161	-23.6123893805	-8.78881578947
1640	0.82	-4.5525	-1.97096774194	-27.8601769912	17.9674342105
1641	0.8205	-4.5525	-0.522580645161	-22.196460177	5.29342105263
1642	0.821	-3.13	0.925806451613	-29.2761061947	8.10986842105
1643	0.8215	-3.13	-12.1096774194	-23.6123893805	12.3345394737
1644	0.822	1.1375	21.2032258065	-26.4442477876	9.51809210526
1645	0.8225	3.9825	18.3064516129	-27.8601769912	12.3345394737
1646	0.823	-1.7075	0.925806451613	-29.2761061947	6.70164473684
1647	0.8235	1.1375	0.925806451613	-29.2761061947	6.70164473684
1648	0.824	8.25	-0.522580645161	-25.0283185841	-3.15592105263
1649	0.8245	2.56	-0.522580645161	-26.4442477876	20.7838815789
1650	0.825	2.56	-0.522580645161	-29.2761061947	-5.97236842105
1651	0.8255	-0.285	0.925806451613	-15.1168141593	1.06875
1652	0.826	1.1375	0.925806451613	-34.9398230088	-1.74769736842
1653	0.8265	-0.285	0.925806451613	-26.4442477876	-0.339473684211
1654	0.827	-0.285	-9.21290322581	-26.4442477876	-0.339473684211
1655	0.8275	1.1375	15.4096774194	-26.4442477876	-0.339473684211
1656	0.828	1.1375	-1.97096774194	-22.196460177	2.47697368421
1657	0.8285	-10.2425	-1.97096774194	-22.196460177	1.06875
1658	0.829	-4.5525	0.925806451613	-26.4442477876	5.29342105263
1659	0.8295	1.1375	-1.97096774194	-23.6123893805	6.70164473684
1660	0.83	-5.975	0.925806451613	-25.0283185841	9.51809210526
1661	0.8305	-3.13	-0.522580645161	-37.7716814159	3.88519736842
1662	0.831	-3.13	-0.522580645161	-37.7716814159	-0.339473684211
1663	0.8315	-1.7075	2.37419354839	-13.7008849558	9.51809210526
1664	0.832	-4.5525	0.925806451613	-37.7716814159	9.51809210526
1665	0.8325	-8.82	-1.97096774194	-37.7716814159	13.7427631579
1666	0.833	-10.2425	8.16774193548	-29.2761061947	15.1509868421
1667	0.8335	-15.9325	-6.31612903226	-30.6920353982	15.1509868421
1668	0.834	-23.045	0.925806451613	-30.6920353982	9.51809210526
1669	0.8345	1.1375	-0.522580645161	-29.2761061947	9.51809210526
1670	0.835	-20.2	-0.522580645161	-33.5238938053	6.70164473684
1671	0.8355	-15.9325	0.925806451613	-36.3557522124	6.70164473684
1672	0.836	-10.2425	-1.97096774194	-33.5238938053	-0.339473684211
1673	0.8365	-4.5525	0.925806451613	-17.9486725664	8.10986842105
1674	0.837	-4.5525	0.925806451613	-39.1876106195	5.29342105263
1675	0.8375	-1.7075	-0.522580645161	-34.9398230088	5.29342105263
1676	0.838	-1.7075	-0.522580645161	-19.3646017699	6.70164473684
1677	0.8385	-3.13	0.925806451613	-27.8601769912	5.29342105263
1678	0.839	3.9825	0.925806451613	-29.2761061947	3.88519736842
1679	0.8395	5.405	0.925806451613	-30.6920353982	5.29342105263
1680	0.84	23.8975	0.925806451613	-29.2761061947	12.3345394737
1681	0.8405	-5.975	-0.522580645161	-29.2761061947	1.06875
1682	0.841	5.405	-0.522580645161	-32.1079646018	26.4167763158
1683	0.8415	1.1375	-0.522580645161	-32.1079646018	5.29342105263
1684	0.842	3.9825	0.925806451613	-33.5238938053	12.3345394737
1685	0.8425	2.56	0.925806451613	-15.1168141593	12.3345394737
1686	0.843	1.1375	5.27096774194	-34.9398230088	6.70164473684
1687	0.8435	-1.7075	-1.97096774194	-34.9398230088	3.88519736842
1688	0.844	-3.13	-10.6612903226	-26.4442477876	2.47697368421
1689	0.8445	-5.975	15.4096774194	-29.2761061947	-1.74769736842
1690	0.845	-10.2425	0.925806451613	-29.2761061947	-1.74769736842
1691	0.8455	11.095	0.925806451613	-29.2761061947	-0.339473684211
1692	0.846	12.5175	-1.97096774194	-30.6920353982	1.06875
1693	0.8465	-7.3975	-1.97096774194	-34.9398230088	-5.97236842105
1694	0.847	-4.5525	0.925806451613	-30.6920353982	-5.97236842105
1695	0.8475	-7.3975	-0.522580645161	-30.6920353982	12.3345394737
1696	0.848	-7.3975	-1.97096774194	-23.6123893805	-7.38059210526
1697	0.8485	-5.975	2.37419354839	-30.6920353982	-3.15592105263
1698	0.849	-8.82	-12.1096774194	-29.2761061947	-5.97236842105
1699	0.8495	-11.665	8.16774193548	-29.2761061947	-1.74769736842
1700	0.85	-10.2425	3.82258064516	-26.4442477876	-1.74769736842
1701	0.8505	1.1375	-1.97096774194	-29.2761061947	5.29342105263
1702	0.851	3.9825	0.925806451613	-30.6920353982	5.29342105263
1703	0.8515	-20.2	-0.522580645161	-29.2761061947	-4.56414473684
1704	0.852	-10.2425	-0.522580645161	-32.1079646018	22.1921052632
1705	0.8525	-7.3975	-0.522580645161	-29.2761061947	-0.339473684211
1706	0.853	-5.975	-1.97096774194	-30.6920353982	9.51809210526
1707	0.8535	-5.975	-1.97096774194	-30.6920353982	8.10986842105
1708	0.854	-3.13	-0.522580645161	-30.6920353982	3.88519736842
1709	0.8545	-3.13	-9.21290322581	-30.6920353982	3.88519736842
1710	0.855	-0.285	6.71935483871	-32.1079646018	3.88519736842
1711	0.8555	-5.975	-0.522580645161	-30.6920353982	5.29342105263
1712	0.856	-8.82	0.925806451613	-32.1079646018	3.88519736842
1713	0.8565	23.8975	-0.522580645161	-30.6920353982	6.70164473684
1714	0.857	-5.975	-1.97096774194	-29.2761061947	5.29342105263
1715	0.8575	3.9825	0.925806451613	-30.6920353982	9.51809210526
1716	0.858	3.9825	0.925806451613	-40.603539823	9.51809210526
1717	0.8585	1.1375	-1.97096774194	-26.4442477876	9.51809210526
1718	0.859	-0.285	-1.97096774194	-39.1876106195	15.1509868421
1719	0.8595	-0.285	-10.6612903226	-29.2761061947	15.1509868421
1720	0.86	-1.7075	16.8580645161	-27.8601769912	8.10986842105
1721	0.8605	-4.5525	8.16774193548	-27.8601769912	12.3345394737
1722	0.861	-4.5525	-3.41935483871	-29.2761061947	13.7427631579
1723	0.8615	13.94	-3.41935483871	-26.4442477876	15.1509868421
1724	0.862	-15.9325	-0.522580645161	-26.4442477876	3.88519736842
1725	0.8625	-13.0875	-0.522580645161	-26.4442477876	6.70164473684
1726	0.863	-7.3975	-0.522580645161	-25.0283185841	3.88519736842
1727	0.8635	-7.3975	-1.97096774194	-23.6123893805	8.10986842105
1728	0.864	-5.975	0.925806451613	-34.9398230088	15.1509868421
1729	0.8645	-10.2425	-1.97096774194	-33.5238938053	13.7427631579
1730	0.865	-10.2425	0.925806451613	-20.7805309735	12.3345394737
1731	0.8655	-8.82	-7.76451612903	-27.8601769912	15.1509868421
1732	0.866	-13.0875	-12.1096774194	-29.2761061947	15.1509868421
1733	0.8665	-15.9325	-0.522580645161	-27.8601769912	15.1509868421
1734	0.867	-14.51	-7.76451612903	-27.8601769912	16.5592105263
1735	0.8675	-20.2	-0.522580645161	-25.0283185841	20.7838815789
1736	0.868	-15.9325	-1.97096774194	-27.8601769912	20.7838815789
1737	0.8685	-14.51	-0.522580645161	-30.6920353982	5.29342105263
1738	0.869	-10.2425	-0.522580645161	-13.7008849558	16.5592105263
1739	0.8695	-10.2425	-1.97096774194	-23.6123893805	9.51809210526
1740	0.87	-10.2425	0.925806451613	-30.6920353982	9.51809210526
1741	0.8705	-7.3975	-13.5580645161	-27.8601769912	6.70164473684
1742	0.871	-8.82	-10.6612903226	-30.6920353982	5.29342105263
1743	0.8715	-5.975	11.064516129	-29.2761061947	2.47697368421
1744	0.872	-11.665	-0.522580645161	-26.4442477876	5.29342105263
1745	0.8725	-5.975	-0.522580645161	-29.2761061947	5.29342105263
1746	0.873	-4.5525	-0.522580645161	-29.2761061947	15.1509868421
1747	0.8735	-3.13	-0.522580645161	-29.2761061947	-8.78881578947
1748	0.874	2.56	2.37419354839	-25.0283185841	-11.6052631579
1749	0.8745	2.56	2.37419354839	-33.5238938053	-4.56414473684
1750	0.875	1.1375	-0.522580645161	-34.9398230088	-10.1970394737
1751	0.8755	-1.7075	2.37419354839	-25.0283185841	-5.97236842105
1752	0.876	-1.7075	-9.21290322581	-27.8601769912	-4.56414473684
1753	0.8765	1.1375	16.8580645161	-27.8601769912	-1.74769736842
1754	0.877	-3.13	-6.31612903226	-26.4442477876	1.06875
1755	0.8775	-10.2425	0.925806451613	-27.8601769912	-0.339473684211
1756	0.878	-5.975	-0.522580645161	-27.8601769912	3.88519736842
1757	0.8785	2.56	0.925806451613	-25.0283185841	-1.74769736842
1758	0.879	-3.13	-1.97096774194	-27.8601769912	8.10986842105
1759	0.8795	-7.3975	-1.97096774194	-37.7716814159	5.29342105263
1760	0.88	-5.975	-0.522580645161	-13.7008849558	6.70164473684
1761	0.8805	-5.975	0.925806451613	-16.5327433628	8.10986842105
1762	0.881	-11.665	0.925806451613	-34.9398230088	12.3345394737
1763	0.8815	-11.665	2.37419354839	-32.1079646018	9.51809210526
1764	0.882	-8.82	-9.21290322581	-30.6920353982	10.9263157895
1765	0.8825	-14.51	-9.21290322581	-29.2761061947	9.51809210526
1766	0.883	-15.9325	-1.97096774194	-29.2761061947	12.3345394737
1767	0.8835	-18.7775	0.925806451613	-26.4442477876	17.9674342105
1768	0.884	-15.9325	0.925806451613	-27.8601769912	17.9674342105
1769	0.8845	-17.355	-1.97096774194	-29.2761061947	33.4578947368
1770	0.885	-17.355	0.925806451613	-26.4442477876	12.3345394737
1771	0.8855	-17.355	-0.522580645161	-26.4442477876	29.2332236842
1772	0.886	-13.0875	-1.97096774194	-26.4442477876	16.5592105263
1773	0.8865	-13.0875	5.27096774194	-26.4442477876	16.5592105263
1774	0.887	-11.665	-9.21290322581	-27.8601769912	15.1509868421
1775	0.8875	-8.82	6.71935483871	-26.4442477876	12.3345394737
1776	0.888	-7.3975	-1.97096774194	-26.4442477876	6.70164473684
1777	0.8885	-15.9325	0.925806451613	-27.8601769912	8.10986842105
1778	0.889	15.3625	0.925806451613	-26.4442477876	-0.339473684211
1779	0.8895	-7.3975	2.37419354839	-25.0283185841	-3.15592105263
1780	0.89	-5.975	0.925806451613	-26.4442477876	-3.15592105263
1781	0.8905	1.1375	2.37419354839	-12.2849557522	-7.38059210526
1782	0.891	1.1375	0.925806451613	-22.196460177	-17.2381578947
1783	0.8915	-0.285	0.925806451613	-32.1079646018	-10.1970394737
1784	0.892	-3.13	3.82258064516	-23.6123893805	-10.1970394737
1785	0.8925	-3.13	2.37419354839	-30.6920353982	-5.97236842105
1786	0.893	-1.7075	18.3064516129	-27.8601769912	-7.38059210526
1787	0.8935	-4.5525	-7.76451612903	-30.6920353982	-3.15592105263
1788	0.894	-3.13	-1.97096774194	-27.8601769912	-3.15592105263
1789	0.8945	-5.975	-0.522580645161	-27.8601769912	-1.74769736842
1790	0.895	-5.975	-0.522580645161	-25.0283185841	17.9674342105
1791	0.8955	-5.975	2.37419354839	-25.0283185841	6.70164473684
1792	0.896	-4.5525	-1.97096774194	-32.1079646018	-4.56414473684
1793	0.8965	-5.975	-0.522580645161	-17.9486725664	5.29342105263
1794	0.897	-3.13	-3.41935483871	-20.7805309735	8.10986842105
1795	0.8975	-0.285	0.925806451613	-29.2761061947	8.10986842105
1796	0.898	-0.285	-6.31612903226	-25.0283185841	6.70164473684
1797	0.8985	-4.5525	-10.6612903226	-23.6123893805	3.88519736842
1798	0.899	-5.975	-0.522580645161	-26.4442477876	5.29342105263
1799	0.8995	-4.5525	-0.522580645161	-26.4442477876	5.29342105263
1800	0.9	-1.7075	0.925806451613	-25.0283185841	6.70164473684
1801	0.9005	-13.0875	-0.522580645161	-25.0283185841	-8.78881578947
1802	0.901	-10.2425	0.925806451613	-25.0283185841	-5.97236842105
1803	0.9015	-11.665	-0.522580645161	-29.2761061947	17.9674342105
1804	0.902	-8.82	0.925806451613	-29.2761061947	1.06875
1805	0.9025	-10.2425	-12.1096774194	-26.4442477876	1.06875
1806	0.903	-7.3975	-10.6612903226	-25.0283185841	1.06875
1807	0.9035	-5.975	18.3064516129	-27.8601769912	1.06875
1808	0.904	-4.5525	-6.31612903226	-27.8601769912	-1.74769736842
1809	0.9045	1.1375	-0.522580645161	-27.8601769912	-0.339473684211
1810	0.905	13.94	2.37419354839	-23.6123893805	-0.339473684211
1811	0.9055	-4.5525	0.925806451613	-20.7805309735	-14.4217105263
1812	0.906	3.9825	0.925806451613	-23.6123893805	6.70164473684
1813	0.9065	3.9825	-1.97096774194	-20.7805309735	-13.0134868421
1814	0.907	5.405	-1.97096774194	-23.6123893805	-8.78881578947
1815	0.9075	8.25	-1.97096774194	-25.0283185841	-7.38059210526
1816	0.908	9.6725	0.925806451613	-25.0283185841	-8.78881578947
1817	0.9085	3.9825	2.37419354839	-26.4442477876	-7.38059210526
1818	0.909	3.9825	9.61612903226	-25.0283185841	-3.15592105263
1819	0.9095	5.405	-4.86774193548	-26.4442477876	-0.339473684211
1820	0.91	-10.2425	-1.97096774194	-27.8601769912	1.06875
1821	0.9105	-7.3975	0.925806451613	-27.8601769912	2.47697368421
1822	0.911	1.1375	0.925806451613	-30.6920353982	-8.78881578947
1823	0.9115	-0.285	-1.97096774194	-23.6123893805	-8.78881578947
1824	0.912	-3.13	-0.522580645161	-26.4442477876	-3.15592105263
1825	0.9125	-4.5525	0.925806451613	-25.0283185841	5.29342105263
1826	0.913	-4.5525	0.925806451613	-22.196460177	12.3345394737
1827	0.9135	-1.7075	-3.41935483871	-30.6920353982	8.10986842105
1828	0.914	-4.5525	-6.31612903226	-19.3646017699	12.3345394737
1829	0.9145	-1.7075	-1.97096774194	-20.7805309735	12.3345394737
1830	0.915	-17.355	0.925806451613	-23.6123893805	5.29342105263
1831	0.9155	-21.6225	-0.522580645161	-23.6123893805	3.88519736842
1832	0.916	-10.2425	2.37419354839	-23.6123893805	17.9674342105
1833	0.9165	-14.51	2.37419354839	-17.9486725664	-4.56414473684
1834	0.917	-14.51	0.925806451613	-27.8601769912	-5.97236842105
1835	0.9175	-14.51	-0.522580645161	-16.5327433628	-11.6052631579
1836	0.918	-13.0875	0.925806451613	-16.5327433628	-17.2381578947
1837	0.9185	-10.2425	-4.86774193548	-16.5327433628	-13.0134868421
1838	0.919	-7.3975	-10.6612903226	-15.1168141593	-17.2381578947
1839	0.9195	-7.3975	5.27096774194	-13.7008849558	-18.6463815789
1840	0.92	-7.3975	15.4096774194	-12.2849557522	-22.8710526316
1841	0.9205	-11.665	0.925806451613	-15.1168141593	-27.0957236842
1842	0.921	15.3625	0.925806451613	-16.5327433628	-24.2792763158
1843	0.9215	-0.285	0.925806451613	-15.1168141593	-27.0957236842
1844	0.922	2.56	0.925806451613	-15.1168141593	-42.5861842105
1845	0.9225	3.9825	0.925806451613	-16.5327433628	-41.1779605263
1846	0.923	3.9825	3.82258064516	-8.03716814159	-38.3615131579
1847	0.9235	3.9825	5.27096774194	-10.8690265487	-42.5861842105
1848	0.924	3.9825	-9.21290322581	-10.8690265487	-46.8108552632
1849	0.9245	11.095	-7.76451612903	-8.03716814159	-48.2190789474
1850	0.925	9.6725	6.71935483871	-3.78938053097	-51.0355263158
1851	0.9255	-1.7075	0.925806451613	-3.78938053097	-52.44375
1852	0.926	-4.5525	0.925806451613	-0.957522123894	-51.0355263158
1853	0.9265	26.7425	0.925806451613	-0.957522123894	-49.6273026316
1854	0.927	-1.7075	3.82258064516	-2.37345132743	-45.4026315789
1855	0.9275	3.9825	0.925806451613	-9.45309734513	-46.8108552632
1856	0.928	5.405	-1.97096774194	1.87433628319	-52.44375
1857	0.9285	5.405	0.925806451613	11.785840708	-41.1779605263
1858	0.929	3.9825	0.925806451613	-0.957522123894	-39.7697368421
1859	0.9295	1.1375	15.4096774194	-2.37345132743	-42.5861842105
1860	0.93	3.9825	18.3064516129	-3.78938053097	-38.3615131579
1861	0.9305	2.56	-6.31612903226	-2.37345132743	-29.9121710526
1862	0.931	11.095	-0.522580645161	-5.20530973451	-27.0957236842
1863	0.9315	-4.5525	-0.522580645161	-3.78938053097	-39.7697368421
1864	0.932	-7.3975	0.925806451613	-2.37345132743	-36.9532894737
1865	0.9325	-1.7075	-0.522580645161	-3.78938053097	-21.4628289474
1866	0.933	1.1375	-0.522580645161	-8.03716814159	-39.7697368421
1867	0.9335	-0.285	-0.522580645161	-5.20530973451	-36.9532894737
1868	0.934	-1.7075	0.925806451613	-0.957522123894	-39.7697368421
1869	0.9345	-0.285	-3.41935483871	1.87433628319	-45.4026315789
1870	0.935	2.56	3.82258064516	3.29026548673	-45.4026315789
1871	0.9355	2.56	-4.86774193548	4.70619469027	-42.5861842105
1872	0.936	-10.2425	0.925806451613	-0.957522123894	-35.5450657895
1873	0.9365	21.0525	-0.522580645161	-2.37345132743	-21.4628289474
1874	0.937	18.2075	0.925806451613	-5.20530973451	-5.97236842105
1875	0.9375	-1.7075	-3.41935483871	-6.62123893805	13.7427631579
1876	0.938	9.6725	-0.522580645161	-17.9486725664	26.4167763158
1877	0.9385	11.095	-1.97096774194	4.70619469027	41.9072368421
1878	0.939	12.5175	-4.86774193548	-23.6123893805	53.1730263158
1879	0.9395	12.5175	-3.41935483871	-19.3646017699	71.4799342105
1880	0.94	9.6725	-10.6612903226	-23.6123893805	86.9703947368
1881	0.9405	11.095	5.27096774194	-27.8601769912	106.685526316
1882	0.941	13.94	-7.76451612903	-29.2761061947	126.400657895
1883	0.9415	-7.3975	-6.31612903226	-33.5238938053	147.524013158
1884	0.942	-7.3975	-6.31612903226	-32.1079646018	165.830921053
1885	0.9425	3.9825	-9.21290322581	-33.5238938053	196.811842105
1886	0.943	3.9825	-7.76451612903	-37.7716814159	191.178947368
1887	0.9435	1.1375	-6.31612903226	-37.7716814159	212.302302632
1888	0.944	-0.285	-6.31612903226	-37.7716814159	227.792763158
1889	0.9445	1.1375	-7.76451612903	-49.0991150442	240.466776316
1890	0.945	-0.285	-3.41935483871	-49.0991150442	253.140789474
1891	0.9455	1.1375	8.16774193548	-51.9309734513	270.039473684
1892	0.946	-4.5525	-15.0064516129	-53.3469026549	282.713486842
1893	0.9465	-4.5525	-6.31612903226	-56.1787610619	292.571052632
1894	0.947	15.3625	-10.6612903226	-56.1787610619	303.836842105
1895	0.9475	-14.51	-7.76451612903	-53.3469026549	298.203947368
1896	0.948	-7.3975	-4.86774193548	-57.5946902655	330.593092105
1897	0.9485	-5.975	-6.31612903226	-56.1787610619	312.286184211
1898	0.949	-8.82	-6.31612903226	-53.3469026549	316.510855263
1899	0.9495	-10.2425	-6.31612903226	-59.010619469	323.551973684
1900	0.95	-8.82	-4.86774193548	-56.1787610619	319.327302632
1901	0.9505	-15.9325	-16.4548387097	-53.3469026549	319.327302632
1902	0.951	-13.0875	9.61612903226	-56.1787610619	309.469736842
1903	0.9515	-14.51	-15.0064516129	-56.1787610619	308.061513158
1904	0.952	-20.2	-7.76451612903	-59.010619469	305.245065789
1905	0.9525	-5.975	-7.76451612903	-60.4265486726	308.061513158
1906	0.953	-8.82	-6.31612903226	-63.2584070796	298.203947368
1907	0.9535	-15.9325	-6.31612903226	-67.5061946903	315.102631579
1908	0.954	-10.2425	-6.31612903226	-66.0902654867	289.754605263
1909	0.9545	-11.665	-6.31612903226	-70.3380530973	284.121710526
1910	0.955	-15.9325	-1.97096774194	-76.0017699115	278.488815789
1911	0.9555	-13.0875	-1.97096774194	-76.0017699115	267.223026316
1912	0.956	-11.665	5.27096774194	-73.1699115044	254.549013158
1913	0.9565	-15.9325	-12.1096774194	-74.585840708	246.099671053
1914	0.957	-15.9325	-6.31612903226	-76.0017699115	236.242105263
1915	0.9575	-24.4675	-3.41935483871	-81.6654867257	224.976315789
1916	0.958	-24.4675	-4.86774193548	-87.3292035398	230.609210526
1917	0.9585	-24.4675	-0.522580645161	-90.1610619469	195.403618421
1918	0.959	-27.3125	-1.97096774194	-88.7451327434	178.504934211
1919	0.9595	-33.0025	-1.97096774194	-92.992920354	179.913157895
1920	0.96	-33.0025	-0.522580645161	-100.072566372	150.340460526
1921	0.9605	-34.425	-0.522580645161	-91.5769911504	140.482894737
1922	0.961	-35.8475	-7.76451612903	-92.992920354	130.625328947
1923	0.9615	-37.27	-4.86774193548	-94.4088495575	124.992434211
1924	0.962	-34.425	-1.97096774194	-95.8247787611	115.134868421
1925	0.9625	-34.425	0.925806451613	-94.4088495575	106.685526316
1926	0.963	-47.2275	-1.97096774194	-92.992920354	92.6032894737
1927	0.9635	-45.805	-0.522580645161	-91.5769911504	78.5210526316
1928	0.964	-42.96	0.925806451613	-88.7451327434	65.8470394737
1929	0.9645	-42.96	-0.522580645161	-85.9132743363	75.7046052632
1930	0.965	-44.3825	2.37419354839	-98.6566371681	64.4388157895
