	Time	Channel 1	Channel 2	Channel 3	Channel 4
0	0.0	-20.4090909091	-10.5263157895	-1.4	7.42389210019
1	0.0005	-24.6609090909	-9.08684210526	0.0375	10.2369942197
2	0.001	-30.33	-1.88947368421	-2.8375	15.8631984586
3	0.0015	-30.33	-4.76842105263	0.0375	1.79768786127
4	0.002	-30.33	9.62631578947	1.475	21.4894026975
5	0.0025	-34.5818181818	0.989473684211	2.9125	17.2697495183
6	0.003	-28.9127272727	-10.5263157895	0.0375	3.204238921
7	0.0035	-17.5745454545	-0.45	0.0375	13.0500963391
8	0.004	-28.9127272727	-0.45	0.0375	11.6435452794
9	0.0045	-16.1572727273	-13.4052631579	0.0375	13.0500963391
10	0.005	-16.1572727273	5.30789473684	1.475	13.0500963391
11	0.0055	-9.07090909091	6.74736842105	1.475	13.0500963391
12	0.006	-4.81909090909	-4.76842105263	1.475	8.83044315992
13	0.0065	3.68454545455	-1.88947368421	14.4125	10.2369942197
14	0.007	9.35363636364	3.86842105263	1.475	10.2369942197
15	0.0075	7.93636363636	15.3842105263	-1.4	8.83044315992
16	0.008	5.10181818182	9.62631578947	0.0375	8.83044315992
17	0.0085	5.10181818182	-4.76842105263	4.35	8.83044315992
18	0.009	10.7709090909	-9.08684210526	-1.4	10.2369942197
19	0.0095	13.6054545455	-0.45	0.0375	7.42389210019
20	0.01	20.6918181818	-1.88947368421	1.475	7.42389210019
21	0.0105	17.8572727273	-4.76842105263	0.0375	7.42389210019
22	0.011	0.85	-1.88947368421	1.475	14.4566473988
23	0.0115	-4.81909090909	-3.32894736842	1.475	10.2369942197
24	0.012	-4.81909090909	-1.88947368421	1.475	14.4566473988
25	0.0125	-9.07090909091	-3.32894736842	4.35	0.391136801541
26	0.013	-10.4881818182	-1.88947368421	0.0375	-1.01541425819
27	0.0135	-9.07090909091	-3.32894736842	8.6625	6.01734104046
28	0.014	-13.3227272727	-1.88947368421	-10.025	1.79768786127
29	0.0145	-14.74	-1.88947368421	-7.15	7.42389210019
30	0.015	-16.1572727273	-1.88947368421	0.0375	8.83044315992
31	0.0155	-17.5745454545	-13.4052631579	1.475	8.83044315992
32	0.016	-20.4090909091	-14.8447368421	4.35	8.83044315992
33	0.0165	-21.8263636364	-3.32894736842	-1.4	7.42389210019
34	0.017	-24.6609090909	9.62631578947	-1.4	8.83044315992
35	0.0175	-33.1645454545	-1.88947368421	-1.4	8.83044315992
36	0.018	-45.92	-4.76842105263	0.0375	8.83044315992
37	0.0185	-50.1718181818	-6.20789473684	1.475	10.2369942197
38	0.019	-44.5027272727	-3.32894736842	1.475	8.83044315992
39	0.0195	-33.1645454545	-1.88947368421	0.0375	13.0500963391
40	0.02	-35.9990909091	-3.32894736842	1.475	1.79768786127
41	0.0205	-30.33	-1.88947368421	1.475	8.83044315992
42	0.021	-27.4954545455	-0.45	-1.4	20.0828516378
43	0.0215	-20.4090909091	-4.76842105263	-1.4	15.8631984586
44	0.022	-16.1572727273	-3.32894736842	-1.4	31.3352601156
45	0.0225	-13.3227272727	-0.45	1.475	14.4566473988
46	0.023	-6.23636363636	0.989473684211	15.85	10.2369942197
47	0.0235	0.85	0.989473684211	20.1625	10.2369942197
48	0.024	3.68454545455	-3.32894736842	7.225	10.2369942197
49	0.0245	2.26727272727	-6.20789473684	-1.4	10.2369942197
50	0.025	-1.98454545455	-9.08684210526	-7.15	10.2369942197
51	0.0255	2.26727272727	-4.76842105263	-1.4	8.83044315992
52	0.026	0.85	8.18684210526	0.0375	11.6435452794
53	0.0265	-4.81909090909	16.8236842105	-1.4	7.42389210019
54	0.027	-6.23636363636	6.74736842105	1.475	6.01734104046
55	0.0275	-13.3227272727	-9.08684210526	1.475	7.42389210019
56	0.028	-21.8263636364	-4.76842105263	0.0375	8.83044315992
57	0.0285	-11.9054545455	-4.76842105263	0.0375	7.42389210019
58	0.029	-4.81909090909	-3.32894736842	0.0375	4.61078998073
59	0.0295	3.68454545455	-1.88947368421	1.475	4.61078998073
60	0.03	-24.6609090909	-1.88947368421	-1.4	3.204238921
61	0.0305	-20.4090909091	-3.32894736842	1.475	8.83044315992
62	0.031	-18.9918181818	-1.88947368421	4.35	4.61078998073
63	0.0315	-17.5745454545	-4.76842105263	-7.15	0.391136801541
64	0.032	-20.4090909091	-3.32894736842	-11.4625	3.204238921
65	0.0325	-21.8263636364	-1.88947368421	-4.275	1.79768786127
66	0.033	-20.4090909091	-1.88947368421	8.6625	-1.01541425819
67	0.0335	-23.2436363636	-1.88947368421	15.85	1.79768786127
68	0.034	-31.7472727273	-3.32894736842	14.4125	1.79768786127
69	0.0345	-34.5818181818	-10.5263157895	-4.275	1.79768786127
70	0.035	-38.8336363636	-6.20789473684	-8.5875	1.79768786127
71	0.0355	-38.8336363636	-6.20789473684	-7.15	1.79768786127
72	0.036	-41.6681818182	-6.20789473684	-1.4	3.204238921
73	0.0365	-37.4163636364	-10.5263157895	2.9125	4.61078998073
74	0.037	-33.1645454545	-13.4052631579	2.9125	3.204238921
75	0.0375	-33.1645454545	-4.76842105263	0.0375	3.204238921
76	0.038	-33.1645454545	-1.88947368421	0.0375	1.79768786127
77	0.0385	0.85	-0.45	4.35	3.204238921
78	0.039	-0.567272727273	-1.88947368421	2.9125	0.391136801541
79	0.0395	-9.07090909091	-1.88947368421	2.9125	3.204238921
80	0.04	0.85	-0.45	1.475	13.0500963391
81	0.0405	7.93636363636	-1.88947368421	2.9125	-1.01541425819
82	0.041	5.10181818182	-3.32894736842	4.35	-8.04816955684
83	0.0415	3.68454545455	-1.88947368421	-2.8375	-5.23506743738
84	0.042	7.93636363636	-0.45	-7.15	-1.01541425819
85	0.0425	2.26727272727	-4.76842105263	-2.8375	1.79768786127
86	0.043	-0.567272727273	0.989473684211	2.9125	3.204238921
87	0.0435	-3.40181818182	-1.88947368421	0.0375	6.01734104046
88	0.044	-6.23636363636	-7.64736842105	1.475	10.2369942197
89	0.0445	-4.81909090909	-13.4052631579	-2.8375	10.2369942197
90	0.045	-9.07090909091	-6.20789473684	1.475	14.4566473988
91	0.0455	-9.07090909091	-7.64736842105	-1.4	11.6435452794
92	0.046	-9.07090909091	-3.32894736842	1.475	10.2369942197
93	0.0465	-16.1572727273	-1.88947368421	2.9125	13.0500963391
94	0.047	-27.4954545455	-3.32894736842	2.9125	15.8631984586
95	0.0475	-27.4954545455	-0.45	0.0375	17.2697495183
96	0.048	-13.3227272727	-3.32894736842	2.9125	14.4566473988
97	0.0485	-27.4954545455	-4.76842105263	0.0375	6.01734104046
98	0.049	-24.6609090909	-3.32894736842	1.475	21.4894026975
99	0.0495	-26.0781818182	-1.88947368421	2.9125	20.0828516378
100	0.05	-26.0781818182	-6.20789473684	-4.275	14.4566473988
101	0.0505	-28.9127272727	-1.88947368421	2.9125	15.8631984586
102	0.051	-34.5818181818	-6.20789473684	11.5375	8.83044315992
103	0.0515	-37.4163636364	-4.76842105263	15.85	14.4566473988
104	0.052	-40.2509090909	-3.32894736842	8.6625	17.2697495183
105	0.0525	-38.8336363636	-4.76842105263	2.9125	15.8631984586
106	0.053	-34.5818181818	0.989473684211	-5.7125	15.8631984586
107	0.0535	-28.9127272727	-0.45	1.475	15.8631984586
108	0.054	-21.8263636364	-6.20789473684	-2.8375	15.8631984586
109	0.0545	-20.4090909091	-6.20789473684	0.0375	20.0828516378
110	0.055	-16.1572727273	-11.9657894737	2.9125	18.676300578
111	0.0555	-13.3227272727	-10.5263157895	0.0375	17.2697495183
112	0.056	-16.1572727273	-4.76842105263	0.0375	18.676300578
113	0.0565	-10.4881818182	-1.88947368421	0.0375	17.2697495183
114	0.057	5.10181818182	-1.88947368421	1.475	21.4894026975
115	0.0575	0.85	-1.88947368421	0.0375	24.302504817
116	0.058	-4.81909090909	-1.88947368421	2.9125	18.676300578
117	0.0585	5.10181818182	-3.32894736842	-1.4	15.8631984586
118	0.059	9.35363636364	-6.20789473684	0.0375	20.0828516378
119	0.0595	5.10181818182	-3.32894736842	-1.4	17.2697495183
120	0.06	-0.567272727273	-1.88947368421	-2.8375	24.302504817
121	0.0605	-1.98454545455	-0.45	-4.275	32.7418111753
122	0.061	-3.40181818182	-4.76842105263	-8.5875	35.5549132948
123	0.0615	-6.23636363636	-1.88947368421	-4.275	38.3680154143
124	0.062	-6.23636363636	0.989473684211	-4.275	39.774566474
125	0.0625	-7.65363636364	2.42894736842	15.85	45.4007707129
126	0.063	-3.40181818182	6.74736842105	-1.4	51.0269749518
127	0.0635	-6.23636363636	2.42894736842	-7.15	52.4335260116
128	0.064	-11.9054545455	-7.64736842105	-1.4	56.6531791908
129	0.0645	-9.07090909091	-7.64736842105	-2.8375	59.4662813102
130	0.065	-9.07090909091	-3.32894736842	-2.8375	62.2793834297
131	0.0655	-21.8263636364	0.989473684211	0.0375	65.0924855491
132	0.066	-17.5745454545	-0.45	-2.8375	69.3121387283
133	0.0665	-4.81909090909	0.989473684211	-1.4	69.3121387283
134	0.067	-3.40181818182	-1.88947368421	-1.4	66.4990366089
135	0.0675	-24.6609090909	-1.88947368421	0.0375	63.6859344894
136	0.068	-27.4954545455	-1.88947368421	-1.4	73.5317919075
137	0.0685	-30.33	-1.88947368421	0.0375	67.9055876686
138	0.069	-31.7472727273	-0.45	1.475	62.2793834297
139	0.0695	-27.4954545455	0.989473684211	15.85	53.8400770713
140	0.07	-24.6609090909	-0.45	14.4125	49.6204238921
141	0.0705	-18.9918181818	-1.88947368421	2.9125	52.4335260116
142	0.071	-14.74	-1.88947368421	-8.5875	49.6204238921
143	0.0715	-10.4881818182	-1.88947368421	-8.5875	53.8400770713
144	0.072	-3.40181818182	6.74736842105	0.0375	51.0269749518
145	0.0725	2.26727272727	18.2631578947	0.0375	49.6204238921
146	0.073	7.93636363636	5.30789473684	0.0375	48.2138728324
147	0.0735	13.6054545455	-9.08684210526	0.0375	48.2138728324
148	0.074	17.8572727273	-1.88947368421	-4.275	51.0269749518
149	0.0745	12.1881818182	-0.45	0.0375	46.8073217726
150	0.075	5.10181818182	-0.45	0.0375	46.8073217726
151	0.0755	15.0227272727	-3.32894736842	0.0375	39.774566474
152	0.076	12.1881818182	-3.32894736842	1.475	15.8631984586
153	0.0765	13.6054545455	-7.64736842105	1.475	8.83044315992
154	0.077	9.35363636364	-3.32894736842	0.0375	6.01734104046
155	0.0775	2.26727272727	-6.20789473684	1.475	-6.64161849711
156	0.078	5.10181818182	-6.20789473684	4.35	-31.9595375723
157	0.0785	0.85	-7.64736842105	18.725	-54.4643545279
158	0.079	-0.567272727273	-4.76842105263	23.0375	-69.936416185
159	0.0795	-1.98454545455	-7.64736842105	20.1625	-89.6281310212
160	0.08	-3.40181818182	-7.64736842105	11.5375	-106.506743738
161	0.0805	-0.567272727273	-13.4052631579	-1.4	-126.198458574
162	0.081	-3.40181818182	-19.1631578947	4.35	-143.077071291
163	0.0815	-1.98454545455	-9.08684210526	4.35	-162.768786127
164	0.082	-4.81909090909	2.42894736842	12.975	-182.460500963
165	0.0825	-9.07090909091	-19.1631578947	7.225	-197.93256262
166	0.083	-7.65363636364	-17.7236842105	11.5375	-220.437379576
167	0.0835	-7.65363636364	-13.4052631579	5.7875	-238.722543353
168	0.084	-14.74	-14.8447368421	11.5375	-259.820809249
169	0.0845	-18.9918181818	-17.7236842105	10.1	-275.292870906
170	0.085	-28.9127272727	-16.2842105263	12.975	-299.204238921
171	0.0855	-31.7472727273	-13.4052631579	8.6625	-321.709055877
172	0.086	-24.6609090909	-17.7236842105	12.975	-344.213872832
173	0.0865	-17.5745454545	-16.2842105263	15.85	-356.87283237
174	0.087	-14.74	-16.2842105263	4.35	-370.938342967
175	0.0875	-7.65363636364	-17.7236842105	-1.4	-368.125240848
176	0.088	-6.23636363636	-16.2842105263	1.475	-393.443159923
177	0.0885	-0.567272727273	-16.2842105263	17.2875	-403.289017341
178	0.089	5.10181818182	-16.2842105263	12.975	-415.947976879
179	0.0895	12.1881818182	-14.8447368421	15.85	-427.200385356
180	0.09	19.2745454545	-24.9210526316	12.975	-430.013487476
181	0.0905	22.1090909091	-26.3605263158	12.975	-434.233140655
182	0.091	23.5263636364	-16.2842105263	7.225	-437.046242775
183	0.0915	24.9436363636	-16.2842105263	10.1	-441.265895954
184	0.092	15.0227272727	-14.8447368421	8.6625	-439.859344894
185	0.0925	7.93636363636	-16.2842105263	8.6625	-446.892100193
186	0.093	9.35363636364	-16.2842105263	14.4125	-453.924855491
187	0.0935	19.2745454545	-19.1631578947	12.975	-456.737957611
188	0.094	9.35363636364	-16.2842105263	11.5375	-446.892100193
189	0.0945	5.10181818182	-16.2842105263	8.6625	-437.046242775
190	0.095	0.85	-13.4052631579	12.975	-439.859344894
191	0.0955	-1.98454545455	-13.4052631579	11.5375	-445.485549133
192	0.096	-4.81909090909	-10.5263157895	14.4125	-437.046242775
193	0.0965	-7.65363636364	-11.9657894737	4.35	-420.167630058
194	0.097	-7.65363636364	-11.9657894737	-1.4	-400.475915222
195	0.0975	-11.9054545455	-11.9657894737	17.2875	-392.036608863
196	0.098	-10.4881818182	-7.64736842105	2.9125	-373.751445087
197	0.0985	-11.9054545455	-11.9657894737	8.6625	-358.27938343
198	0.099	-16.1572727273	-22.0421052632	7.225	-344.213872832
199	0.0995	-17.5745454545	-19.1631578947	11.5375	-327.335260116
200	0.1	-16.1572727273	-13.4052631579	8.6625	-307.643545279
201	0.1005	-26.0781818182	-7.64736842105	5.7875	-285.138728324
202	0.101	-40.2509090909	-7.64736842105	7.225	-259.820809249
203	0.1015	-51.5890909091	-6.20789473684	5.7875	-235.909441233
204	0.102	-45.92	-4.76842105263	11.5375	-224.657032755
205	0.1025	-44.5027272727	-6.20789473684	11.5375	-211.998073218
206	0.103	-40.2509090909	-4.76842105263	7.225	-181.053949904
207	0.1035	-33.1645454545	-6.20789473684	7.225	-162.768786127
208	0.104	-30.33	-4.76842105263	7.225	-169.801541426
209	0.1045	-27.4954545455	-1.88947368421	8.6625	-158.549132948
210	0.105	-23.2436363636	-1.88947368421	21.6	-138.857418112
211	0.1055	-18.9918181818	-0.45	0.0375	-129.011560694
212	0.106	-16.1572727273	-0.45	14.4125	-117.759152216
213	0.1065	-10.4881818182	-9.08684210526	11.5375	-109.319845857
214	0.107	-4.81909090909	-10.5263157895	11.5375	-95.2543352601
215	0.1075	-3.40181818182	3.86842105263	5.7875	-85.408477842
216	0.108	-9.07090909091	16.8236842105	10.1	-79.7822736031
217	0.1085	-7.65363636364	0.989473684211	8.6625	-75.5626204239
218	0.109	-17.5745454545	3.86842105263	4.35	-71.3429672447
219	0.1095	-24.6609090909	-0.45	7.225	-67.1233140655
220	0.11	-13.3227272727	-0.45	5.7875	-62.9036608863
221	0.1105	-0.567272727273	0.989473684211	5.7875	-55.8709055877
222	0.111	-14.74	0.989473684211	4.35	-47.4315992293
223	0.1115	-23.2436363636	0.989473684211	4.35	-30.5529865125
224	0.112	-21.8263636364	0.989473684211	7.225	-40.3988439306
225	0.1125	-21.8263636364	-1.88947368421	2.9125	-40.3988439306
226	0.113	-21.8263636364	0.989473684211	-7.15	-30.5529865125
227	0.1135	-23.2436363636	-0.45	-8.5875	-22.1136801541
228	0.114	-21.8263636364	0.989473684211	4.35	-19.3005780347
229	0.1145	-23.2436363636	2.42894736842	2.9125	-15.0809248555
230	0.115	-20.4090909091	0.989473684211	18.725	-13.6743737958
231	0.1155	-23.2436363636	2.42894736842	2.9125	-6.64161849711
232	0.116	-23.2436363636	2.42894736842	0.0375	-2.42196531792
233	0.1165	-24.6609090909	8.18684210526	2.9125	0.391136801541
234	0.117	-28.9127272727	-0.45	1.475	4.61078998073
235	0.1175	-35.9990909091	-10.5263157895	0.0375	8.83044315992
236	0.118	-37.4163636364	-9.08684210526	0.0375	13.0500963391
237	0.1185	-35.9990909091	-1.88947368421	-1.4	17.2697495183
238	0.119	-20.4090909091	0.989473684211	0.0375	22.8959537572
239	0.1195	-33.1645454545	-1.88947368421	0.0375	27.1156069364
240	0.12	-40.2509090909	-0.45	0.0375	28.5221579961
241	0.1205	-33.1645454545	0.989473684211	1.475	22.8959537572
242	0.121	-24.6609090909	0.989473684211	2.9125	25.7090558767
243	0.1215	-21.8263636364	0.989473684211	4.35	21.4894026975
244	0.122	-14.74	0.989473684211	0.0375	27.1156069364
245	0.1225	-9.07090909091	0.989473684211	-5.7125	29.9287090559
246	0.123	-4.81909090909	0.989473684211	-8.5875	34.1483622351
247	0.1235	9.35363636364	-0.45	-1.4	39.774566474
248	0.124	10.7709090909	2.42894736842	7.225	39.774566474
249	0.1245	7.93636363636	3.86842105263	0.0375	43.9942196532
250	0.125	9.35363636364	2.42894736842	0.0375	45.4007707129
251	0.1255	12.1881818182	-6.20789473684	-1.4	46.8073217726
252	0.126	9.35363636364	-10.5263157895	0.0375	48.2138728324
253	0.1265	3.68454545455	-6.20789473684	-1.4	48.2138728324
254	0.127	0.85	-1.88947368421	0.0375	51.0269749518
255	0.1275	3.68454545455	-1.88947368421	0.0375	56.6531791908
256	0.128	-1.98454545455	-0.45	-1.4	56.6531791908
257	0.1285	-11.9054545455	2.42894736842	0.0375	56.6531791908
258	0.129	-18.9918181818	2.42894736842	-1.4	60.8728323699
259	0.1295	-14.74	0.989473684211	0.0375	60.8728323699
260	0.13	-11.9054545455	0.989473684211	0.0375	53.8400770713
261	0.1305	-9.07090909091	0.989473684211	1.475	56.6531791908
262	0.131	-10.4881818182	-0.45	-1.4	66.4990366089
263	0.1315	-11.9054545455	2.42894736842	-1.4	80.5645472062
264	0.132	-14.74	-1.88947368421	-2.8375	81.9710982659
265	0.1325	-16.1572727273	-0.45	1.475	73.5317919075
266	0.133	-16.1572727273	-3.32894736842	1.475	66.4990366089
267	0.1335	-20.4090909091	-3.32894736842	-11.4625	87.5973025048
268	0.134	-27.4954545455	0.989473684211	-5.7125	72.1252408478
269	0.1345	-30.33	-1.88947368421	4.35	72.1252408478
270	0.135	-34.5818181818	5.30789473684	0.0375	72.1252408478
271	0.1355	-33.1645454545	-4.76842105263	-1.4	76.344894027
272	0.136	-33.1645454545	5.30789473684	-1.4	74.9383429672
273	0.1365	-28.9127272727	16.8236842105	0.0375	73.5317919075
274	0.137	-23.2436363636	21.1421052632	-1.4	73.5317919075
275	0.1375	-21.8263636364	2.42894736842	-1.4	77.7514450867
276	0.138	-14.74	-3.32894736842	-1.4	76.344894027
277	0.1385	-9.07090909091	0.989473684211	1.475	76.344894027
278	0.139	-11.9054545455	0.989473684211	-1.4	80.5645472062
279	0.1395	0.85	5.30789473684	-4.275	76.344894027
280	0.14	-3.40181818182	5.30789473684	0.0375	79.1579961464
281	0.1405	0.85	0.989473684211	-1.4	69.3121387283
282	0.141	12.1881818182	-0.45	0.0375	73.5317919075
283	0.1415	10.7709090909	-0.45	-5.7125	72.1252408478
284	0.142	15.0227272727	-0.45	-4.275	84.7842003854
285	0.1425	13.6054545455	-0.45	-2.8375	91.816955684
286	0.143	7.93636363636	2.42894736842	2.9125	76.344894027
287	0.1435	9.35363636364	-1.88947368421	-7.15	77.7514450867
288	0.144	3.68454545455	-0.45	-11.4625	76.344894027
289	0.1445	2.26727272727	2.42894736842	-7.15	76.344894027
290	0.145	0.85	5.30789473684	-2.8375	77.7514450867
291	0.1455	0.85	16.8236842105	-1.4	73.5317919075
292	0.146	-4.81909090909	5.30789473684	0.0375	72.1252408478
293	0.1465	-7.65363636364	-6.20789473684	-1.4	76.344894027
294	0.147	-4.81909090909	-6.20789473684	-1.4	76.344894027
295	0.1475	-6.23636363636	-3.32894736842	-1.4	76.344894027
296	0.148	9.35363636364	2.42894736842	-1.4	73.5317919075
297	0.1485	7.93636363636	-0.45	-2.8375	74.9383429672
298	0.149	-4.81909090909	0.989473684211	-2.8375	73.5317919075
299	0.1495	-17.5745454545	0.989473684211	-1.4	76.344894027
300	0.15	-24.6609090909	-0.45	-1.4	73.5317919075
301	0.1505	-21.8263636364	-1.88947368421	-1.4	74.9383429672
302	0.151	-23.2436363636	0.989473684211	-1.4	66.4990366089
303	0.1515	-33.1645454545	-1.88947368421	-2.8375	65.0924855491
304	0.152	-30.33	-0.45	-8.5875	67.9055876686
305	0.1525	-31.7472727273	-1.88947368421	-12.9	73.5317919075
306	0.153	-30.33	-0.45	-8.5875	72.1252408478
307	0.1535	-26.0781818182	0.989473684211	-4.275	72.1252408478
308	0.154	-20.4090909091	6.74736842105	-1.4	70.7186897881
309	0.1545	-18.9918181818	2.42894736842	-1.4	69.3121387283
310	0.155	-13.3227272727	-1.88947368421	0.0375	69.3121387283
311	0.1555	-7.65363636364	18.2631578947	2.9125	70.7186897881
312	0.156	0.85	19.7026315789	0.0375	70.7186897881
313	0.1565	6.51909090909	18.2631578947	2.9125	70.7186897881
314	0.157	12.1881818182	2.42894736842	1.475	69.3121387283
315	0.1575	3.68454545455	3.86842105263	0.0375	69.3121387283
316	0.158	13.6054545455	-3.32894736842	0.0375	69.3121387283
317	0.1585	29.1954545455	0.989473684211	1.475	69.3121387283
318	0.159	13.6054545455	2.42894736842	-1.4	69.3121387283
319	0.1595	20.6918181818	0.989473684211	-1.4	72.1252408478
320	0.16	2.26727272727	0.989473684211	-1.4	84.7842003854
321	0.1605	-0.567272727273	-1.88947368421	-1.4	76.344894027
322	0.161	-0.567272727273	-0.45	1.475	62.2793834297
323	0.1615	-3.40181818182	0.989473684211	-1.4	62.2793834297
324	0.162	-1.98454545455	2.42894736842	0.0375	72.1252408478
325	0.1625	-4.81909090909	3.86842105263	17.2875	67.9055876686
326	0.163	-4.81909090909	2.42894736842	10.1	67.9055876686
327	0.1635	-6.23636363636	-1.88947368421	-4.275	67.9055876686
328	0.164	-4.81909090909	0.989473684211	-8.5875	73.5317919075
329	0.1645	-9.07090909091	2.42894736842	-4.275	67.9055876686
330	0.165	-10.4881818182	6.74736842105	-1.4	66.4990366089
331	0.1655	-9.07090909091	16.8236842105	0.0375	67.9055876686
332	0.166	-14.74	8.18684210526	1.475	67.9055876686
333	0.1665	-14.74	-3.32894736842	0.0375	67.9055876686
334	0.167	-18.9918181818	-7.64736842105	-1.4	69.3121387283
335	0.1675	-26.0781818182	-9.08684210526	0.0375	69.3121387283
336	0.168	-26.0781818182	-3.32894736842	0.0375	69.3121387283
337	0.1685	-9.07090909091	-0.45	-1.4	67.9055876686
338	0.169	-21.8263636364	0.989473684211	0.0375	67.9055876686
339	0.1695	-33.1645454545	0.989473684211	0.0375	69.3121387283
340	0.17	-33.1645454545	3.86842105263	2.9125	66.4990366089
341	0.1705	-24.6609090909	2.42894736842	1.475	60.8728323699
342	0.171	-16.1572727273	2.42894736842	4.35	56.6531791908
343	0.1715	-9.07090909091	3.86842105263	0.0375	59.4662813102
344	0.172	-4.81909090909	3.86842105263	-1.4	59.4662813102
345	0.1725	0.85	3.86842105263	-10.025	65.0924855491
346	0.173	9.35363636364	2.42894736842	-10.025	66.4990366089
347	0.1735	13.6054545455	0.989473684211	0.0375	74.9383429672
348	0.174	15.0227272727	2.42894736842	17.2875	67.9055876686
349	0.1745	16.44	-0.45	0.0375	66.4990366089
350	0.175	15.0227272727	2.42894736842	15.85	67.9055876686
351	0.1755	16.44	3.86842105263	-1.4	67.9055876686
352	0.176	16.44	13.9447368421	0.0375	67.9055876686
353	0.1765	9.35363636364	18.2631578947	0.0375	67.9055876686
354	0.177	5.10181818182	21.1421052632	-1.4	67.9055876686
355	0.1775	3.68454545455	11.0657894737	1.475	69.3121387283
356	0.178	5.10181818182	0.989473684211	0.0375	67.9055876686
357	0.1785	3.68454545455	-1.88947368421	2.9125	66.4990366089
358	0.179	-0.567272727273	2.42894736842	-1.4	67.9055876686
359	0.1795	-0.567272727273	0.989473684211	0.0375	63.6859344894
360	0.18	-9.07090909091	0.989473684211	1.475	66.4990366089
361	0.1805	-13.3227272727	2.42894736842	0.0375	62.2793834297
362	0.181	-4.81909090909	0.989473684211	-1.4	76.344894027
363	0.1815	-1.98454545455	2.42894736842	0.0375	73.5317919075
364	0.182	-9.07090909091	0.989473684211	0.0375	69.3121387283
365	0.1825	-9.07090909091	2.42894736842	1.475	52.4335260116
366	0.183	-10.4881818182	0.989473684211	14.4125	62.2793834297
367	0.1835	-13.3227272727	2.42894736842	2.9125	53.8400770713
368	0.184	-17.5745454545	0.989473684211	0.0375	55.246628131
369	0.1845	-26.0781818182	5.30789473684	11.5375	59.4662813102
370	0.185	-27.4954545455	-6.20789473684	0.0375	60.8728323699
371	0.1855	-28.9127272727	-9.08684210526	-1.4	59.4662813102
372	0.186	-27.4954545455	-10.5263157895	2.9125	60.8728323699
373	0.1865	-26.0781818182	-9.08684210526	0.0375	59.4662813102
374	0.187	-18.9918181818	3.86842105263	1.475	56.6531791908
375	0.1875	-13.3227272727	16.8236842105	-1.4	55.246628131
376	0.188	-11.9054545455	22.5815789474	-1.4	53.8400770713
377	0.1885	-6.23636363636	5.30789473684	0.0375	55.246628131
378	0.189	-3.40181818182	16.8236842105	1.475	55.246628131
379	0.1895	9.35363636364	2.42894736842	-2.8375	55.246628131
380	0.19	19.2745454545	0.989473684211	1.475	56.6531791908
381	0.1905	29.1954545455	2.42894736842	0.0375	55.246628131
382	0.191	30.6127272727	5.30789473684	1.475	58.0597302505
383	0.1915	3.68454545455	2.42894736842	1.475	55.246628131
384	0.192	15.0227272727	0.989473684211	2.9125	55.246628131
385	0.1925	16.44	0.989473684211	2.9125	49.6204238921
386	0.193	10.7709090909	0.989473684211	4.35	46.8073217726
387	0.1935	3.68454545455	2.42894736842	-2.8375	49.6204238921
388	0.194	2.26727272727	0.989473684211	-8.5875	53.8400770713
389	0.1945	5.10181818182	2.42894736842	-12.9	56.6531791908
390	0.195	3.68454545455	3.86842105263	-7.15	56.6531791908
391	0.1955	-0.567272727273	3.86842105263	-2.8375	55.246628131
392	0.196	-0.567272727273	5.30789473684	0.0375	53.8400770713
393	0.1965	-3.40181818182	2.42894736842	17.2875	52.4335260116
394	0.197	-3.40181818182	6.74736842105	0.0375	49.6204238921
395	0.1975	-3.40181818182	19.7026315789	1.475	48.2138728324
396	0.198	-4.81909090909	13.9447368421	1.475	48.2138728324
397	0.1985	-7.65363636364	5.30789473684	-1.4	48.2138728324
398	0.199	-7.65363636364	-0.45	0.0375	48.2138728324
399	0.1995	-11.9054545455	-7.64736842105	1.475	48.2138728324
400	0.2	-20.4090909091	2.42894736842	-1.4	45.4007707129
401	0.2005	-21.8263636364	0.989473684211	-1.4	43.9942196532
402	0.201	-34.5818181818	-1.88947368421	-1.4	38.3680154143
403	0.2015	-34.5818181818	-0.45	-1.4	48.2138728324
404	0.202	-33.1645454545	-0.45	2.9125	43.9942196532
405	0.2025	-28.9127272727	-0.45	4.35	39.774566474
406	0.203	-27.4954545455	2.42894736842	2.9125	38.3680154143
407	0.2035	-21.8263636364	0.989473684211	-2.8375	42.5876685934
408	0.204	-18.9918181818	2.42894736842	-4.275	43.9942196532
409	0.2045	-13.3227272727	0.989473684211	-4.275	51.0269749518
410	0.205	-7.65363636364	-0.45	-5.7125	49.6204238921
411	0.2055	-4.81909090909	3.86842105263	1.475	46.8073217726
412	0.206	3.68454545455	6.74736842105	2.9125	45.4007707129
413	0.2065	9.35363636364	3.86842105263	4.35	45.4007707129
414	0.207	16.44	9.62631578947	0.0375	45.4007707129
415	0.2075	13.6054545455	-0.45	0.0375	46.8073217726
416	0.208	12.1881818182	-7.64736842105	1.475	46.8073217726
417	0.2085	15.0227272727	-7.64736842105	1.475	45.4007707129
418	0.209	9.35363636364	-4.76842105263	0.0375	43.9942196532
419	0.2095	-0.567272727273	0.989473684211	2.9125	43.9942196532
420	0.21	-3.40181818182	0.989473684211	1.475	45.4007707129
421	0.2105	0.85	0.989473684211	0.0375	43.9942196532
422	0.211	-0.567272727273	2.42894736842	1.475	34.1483622351
423	0.2115	3.68454545455	0.989473684211	1.475	34.1483622351
424	0.212	3.68454545455	2.42894736842	4.35	39.774566474
425	0.2125	-1.98454545455	0.989473684211	0.0375	48.2138728324
426	0.213	-1.98454545455	3.86842105263	-2.8375	53.8400770713
427	0.2135	-1.98454545455	-1.88947368421	-7.15	42.5876685934
428	0.214	-1.98454545455	0.989473684211	0.0375	52.4335260116
429	0.2145	-3.40181818182	0.989473684211	-2.8375	39.774566474
430	0.215	-4.81909090909	0.989473684211	-11.4625	42.5876685934
431	0.2155	-6.23636363636	-0.45	-2.8375	43.9942196532
432	0.216	-10.4881818182	-11.9657894737	0.0375	43.9942196532
433	0.2165	-9.07090909091	-10.5263157895	-1.4	45.4007707129
434	0.217	-16.1572727273	-6.20789473684	-1.4	43.9942196532
435	0.2175	-18.9918181818	2.42894736842	-1.4	42.5876685934
436	0.218	-21.8263636364	-1.88947368421	-1.4	43.9942196532
437	0.2185	-26.0781818182	0.989473684211	-1.4	45.4007707129
438	0.219	-26.0781818182	-0.45	-1.4	46.8073217726
439	0.2195	-33.1645454545	0.989473684211	1.475	45.4007707129
440	0.22	-35.9990909091	0.989473684211	1.475	46.8073217726
441	0.2205	-27.4954545455	0.989473684211	1.475	43.9942196532
442	0.221	-20.4090909091	2.42894736842	2.9125	38.3680154143
443	0.2215	-16.1572727273	5.30789473684	5.7875	31.3352601156
444	0.222	-7.65363636364	2.42894736842	2.9125	28.5221579961
445	0.2225	-4.81909090909	6.74736842105	4.35	35.5549132948
446	0.223	9.35363636364	2.42894736842	-1.4	32.7418111753
447	0.2235	16.44	2.42894736842	-2.8375	32.7418111753
448	0.224	16.44	0.989473684211	-5.7125	35.5549132948
449	0.2245	15.0227272727	0.989473684211	-5.7125	35.5549132948
450	0.225	10.7709090909	-0.45	1.475	36.9614643545
451	0.2255	17.8572727273	2.42894736842	-1.4	34.1483622351
452	0.226	12.1881818182	3.86842105263	0.0375	35.5549132948
453	0.2265	7.93636363636	-0.45	1.475	39.774566474
454	0.227	5.10181818182	-9.08684210526	-4.275	39.774566474
455	0.2275	2.26727272727	-10.5263157895	0.0375	38.3680154143
456	0.228	-1.98454545455	-6.20789473684	0.0375	38.3680154143
457	0.2285	2.26727272727	-3.32894736842	0.0375	35.5549132948
458	0.229	0.85	2.42894736842	1.475	36.9614643545
459	0.2295	0.85	-0.45	-1.4	34.1483622351
460	0.23	-6.23636363636	0.989473684211	-1.4	35.5549132948
461	0.2305	-14.74	3.86842105263	-1.4	38.3680154143
462	0.231	-14.74	0.989473684211	-2.8375	38.3680154143
463	0.2315	-16.1572727273	0.989473684211	-1.4	38.3680154143
464	0.232	-16.1572727273	0.989473684211	0.0375	34.1483622351
465	0.2325	-13.3227272727	2.42894736842	1.475	28.5221579961
466	0.233	-11.9054545455	-0.45	1.475	35.5549132948
467	0.2335	-16.1572727273	0.989473684211	-1.4	28.5221579961
468	0.234	-20.4090909091	-0.45	-10.025	35.5549132948
469	0.2345	-21.8263636364	-3.32894736842	-11.4625	36.9614643545
470	0.235	-26.0781818182	2.42894736842	-4.275	38.3680154143
471	0.2355	-27.4954545455	0.989473684211	2.9125	36.9614643545
472	0.236	-28.9127272727	-1.88947368421	0.0375	36.9614643545
473	0.2365	-23.2436363636	-1.88947368421	0.0375	34.1483622351
474	0.237	-14.74	2.42894736842	7.225	36.9614643545
475	0.2375	-13.3227272727	5.30789473684	0.0375	34.1483622351
476	0.238	-10.4881818182	18.2631578947	1.475	34.1483622351
477	0.2385	-6.23636363636	19.7026315789	1.475	34.1483622351
478	0.239	0.85	-1.88947368421	2.9125	31.3352601156
479	0.2395	10.7709090909	-0.45	2.9125	32.7418111753
480	0.24	19.2745454545	2.42894736842	4.35	34.1483622351
481	0.2405	19.2745454545	3.86842105263	1.475	31.3352601156
482	0.241	10.7709090909	0.989473684211	4.35	32.7418111753
483	0.2415	12.1881818182	3.86842105263	1.475	36.9614643545
484	0.242	9.35363636364	0.989473684211	1.475	35.5549132948
485	0.2425	9.35363636364	3.86842105263	-1.4	32.7418111753
486	0.243	7.93636363636	-1.88947368421	2.9125	29.9287090559
487	0.2435	3.68454545455	0.989473684211	0.0375	22.8959537572
488	0.244	7.93636363636	0.989473684211	0.0375	27.1156069364
489	0.2445	5.10181818182	0.989473684211	-1.4	34.1483622351
490	0.245	0.85	3.86842105263	-10.025	32.7418111753
491	0.2455	0.85	-0.45	-1.4	46.8073217726
492	0.246	-0.567272727273	0.989473684211	4.35	29.9287090559
493	0.2465	-1.98454545455	0.989473684211	-5.7125	29.9287090559
494	0.247	-4.81909090909	0.989473684211	-8.5875	32.7418111753
495	0.2475	-4.81909090909	0.989473684211	-7.15	32.7418111753
496	0.248	-4.81909090909	9.62631578947	0.0375	32.7418111753
497	0.2485	-4.81909090909	19.7026315789	-1.4	32.7418111753
498	0.249	-9.07090909091	22.5815789474	1.475	34.1483622351
499	0.2495	-10.4881818182	9.62631578947	1.475	32.7418111753
500	0.25	-16.1572727273	-6.20789473684	1.475	35.5549132948
501	0.2505	-27.4954545455	0.989473684211	1.475	34.1483622351
502	0.251	-16.1572727273	3.86842105263	-1.4	34.1483622351
503	0.2515	-16.1572727273	-0.45	0.0375	34.1483622351
504	0.252	-14.74	-0.45	-1.4	34.1483622351
505	0.2525	-26.0781818182	-1.88947368421	1.475	39.774566474
506	0.253	-33.1645454545	-0.45	0.0375	35.5549132948
507	0.2535	-20.4090909091	0.989473684211	4.35	45.4007707129
508	0.254	-16.1572727273	0.989473684211	2.9125	38.3680154143
509	0.2545	-11.9054545455	-0.45	5.7875	31.3352601156
510	0.255	-7.65363636364	-0.45	2.9125	25.7090558767
511	0.2555	-4.81909090909	0.989473684211	0.0375	28.5221579961
512	0.256	-1.98454545455	-0.45	-1.4	34.1483622351
513	0.2565	7.93636363636	0.989473684211	-7.15	31.3352601156
514	0.257	13.6054545455	3.86842105263	-4.275	31.3352601156
515	0.2575	17.8572727273	6.74736842105	1.475	29.9287090559
516	0.258	15.0227272727	3.86842105263	2.9125	29.9287090559
517	0.2585	13.6054545455	-1.88947368421	4.35	28.5221579961
518	0.259	15.0227272727	-0.45	1.475	29.9287090559
519	0.2595	10.7709090909	-7.64736842105	1.475	31.3352601156
520	0.26	10.7709090909	-6.20789473684	0.0375	29.9287090559
521	0.2605	10.7709090909	-1.88947368421	1.475	28.5221579961
522	0.261	-9.07090909091	2.42894736842	1.475	31.3352601156
523	0.2615	-4.81909090909	0.989473684211	0.0375	35.5549132948
524	0.262	7.93636363636	-0.45	-2.8375	34.1483622351
525	0.2625	16.44	-0.45	0.0375	32.7418111753
526	0.263	0.85	2.42894736842	2.9125	29.9287090559
527	0.2635	-7.65363636364	2.42894736842	1.475	34.1483622351
528	0.264	-7.65363636364	3.86842105263	-1.4	45.4007707129
529	0.2645	-3.40181818182	-0.45	-8.5875	32.7418111753
530	0.265	-7.65363636364	0.989473684211	-5.7125	34.1483622351
531	0.2655	-9.07090909091	3.86842105263	4.35	35.5549132948
532	0.266	-9.07090909091	2.42894736842	14.4125	36.9614643545
533	0.2665	-13.3227272727	3.86842105263	2.9125	31.3352601156
534	0.267	-11.9054545455	-1.88947368421	-8.5875	41.1811175337
535	0.2675	-20.4090909091	0.989473684211	-5.7125	36.9614643545
536	0.268	-23.2436363636	0.989473684211	-1.4	39.774566474
537	0.2685	-28.9127272727	2.42894736842	-2.8375	38.3680154143
538	0.269	-27.4954545455	-4.76842105263	0.0375	39.774566474
539	0.2695	-27.4954545455	-1.88947368421	1.475	38.3680154143
540	0.27	-21.8263636364	-7.64736842105	-2.8375	38.3680154143
541	0.2705	-13.3227272727	-1.88947368421	-1.4	32.7418111753
542	0.271	-7.65363636364	0.989473684211	-1.4	36.9614643545
543	0.2715	-4.81909090909	0.989473684211	0.0375	32.7418111753
544	0.272	-3.40181818182	2.42894736842	0.0375	38.3680154143
545	0.2725	-9.07090909091	2.42894736842	0.0375	34.1483622351
546	0.273	-1.98454545455	0.989473684211	4.35	28.5221579961
547	0.2735	13.6054545455	3.86842105263	1.475	27.1156069364
548	0.274	16.44	0.989473684211	1.475	28.5221579961
549	0.2745	12.1881818182	-0.45	-2.8375	32.7418111753
550	0.275	15.0227272727	0.989473684211	-2.8375	31.3352601156
551	0.2755	17.8572727273	0.989473684211	-7.15	36.9614643545
552	0.276	13.6054545455	2.42894736842	-1.4	35.5549132948
553	0.2765	10.7709090909	3.86842105263	15.85	34.1483622351
554	0.277	3.68454545455	2.42894736842	-1.4	35.5549132948
555	0.2775	2.26727272727	-4.76842105263	0.0375	36.9614643545
556	0.278	0.85	-10.5263157895	1.475	35.5549132948
557	0.2785	-1.98454545455	-10.5263157895	2.9125	35.5549132948
558	0.279	-1.98454545455	-1.88947368421	-1.4	36.9614643545
559	0.2795	-0.567272727273	9.62631578947	1.475	35.5549132948
560	0.28	-4.81909090909	18.2631578947	1.475	34.1483622351
561	0.2805	-6.23636363636	-6.20789473684	1.475	36.9614643545
562	0.281	-6.23636363636	-6.20789473684	1.475	35.5549132948
563	0.2815	3.68454545455	0.989473684211	0.0375	35.5549132948
564	0.282	10.7709090909	-0.45	-1.4	34.1483622351
565	0.2825	-0.567272727273	-0.45	0.0375	34.1483622351
566	0.283	-13.3227272727	-0.45	-1.4	36.9614643545
567	0.2835	-20.4090909091	-0.45	-2.8375	51.0269749518
568	0.284	-20.4090909091	0.989473684211	0.0375	41.1811175337
569	0.2845	-23.2436363636	-1.88947368421	1.475	34.1483622351
570	0.285	-28.9127272727	0.989473684211	2.9125	28.5221579961
571	0.2855	-31.7472727273	-0.45	-2.8375	29.9287090559
572	0.286	-28.9127272727	-1.88947368421	-5.7125	34.1483622351
573	0.2865	-27.4954545455	-1.88947368421	-8.5875	34.1483622351
574	0.287	-21.8263636364	0.989473684211	-5.7125	38.3680154143
575	0.2875	-18.9918181818	0.989473684211	14.4125	36.9614643545
576	0.288	-13.3227272727	-11.9657894737	0.0375	35.5549132948
577	0.2885	-10.4881818182	-6.20789473684	0.0375	32.7418111753
578	0.289	-1.98454545455	6.74736842105	0.0375	32.7418111753
579	0.2895	2.26727272727	16.8236842105	2.9125	34.1483622351
580	0.29	10.7709090909	2.42894736842	0.0375	28.5221579961
581	0.2905	12.1881818182	2.42894736842	2.9125	32.7418111753
582	0.291	5.10181818182	2.42894736842	2.9125	32.7418111753
583	0.2915	2.26727272727	0.989473684211	1.475	35.5549132948
584	0.292	16.44	2.42894736842	1.475	31.3352601156
585	0.2925	12.1881818182	0.989473684211	4.35	20.0828516378
586	0.293	12.1881818182	2.42894736842	0.0375	22.8959537572
587	0.2935	5.10181818182	3.86842105263	-1.4	34.1483622351
588	0.294	2.26727272727	-1.88947368421	-1.4	43.9942196532
589	0.2945	2.26727272727	-0.45	-1.4	43.9942196532
590	0.295	-1.98454545455	-0.45	1.475	35.5549132948
591	0.2955	-1.98454545455	0.989473684211	17.2875	28.5221579961
592	0.296	-4.81909090909	0.989473684211	14.4125	31.3352601156
593	0.2965	-0.567272727273	-0.45	4.35	31.3352601156
594	0.297	-0.567272727273	-1.88947368421	-5.7125	32.7418111753
595	0.2975	-3.40181818182	-0.45	-8.5875	31.3352601156
596	0.298	-4.81909090909	2.42894736842	0.0375	29.9287090559
597	0.2985	-3.40181818182	13.9447368421	0.0375	28.5221579961
598	0.299	-4.81909090909	15.3842105263	-1.4	29.9287090559
599	0.2995	-7.65363636364	3.86842105263	-1.4	27.1156069364
600	0.3	-11.9054545455	-4.76842105263	2.9125	27.1156069364
601	0.3005	-18.9918181818	-7.64736842105	1.475	27.1156069364
602	0.301	-27.4954545455	0.989473684211	-1.4	28.5221579961
603	0.3015	-21.8263636364	-0.45	-1.4	25.7090558767
604	0.302	-11.9054545455	-0.45	0.0375	27.1156069364
605	0.3025	-6.23636363636	-0.45	0.0375	32.7418111753
606	0.303	-16.1572727273	0.989473684211	2.9125	34.1483622351
607	0.3035	-16.1572727273	0.989473684211	0.0375	46.8073217726
608	0.304	-13.3227272727	2.42894736842	2.9125	45.4007707129
609	0.3045	-10.4881818182	-1.88947368421	5.7875	35.5549132948
610	0.305	-7.65363636364	0.989473684211	7.225	31.3352601156
611	0.3055	-1.98454545455	2.42894736842	1.475	27.1156069364
612	0.306	3.68454545455	-0.45	8.6625	36.9614643545
613	0.3065	10.7709090909	2.42894736842	-1.4	34.1483622351
614	0.307	16.44	0.989473684211	-5.7125	34.1483622351
615	0.3075	16.44	-1.88947368421	-2.8375	32.7418111753
616	0.308	13.6054545455	8.18684210526	1.475	32.7418111753
617	0.3085	13.6054545455	19.7026315789	-1.4	32.7418111753
618	0.309	16.44	21.1421052632	1.475	34.1483622351
619	0.3095	13.6054545455	9.62631578947	0.0375	34.1483622351
620	0.31	7.93636363636	0.989473684211	-1.4	34.1483622351
621	0.3105	0.85	-4.76842105263	1.475	35.5549132948
622	0.311	-4.81909090909	2.42894736842	-1.4	35.5549132948
623	0.3115	10.7709090909	0.989473684211	1.475	34.1483622351
624	0.312	17.8572727273	0.989473684211	-1.4	31.3352601156
625	0.3125	19.2745454545	0.989473684211	-1.4	35.5549132948
626	0.313	2.26727272727	2.42894736842	0.0375	34.1483622351
627	0.3135	-0.567272727273	0.989473684211	-2.8375	49.6204238921
628	0.314	-3.40181818182	3.86842105263	-2.8375	49.6204238921
629	0.3145	-9.07090909091	-0.45	0.0375	41.1811175337
630	0.315	-4.81909090909	-1.88947368421	2.9125	27.1156069364
631	0.3155	-4.81909090909	-0.45	-1.4	28.5221579961
632	0.316	-6.23636363636	-0.45	7.225	36.9614643545
633	0.3165	-9.07090909091	2.42894736842	-1.4	38.3680154143
634	0.317	-13.3227272727	-1.88947368421	-5.7125	41.1811175337
635	0.3175	-18.9918181818	-3.32894736842	-5.7125	41.1811175337
636	0.318	-21.8263636364	0.989473684211	-4.275	38.3680154143
637	0.3185	-26.0781818182	16.8236842105	-1.4	41.1811175337
638	0.319	-26.0781818182	11.0657894737	-1.4	41.1811175337
639	0.3195	-26.0781818182	0.989473684211	0.0375	42.5876685934
640	0.32	-24.6609090909	-6.20789473684	-1.4	41.1811175337
641	0.3205	-18.9918181818	-4.76842105263	2.9125	41.1811175337
642	0.321	-18.9918181818	0.989473684211	2.9125	41.1811175337
643	0.3215	-21.8263636364	2.42894736842	-1.4	36.9614643545
644	0.322	-13.3227272727	0.989473684211	0.0375	36.9614643545
645	0.3225	0.85	0.989473684211	0.0375	38.3680154143
646	0.323	9.35363636364	0.989473684211	2.9125	34.1483622351
647	0.3235	15.0227272727	2.42894736842	4.35	22.8959537572
648	0.324	22.1090909091	0.989473684211	2.9125	36.9614643545
649	0.3245	19.2745454545	0.989473684211	-2.8375	45.4007707129
650	0.325	16.44	0.989473684211	-5.7125	31.3352601156
651	0.3255	19.2745454545	-1.88947368421	4.35	31.3352601156
652	0.326	16.44	3.86842105263	15.85	34.1483622351
653	0.3265	12.1881818182	3.86842105263	17.2875	31.3352601156
654	0.327	9.35363636364	3.86842105263	8.6625	28.5221579961
655	0.3275	3.68454545455	-1.88947368421	1.475	31.3352601156
656	0.328	3.68454545455	-10.5263157895	0.0375	34.1483622351
657	0.3285	2.26727272727	-1.88947368421	-7.15	35.5549132948
658	0.329	-0.567272727273	-4.76842105263	-2.8375	32.7418111753
659	0.3295	-0.567272727273	2.42894736842	0.0375	36.9614643545
660	0.33	-4.81909090909	-3.32894736842	0.0375	39.774566474
661	0.3305	-3.40181818182	-7.64736842105	0.0375	38.3680154143
662	0.331	-9.07090909091	0.989473684211	-1.4	42.5876685934
663	0.3315	-18.9918181818	2.42894736842	0.0375	39.774566474
664	0.332	-11.9054545455	-0.45	-2.8375	41.1811175337
665	0.3325	2.26727272727	0.989473684211	0.0375	43.9942196532
666	0.333	-9.07090909091	-0.45	0.0375	32.7418111753
667	0.3335	-11.9054545455	-1.88947368421	1.475	38.3680154143
668	0.334	-14.74	-0.45	-1.4	52.4335260116
669	0.3345	-23.2436363636	0.989473684211	-4.275	59.4662813102
670	0.335	-24.6609090909	-4.76842105263	0.0375	46.8073217726
671	0.3355	-24.6609090909	0.989473684211	7.225	45.4007707129
672	0.336	-24.6609090909	0.989473684211	18.725	46.8073217726
673	0.3365	-20.4090909091	0.989473684211	15.85	48.2138728324
674	0.337	-16.1572727273	0.989473684211	12.975	45.4007707129
675	0.3375	-14.74	-3.32894736842	4.35	42.5876685934
676	0.338	-6.23636363636	-10.5263157895	2.9125	42.5876685934
677	0.3385	-3.40181818182	-1.88947368421	2.9125	42.5876685934
678	0.339	2.26727272727	11.0657894737	4.35	46.8073217726
679	0.3395	9.35363636364	15.3842105263	0.0375	45.4007707129
680	0.34	16.44	18.2631578947	4.35	43.9942196532
681	0.3405	15.0227272727	-0.45	2.9125	46.8073217726
682	0.341	5.10181818182	-0.45	1.475	46.8073217726
683	0.3415	0.85	0.989473684211	4.35	45.4007707129
684	0.342	12.1881818182	-4.76842105263	1.475	43.9942196532
685	0.3425	15.0227272727	0.989473684211	2.9125	31.3352601156
686	0.343	2.26727272727	2.42894736842	1.475	42.5876685934
687	0.3435	2.26727272727	2.42894736842	1.475	42.5876685934
688	0.344	2.26727272727	0.989473684211	4.35	35.5549132948
689	0.3445	2.26727272727	-0.45	1.475	34.1483622351
690	0.345	3.68454545455	-0.45	-1.4	45.4007707129
691	0.3455	-0.567272727273	-0.45	-1.4	51.0269749518
692	0.346	-0.567272727273	0.989473684211	17.2875	42.5876685934
693	0.3465	-0.567272727273	0.989473684211	7.225	38.3680154143
694	0.347	-0.567272727273	-0.45	-1.4	39.774566474
695	0.3475	-3.40181818182	-1.88947368421	-7.15	38.3680154143
696	0.348	-3.40181818182	8.18684210526	2.9125	36.9614643545
697	0.3485	-3.40181818182	18.2631578947	2.9125	38.3680154143
698	0.349	-3.40181818182	8.18684210526	2.9125	38.3680154143
699	0.3495	-9.07090909091	-1.88947368421	0.0375	36.9614643545
700	0.35	-10.4881818182	-10.5263157895	-1.4	38.3680154143
701	0.3505	-14.74	-7.64736842105	0.0375	35.5549132948
702	0.351	-7.65363636364	-3.32894736842	0.0375	34.1483622351
703	0.3515	-7.65363636364	-0.45	-1.4	34.1483622351
704	0.352	-17.5745454545	-0.45	1.475	41.1811175337
705	0.3525	-30.33	-0.45	-1.4	43.9942196532
706	0.353	-23.2436363636	-0.45	0.0375	39.774566474
707	0.3535	-18.9918181818	-0.45	2.9125	43.9942196532
708	0.354	-14.74	0.989473684211	1.475	32.7418111753
709	0.3545	-10.4881818182	-0.45	1.475	38.3680154143
710	0.355	-6.23636363636	0.989473684211	8.6625	39.774566474
711	0.3555	-1.98454545455	2.42894736842	17.2875	38.3680154143
712	0.356	2.26727272727	2.42894736842	14.4125	39.774566474
713	0.3565	12.1881818182	-0.45	1.475	41.1811175337
714	0.357	19.2745454545	-0.45	-5.7125	39.774566474
715	0.3575	20.6918181818	-4.76842105263	-1.4	41.1811175337
716	0.358	19.2745454545	11.0657894737	-1.4	41.1811175337
717	0.3585	20.6918181818	19.7026315789	-1.4	39.774566474
718	0.359	19.2745454545	11.0657894737	0.0375	38.3680154143
719	0.3595	15.0227272727	-1.88947368421	0.0375	38.3680154143
720	0.36	0.85	2.42894736842	0.0375	41.1811175337
721	0.3605	13.6054545455	0.989473684211	0.0375	36.9614643545
722	0.361	24.9436363636	-0.45	0.0375	36.9614643545
723	0.3615	19.2745454545	2.42894736842	0.0375	42.5876685934
724	0.362	0.85	-0.45	-1.4	41.1811175337
725	0.3625	2.26727272727	0.989473684211	1.475	46.8073217726
726	0.363	-1.98454545455	2.42894736842	0.0375	34.1483622351
727	0.3635	2.26727272727	-0.45	2.9125	31.3352601156
728	0.364	-0.567272727273	-0.45	-4.275	34.1483622351
729	0.3645	-0.567272727273	0.989473684211	-12.9	49.6204238921
730	0.365	-3.40181818182	-1.88947368421	-10.025	36.9614643545
731	0.3655	-1.98454545455	5.30789473684	-5.7125	39.774566474
732	0.366	-6.23636363636	2.42894736842	0.0375	38.3680154143
733	0.3665	-6.23636363636	-4.76842105263	0.0375	38.3680154143
734	0.367	-9.07090909091	-9.08684210526	0.0375	38.3680154143
735	0.3675	-16.1572727273	-7.64736842105	-1.4	38.3680154143
736	0.368	-21.8263636364	-0.45	1.475	42.5876685934
737	0.3685	-21.8263636364	0.989473684211	0.0375	41.1811175337
738	0.369	-31.7472727273	0.989473684211	0.0375	42.5876685934
739	0.3695	-33.1645454545	0.989473684211	0.0375	39.774566474
740	0.37	-24.6609090909	2.42894736842	1.475	28.5221579961
741	0.3705	-13.3227272727	2.42894736842	1.475	31.3352601156
742	0.371	-11.9054545455	-0.45	0.0375	45.4007707129
743	0.3715	-6.23636363636	0.989473684211	0.0375	46.8073217726
744	0.372	-3.40181818182	0.989473684211	2.9125	34.1483622351
745	0.3725	2.26727272727	0.989473684211	2.9125	24.302504817
746	0.373	10.7709090909	-0.45	2.9125	31.3352601156
747	0.3735	16.44	-3.32894736842	-4.275	31.3352601156
748	0.374	17.8572727273	0.989473684211	-1.4	32.7418111753
749	0.3745	16.44	2.42894736842	1.475	31.3352601156
750	0.375	17.8572727273	-6.20789473684	2.9125	31.3352601156
751	0.3755	15.0227272727	-10.5263157895	1.475	31.3352601156
752	0.376	16.44	16.8236842105	2.9125	29.9287090559
753	0.3765	10.7709090909	6.74736842105	0.0375	29.9287090559
754	0.377	6.51909090909	-6.20789473684	1.475	27.1156069364
755	0.3775	0.85	-9.08684210526	0.0375	29.9287090559
756	0.378	10.7709090909	-1.88947368421	0.0375	29.9287090559
757	0.3785	19.2745454545	-1.88947368421	0.0375	28.5221579961
758	0.379	16.44	-1.88947368421	0.0375	29.9287090559
759	0.3795	2.26727272727	0.989473684211	1.475	32.7418111753
760	0.38	-9.07090909091	-3.32894736842	0.0375	32.7418111753
761	0.3805	-1.98454545455	0.989473684211	1.475	39.774566474
762	0.381	-4.81909090909	-0.45	4.35	25.7090558767
763	0.3815	-4.81909090909	-0.45	1.475	18.676300578
764	0.382	-6.23636363636	2.42894736842	-1.4	24.302504817
765	0.3825	-6.23636363636	0.989473684211	-10.025	25.7090558767
766	0.383	-7.65363636364	-1.88947368421	-2.8375	28.5221579961
767	0.3835	-11.9054545455	-3.32894736842	14.4125	22.8959537572
768	0.384	-17.5745454545	-3.32894736842	-7.15	27.1156069364
769	0.3845	-21.8263636364	2.42894736842	-2.8375	27.1156069364
770	0.385	-24.6609090909	-6.20789473684	0.0375	24.302504817
771	0.3855	-26.0781818182	9.62631578947	1.475	25.7090558767
772	0.386	-23.2436363636	19.7026315789	0.0375	24.302504817
773	0.3865	-20.4090909091	-6.20789473684	0.0375	21.4894026975
774	0.387	-14.74	-1.88947368421	4.35	21.4894026975
775	0.3875	-24.6609090909	-0.45	2.9125	22.8959537572
776	0.388	-10.4881818182	-0.45	2.9125	22.8959537572
777	0.3885	0.85	0.989473684211	1.475	21.4894026975
778	0.389	17.8572727273	0.989473684211	2.9125	20.0828516378
779	0.3895	5.10181818182	-0.45	2.9125	27.1156069364
780	0.39	15.0227272727	-1.88947368421	1.475	32.7418111753
781	0.3905	17.8572727273	-1.88947368421	4.35	24.302504817
782	0.391	16.44	-0.45	4.35	3.204238921
783	0.3915	13.6054545455	-3.32894736842	2.9125	1.79768786127
784	0.392	17.8572727273	-0.45	-7.15	8.83044315992
785	0.3925	17.8572727273	0.989473684211	-2.8375	7.42389210019
786	0.393	13.6054545455	-4.76842105263	1.475	6.01734104046
787	0.3935	9.35363636364	-1.88947368421	0.0375	6.01734104046
788	0.394	5.10181818182	0.989473684211	1.475	6.01734104046
789	0.3945	6.51909090909	8.18684210526	2.9125	4.61078998073
790	0.395	3.68454545455	-3.32894736842	4.35	3.204238921
791	0.3955	2.26727272727	-9.08684210526	2.9125	6.01734104046
792	0.396	0.85	-4.76842105263	1.475	4.61078998073
793	0.3965	0.85	-1.88947368421	0.0375	6.01734104046
794	0.397	5.10181818182	-0.45	0.0375	6.01734104046
795	0.3975	15.0227272727	-3.32894736842	0.0375	6.01734104046
796	0.398	5.10181818182	-0.45	0.0375	6.01734104046
797	0.3985	-6.23636363636	-1.88947368421	1.475	1.79768786127
798	0.399	-9.07090909091	0.989473684211	-2.8375	17.2697495183
799	0.3995	-10.4881818182	-0.45	-1.4	8.83044315992
800	0.4	-11.9054545455	-1.88947368421	1.475	-6.64161849711
801	0.4005	-14.74	-1.88947368421	-4.275	-9.45472061657
802	0.401	-20.4090909091	-0.45	-11.4625	-5.23506743738
803	0.4015	-24.6609090909	-1.88947368421	-4.275	-5.23506743738
804	0.402	-26.0781818182	-6.20789473684	-8.5875	-5.23506743738
805	0.4025	-24.6609090909	-6.20789473684	-1.4	-1.01541425819
806	0.403	-26.0781818182	-11.9657894737	2.9125	-5.23506743738
807	0.4035	-18.9918181818	8.18684210526	2.9125	-8.04816955684
808	0.404	-16.1572727273	15.3842105263	1.475	-6.64161849711
809	0.4045	-20.4090909091	2.42894736842	0.0375	-5.23506743738
810	0.405	-18.9918181818	0.989473684211	2.9125	-5.23506743738
811	0.4055	2.26727272727	-0.45	2.9125	-8.04816955684
812	0.406	20.6918181818	-0.45	4.35	-6.64161849711
813	0.4065	26.3609090909	0.989473684211	2.9125	-8.04816955684
814	0.407	24.9436363636	2.42894736842	1.475	-6.64161849711
815	0.4075	17.8572727273	2.42894736842	-1.4	3.204238921
816	0.408	17.8572727273	-0.45	0.0375	4.61078998073
817	0.4085	15.0227272727	-1.88947368421	5.7875	-5.23506743738
818	0.409	17.8572727273	0.989473684211	4.35	-16.4874759152
819	0.4095	15.0227272727	-1.88947368421	4.35	-24.9267822736
820	0.41	10.7709090909	2.42894736842	1.475	-27.7398843931
821	0.4105	7.93636363636	2.42894736842	5.7875	-20.7071290944
822	0.411	3.68454545455	0.989473684211	-8.5875	-17.894026975
823	0.4115	0.85	-0.45	-1.4	-20.7071290944
824	0.412	-0.567272727273	-7.64736842105	1.475	-20.7071290944
825	0.4125	-1.98454545455	-11.9657894737	2.9125	-20.7071290944
826	0.413	-1.98454545455	-10.5263157895	1.475	-22.1136801541
827	0.4135	-6.23636363636	-1.88947368421	2.9125	-23.5202312139
828	0.414	-10.4881818182	-6.20789473684	2.9125	-22.1136801541
829	0.4145	-10.4881818182	-10.5263157895	1.475	-22.1136801541
830	0.415	-14.74	-1.88947368421	1.475	-27.7398843931
831	0.4155	-18.9918181818	-0.45	2.9125	-27.7398843931
832	0.416	-20.4090909091	-0.45	1.475	-24.9267822736
833	0.4165	-10.4881818182	-3.32894736842	0.0375	-24.9267822736
834	0.417	-18.9918181818	-1.88947368421	-1.4	-37.5857418112
835	0.4175	-18.9918181818	-4.76842105263	1.475	-27.7398843931
836	0.418	-28.9127272727	-0.45	0.0375	-24.9267822736
837	0.4185	-28.9127272727	-0.45	-8.5875	-29.1464354528
838	0.419	-30.33	-1.88947368421	-4.275	-24.9267822736
839	0.4195	-30.33	0.989473684211	7.225	-26.3333333333
840	0.42	-23.2436363636	0.989473684211	5.7875	-31.9595375723
841	0.4205	-17.5745454545	-3.32894736842	2.9125	-26.3333333333
842	0.421	-14.74	0.989473684211	14.4125	-26.3333333333
843	0.4215	-10.4881818182	-0.45	0.0375	-23.5202312139
844	0.422	-6.23636363636	16.8236842105	4.35	-29.1464354528
845	0.4225	-3.40181818182	5.30789473684	5.7875	-27.7398843931
846	0.423	5.10181818182	-6.20789473684	4.35	-26.3333333333
847	0.4235	13.6054545455	18.2631578947	5.7875	-29.1464354528
848	0.424	10.7709090909	-0.45	2.9125	-26.3333333333
849	0.4245	0.85	-1.88947368421	1.475	-23.5202312139
850	0.425	2.26727272727	-1.88947368421	1.475	-26.3333333333
851	0.4255	19.2745454545	-0.45	2.9125	-29.1464354528
852	0.426	34.8645454545	-1.88947368421	2.9125	-27.7398843931
853	0.4265	5.10181818182	0.989473684211	-1.4	-22.1136801541
854	0.427	3.68454545455	-1.88947368421	-1.4	-10.8612716763
855	0.4275	2.26727272727	2.42894736842	1.475	-15.0809248555
856	0.428	0.85	0.989473684211	5.7875	-31.9595375723
857	0.4285	0.85	0.989473684211	2.9125	-36.1791907514
858	0.429	-6.23636363636	-0.45	-2.8375	-36.1791907514
859	0.4295	-4.81909090909	3.86842105263	-8.5875	-31.9595375723
860	0.43	-7.65363636364	2.42894736842	-4.275	-31.9595375723
861	0.4305	-6.23636363636	0.989473684211	-1.4	-30.5529865125
862	0.431	-7.65363636364	-9.08684210526	1.475	-29.1464354528
863	0.4315	-11.9054545455	2.42894736842	0.0375	-30.5529865125
864	0.432	-10.4881818182	2.42894736842	2.9125	-30.5529865125
865	0.4325	-11.9054545455	-4.76842105263	0.0375	-29.1464354528
866	0.433	-9.07090909091	-0.45	0.0375	-29.1464354528
867	0.4335	-14.74	2.42894736842	-1.4	-30.5529865125
868	0.434	-30.33	-0.45	0.0375	-29.1464354528
869	0.4345	-37.4163636364	0.989473684211	1.475	-31.9595375723
870	0.435	-31.7472727273	0.989473684211	2.9125	-36.1791907514
871	0.4355	-30.33	0.989473684211	0.0375	-38.9922928709
872	0.436	-31.7472727273	0.989473684211	2.9125	-26.3333333333
873	0.4365	-28.9127272727	2.42894736842	0.0375	-29.1464354528
874	0.437	-23.2436363636	0.989473684211	-7.15	-30.5529865125
875	0.4375	-16.1572727273	-0.45	7.225	-29.1464354528
876	0.438	-11.9054545455	0.989473684211	4.35	-34.7726396917
877	0.4385	-9.07090909091	2.42894736842	18.725	-33.366088632
878	0.439	-4.81909090909	0.989473684211	-2.8375	-36.1791907514
879	0.4395	2.26727272727	5.30789473684	4.35	-33.366088632
880	0.44	9.35363636364	-1.88947368421	2.9125	-34.7726396917
881	0.4405	12.1881818182	-10.5263157895	1.475	-36.1791907514
882	0.441	13.6054545455	-0.45	4.35	-37.5857418112
883	0.4415	9.35363636364	15.3842105263	2.9125	-36.1791907514
884	0.442	13.6054545455	0.989473684211	4.35	-34.7726396917
885	0.4425	7.93636363636	-0.45	2.9125	-36.1791907514
886	0.443	-6.23636363636	2.42894736842	1.475	-37.5857418112
887	0.4435	-4.81909090909	-0.45	4.35	-37.5857418112
888	0.444	-3.40181818182	2.42894736842	5.7875	-44.6184971098
889	0.4445	-4.81909090909	2.42894736842	5.7875	-47.4315992293
890	0.445	-4.81909090909	2.42894736842	4.35	-38.9922928709
891	0.4455	-4.81909090909	-0.45	-1.4	-33.366088632
892	0.446	-4.81909090909	-0.45	-10.025	-36.1791907514
893	0.4465	-6.23636363636	0.989473684211	0.0375	-23.5202312139
894	0.447	-9.07090909091	-0.45	2.9125	-34.7726396917
895	0.4475	-9.07090909091	0.989473684211	-8.5875	-23.5202312139
896	0.448	-9.07090909091	-0.45	-2.8375	-34.7726396917
897	0.4485	-9.07090909091	0.989473684211	12.975	-34.7726396917
898	0.449	-11.9054545455	-3.32894736842	18.725	-37.5857418112
899	0.4495	-13.3227272727	-7.64736842105	1.475	-34.7726396917
900	0.45	-11.9054545455	5.30789473684	2.9125	-34.7726396917
901	0.4505	-16.1572727273	15.3842105263	0.0375	-34.7726396917
902	0.451	-20.4090909091	0.989473684211	-1.4	-33.366088632
903	0.4515	-31.7472727273	-0.45	0.0375	-33.366088632
904	0.452	-40.2509090909	-1.88947368421	1.475	-31.9595375723
905	0.4525	-43.0854545455	-1.88947368421	-1.4	-34.7726396917
906	0.453	-13.3227272727	0.989473684211	1.475	-34.7726396917
907	0.4535	-23.2436363636	0.989473684211	0.0375	-31.9595375723
908	0.454	-26.0781818182	2.42894736842	1.475	-31.9595375723
909	0.4545	-16.1572727273	2.42894736842	1.475	-37.5857418112
910	0.455	-11.9054545455	3.86842105263	2.9125	-44.6184971098
911	0.4555	-10.4881818182	2.42894736842	0.0375	-34.7726396917
912	0.456	-3.40181818182	2.42894736842	14.4125	-33.366088632
913	0.4565	3.68454545455	6.74736842105	7.225	-43.2119460501
914	0.457	13.6054545455	5.30789473684	1.475	-40.3988439306
915	0.4575	15.0227272727	6.74736842105	1.475	-31.9595375723
916	0.458	12.1881818182	6.74736842105	1.475	-33.366088632
917	0.4585	12.1881818182	-1.88947368421	2.9125	-36.1791907514
918	0.459	12.1881818182	-9.08684210526	2.9125	-37.5857418112
919	0.4595	10.7709090909	-6.20789473684	2.9125	-33.366088632
920	0.46	3.68454545455	3.86842105263	0.0375	-34.7726396917
921	0.4605	0.85	-3.32894736842	1.475	-36.1791907514
922	0.461	-9.07090909091	0.989473684211	0.0375	-34.7726396917
923	0.4615	-3.40181818182	0.989473684211	0.0375	-33.366088632
924	0.462	9.35363636364	-0.45	1.475	-33.366088632
925	0.4625	13.6054545455	-1.88947368421	0.0375	-36.1791907514
926	0.463	-7.65363636364	-0.45	0.0375	-27.7398843931
927	0.4635	-9.07090909091	-1.88947368421	-1.4	-19.3005780347
928	0.464	-10.4881818182	-1.88947368421	0.0375	-22.1136801541
929	0.4645	-7.65363636364	-3.32894736842	4.35	-36.1791907514
930	0.465	-11.9054545455	0.989473684211	-1.4	-40.3988439306
931	0.4655	-11.9054545455	-3.32894736842	-2.8375	-31.9595375723
932	0.466	-16.1572727273	-3.32894736842	-8.5875	-31.9595375723
933	0.4665	-18.9918181818	0.989473684211	-2.8375	-31.9595375723
934	0.467	-20.4090909091	2.42894736842	-1.4	-31.9595375723
935	0.4675	-27.4954545455	-0.45	-1.4	-30.5529865125
936	0.468	-28.9127272727	5.30789473684	1.475	-27.7398843931
937	0.4685	-35.9990909091	-6.20789473684	1.475	-29.1464354528
938	0.469	-37.4163636364	-7.64736842105	1.475	-29.1464354528
939	0.4695	-33.1645454545	-0.45	4.35	-27.7398843931
940	0.47	-24.6609090909	0.989473684211	2.9125	-31.9595375723
941	0.4705	-21.8263636364	0.989473684211	4.35	-27.7398843931
942	0.471	-1.98454545455	-0.45	5.7875	-30.5529865125
943	0.4715	-1.98454545455	-0.45	4.35	-27.7398843931
944	0.472	-11.9054545455	-0.45	1.475	-30.5529865125
945	0.4725	-6.23636363636	0.989473684211	2.9125	-17.894026975
946	0.473	-1.98454545455	0.989473684211	5.7875	-30.5529865125
947	0.4735	10.7709090909	-1.88947368421	4.35	-38.9922928709
948	0.474	15.0227272727	0.989473684211	-1.4	-34.7726396917
949	0.4745	12.1881818182	2.42894736842	20.1625	-34.7726396917
950	0.475	12.1881818182	0.989473684211	14.4125	-30.5529865125
951	0.4755	15.0227272727	-3.32894736842	0.0375	-29.1464354528
952	0.476	9.35363636364	-0.45	-4.275	-29.1464354528
953	0.4765	2.26727272727	-11.9657894737	-1.4	-29.1464354528
954	0.477	0.85	-10.5263157895	1.475	-30.5529865125
955	0.4775	2.26727272727	9.62631578947	0.0375	-34.7726396917
956	0.478	2.26727272727	0.989473684211	1.475	-27.7398843931
957	0.4785	-7.65363636364	-0.45	2.9125	-29.1464354528
958	0.479	-16.1572727273	-1.88947368421	1.475	-27.7398843931
959	0.4795	-6.23636363636	0.989473684211	0.0375	-27.7398843931
960	0.48	12.1881818182	0.989473684211	0.0375	-29.1464354528
961	0.4805	12.1881818182	-1.88947368421	1.475	-24.9267822736
962	0.481	-9.07090909091	-0.45	-1.4	-10.8612716763
963	0.4815	-9.07090909091	0.989473684211	-1.4	-13.6743737958
964	0.482	-11.9054545455	0.989473684211	2.9125	-22.1136801541
965	0.4825	-9.07090909091	-0.45	2.9125	-30.5529865125
966	0.483	-13.3227272727	3.86842105263	0.0375	-36.1791907514
967	0.4835	-16.1572727273	3.86842105263	-4.275	-29.1464354528
968	0.484	-16.1572727273	-4.76842105263	15.85	-29.1464354528
969	0.4845	-24.6609090909	-0.45	15.85	-19.3005780347
970	0.485	-30.33	-7.64736842105	2.9125	-19.3005780347
971	0.4855	-30.33	-10.5263157895	2.9125	-16.4874759152
972	0.486	-31.7472727273	-7.64736842105	0.0375	-12.267822736
973	0.4865	-24.6609090909	6.74736842105	1.475	-12.267822736
974	0.487	-18.9918181818	18.2631578947	1.475	-15.0809248555
975	0.4875	-14.74	15.3842105263	1.475	-15.0809248555
976	0.488	-10.4881818182	-0.45	4.35	-15.0809248555
977	0.4885	-7.65363636364	2.42894736842	4.35	-12.267822736
978	0.489	-9.07090909091	5.30789473684	-1.4	-10.8612716763
979	0.4895	15.0227272727	3.86842105263	4.35	-12.267822736
980	0.49	22.1090909091	3.86842105263	1.475	-12.267822736
981	0.4905	15.0227272727	0.989473684211	4.35	-12.267822736
982	0.491	13.6054545455	-0.45	4.35	-10.8612716763
983	0.4915	12.1881818182	-0.45	7.225	-22.1136801541
984	0.492	12.1881818182	0.989473684211	1.475	0.391136801541
985	0.4925	15.0227272727	0.989473684211	0.0375	-10.8612716763
986	0.493	10.7709090909	0.989473684211	4.35	-23.5202312139
987	0.4935	0.85	-0.45	1.475	-6.64161849711
988	0.494	0.85	3.86842105263	0.0375	-12.267822736
989	0.4945	-0.567272727273	2.42894736842	2.9125	-16.4874759152
990	0.495	-3.40181818182	-7.64736842105	1.475	-15.0809248555
991	0.4955	-3.40181818182	-10.5263157895	0.0375	-15.0809248555
992	0.496	-3.40181818182	-0.45	1.475	-13.6743737958
993	0.4965	-0.567272727273	-3.32894736842	0.0375	-10.8612716763
994	0.497	-1.98454545455	-0.45	-2.8375	-9.45472061657
995	0.4975	-10.4881818182	0.989473684211	-1.4	-9.45472061657
996	0.498	-18.9918181818	0.989473684211	0.0375	-9.45472061657
997	0.4985	-9.07090909091	2.42894736842	2.9125	-9.45472061657
998	0.499	7.93636363636	-0.45	1.475	-12.267822736
999	0.4995	-18.9918181818	0.989473684211	0.0375	-10.8612716763
1000	0.5	-17.5745454545	0.989473684211	-2.8375	6.01734104046
1001	0.5005	-16.1572727273	-0.45	-2.8375	8.83044315992
1002	0.501	-20.4090909091	-0.45	0.0375	3.204238921
1003	0.5015	-26.0781818182	0.989473684211	-1.4	-10.8612716763
1004	0.502	-28.9127272727	-1.88947368421	-8.5875	-1.01541425819
1005	0.5025	-27.4954545455	-1.88947368421	-1.4	-2.42196531792
1006	0.503	-23.2436363636	2.42894736842	14.4125	-6.64161849711
1007	0.5035	-18.9918181818	-0.45	18.725	-6.64161849711
1008	0.504	-14.74	-0.45	7.225	-5.23506743738
1009	0.5045	-10.4881818182	-0.45	-4.275	-6.64161849711
1010	0.505	-6.23636363636	0.989473684211	-5.7125	-6.64161849711
1011	0.5055	-3.40181818182	-6.20789473684	2.9125	-6.64161849711
1012	0.506	2.26727272727	-10.5263157895	2.9125	-6.64161849711
1013	0.5065	10.7709090909	13.9447368421	4.35	-9.45472061657
1014	0.507	15.0227272727	0.989473684211	2.9125	-8.04816955684
1015	0.5075	16.44	-9.08684210526	1.475	-3.82851637765
1016	0.508	7.93636363636	-1.88947368421	4.35	-6.64161849711
1017	0.5085	5.10181818182	0.989473684211	1.475	-9.45472061657
1018	0.509	34.8645454545	0.989473684211	2.9125	-10.8612716763
1019	0.5095	23.5263636364	-0.45	1.475	-6.64161849711
1020	0.51	2.26727272727	0.989473684211	2.9125	3.204238921
1021	0.5105	3.68454545455	-0.45	1.475	-2.42196531792
1022	0.511	7.93636363636	-0.45	5.7875	0.391136801541
1023	0.5115	3.68454545455	-1.88947368421	2.9125	-10.8612716763
1024	0.512	-1.98454545455	-0.45	2.9125	-12.267822736
1025	0.5125	-1.98454545455	3.86842105263	8.6625	-1.01541425819
1026	0.513	-3.40181818182	0.989473684211	7.225	-9.45472061657
1027	0.5135	-3.40181818182	-0.45	1.475	-5.23506743738
1028	0.514	-4.81909090909	2.42894736842	7.225	-5.23506743738
1029	0.5145	-10.4881818182	5.30789473684	2.9125	-5.23506743738
1030	0.515	-7.65363636364	2.42894736842	-8.5875	-2.42196531792
1031	0.5155	-9.07090909091	3.86842105263	0.0375	-5.23506743738
1032	0.516	-14.74	-4.76842105263	-1.4	-2.42196531792
1033	0.5165	-11.9054545455	-10.5263157895	1.475	-3.82851637765
1034	0.517	-21.8263636364	-1.88947368421	0.0375	-6.64161849711
1035	0.5175	-35.9990909091	-1.88947368421	0.0375	-5.23506743738
1036	0.518	-33.1645454545	-3.32894736842	0.0375	-8.04816955684
1037	0.5185	-27.4954545455	-0.45	1.475	-5.23506743738
1038	0.519	-28.9127272727	-0.45	-1.4	-17.894026975
1039	0.5195	-27.4954545455	-0.45	1.475	-10.8612716763
1040	0.52	-23.2436363636	0.989473684211	0.0375	-10.8612716763
1041	0.5205	-17.5745454545	-1.88947368421	-1.4	-3.82851637765
1042	0.521	-14.74	0.989473684211	-8.5875	-9.45472061657
1043	0.5215	-10.4881818182	-1.88947368421	-8.5875	-9.45472061657
1044	0.522	-3.40181818182	0.989473684211	-1.4	-9.45472061657
1045	0.5225	-0.567272727273	0.989473684211	11.5375	-9.45472061657
1046	0.523	3.68454545455	3.86842105263	1.475	-13.6743737958
1047	0.5235	16.44	3.86842105263	21.6	-12.267822736
1048	0.524	19.2745454545	-4.76842105263	4.35	-13.6743737958
1049	0.5245	16.44	-11.9657894737	1.475	-12.267822736
1050	0.525	12.1881818182	-11.9657894737	1.475	-16.4874759152
1051	0.5255	16.44	-10.5263157895	2.9125	-15.0809248555
1052	0.526	15.0227272727	-4.76842105263	0.0375	-15.0809248555
1053	0.5265	16.44	-0.45	1.475	-15.0809248555
1054	0.527	12.1881818182	0.989473684211	2.9125	-12.267822736
1055	0.5275	3.68454545455	-1.88947368421	1.475	-12.267822736
1056	0.528	10.7709090909	-0.45	1.475	-10.8612716763
1057	0.5285	-3.40181818182	-0.45	0.0375	-9.45472061657
1058	0.529	-6.23636363636	-1.88947368421	1.475	-6.64161849711
1059	0.5295	-9.07090909091	-0.45	1.475	-12.267822736
1060	0.53	-1.98454545455	-1.88947368421	2.9125	-13.6743737958
1061	0.5305	-1.98454545455	-0.45	4.35	-15.0809248555
1062	0.531	-4.81909090909	-0.45	-8.5875	-12.267822736
1063	0.5315	-4.81909090909	2.42894736842	-11.4625	-5.23506743738
1064	0.532	-1.98454545455	0.989473684211	1.475	-12.267822736
1065	0.5325	-4.81909090909	5.30789473684	17.2875	-16.4874759152
1066	0.533	-10.4881818182	3.86842105263	12.975	-12.267822736
1067	0.5335	-11.9054545455	6.74736842105	-1.4	-10.8612716763
1068	0.534	-17.5745454545	0.989473684211	-1.4	-8.04816955684
1069	0.5345	-23.2436363636	2.42894736842	0.0375	-8.04816955684
1070	0.535	-27.4954545455	-4.76842105263	0.0375	-8.04816955684
1071	0.5355	-26.0781818182	-4.76842105263	0.0375	-6.64161849711
1072	0.536	-21.8263636364	0.989473684211	-1.4	-8.04816955684
1073	0.5365	-21.8263636364	2.42894736842	2.9125	-9.45472061657
1074	0.537	-23.2436363636	2.42894736842	4.35	-5.23506743738
1075	0.5375	-23.2436363636	0.989473684211	1.475	-9.45472061657
1076	0.538	-14.74	3.86842105263	4.35	-17.894026975
1077	0.5385	-7.65363636364	5.30789473684	7.225	-16.4874759152
1078	0.539	-1.98454545455	3.86842105263	4.35	-3.82851637765
1079	0.5395	5.10181818182	2.42894736842	2.9125	4.61078998073
1080	0.54	12.1881818182	2.42894736842	1.475	-10.8612716763
1081	0.5405	17.8572727273	3.86842105263	18.725	-10.8612716763
1082	0.541	19.2745454545	2.42894736842	18.725	-13.6743737958
1083	0.5415	13.6054545455	2.42894736842	7.225	-10.8612716763
1084	0.542	16.44	3.86842105263	-1.4	-10.8612716763
1085	0.5425	17.8572727273	-0.45	-7.15	-8.04816955684
1086	0.543	15.0227272727	2.42894736842	0.0375	-12.267822736
1087	0.5435	10.7709090909	15.3842105263	0.0375	-8.04816955684
1088	0.544	7.93636363636	16.8236842105	0.0375	-10.8612716763
1089	0.5445	2.26727272727	8.18684210526	2.9125	-9.45472061657
1090	0.545	0.85	-9.08684210526	0.0375	-9.45472061657
1091	0.5455	-1.98454545455	-7.64736842105	4.35	-8.04816955684
1092	0.546	10.7709090909	-1.88947368421	0.0375	-9.45472061657
1093	0.5465	16.44	0.989473684211	2.9125	-9.45472061657
1094	0.547	10.7709090909	-0.45	0.0375	-5.23506743738
1095	0.5475	-4.81909090909	0.989473684211	1.475	-1.01541425819
1096	0.548	-17.5745454545	3.86842105263	0.0375	-3.82851637765
1097	0.5485	-13.3227272727	2.42894736842	-1.4	-9.45472061657
1098	0.549	-9.07090909091	2.42894736842	4.35	-13.6743737958
1099	0.5495	-10.4881818182	0.989473684211	-1.4	-10.8612716763
1100	0.55	-11.9054545455	-0.45	0.0375	3.204238921
1101	0.5505	-13.3227272727	-1.88947368421	-10.025	0.391136801541
1102	0.551	-21.8263636364	2.42894736842	-1.4	17.2697495183
1103	0.5515	-23.2436363636	0.989473684211	7.225	0.391136801541
1104	0.552	-30.33	-0.45	-2.8375	-1.01541425819
1105	0.5525	-30.33	-1.88947368421	-8.5875	0.391136801541
1106	0.553	-27.4954545455	-1.88947368421	-7.15	1.79768786127
1107	0.5535	-18.9918181818	6.74736842105	0.0375	-1.01541425819
1108	0.554	-13.3227272727	16.8236842105	-1.4	-1.01541425819
1109	0.5545	-7.65363636364	16.8236842105	0.0375	-2.42196531792
1110	0.555	-7.65363636364	6.74736842105	1.475	-2.42196531792
1111	0.5555	-4.81909090909	-6.20789473684	2.9125	-2.42196531792
1112	0.556	0.85	-6.20789473684	1.475	-2.42196531792
1113	0.5565	3.68454545455	-1.88947368421	4.35	-3.82851637765
1114	0.557	3.68454545455	2.42894736842	2.9125	-2.42196531792
1115	0.5575	3.68454545455	3.86842105263	1.475	-5.23506743738
1116	0.558	9.35363636364	0.989473684211	4.35	-5.23506743738
1117	0.5585	9.35363636364	5.30789473684	5.7875	-13.6743737958
1118	0.559	16.44	0.989473684211	4.35	-13.6743737958
1119	0.5595	15.0227272727	-1.88947368421	1.475	-6.64161849711
1120	0.56	12.1881818182	0.989473684211	-2.8375	-9.45472061657
1121	0.5605	5.10181818182	0.989473684211	-10.025	-6.64161849711
1122	0.561	2.26727272727	2.42894736842	-2.8375	-6.64161849711
1123	0.5615	2.26727272727	3.86842105263	8.6625	-5.23506743738
1124	0.562	-1.98454545455	3.86842105263	20.1625	-6.64161849711
1125	0.5625	-1.98454545455	3.86842105263	17.2875	-10.8612716763
1126	0.563	-1.98454545455	-1.88947368421	4.35	-2.42196531792
1127	0.5635	-6.23636363636	3.86842105263	-7.15	0.391136801541
1128	0.564	-7.65363636364	0.989473684211	1.475	-1.01541425819
1129	0.5645	-7.65363636364	2.42894736842	1.475	-1.01541425819
1130	0.565	-7.65363636364	-6.20789473684	0.0375	-1.01541425819
1131	0.5655	-7.65363636364	-6.20789473684	-1.4	0.391136801541
1132	0.566	-6.23636363636	0.989473684211	-1.4	0.391136801541
1133	0.5665	-21.8263636364	2.42894736842	-1.4	0.391136801541
1134	0.567	-18.9918181818	5.30789473684	1.475	1.79768786127
1135	0.5675	-10.4881818182	0.989473684211	-1.4	0.391136801541
1136	0.568	-26.0781818182	0.989473684211	-1.4	3.204238921
1137	0.5685	-30.33	0.989473684211	-1.4	15.8631984586
1138	0.569	-28.9127272727	0.989473684211	2.9125	13.0500963391
1139	0.5695	-28.9127272727	0.989473684211	4.35	-2.42196531792
1140	0.57	-26.0781818182	0.989473684211	2.9125	-8.04816955684
1141	0.5705	-17.5745454545	3.86842105263	11.5375	0.391136801541
1142	0.571	-16.1572727273	0.989473684211	-1.4	0.391136801541
1143	0.5715	-10.4881818182	-0.45	-10.025	1.79768786127
1144	0.572	-9.07090909091	0.989473684211	-4.275	0.391136801541
1145	0.5725	-4.81909090909	2.42894736842	0.0375	1.79768786127
1146	0.573	3.68454545455	16.8236842105	2.9125	-1.01541425819
1147	0.5735	9.35363636364	3.86842105263	4.35	0.391136801541
1148	0.574	15.0227272727	-9.08684210526	1.475	0.391136801541
1149	0.5745	12.1881818182	-7.64736842105	1.475	-1.01541425819
1150	0.575	15.0227272727	-4.76842105263	0.0375	0.391136801541
1151	0.5755	29.1954545455	-0.45	2.9125	-5.23506743738
1152	0.576	26.3609090909	0.989473684211	1.475	-1.01541425819
1153	0.5765	13.6054545455	2.42894736842	1.475	1.79768786127
1154	0.577	-0.567272727273	-1.88947368421	1.475	3.204238921
1155	0.5775	7.93636363636	-0.45	2.9125	-1.01541425819
1156	0.578	0.85	3.86842105263	2.9125	-2.42196531792
1157	0.5785	-0.567272727273	0.989473684211	1.475	-8.04816955684
1158	0.579	0.85	-0.45	-1.4	0.391136801541
1159	0.5795	-4.81909090909	0.989473684211	18.725	0.391136801541
1160	0.58	-4.81909090909	0.989473684211	4.35	-8.04816955684
1161	0.5805	-3.40181818182	-0.45	-4.275	-2.42196531792
1162	0.581	-4.81909090909	0.989473684211	0.0375	1.79768786127
1163	0.5815	-4.81909090909	0.989473684211	0.0375	0.391136801541
1164	0.582	-6.23636363636	-0.45	5.7875	1.79768786127
1165	0.5825	-7.65363636364	15.3842105263	0.0375	4.61078998073
1166	0.583	-11.9054545455	-1.88947368421	0.0375	3.204238921
1167	0.5835	-16.1572727273	-4.76842105263	2.9125	6.01734104046
1168	0.584	-17.5745454545	-0.45	1.475	4.61078998073
1169	0.5845	-23.2436363636	-1.88947368421	1.475	7.42389210019
1170	0.585	-34.5818181818	-1.88947368421	0.0375	1.79768786127
1171	0.5855	-41.6681818182	0.989473684211	1.475	3.204238921
1172	0.586	-33.1645454545	-1.88947368421	0.0375	3.204238921
1173	0.5865	-27.4954545455	0.989473684211	5.7875	-2.42196531792
1174	0.587	-21.8263636364	-0.45	4.35	-2.42196531792
1175	0.5875	-14.74	-0.45	1.475	-1.01541425819
1176	0.588	-13.3227272727	-1.88947368421	1.475	7.42389210019
1177	0.5885	-7.65363636364	0.989473684211	-7.15	3.204238921
1178	0.589	-6.23636363636	0.989473684211	-5.7125	6.01734104046
1179	0.5895	0.85	2.42894736842	2.9125	15.8631984586
1180	0.59	10.7709090909	3.86842105263	-2.8375	3.204238921
1181	0.5905	17.8572727273	0.989473684211	18.725	0.391136801541
1182	0.591	15.0227272727	-1.88947368421	4.35	0.391136801541
1183	0.5915	13.6054545455	-0.45	15.85	0.391136801541
1184	0.592	16.44	2.42894736842	1.475	1.79768786127
1185	0.5925	15.0227272727	6.74736842105	-1.4	0.391136801541
1186	0.593	15.0227272727	13.9447368421	0.0375	1.79768786127
1187	0.5935	7.93636363636	0.989473684211	2.9125	0.391136801541
1188	0.594	-0.567272727273	0.989473684211	0.0375	4.61078998073
1189	0.5945	-6.23636363636	0.989473684211	2.9125	4.61078998073
1190	0.595	-14.74	0.989473684211	0.0375	1.79768786127
1191	0.5955	-13.3227272727	0.989473684211	2.9125	0.391136801541
1192	0.596	9.35363636364	-0.45	1.475	-1.01541425819
1193	0.5965	-6.23636363636	0.989473684211	4.35	-10.8612716763
1194	0.597	-16.1572727273	-0.45	1.475	-2.42196531792
1195	0.5975	-14.74	-1.88947368421	1.475	-1.01541425819
1196	0.598	-6.23636363636	-0.45	1.475	1.79768786127
1197	0.5985	-6.23636363636	0.989473684211	2.9125	-6.64161849711
1198	0.599	-6.23636363636	0.989473684211	4.35	-12.267822736
1199	0.5995	-11.9054545455	2.42894736842	12.975	-1.01541425819
1200	0.6	-14.74	-0.45	7.225	-2.42196531792
1201	0.6005	-16.1572727273	-0.45	-5.7125	-2.42196531792
1202	0.601	-23.2436363636	-4.76842105263	-8.5875	-1.01541425819
1203	0.6015	-28.9127272727	-1.88947368421	-5.7125	1.79768786127
1204	0.602	-28.9127272727	0.989473684211	-1.4	0.391136801541
1205	0.6025	-27.4954545455	18.2631578947	-1.4	6.01734104046
1206	0.603	-21.8263636364	18.2631578947	0.0375	4.61078998073
1207	0.6035	-21.8263636364	8.18684210526	1.475	3.204238921
1208	0.604	-17.5745454545	-3.32894736842	0.0375	3.204238921
1209	0.6045	-14.74	-7.64736842105	0.0375	4.61078998073
1210	0.605	-7.65363636364	-7.64736842105	2.9125	0.391136801541
1211	0.6055	-11.9054545455	2.42894736842	0.0375	-2.42196531792
1212	0.606	-10.4881818182	0.989473684211	0.0375	0.391136801541
1213	0.6065	0.85	-0.45	1.475	-5.23506743738
1214	0.607	12.1881818182	6.74736842105	0.0375	6.01734104046
1215	0.6075	16.44	0.989473684211	1.475	0.391136801541
1216	0.608	13.6054545455	-1.88947368421	1.475	-5.23506743738
1217	0.6085	13.6054545455	-0.45	1.475	-1.01541425819
1218	0.609	16.44	0.989473684211	5.7875	-15.0809248555
1219	0.6095	9.35363636364	-0.45	-1.4	-6.64161849711
1220	0.61	10.7709090909	-1.88947368421	-8.5875	-5.23506743738
1221	0.6105	7.93636363636	-1.88947368421	-2.8375	-2.42196531792
1222	0.611	2.26727272727	-0.45	-7.15	1.79768786127
1223	0.6115	2.26727272727	2.42894736842	-1.4	1.79768786127
1224	0.612	-0.567272727273	5.30789473684	1.475	4.61078998073
1225	0.6125	-0.567272727273	-4.76842105263	0.0375	3.204238921
1226	0.613	-0.567272727273	11.0657894737	-1.4	4.61078998073
1227	0.6135	-3.40181818182	15.3842105263	0.0375	4.61078998073
1228	0.614	-6.23636363636	11.0657894737	-1.4	4.61078998073
1229	0.6145	-4.81909090909	-1.88947368421	1.475	1.79768786127
1230	0.615	-4.81909090909	0.989473684211	0.0375	0.391136801541
1231	0.6155	-17.5745454545	-0.45	1.475	4.61078998073
1232	0.616	-4.81909090909	0.989473684211	1.475	6.01734104046
1233	0.6165	0.85	-0.45	1.475	4.61078998073
1234	0.617	-1.98454545455	0.989473684211	-1.4	3.204238921
1235	0.6175	-18.9918181818	-0.45	-1.4	3.204238921
1236	0.618	-28.9127272727	-1.88947368421	-1.4	21.4894026975
1237	0.6185	-27.4954545455	-1.88947368421	-1.4	8.83044315992
1238	0.619	-28.9127272727	-0.45	4.35	0.391136801541
1239	0.6195	-27.4954545455	0.989473684211	4.35	-2.42196531792
1240	0.62	-24.6609090909	0.989473684211	-2.8375	3.204238921
1241	0.6205	-18.9918181818	0.989473684211	0.0375	4.61078998073
1242	0.621	-13.3227272727	0.989473684211	-11.4625	1.79768786127
1243	0.6215	-11.9054545455	0.989473684211	-5.7125	6.01734104046
1244	0.622	-6.23636363636	-9.08684210526	1.475	-2.42196531792
1245	0.6225	-1.98454545455	16.8236842105	1.475	-2.42196531792
1246	0.623	3.68454545455	5.30789473684	1.475	-2.42196531792
1247	0.6235	15.0227272727	-1.88947368421	4.35	-2.42196531792
1248	0.624	23.5263636364	5.30789473684	1.475	-1.01541425819
1249	0.6245	22.1090909091	-1.88947368421	-1.4	-5.23506743738
1250	0.625	19.2745454545	0.989473684211	0.0375	0.391136801541
1251	0.6255	13.6054545455	2.42894736842	4.35	-3.82851637765
1252	0.626	7.93636363636	0.989473684211	2.9125	-1.01541425819
1253	0.6265	12.1881818182	-4.76842105263	4.35	-1.01541425819
1254	0.627	0.85	-0.45	2.9125	-1.01541425819
1255	0.6275	-3.40181818182	0.989473684211	1.475	-5.23506743738
1256	0.628	-3.40181818182	0.989473684211	0.0375	-10.8612716763
1257	0.6285	0.85	0.989473684211	2.9125	-12.267822736
1258	0.629	-0.567272727273	-3.32894736842	-1.4	-6.64161849711
1259	0.6295	-0.567272727273	-0.45	-1.4	-5.23506743738
1260	0.63	-3.40181818182	0.989473684211	-2.8375	-5.23506743738
1261	0.6305	-3.40181818182	-0.45	-7.15	0.391136801541
1262	0.631	-3.40181818182	0.989473684211	-7.15	0.391136801541
1263	0.6315	-4.81909090909	-0.45	-4.275	0.391136801541
1264	0.632	-3.40181818182	0.989473684211	-2.8375	-1.01541425819
1265	0.6325	-3.40181818182	3.86842105263	-1.4	-2.42196531792
1266	0.633	-7.65363636364	0.989473684211	0.0375	1.79768786127
1267	0.6335	-10.4881818182	-6.20789473684	1.475	-1.01541425819
1268	0.634	-17.5745454545	-10.5263157895	0.0375	0.391136801541
1269	0.6345	-21.8263636364	-7.64736842105	1.475	-1.01541425819
1270	0.635	-27.4954545455	3.86842105263	4.35	0.391136801541
1271	0.6355	-30.33	-6.20789473684	2.9125	-1.01541425819
1272	0.636	-31.7472727273	-0.45	0.0375	-1.01541425819
1273	0.6365	-14.74	-0.45	1.475	-3.82851637765
1274	0.637	-0.567272727273	0.989473684211	2.9125	-3.82851637765
1275	0.6375	-3.40181818182	0.989473684211	1.475	-1.01541425819
1276	0.638	-10.4881818182	2.42894736842	2.9125	0.391136801541
1277	0.6385	-14.74	0.989473684211	1.475	-2.42196531792
1278	0.639	2.26727272727	0.989473684211	4.35	0.391136801541
1279	0.6395	3.68454545455	0.989473684211	5.7875	-9.45472061657
1280	0.64	13.6054545455	0.989473684211	4.35	-17.894026975
1281	0.6405	17.8572727273	0.989473684211	-4.275	-10.8612716763
1282	0.641	16.44	-0.45	-8.5875	-8.04816955684
1283	0.6415	13.6054545455	-0.45	-2.8375	-6.64161849711
1284	0.642	16.44	2.42894736842	0.0375	-6.64161849711
1285	0.6425	17.8572727273	2.42894736842	0.0375	-10.8612716763
1286	0.643	15.0227272727	-3.32894736842	-1.4	-8.04816955684
1287	0.6435	5.10181818182	-11.9657894737	0.0375	-12.267822736
1288	0.644	7.93636363636	-7.64736842105	-1.4	-9.45472061657
1289	0.6445	5.10181818182	6.74736842105	1.475	-12.267822736
1290	0.645	-3.40181818182	18.2631578947	-1.4	-10.8612716763
1291	0.6455	-0.567272727273	-9.08684210526	0.0375	-13.6743737958
1292	0.646	0.85	-4.76842105263	-1.4	-9.45472061657
1293	0.6465	-0.567272727273	-1.88947368421	0.0375	-9.45472061657
1294	0.647	-7.65363636364	-0.45	1.475	-12.267822736
1295	0.6475	5.10181818182	-1.88947368421	4.35	-10.8612716763
1296	0.648	15.0227272727	0.989473684211	1.475	-9.45472061657
1297	0.6485	12.1881818182	-3.32894736842	0.0375	-9.45472061657
1298	0.649	-4.81909090909	-0.45	-1.4	-5.23506743738
1299	0.6495	-7.65363636364	0.989473684211	0.0375	7.42389210019
1300	0.65	-9.07090909091	-1.88947368421	0.0375	4.61078998073
1301	0.6505	-14.74	-0.45	0.0375	-2.42196531792
1302	0.651	-17.5745454545	0.989473684211	14.4125	-6.64161849711
1303	0.6515	-26.0781818182	-0.45	18.725	-8.04816955684
1304	0.652	-27.4954545455	0.989473684211	7.225	-13.6743737958
1305	0.6525	-26.0781818182	-1.88947368421	-7.15	-9.45472061657
1306	0.653	-24.6609090909	5.30789473684	0.0375	-12.267822736
1307	0.6535	-18.9918181818	-0.45	14.4125	-9.45472061657
1308	0.654	-14.74	6.74736842105	0.0375	-10.8612716763
1309	0.6545	-9.07090909091	16.8236842105	-1.4	-9.45472061657
1310	0.655	-4.81909090909	15.3842105263	1.475	-10.8612716763
1311	0.6555	-3.40181818182	0.989473684211	2.9125	-6.64161849711
1312	0.656	7.93636363636	-9.08684210526	2.9125	-9.45472061657
1313	0.6565	9.35363636364	-0.45	0.0375	-8.04816955684
1314	0.657	7.93636363636	0.989473684211	4.35	-9.45472061657
1315	0.6575	3.68454545455	-0.45	0.0375	-10.8612716763
1316	0.658	32.03	-1.88947368421	1.475	-10.8612716763
1317	0.6585	16.44	0.989473684211	4.35	-24.9267822736
1318	0.659	10.7709090909	-1.88947368421	2.9125	-16.4874759152
1319	0.6595	17.8572727273	-1.88947368421	4.35	-12.267822736
1320	0.66	15.0227272727	-1.88947368421	4.35	-19.3005780347
1321	0.6605	9.35363636364	-0.45	0.0375	-23.5202312139
1322	0.661	7.93636363636	-1.88947368421	-4.275	-17.894026975
1323	0.6615	3.68454545455	-0.45	-8.5875	-16.4874759152
1324	0.662	0.85	-1.88947368421	-5.7125	-13.6743737958
1325	0.6625	0.85	0.989473684211	-2.8375	-10.8612716763
1326	0.663	-3.40181818182	-1.88947368421	-1.4	-12.267822736
1327	0.6635	-3.40181818182	0.989473684211	-1.4	-10.8612716763
1328	0.664	-1.98454545455	13.9447368421	2.9125	-13.6743737958
1329	0.6645	-3.40181818182	11.0657894737	1.475	-16.4874759152
1330	0.665	-7.65363636364	3.86842105263	-1.4	-13.6743737958
1331	0.6655	-7.65363636364	-3.32894736842	1.475	-12.267822736
1332	0.666	-4.81909090909	-1.88947368421	2.9125	-12.267822736
1333	0.6665	-21.8263636364	-1.88947368421	0.0375	-12.267822736
1334	0.667	-21.8263636364	-3.32894736842	0.0375	-8.04816955684
1335	0.6675	-21.8263636364	-1.88947368421	0.0375	-12.267822736
1336	0.668	-16.1572727273	-6.20789473684	1.475	-12.267822736
1337	0.6685	-27.4954545455	-3.32894736842	1.475	-20.7071290944
1338	0.669	-24.6609090909	-4.76842105263	4.35	-19.3005780347
1339	0.6695	-23.2436363636	-1.88947368421	2.9125	-13.6743737958
1340	0.67	-20.4090909091	0.989473684211	1.475	-12.267822736
1341	0.6705	-14.74	-0.45	-5.7125	-13.6743737958
1342	0.671	-13.3227272727	-0.45	-11.4625	-13.6743737958
1343	0.6715	-9.07090909091	-0.45	-7.15	-12.267822736
1344	0.672	-4.81909090909	-1.88947368421	-4.275	-15.0809248555
1345	0.6725	2.26727272727	-1.88947368421	2.9125	-6.64161849711
1346	0.673	7.93636363636	3.86842105263	1.475	-13.6743737958
1347	0.6735	15.0227272727	0.989473684211	18.725	-15.0809248555
1348	0.674	20.6918181818	0.989473684211	2.9125	-12.267822736
1349	0.6745	19.2745454545	-1.88947368421	8.6625	-13.6743737958
1350	0.675	19.2745454545	13.9447368421	2.9125	-10.8612716763
1351	0.6755	23.5263636364	18.2631578947	0.0375	-12.267822736
1352	0.676	22.1090909091	2.42894736842	0.0375	-10.8612716763
1353	0.6765	17.8572727273	-4.76842105263	-1.4	-10.8612716763
1354	0.677	10.7709090909	-1.88947368421	1.475	-10.8612716763
1355	0.6775	-0.567272727273	-1.88947368421	1.475	-8.04816955684
1356	0.678	-4.81909090909	-0.45	1.475	-6.64161849711
1357	0.6785	13.6054545455	-3.32894736842	0.0375	-8.04816955684
1358	0.679	-1.98454545455	-0.45	4.35	-16.4874759152
1359	0.6795	-9.07090909091	-1.88947368421	2.9125	-9.45472061657
1360	0.68	-4.81909090909	-1.88947368421	0.0375	-3.82851637765
1361	0.6805	-4.81909090909	-3.32894736842	-7.15	-6.64161849711
1362	0.681	-4.81909090909	-3.32894736842	1.475	1.79768786127
1363	0.6815	-7.65363636364	-1.88947368421	-10.025	6.01734104046
1364	0.682	-10.4881818182	-4.76842105263	-5.7125	-3.82851637765
1365	0.6825	-10.4881818182	-0.45	-1.4	-3.82851637765
1366	0.683	-11.9054545455	0.989473684211	-1.4	-6.64161849711
1367	0.6835	-14.74	-0.45	0.0375	-5.23506743738
1368	0.684	-18.9918181818	-10.5263157895	2.9125	-2.42196531792
1369	0.6845	-27.4954545455	-10.5263157895	1.475	-2.42196531792
1370	0.685	-28.9127272727	-10.5263157895	0.0375	-1.01541425819
1371	0.6855	-28.9127272727	-7.64736842105	0.0375	-2.42196531792
1372	0.686	-23.2436363636	-1.88947368421	4.35	0.391136801541
1373	0.6865	-26.0781818182	-3.32894736842	2.9125	-1.01541425819
1374	0.687	-28.9127272727	0.989473684211	0.0375	-1.01541425819
1375	0.6875	3.68454545455	-0.45	-1.4	0.391136801541
1376	0.688	5.10181818182	-1.88947368421	4.35	-8.04816955684
1377	0.6885	-3.40181818182	2.42894736842	2.9125	-6.64161849711
1378	0.689	0.85	-0.45	2.9125	-9.45472061657
1379	0.6895	3.68454545455	0.989473684211	-7.15	-8.04816955684
1380	0.69	15.0227272727	3.86842105263	1.475	6.01734104046
1381	0.6905	19.2745454545	0.989473684211	-5.7125	4.61078998073
1382	0.691	17.8572727273	-3.32894736842	-8.5875	-5.23506743738
1383	0.6915	15.0227272727	2.42894736842	-4.275	-6.64161849711
1384	0.692	16.44	2.42894736842	1.475	-6.64161849711
1385	0.6925	16.44	0.989473684211	4.35	-8.04816955684
1386	0.693	13.6054545455	-4.76842105263	0.0375	-8.04816955684
1387	0.6935	7.93636363636	-4.76842105263	0.0375	-8.04816955684
1388	0.694	2.26727272727	-7.64736842105	2.9125	-5.23506743738
1389	0.6945	0.85	-7.64736842105	2.9125	-5.23506743738
1390	0.695	5.10181818182	-4.76842105263	2.9125	-5.23506743738
1391	0.6955	0.85	-1.88947368421	0.0375	-5.23506743738
1392	0.696	15.0227272727	2.42894736842	2.9125	-6.64161849711
1393	0.6965	9.35363636364	-0.45	2.9125	-5.23506743738
1394	0.697	-3.40181818182	0.989473684211	1.475	-1.01541425819
1395	0.6975	-14.74	0.989473684211	1.475	-5.23506743738
1396	0.698	-16.1572727273	-1.88947368421	4.35	-9.45472061657
1397	0.6985	-6.23636363636	-1.88947368421	4.35	-9.45472061657
1398	0.699	-7.65363636364	-0.45	4.35	-16.4874759152
1399	0.6995	-10.4881818182	-1.88947368421	0.0375	-15.0809248555
1400	0.7	-11.9054545455	-1.88947368421	-1.4	-13.6743737958
1401	0.7005	-14.74	-3.32894736842	-7.15	-3.82851637765
1402	0.701	-17.5745454545	-6.20789473684	-2.8375	-6.64161849711
1403	0.7015	-26.0781818182	-3.32894736842	-7.15	-5.23506743738
1404	0.702	-27.4954545455	-1.88947368421	-2.8375	-5.23506743738
1405	0.7025	-26.0781818182	3.86842105263	0.0375	-8.04816955684
1406	0.703	-24.6609090909	0.989473684211	1.475	-8.04816955684
1407	0.7035	-23.2436363636	-1.88947368421	0.0375	-9.45472061657
1408	0.704	-16.1572727273	16.8236842105	-1.4	-10.8612716763
1409	0.7045	-11.9054545455	18.2631578947	2.9125	-10.8612716763
1410	0.705	-10.4881818182	-4.76842105263	4.35	-10.8612716763
1411	0.7055	-0.567272727273	-1.88947368421	1.475	-8.04816955684
1412	0.706	-0.567272727273	0.989473684211	0.0375	-10.8612716763
1413	0.7065	3.68454545455	2.42894736842	4.35	-12.267822736
1414	0.707	15.0227272727	3.86842105263	1.475	-9.45472061657
1415	0.7075	5.10181818182	0.989473684211	1.475	-12.267822736
1416	0.708	2.26727272727	-1.88947368421	0.0375	-15.0809248555
1417	0.7085	9.35363636364	0.989473684211	2.9125	-26.3333333333
1418	0.709	16.44	0.989473684211	4.35	-23.5202312139
1419	0.7095	16.44	-3.32894736842	0.0375	-24.9267822736
1420	0.71	10.7709090909	-0.45	-5.7125	-20.7071290944
1421	0.7105	7.93636363636	-1.88947368421	-8.5875	-3.82851637765
1422	0.711	2.26727272727	0.989473684211	4.35	-19.3005780347
1423	0.7115	2.26727272727	0.989473684211	1.475	-15.0809248555
1424	0.712	0.85	-0.45	1.475	-15.0809248555
1425	0.7125	-0.567272727273	-7.64736842105	0.0375	-12.267822736
1426	0.713	-1.98454545455	-13.4052631579	0.0375	-10.8612716763
1427	0.7135	-6.23636363636	-7.64736842105	1.475	-10.8612716763
1428	0.714	-4.81909090909	5.30789473684	1.475	-10.8612716763
1429	0.7145	-0.567272727273	-0.45	1.475	-9.45472061657
1430	0.715	-10.4881818182	-0.45	1.475	-8.04816955684
1431	0.7155	-21.8263636364	-1.88947368421	0.0375	-8.04816955684
1432	0.716	-23.2436363636	-0.45	-1.4	-8.04816955684
1433	0.7165	-9.07090909091	-1.88947368421	1.475	-8.04816955684
1434	0.717	2.26727272727	0.989473684211	1.475	-10.8612716763
1435	0.7175	-21.8263636364	-0.45	0.0375	-3.82851637765
1436	0.718	-24.6609090909	-1.88947368421	-1.4	3.204238921
1437	0.7185	-28.9127272727	-1.88947368421	-1.4	0.391136801541
1438	0.719	-30.33	-3.32894736842	1.475	-12.267822736
1439	0.7195	-27.4954545455	-1.88947368421	5.7875	-19.3005780347
1440	0.72	-24.6609090909	0.989473684211	-2.8375	-19.3005780347
1441	0.7205	-18.9918181818	-3.32894736842	-7.15	-16.4874759152
1442	0.721	-13.3227272727	-0.45	10.1	-19.3005780347
1443	0.7215	-9.07090909091	-0.45	-8.5875	-15.0809248555
1444	0.722	-7.65363636364	-1.88947368421	1.475	-16.4874759152
1445	0.7225	-1.98454545455	-0.45	-1.4	-13.6743737958
1446	0.723	3.68454545455	15.3842105263	4.35	-13.6743737958
1447	0.7235	12.1881818182	-0.45	1.475	-15.0809248555
1448	0.724	13.6054545455	-6.20789473684	1.475	-15.0809248555
1449	0.7245	13.6054545455	-7.64736842105	2.9125	-15.0809248555
1450	0.725	23.5263636364	2.42894736842	0.0375	-16.4874759152
1451	0.7255	29.1954545455	-1.88947368421	1.475	-16.4874759152
1452	0.726	29.1954545455	2.42894736842	2.9125	-13.6743737958
1453	0.7265	12.1881818182	-1.88947368421	0.0375	-9.45472061657
1454	0.727	6.51909090909	-0.45	0.0375	1.79768786127
1455	0.7275	5.10181818182	-0.45	2.9125	-15.0809248555
1456	0.728	3.68454545455	-0.45	4.35	-23.5202312139
1457	0.7285	0.85	-0.45	1.475	-9.45472061657
1458	0.729	-0.567272727273	-0.45	15.85	-12.267822736
1459	0.7295	-3.40181818182	-1.88947368421	7.225	-19.3005780347
1460	0.73	-4.81909090909	-1.88947368421	0.0375	-19.3005780347
1461	0.7305	-1.98454545455	-0.45	-1.4	-16.4874759152
1462	0.731	-4.81909090909	2.42894736842	-1.4	-15.0809248555
1463	0.7315	-4.81909090909	-4.76842105263	1.475	-15.0809248555
1464	0.732	-6.23636363636	-7.64736842105	2.9125	-16.4874759152
1465	0.7325	-7.65363636364	-11.9657894737	1.475	-16.4874759152
1466	0.733	-7.65363636364	-10.5263157895	1.475	-17.894026975
1467	0.7335	-14.74	-9.08684210526	0.0375	-16.4874759152
1468	0.734	-16.1572727273	-6.20789473684	0.0375	-16.4874759152
1469	0.7345	-11.9054545455	-1.88947368421	1.475	-16.4874759152
1470	0.735	-7.65363636364	-1.88947368421	0.0375	-15.0809248555
1471	0.7355	-17.5745454545	-3.32894736842	-1.4	-13.6743737958
1472	0.736	-28.9127272727	-0.45	0.0375	-10.8612716763
1473	0.7365	-34.5818181818	-0.45	-1.4	-9.45472061657
1474	0.737	-17.5745454545	-1.88947368421	0.0375	-1.01541425819
1475	0.7375	-11.9054545455	-0.45	2.9125	-9.45472061657
1476	0.738	-7.65363636364	0.989473684211	4.35	-16.4874759152
1477	0.7385	-4.81909090909	-1.88947368421	2.9125	-23.5202312139
1478	0.739	-0.567272727273	0.989473684211	0.0375	-24.9267822736
1479	0.7395	3.68454545455	-0.45	11.5375	-19.3005780347
1480	0.74	12.1881818182	-1.88947368421	1.475	-22.1136801541
1481	0.7405	19.2745454545	-3.32894736842	-7.15	-22.1136801541
1482	0.741	17.8572727273	-1.88947368421	-5.7125	-17.894026975
1483	0.7415	16.44	-0.45	-4.275	-17.894026975
1484	0.742	16.44	6.74736842105	1.475	-17.894026975
1485	0.7425	22.1090909091	16.8236842105	2.9125	-15.0809248555
1486	0.743	15.0227272727	18.2631578947	1.475	-16.4874759152
1487	0.7435	9.35363636364	11.0657894737	0.0375	-16.4874759152
1488	0.744	5.10181818182	-1.88947368421	1.475	-17.894026975
1489	0.7445	6.51909090909	0.989473684211	2.9125	-16.4874759152
1490	0.745	6.51909090909	-1.88947368421	2.9125	-16.4874759152
1491	0.7455	17.8572727273	-0.45	2.9125	-15.0809248555
1492	0.746	12.1881818182	-0.45	2.9125	-15.0809248555
1493	0.7465	0.85	-0.45	1.475	-17.894026975
1494	0.747	-7.65363636364	0.989473684211	2.9125	-16.4874759152
1495	0.7475	-4.81909090909	0.989473684211	2.9125	-20.7071290944
1496	0.748	-7.65363636364	0.989473684211	0.0375	-15.0809248555
1497	0.7485	-10.4881818182	0.989473684211	-11.4625	-17.894026975
1498	0.749	-10.4881818182	-0.45	4.35	-2.42196531792
1499	0.7495	-11.9054545455	-0.45	1.475	-13.6743737958
1500	0.75	-10.4881818182	-4.76842105263	-7.15	-17.894026975
1501	0.7505	-16.1572727273	-0.45	-8.5875	-13.6743737958
1502	0.751	-21.8263636364	2.42894736842	-1.4	-13.6743737958
1503	0.7515	-27.4954545455	0.989473684211	1.475	-16.4874759152
1504	0.752	-31.7472727273	-4.76842105263	-1.4	-15.0809248555
1505	0.7525	-33.1645454545	-0.45	-1.4	-12.267822736
1506	0.753	-28.9127272727	-10.5263157895	-1.4	-13.6743737958
1507	0.7535	-23.2436363636	-6.20789473684	-1.4	-10.8612716763
1508	0.754	-16.1572727273	-0.45	1.475	-10.8612716763
1509	0.7545	-10.4881818182	0.989473684211	0.0375	-10.8612716763
1510	0.755	-0.567272727273	0.989473684211	0.0375	-10.8612716763
1511	0.7555	-9.07090909091	0.989473684211	1.475	-8.04816955684
1512	0.756	-6.23636363636	0.989473684211	2.9125	-10.8612716763
1513	0.7565	-0.567272727273	0.989473684211	2.9125	-16.4874759152
1514	0.757	12.1881818182	0.989473684211	5.7875	-26.3333333333
1515	0.7575	15.0227272727	0.989473684211	4.35	-26.3333333333
1516	0.758	12.1881818182	-0.45	-2.8375	-22.1136801541
1517	0.7585	10.7709090909	2.42894736842	-2.8375	-22.1136801541
1518	0.759	19.2745454545	2.42894736842	-1.4	-8.04816955684
1519	0.7595	17.8572727273	2.42894736842	21.6	-27.7398843931
1520	0.76	7.93636363636	0.989473684211	8.6625	-22.1136801541
1521	0.7605	3.68454545455	0.989473684211	0.0375	-17.894026975
1522	0.761	0.85	-10.5263157895	0.0375	-19.3005780347
1523	0.7615	0.85	-1.88947368421	2.9125	-17.894026975
1524	0.762	-0.567272727273	8.18684210526	0.0375	-20.7071290944
1525	0.7625	-1.98454545455	19.7026315789	0.0375	-20.7071290944
1526	0.763	-4.81909090909	21.1421052632	0.0375	-22.1136801541
1527	0.7635	-6.23636363636	0.989473684211	0.0375	-22.1136801541
1528	0.764	-13.3227272727	-0.45	1.475	-22.1136801541
1529	0.7645	-16.1572727273	-3.32894736842	1.475	-17.894026975
1530	0.765	-13.3227272727	-0.45	0.0375	-23.5202312139
1531	0.7655	-4.81909090909	-0.45	0.0375	-23.5202312139
1532	0.766	-16.1572727273	0.989473684211	0.0375	-22.1136801541
1533	0.7665	-21.8263636364	0.989473684211	0.0375	-27.7398843931
1534	0.767	-23.2436363636	0.989473684211	-1.4	-16.4874759152
1535	0.7675	-21.8263636364	-1.88947368421	4.35	-20.7071290944
1536	0.768	-24.6609090909	-0.45	4.35	-24.9267822736
1537	0.7685	-27.4954545455	-1.88947368421	0.0375	-20.7071290944
1538	0.769	-30.33	-3.32894736842	2.9125	-16.4874759152
1539	0.7695	-27.4954545455	-0.45	-12.9	-20.7071290944
1540	0.77	-26.0781818182	0.989473684211	-5.7125	-17.894026975
1541	0.7705	-20.4090909091	-0.45	7.225	-22.1136801541
1542	0.771	-13.3227272727	-11.9657894737	1.475	-16.4874759152
1543	0.7715	-10.4881818182	-1.88947368421	-8.5875	-16.4874759152
1544	0.772	-7.65363636364	-0.45	-5.7125	-16.4874759152
1545	0.7725	-1.98454545455	0.989473684211	0.0375	-16.4874759152
1546	0.773	2.26727272727	-6.20789473684	0.0375	-16.4874759152
1547	0.7735	16.44	-6.20789473684	1.475	-16.4874759152
1548	0.774	19.2745454545	-1.88947368421	1.475	-17.894026975
1549	0.7745	29.1954545455	0.989473684211	-1.4	-19.3005780347
1550	0.775	34.8645454545	0.989473684211	0.0375	-20.7071290944
1551	0.7755	30.6127272727	-0.45	2.9125	-17.894026975
1552	0.776	20.6918181818	0.989473684211	1.475	-16.4874759152
1553	0.7765	0.85	-0.45	0.0375	-19.3005780347
1554	0.777	3.68454545455	-1.88947368421	2.9125	-17.894026975
1555	0.7775	3.68454545455	-1.88947368421	4.35	-27.7398843931
1556	0.778	2.26727272727	-0.45	2.9125	-30.5529865125
1557	0.7785	-1.98454545455	0.989473684211	0.0375	-27.7398843931
1558	0.779	-3.40181818182	0.989473684211	-5.7125	-24.9267822736
1559	0.7795	-3.40181818182	-0.45	-4.275	-24.9267822736
1560	0.78	-4.81909090909	-3.32894736842	-7.15	-22.1136801541
1561	0.7805	-3.40181818182	0.989473684211	-4.275	-22.1136801541
1562	0.781	-9.07090909091	0.989473684211	0.0375	-23.5202312139
1563	0.7815	-10.4881818182	2.42894736842	1.475	-20.7071290944
1564	0.782	-10.4881818182	-1.88947368421	2.9125	-20.7071290944
1565	0.7825	-10.4881818182	5.30789473684	0.0375	-17.894026975
1566	0.783	-13.3227272727	9.62631578947	0.0375	-17.894026975
1567	0.7835	-21.8263636364	-11.9657894737	2.9125	-17.894026975
1568	0.784	-23.2436363636	-6.20789473684	0.0375	-16.4874759152
1569	0.7845	-27.4954545455	-4.76842105263	0.0375	-16.4874759152
1570	0.785	-17.5745454545	-0.45	1.475	-16.4874759152
1571	0.7855	-16.1572727273	-1.88947368421	0.0375	-12.267822736
1572	0.786	-27.4954545455	-0.45	4.35	-13.6743737958
1573	0.7865	-34.5818181818	-0.45	1.475	-10.8612716763
1574	0.787	-34.5818181818	0.989473684211	1.475	-15.0809248555
1575	0.7875	-17.5745454545	0.989473684211	4.35	-17.894026975
1576	0.788	-16.1572727273	0.989473684211	2.9125	-19.3005780347
1577	0.7885	-10.4881818182	-1.88947368421	-2.8375	-15.0809248555
1578	0.789	-7.65363636364	0.989473684211	-8.5875	-10.8612716763
1579	0.7895	-1.98454545455	0.989473684211	-2.8375	-12.267822736
1580	0.79	3.68454545455	3.86842105263	0.0375	-9.45472061657
1581	0.7905	13.6054545455	3.86842105263	1.475	-10.8612716763
1582	0.791	12.1881818182	2.42894736842	2.9125	-13.6743737958
1583	0.7915	10.7709090909	-3.32894736842	2.9125	-13.6743737958
1584	0.792	12.1881818182	-10.5263157895	0.0375	-13.6743737958
1585	0.7925	10.7709090909	-9.08684210526	1.475	-13.6743737958
1586	0.793	10.7709090909	-3.32894736842	1.475	-13.6743737958
1587	0.7935	9.35363636364	-0.45	0.0375	-10.8612716763
1588	0.794	3.68454545455	2.42894736842	0.0375	-12.267822736
1589	0.7945	-1.98454545455	-0.45	-2.8375	-10.8612716763
1590	0.795	19.2745454545	-0.45	-1.4	-6.64161849711
1591	0.7955	15.0227272727	0.989473684211	0.0375	-9.45472061657
1592	0.796	3.68454545455	0.989473684211	-1.4	-12.267822736
1593	0.7965	-4.81909090909	0.989473684211	1.475	4.61078998073
1594	0.797	-7.65363636364	0.989473684211	1.475	-10.8612716763
1595	0.7975	-7.65363636364	0.989473684211	1.475	-6.64161849711
1596	0.798	-9.07090909091	-1.88947368421	1.475	-15.0809248555
1597	0.7985	-10.4881818182	2.42894736842	14.4125	-10.8612716763
1598	0.799	-11.9054545455	-0.45	-1.4	-17.894026975
1599	0.7995	-13.3227272727	-0.45	0.0375	-10.8612716763
1600	0.8	-16.1572727273	-11.9657894737	1.475	-10.8612716763
1601	0.8005	-20.4090909091	0.989473684211	-8.5875	-9.45472061657
1602	0.801	-26.0781818182	-1.88947368421	-2.8375	-9.45472061657
1603	0.8015	-31.7472727273	0.989473684211	-4.275	-8.04816955684
1604	0.802	-34.5818181818	-10.5263157895	2.9125	-5.23506743738
1605	0.8025	-34.5818181818	-9.08684210526	1.475	-1.01541425819
1606	0.803	-27.4954545455	-3.32894736842	1.475	-5.23506743738
1607	0.8035	-21.8263636364	-0.45	2.9125	-6.64161849711
1608	0.804	-4.81909090909	0.989473684211	4.35	-9.45472061657
1609	0.8045	-11.9054545455	3.86842105263	4.35	-5.23506743738
1610	0.805	-21.8263636364	2.42894736842	1.475	-6.64161849711
1611	0.8055	-16.1572727273	0.989473684211	4.35	-12.267822736
1612	0.806	-4.81909090909	0.989473684211	4.35	-19.3005780347
1613	0.8065	9.35363636364	-1.88947368421	4.35	-16.4874759152
1614	0.807	17.8572727273	0.989473684211	2.9125	-13.6743737958
1615	0.8075	19.2745454545	0.989473684211	-10.025	-10.8612716763
1616	0.808	17.8572727273	0.989473684211	-4.275	-8.04816955684
1617	0.8085	16.44	0.989473684211	4.35	-1.01541425819
1618	0.809	16.44	5.30789473684	0.0375	-9.45472061657
1619	0.8095	16.44	0.989473684211	18.725	-10.8612716763
1620	0.81	10.7709090909	-1.88947368421	12.975	-10.8612716763
1621	0.8105	10.7709090909	6.74736842105	0.0375	-10.8612716763
1622	0.811	9.35363636364	18.2631578947	0.0375	-10.8612716763
1623	0.8115	2.26727272727	8.18684210526	0.0375	-9.45472061657
1624	0.812	0.85	-6.20789473684	0.0375	-12.267822736
1625	0.8125	0.85	-1.88947368421	-1.4	-9.45472061657
1626	0.813	0.85	-0.45	2.9125	-13.6743737958
1627	0.8135	12.1881818182	0.989473684211	1.475	-13.6743737958
1628	0.814	16.44	-0.45	2.9125	-13.6743737958
1629	0.8145	-4.81909090909	0.989473684211	-1.4	-1.01541425819
1630	0.815	-6.23636363636	0.989473684211	1.475	1.79768786127
1631	0.8155	-10.4881818182	0.989473684211	1.475	-5.23506743738
1632	0.816	-11.9054545455	0.989473684211	4.35	-16.4874759152
1633	0.8165	-13.3227272727	-0.45	5.7875	-22.1136801541
1634	0.817	-14.74	0.989473684211	5.7875	-16.4874759152
1635	0.8175	-21.8263636364	-3.32894736842	-2.8375	-16.4874759152
1636	0.818	-26.0781818182	-3.32894736842	-8.5875	-15.0809248555
1637	0.8185	-30.33	-0.45	-7.15	-13.6743737958
1638	0.819	-33.1645454545	2.42894736842	-1.4	-16.4874759152
1639	0.8195	-27.4954545455	6.74736842105	0.0375	-10.8612716763
1640	0.82	-26.0781818182	15.3842105263	0.0375	-10.8612716763
1641	0.8205	-18.9918181818	21.1421052632	1.475	-13.6743737958
1642	0.821	-14.74	0.989473684211	1.475	-15.0809248555
1643	0.8215	-17.5745454545	0.989473684211	1.475	-16.4874759152
1644	0.822	-18.9918181818	-0.45	2.9125	-12.267822736
1645	0.8225	-14.74	-0.45	4.35	-12.267822736
1646	0.823	-4.81909090909	0.989473684211	5.7875	-17.894026975
1647	0.8235	0.85	2.42894736842	2.9125	-13.6743737958
1648	0.824	9.35363636364	0.989473684211	1.475	-16.4874759152
1649	0.8245	16.44	2.42894736842	-1.4	-12.267822736
1650	0.825	12.1881818182	-0.45	4.35	-5.23506743738
1651	0.8255	15.0227272727	-0.45	4.35	-20.7071290944
1652	0.826	15.0227272727	0.989473684211	12.975	-15.0809248555
1653	0.8265	10.7709090909	2.42894736842	17.2875	-15.0809248555
1654	0.827	6.51909090909	0.989473684211	18.725	-20.7071290944
1655	0.8275	5.10181818182	0.989473684211	18.725	-12.267822736
1656	0.828	0.85	-0.45	2.9125	-12.267822736
1657	0.8285	0.85	-6.20789473684	2.9125	-10.8612716763
1658	0.829	-0.567272727273	-10.5263157895	1.475	-12.267822736
1659	0.8295	-3.40181818182	-10.5263157895	2.9125	-16.4874759152
1660	0.83	-4.81909090909	-4.76842105263	1.475	-12.267822736
1661	0.8305	-1.98454545455	-1.88947368421	2.9125	-10.8612716763
1662	0.831	-1.98454545455	-0.45	0.0375	-12.267822736
1663	0.8315	-4.81909090909	-0.45	1.475	-13.6743737958
1664	0.832	-4.81909090909	0.989473684211	0.0375	-10.8612716763
1665	0.8325	-18.9918181818	0.989473684211	1.475	-9.45472061657
1666	0.833	-23.2436363636	0.989473684211	0.0375	-9.45472061657
1667	0.8335	-21.8263636364	0.989473684211	1.475	-16.4874759152
1668	0.834	-20.4090909091	-3.32894736842	1.475	-22.1136801541
1669	0.8345	-26.0781818182	-3.32894736842	0.0375	-15.0809248555
1670	0.835	-31.7472727273	-1.88947368421	-10.025	-9.45472061657
1671	0.8355	-30.33	-1.88947368421	-10.025	-5.23506743738
1672	0.836	-28.9127272727	-0.45	-2.8375	3.204238921
1673	0.8365	-28.9127272727	2.42894736842	-1.4	-5.23506743738
1674	0.837	-21.8263636364	0.989473684211	14.4125	-9.45472061657
1675	0.8375	-16.1572727273	0.989473684211	2.9125	-8.04816955684
1676	0.838	-10.4881818182	-3.32894736842	2.9125	-5.23506743738
1677	0.8385	-6.23636363636	-10.5263157895	4.35	-8.04816955684
1678	0.839	-4.81909090909	-6.20789473684	4.35	-8.04816955684
1679	0.8395	3.68454545455	-3.32894736842	4.35	-8.04816955684
1680	0.84	16.44	0.989473684211	5.7875	-9.45472061657
1681	0.8405	16.44	2.42894736842	4.35	-10.8612716763
1682	0.841	7.93636363636	0.989473684211	2.9125	-9.45472061657
1683	0.8415	3.68454545455	2.42894736842	2.9125	-8.04816955684
1684	0.842	7.93636363636	3.86842105263	5.7875	-17.894026975
1685	0.8425	12.1881818182	0.989473684211	2.9125	-22.1136801541
1686	0.843	12.1881818182	0.989473684211	2.9125	-15.0809248555
1687	0.8435	5.10181818182	-0.45	1.475	-3.82851637765
1688	0.844	2.26727272727	-0.45	-8.5875	-12.267822736
1689	0.8445	0.85	0.989473684211	-1.4	-13.6743737958
1690	0.845	-0.567272727273	0.989473684211	8.6625	-10.8612716763
1691	0.8455	-1.98454545455	0.989473684211	17.2875	-10.8612716763
1692	0.846	-4.81909090909	-1.88947368421	18.725	-10.8612716763
1693	0.8465	-4.81909090909	0.989473684211	7.225	-16.4874759152
1694	0.847	-4.81909090909	6.74736842105	-1.4	-10.8612716763
1695	0.8475	-6.23636363636	3.86842105263	1.475	-12.267822736
1696	0.848	-6.23636363636	9.62631578947	0.0375	-10.8612716763
1697	0.8485	-7.65363636364	18.2631578947	1.475	-9.45472061657
1698	0.849	-9.07090909091	9.62631578947	2.9125	-9.45472061657
1699	0.8495	-13.3227272727	-4.76842105263	0.0375	-3.82851637765
1700	0.85	-23.2436363636	-0.45	-2.8375	-3.82851637765
1701	0.8505	-24.6609090909	0.989473684211	1.475	-6.64161849711
1702	0.851	-23.2436363636	-1.88947368421	0.0375	-3.82851637765
1703	0.8515	-17.5745454545	-4.76842105263	-1.4	-2.42196531792
1704	0.852	-28.9127272727	-1.88947368421	-5.7125	14.4566473988
1705	0.8525	-28.9127272727	-1.88947368421	-2.8375	4.61078998073
1706	0.853	-27.4954545455	0.989473684211	-2.8375	-10.8612716763
1707	0.8535	-26.0781818182	0.989473684211	1.475	-10.8612716763
1708	0.854	-17.5745454545	-0.45	1.475	-9.45472061657
1709	0.8545	-11.9054545455	-0.45	-2.8375	8.83044315992
1710	0.855	-7.65363636364	2.42894736842	1.475	0.391136801541
1711	0.8555	-6.23636363636	0.989473684211	2.9125	-5.23506743738
1712	0.856	-1.98454545455	-3.32894736842	-7.15	0.391136801541
1713	0.8565	6.51909090909	-0.45	-2.8375	-1.01541425819
1714	0.857	13.6054545455	3.86842105263	0.0375	-5.23506743738
1715	0.8575	22.1090909091	2.42894736842	-1.4	-1.01541425819
1716	0.858	13.6054545455	0.989473684211	0.0375	-1.01541425819
1717	0.8585	16.44	8.18684210526	1.475	0.391136801541
1718	0.859	19.2745454545	-1.88947368421	-1.4	-2.42196531792
1719	0.8595	17.8572727273	-10.5263157895	-1.4	0.391136801541
1720	0.86	10.7709090909	-0.45	0.0375	-2.42196531792
1721	0.8605	10.7709090909	8.18684210526	1.475	-1.01541425819
1722	0.861	17.8572727273	-0.45	0.0375	-1.01541425819
1723	0.8615	22.1090909091	-0.45	2.9125	-2.42196531792
1724	0.862	17.8572727273	0.989473684211	-1.4	0.391136801541
1725	0.8625	0.85	-0.45	-1.4	3.204238921
1726	0.863	-1.98454545455	-0.45	-1.4	17.2697495183
1727	0.8635	-3.40181818182	0.989473684211	1.475	8.83044315992
1728	0.864	-3.40181818182	-0.45	4.35	4.61078998073
1729	0.8645	-4.81909090909	-0.45	4.35	-6.64161849711
1730	0.865	-7.65363636364	-3.32894736842	7.225	-6.64161849711
1731	0.8655	-4.81909090909	-0.45	12.975	4.61078998073
1732	0.866	-11.9054545455	-0.45	2.9125	0.391136801541
1733	0.8665	-11.9054545455	0.989473684211	-12.9	0.391136801541
1734	0.867	-14.74	0.989473684211	0.0375	3.204238921
1735	0.8675	-21.8263636364	-7.64736842105	2.9125	0.391136801541
1736	0.868	-26.0781818182	-10.5263157895	0.0375	0.391136801541
1737	0.8685	-31.7472727273	-10.5263157895	1.475	0.391136801541
1738	0.869	-31.7472727273	-6.20789473684	2.9125	1.79768786127
1739	0.8695	-31.7472727273	-7.64736842105	4.35	-2.42196531792
1740	0.87	-21.8263636364	-1.88947368421	1.475	1.79768786127
1741	0.8705	-20.4090909091	0.989473684211	2.9125	1.79768786127
1742	0.871	-17.5745454545	-0.45	1.475	1.79768786127
1743	0.8715	-23.2436363636	-1.88947368421	1.475	6.01734104046
1744	0.872	-18.9918181818	-1.88947368421	0.0375	4.61078998073
1745	0.8725	-16.1572727273	-0.45	0.0375	6.01734104046
1746	0.873	-6.23636363636	-0.45	1.475	1.79768786127
1747	0.8735	2.26727272727	-0.45	2.9125	4.61078998073
1748	0.874	13.6054545455	-3.32894736842	5.7875	0.391136801541
1749	0.8745	15.0227272727	-1.88947368421	4.35	-2.42196531792
1750	0.875	13.6054545455	-0.45	1.475	3.204238921
1751	0.8755	16.44	-1.88947368421	-5.7125	0.391136801541
1752	0.876	15.0227272727	-0.45	-8.5875	4.61078998073
1753	0.8765	5.10181818182	0.989473684211	-5.7125	1.79768786127
1754	0.877	7.93636363636	0.989473684211	5.7875	3.204238921
1755	0.8775	2.26727272727	0.989473684211	18.725	0.391136801541
1756	0.878	0.85	-3.32894736842	4.35	0.391136801541
1757	0.8785	0.85	-6.20789473684	0.0375	1.79768786127
1758	0.879	-1.98454545455	2.42894736842	0.0375	4.61078998073
1759	0.8795	0.85	13.9447368421	1.475	1.79768786127
1760	0.88	-6.23636363636	-0.45	0.0375	0.391136801541
1761	0.8805	-7.65363636364	16.8236842105	0.0375	1.79768786127
1762	0.881	-3.40181818182	-0.45	-1.4	0.391136801541
1763	0.8815	-3.40181818182	0.989473684211	0.0375	1.79768786127
1764	0.882	-18.9918181818	2.42894736842	0.0375	0.391136801541
1765	0.8825	-1.98454545455	2.42894736842	0.0375	-6.64161849711
1766	0.883	-13.3227272727	-1.88947368421	-2.8375	-2.42196531792
1767	0.8835	-17.5745454545	-1.88947368421	-1.4	-12.267822736
1768	0.884	-26.0781818182	0.989473684211	-1.4	-2.42196531792
1769	0.8845	-20.4090909091	-0.45	0.0375	-6.64161849711
1770	0.885	-24.6609090909	-1.88947368421	2.9125	-6.64161849711
1771	0.8855	-26.0781818182	-1.88947368421	2.9125	-9.45472061657
1772	0.886	-27.4954545455	-1.88947368421	0.0375	-8.04816955684
1773	0.8865	-26.0781818182	-0.45	7.225	-1.01541425819
1774	0.887	-21.8263636364	-0.45	1.475	-1.01541425819
1775	0.8875	-16.1572727273	-1.88947368421	-4.275	-1.01541425819
1776	0.888	-10.4881818182	0.989473684211	-7.15	0.391136801541
1777	0.8885	-6.23636363636	-4.76842105263	1.475	-2.42196531792
1778	0.889	-0.567272727273	-9.08684210526	1.475	-2.42196531792
1779	0.8895	2.26727272727	-11.9657894737	0.0375	-5.23506743738
1780	0.89	10.7709090909	-7.64736842105	2.9125	-5.23506743738
1781	0.8905	16.44	-4.76842105263	0.0375	-3.82851637765
1782	0.891	19.2745454545	-1.88947368421	0.0375	-3.82851637765
1783	0.8915	17.8572727273	-0.45	2.9125	-6.64161849711
1784	0.892	17.8572727273	0.989473684211	2.9125	-3.82851637765
1785	0.8925	15.0227272727	2.42894736842	2.9125	-2.42196531792
1786	0.893	15.0227272727	-0.45	0.0375	-1.01541425819
1787	0.8935	5.10181818182	-0.45	0.0375	3.204238921
1788	0.894	-4.81909090909	-0.45	-1.4	0.391136801541
1789	0.8945	-6.23636363636	-0.45	1.475	-2.42196531792
1790	0.895	0.85	-1.88947368421	0.0375	-5.23506743738
1791	0.8955	0.85	0.989473684211	2.9125	-5.23506743738
1792	0.896	-0.567272727273	2.42894736842	0.0375	-8.04816955684
1793	0.8965	-1.98454545455	0.989473684211	1.475	-2.42196531792
1794	0.897	-1.98454545455	2.42894736842	11.5375	0.391136801541
1795	0.8975	-4.81909090909	0.989473684211	18.725	-1.01541425819
1796	0.898	-6.23636363636	0.989473684211	12.975	0.391136801541
1797	0.8985	-4.81909090909	-1.88947368421	2.9125	0.391136801541
1798	0.899	-7.65363636364	-13.4052631579	0.0375	1.79768786127
1799	0.8995	-10.4881818182	-7.64736842105	1.475	3.204238921
1800	0.9	-11.9054545455	6.74736842105	-1.4	3.204238921
1801	0.9005	-14.74	16.8236842105	0.0375	4.61078998073
1802	0.901	-23.2436363636	16.8236842105	-1.4	3.204238921
1803	0.9015	-37.4163636364	0.989473684211	0.0375	4.61078998073
1804	0.902	-41.6681818182	-0.45	1.475	6.01734104046
1805	0.9025	-43.0854545455	-1.88947368421	-1.4	1.79768786127
1806	0.903	-34.5818181818	-1.88947368421	-1.4	1.79768786127
1807	0.9035	-18.9918181818	0.989473684211	0.0375	1.79768786127
1808	0.904	-20.4090909091	-3.32894736842	4.35	-9.45472061657
1809	0.9045	-11.9054545455	0.989473684211	2.9125	-2.42196531792
1810	0.905	-10.4881818182	-1.88947368421	0.0375	8.83044315992
1811	0.9055	-7.65363636364	-0.45	0.0375	17.2697495183
1812	0.906	0.85	0.989473684211	1.475	15.8631984586
1813	0.9065	7.93636363636	2.42894736842	15.85	1.79768786127
1814	0.907	12.1881818182	0.989473684211	18.725	0.391136801541
1815	0.9075	17.8572727273	2.42894736842	14.4125	3.204238921
1816	0.908	15.0227272727	2.42894736842	1.475	-1.01541425819
1817	0.9085	16.44	3.86842105263	-7.15	-1.01541425819
1818	0.909	19.2745454545	0.989473684211	1.475	0.391136801541
1819	0.9095	19.2745454545	-4.76842105263	2.9125	1.79768786127
1820	0.91	16.44	-4.76842105263	1.475	3.204238921
1821	0.9105	9.35363636364	-9.08684210526	1.475	1.79768786127
1822	0.911	7.93636363636	8.18684210526	-1.4	3.204238921
1823	0.9115	9.35363636364	0.989473684211	1.475	0.391136801541
1824	0.912	5.10181818182	0.989473684211	0.0375	1.79768786127
1825	0.9125	0.85	-7.64736842105	1.475	-1.01541425819
1826	0.913	-0.567272727273	0.989473684211	1.475	0.391136801541
1827	0.9135	-3.40181818182	0.989473684211	2.9125	-9.45472061657
1828	0.914	-10.4881818182	-1.88947368421	1.475	0.391136801541
1829	0.9145	-11.9054545455	0.989473684211	1.475	4.61078998073
1830	0.915	-3.40181818182	0.989473684211	0.0375	6.01734104046
1831	0.9155	-6.23636363636	0.989473684211	2.9125	-1.01541425819
1832	0.916	-7.65363636364	2.42894736842	-1.4	-3.82851637765
1833	0.9165	-9.07090909091	-0.45	0.0375	0.391136801541
1834	0.917	-14.74	0.989473684211	-11.4625	1.79768786127
1835	0.9175	-18.9918181818	2.42894736842	-8.5875	7.42389210019
1836	0.918	-26.0781818182	-1.88947368421	-8.5875	4.61078998073
1837	0.9185	-27.4954545455	-1.88947368421	-7.15	6.01734104046
1838	0.919	-30.33	-0.45	-1.4	7.42389210019
1839	0.9195	-27.4954545455	-10.5263157895	-1.4	8.83044315992
1840	0.92	-23.2436363636	-10.5263157895	1.475	7.42389210019
1841	0.9205	-18.9918181818	-10.5263157895	0.0375	6.01734104046
1842	0.921	-9.07090909091	-0.45	-1.4	7.42389210019
1843	0.9215	-9.07090909091	9.62631578947	-1.4	8.83044315992
1844	0.922	-4.81909090909	0.989473684211	2.9125	8.83044315992
1845	0.9225	-3.40181818182	3.86842105263	0.0375	6.01734104046
1846	0.923	-3.40181818182	2.42894736842	2.9125	6.01734104046
1847	0.9235	0.85	0.989473684211	2.9125	4.61078998073
1848	0.924	37.6990909091	0.989473684211	2.9125	0.391136801541
1849	0.9245	23.5263636364	0.989473684211	4.35	-5.23506743738
1850	0.925	9.35363636364	2.42894736842	0.0375	-1.01541425819
1851	0.9255	3.68454545455	3.86842105263	2.9125	-1.01541425819
1852	0.926	13.6054545455	2.42894736842	0.0375	13.0500963391
1853	0.9265	12.1881818182	0.989473684211	2.9125	1.79768786127
1854	0.927	7.93636363636	0.989473684211	2.9125	-2.42196531792
1855	0.9275	5.10181818182	-0.45	2.9125	-12.267822736
1856	0.928	3.68454545455	3.86842105263	1.475	-6.64161849711
1857	0.9285	3.68454545455	-0.45	5.7875	3.204238921
1858	0.929	0.85	0.989473684211	15.85	-1.01541425819
1859	0.9295	-1.98454545455	-0.45	2.9125	-2.42196531792
1860	0.93	-0.567272727273	0.989473684211	14.4125	-3.82851637765
1861	0.9305	-3.40181818182	5.30789473684	2.9125	0.391136801541
1862	0.931	-1.98454545455	15.3842105263	-1.4	-2.42196531792
1863	0.9315	-4.81909090909	18.2631578947	0.0375	-1.01541425819
1864	0.932	-9.07090909091	18.2631578947	2.9125	-3.82851637765
1865	0.9325	-9.07090909091	-0.45	-1.4	-2.42196531792
1866	0.933	-16.1572727273	0.989473684211	0.0375	-2.42196531792
1867	0.9335	-21.8263636364	-1.88947368421	-1.4	-3.82851637765
1868	0.934	-30.33	-1.88947368421	-1.4	-5.23506743738
1869	0.9345	-37.4163636364	-0.45	0.0375	-3.82851637765
1870	0.935	-35.9990909091	0.989473684211	-1.4	-6.64161849711
1871	0.9355	-33.1645454545	0.989473684211	2.9125	-10.8612716763
1872	0.936	-30.33	0.989473684211	4.35	-16.4874759152
1873	0.9365	-27.4954545455	0.989473684211	4.35	-10.8612716763
1874	0.937	-21.8263636364	0.989473684211	1.475	-2.42196531792
1875	0.9375	-14.74	0.989473684211	-1.4	8.83044315992
1876	0.938	-10.4881818182	2.42894736842	-7.15	-6.64161849711
1877	0.9385	-4.81909090909	3.86842105263	2.9125	-3.82851637765
1878	0.939	-3.40181818182	5.30789473684	15.85	-9.45472061657
1879	0.9395	3.68454545455	0.989473684211	23.0375	-10.8612716763
1880	0.94	12.1881818182	3.86842105263	14.4125	-8.04816955684
1881	0.9405	16.44	-7.64736842105	1.475	-9.45472061657
1882	0.941	20.6918181818	-7.64736842105	2.9125	-10.8612716763
1883	0.9415	17.8572727273	-13.4052631579	0.0375	-10.8612716763
1884	0.942	17.8572727273	-7.64736842105	2.9125	-10.8612716763
1885	0.9425	23.5263636364	-4.76842105263	-1.4	-10.8612716763
1886	0.943	16.44	-4.76842105263	1.475	-8.04816955684
1887	0.9435	15.0227272727	-6.20789473684	-1.4	-8.04816955684
1888	0.944	15.0227272727	-6.20789473684	-1.4	-8.04816955684
1889	0.9445	13.6054545455	-1.88947368421	-1.4	-8.04816955684
1890	0.945	26.3609090909	-1.88947368421	0.0375	-6.64161849711
1891	0.9455	26.3609090909	-3.32894736842	1.475	-6.64161849711
1892	0.946	20.6918181818	-1.88947368421	2.9125	-9.45472061657
1893	0.9465	17.8572727273	-1.88947368421	0.0375	-6.64161849711
1894	0.947	0.85	0.989473684211	-2.8375	0.391136801541
1895	0.9475	0.85	-0.45	0.0375	-2.42196531792
1896	0.948	-0.567272727273	-3.32894736842	-1.4	14.4566473988
1897	0.9485	-4.81909090909	3.86842105263	-2.8375	13.0500963391
1898	0.949	-4.81909090909	2.42894736842	2.9125	-3.82851637765
1899	0.9495	-6.23636363636	2.42894736842	15.85	-1.01541425819
1900	0.95	-7.65363636364	-0.45	18.725	-1.01541425819
1901	0.9505	-13.3227272727	-1.88947368421	7.225	-8.04816955684
1902	0.951	-16.1572727273	-10.5263157895	-1.4	-1.01541425819
1903	0.9515	-21.8263636364	-4.76842105263	-7.15	-2.42196531792
1904	0.952	-26.0781818182	-9.08684210526	-1.4	0.391136801541
1905	0.9525	-21.8263636364	-4.76842105263	-4.275	-1.01541425819
1906	0.953	-26.0781818182	-4.76842105263	0.0375	-1.01541425819
1907	0.9535	-21.8263636364	-9.08684210526	-1.4	1.79768786127
1908	0.954	-16.1572727273	-10.5263157895	1.475	3.204238921
1909	0.9545	-7.65363636364	-7.64736842105	1.475	0.391136801541
1910	0.955	-3.40181818182	-3.32894736842	1.475	-2.42196531792
1911	0.9555	-13.3227272727	-1.88947368421	-1.4	-1.01541425819
1912	0.956	9.35363636364	-0.45	1.475	0.391136801541
1913	0.9565	26.3609090909	-1.88947368421	1.475	6.01734104046
1914	0.957	19.2745454545	-1.88947368421	1.475	4.61078998073
1915	0.9575	20.6918181818	-1.88947368421	0.0375	7.42389210019
1916	0.958	17.8572727273	-1.88947368421	0.0375	20.0828516378
1917	0.9585	20.6918181818	-0.45	2.9125	8.83044315992
1918	0.959	22.1090909091	-0.45	2.9125	0.391136801541
1919	0.9595	19.2745454545	-0.45	18.725	1.79768786127
1920	0.96	15.0227272727	0.989473684211	14.4125	0.391136801541
1921	0.9605	13.6054545455	-0.45	2.9125	1.79768786127
1922	0.961	7.93636363636	-4.76842105263	-7.15	1.79768786127
1923	0.9615	9.35363636364	-3.32894736842	-8.5875	4.61078998073
1924	0.962	5.10181818182	3.86842105263	2.9125	3.204238921
1925	0.9625	7.93636363636	13.9447368421	-1.4	7.42389210019
1926	0.963	5.10181818182	16.8236842105	-2.8375	7.42389210019
1927	0.9635	0.85	11.0657894737	-2.8375	8.83044315992
1928	0.964	3.68454545455	-0.45	-1.4	17.2697495183
1929	0.9645	-9.07090909091	-0.45	-2.8375	21.4894026975
1930	0.965	-6.23636363636	-0.45	-4.275	21.4894026975
1931	0.9655	0.85	-0.45	-2.8375	24.302504817
1932	0.966	12.1881818182	-0.45	-1.4	25.7090558767
1933	0.9665	12.1881818182	-1.88947368421	-1.4	29.9287090559
1934	0.967	-6.23636363636	0.989473684211	-1.4	42.5876685934
1935	0.9675	-14.74	-1.88947368421	-2.8375	56.6531791908
1936	0.968	-18.9918181818	0.989473684211	-2.8375	48.2138728324
1937	0.9685	-18.9918181818	0.989473684211	-2.8375	51.0269749518
1938	0.969	-21.8263636364	0.989473684211	4.35	56.6531791908
1939	0.9695	-18.9918181818	-1.88947368421	0.0375	53.8400770713
1940	0.97	-17.5745454545	0.989473684211	-7.15	72.1252408478
1941	0.9705	-13.3227272727	2.42894736842	-4.275	65.0924855491
1942	0.971	-7.65363636364	3.86842105263	-1.4	65.0924855491
1943	0.9715	-1.98454545455	2.42894736842	14.4125	63.6859344894
1944	0.972	2.26727272727	-7.64736842105	-2.8375	65.0924855491
1945	0.9725	10.7709090909	18.2631578947	0.0375	60.8728323699
1946	0.973	15.0227272727	15.3842105263	-1.4	60.8728323699
1947	0.9735	22.1090909091	8.18684210526	1.475	56.6531791908
1948	0.974	29.1954545455	-1.88947368421	-1.4	55.246628131
1949	0.9745	29.1954545455	-0.45	1.475	52.4335260116
1950	0.975	22.1090909091	-0.45	-1.4	49.6204238921
1951	0.9755	16.44	0.989473684211	-2.8375	45.4007707129
1952	0.976	17.8572727273	0.989473684211	1.475	46.8073217726
1953	0.9765	26.3609090909	0.989473684211	0.0375	42.5876685934
1954	0.977	15.0227272727	2.42894736842	-1.4	45.4007707129
1955	0.9775	17.8572727273	-1.88947368421	0.0375	56.6531791908
1956	0.978	17.8572727273	-1.88947368421	0.0375	39.774566474
1957	0.9785	17.8572727273	-0.45	0.0375	39.774566474
1958	0.979	13.6054545455	0.989473684211	-2.8375	38.3680154143
1959	0.9795	15.0227272727	-4.76842105263	-11.4625	41.1811175337
1960	0.98	13.6054545455	-4.76842105263	-7.15	46.8073217726
1961	0.9805	12.1881818182	-1.88947368421	-11.4625	41.1811175337
1962	0.981	10.7709090909	-1.88947368421	-5.7125	31.3352601156
1963	0.9815	9.35363636364	0.989473684211	0.0375	14.4566473988
1964	0.982	10.7709090909	13.9447368421	0.0375	3.204238921
1965	0.9825	10.7709090909	15.3842105263	-1.4	-13.6743737958
1966	0.983	6.51909090909	2.42894736842	1.475	-30.5529865125
1967	0.9835	0.85	-9.08684210526	4.35	-46.0250481696
1968	0.984	-4.81909090909	-16.2842105263	1.475	-61.4971098266
1969	0.9845	-9.07090909091	-7.64736842105	1.475	-79.7822736031
1970	0.985	-16.1572727273	-13.4052631579	4.35	-99.4739884393
1971	0.9855	-24.6609090909	-10.5263157895	5.7875	-121.978805395
1972	0.986	-23.2436363636	-9.08684210526	5.7875	-143.077071291
1973	0.9865	-14.74	-10.5263157895	7.225	-161.362235067
1974	0.987	-9.07090909091	-10.5263157895	4.35	-164.175337187
1975	0.9875	0.85	-9.08684210526	11.5375	-202.1522158
1976	0.988	3.68454545455	-10.5263157895	0.0375	-221.843930636
1977	0.9885	9.35363636364	-9.08684210526	0.0375	-230.283236994
1978	0.989	12.1881818182	-11.9657894737	1.475	-259.820809249
1979	0.9895	19.2745454545	-13.4052631579	7.225	-280.919075145
1980	0.99	24.9436363636	-13.4052631579	18.725	-300.610789981
1981	0.9905	30.6127272727	-14.8447368421	27.35	-318.895953757
1982	0.991	29.1954545455	-16.2842105263	15.85	-335.774566474
1983	0.9915	27.7781818182	-14.8447368421	27.35	-349.840077071
1984	0.992	30.6127272727	-9.08684210526	11.5375	-362.499036609
1985	0.9925	33.4472727273	-0.45	11.5375	-377.971098266
1986	0.993	27.7781818182	0.989473684211	12.975	-390.630057803
1987	0.9935	26.3609090909	-3.32894736842	8.6625	-399.069364162
1988	0.994	16.44	-14.8447368421	8.6625	-411.728323699
1989	0.9945	3.68454545455	-16.2842105263	14.4125	-422.980732177
1990	0.995	13.6054545455	-14.8447368421	10.1	-428.606936416
1991	0.9955	29.1954545455	-13.4052631579	5.7875	-430.013487476
1992	0.996	29.1954545455	-11.9657894737	5.7875	-427.200385356
1993	0.9965	17.8572727273	-14.8447368421	5.7875	-420.167630058
1994	0.997	7.93636363636	-13.4052631579	5.7875	-415.947976879
1995	0.9975	9.35363636364	-14.8447368421	4.35	-407.50867052
1996	0.998	3.68454545455	-11.9657894737	7.225	-415.947976879
1997	0.9985	2.26727272727	-13.4052631579	-2.8375	-417.354527938
1998	0.999	0.85	-13.4052631579	-2.8375	-424.387283237
1999	0.9995	-0.567272727273	-16.2842105263	2.9125	-421.574181118
2000	1.0	-4.81909090909	-11.9657894737	15.85	-417.354527938
2001	1.0005	-7.65363636364	-10.5263157895	25.9125	-408.91522158
2002	1.001	-16.1572727273	-13.4052631579	11.5375	-399.069364162
2003	1.0015	-26.0781818182	-10.5263157895	5.7875	-382.190751445
2004	1.002	-27.4954545455	-13.4052631579	7.225	-366.718689788
2005	1.0025	-33.1645454545	-16.2842105263	7.225	-348.433526012
2006	1.003	-34.5818181818	-17.7236842105	8.6625	-337.181117534
2007	1.0035	-26.0781818182	-13.4052631579	8.6625	-321.709055877
2008	1.004	-18.9918181818	-10.5263157895	7.225	-306.23699422
2009	1.0045	-28.9127272727	-4.76842105263	11.5375	-290.764932563
2010	1.005	-23.2436363636	-6.20789473684	12.975	-269.666666667
2011	1.0055	-6.23636363636	-4.76842105263	8.6625	-249.97495183
2012	1.006	9.35363636364	-0.45	8.6625	-221.843930636
2013	1.0065	-1.98454545455	-0.45	7.225	-202.1522158
2014	1.007	5.10181818182	-1.88947368421	4.35	-172.614643545
2015	1.0075	10.7709090909	-0.45	4.35	-161.362235067
2016	1.008	10.7709090909	-1.88947368421	11.5375	-164.175337187
2017	1.0085	3.68454545455	-4.76842105263	12.975	-159.955684008
2018	1.009	10.7709090909	-1.88947368421	24.475	-145.89017341
2019	1.0095	7.93636363636	-1.88947368421	4.35	-137.450867052
2020	1.01	2.26727272727	-0.45	-2.8375	-120.572254335
2021	1.0105	-4.81909090909	-1.88947368421	7.225	-102.287090559
2022	1.011	-6.23636363636	-10.5263157895	5.7875	-91.0346820809
2023	1.0115	-7.65363636364	-11.9657894737	5.7875	-76.9691714836
2024	1.012	-11.9054545455	-11.9657894737	5.7875	-65.7167630058
2025	1.0125	-11.9054545455	-9.08684210526	7.225	-55.8709055877
2026	1.013	-14.74	-4.76842105263	4.35	-53.0578034682
2027	1.0135	-16.1572727273	-3.32894736842	7.225	-48.838150289
2028	1.014	-20.4090909091	-0.45	7.225	-46.0250481696
2029	1.0145	-28.9127272727	0.989473684211	7.225	-41.8053949904
2030	1.015	-10.4881818182	-0.45	5.7875	-38.9922928709
2031	1.0155	-9.07090909091	-0.45	8.6625	-34.7726396917
2032	1.016	-14.74	-3.32894736842	4.35	-33.366088632
2033	1.0165	-34.5818181818	-1.88947368421	7.225	-36.1791907514
2034	1.017	-34.5818181818	-1.88947368421	8.6625	-31.9595375723
2035	1.0175	-37.4163636364	-1.88947368421	5.7875	-30.5529865125
2036	1.018	-41.6681818182	-1.88947368421	4.35	-24.9267822736
2037	1.0185	-44.5027272727	-3.32894736842	-4.275	-12.267822736
2038	1.019	-45.92	-1.88947368421	-4.275	-10.8612716763
2039	1.0195	-44.5027272727	-1.88947368421	-7.15	-5.23506743738
2040	1.02	-40.2509090909	-1.88947368421	-2.8375	-1.01541425819
2041	1.0205	-31.7472727273	6.74736842105	0.0375	1.79768786127
2042	1.021	-24.6609090909	3.86842105263	1.475	4.61078998073
