	Time	Channel 1	Channel 2	Channel 3	Channel 4
0	0.0	-4.76	1.01081081081	4.209375	43.9635437882
1	0.0005	19.38	-1.87027027027	2.7625	43.9635437882
2	0.001	-0.5	-0.42972972973	1.315625	42.5570264766
3	0.0015	15.12	-0.42972972973	-0.13125	41.150509165
4	0.002	29.32	-1.87027027027	4.209375	42.5570264766
5	0.0025	30.74	-0.42972972973	2.7625	38.3374745418
6	0.003	27.9	-0.42972972973	-3.025	38.3374745418
7	0.0035	27.9	16.8567567568	1.315625	32.7114052953
8	0.004	17.96	-1.87027027027	1.315625	38.3374745418
9	0.0045	33.58	1.01081081081	14.3375	31.3048879837
10	0.005	27.9	-1.87027027027	-4.471875	32.7114052953
11	0.0055	23.64	-0.42972972973	-3.025	35.5244399185
12	0.006	16.54	3.89189189189	1.315625	38.3374745418
13	0.0065	16.54	2.45135135135	1.315625	36.9309572301
14	0.007	12.28	-10.5135135135	1.315625	35.5244399185
15	0.0075	9.44	-11.9540540541	-0.13125	36.9309572301
16	0.008	10.86	-6.19189189189	-1.578125	38.3374745418
17	0.0085	9.44	-1.87027027027	-0.13125	41.150509165
18	0.009	3.76	1.01081081081	-0.13125	45.3700610998
19	0.0095	-7.6	1.01081081081	1.315625	43.9635437882
20	0.01	-9.02	-3.31081081081	4.209375	39.7439918534
21	0.0105	-7.6	-0.42972972973	2.7625	39.7439918534
22	0.011	-6.18	-1.87027027027	-3.025	50.9961303462
23	0.0115	-7.6	-1.87027027027	-1.578125	53.8091649695
24	0.012	-6.18	-1.87027027027	-1.578125	36.9309572301
25	0.0125	-11.86	-1.87027027027	-0.13125	41.150509165
26	0.013	-18.96	-1.87027027027	-0.13125	34.1179226069
27	0.0135	-28.9	-1.87027027027	-0.13125	34.1179226069
28	0.014	-27.48	-7.63243243243	1.315625	43.9635437882
29	0.0145	-28.9	-11.9540540541	1.315625	42.5570264766
30	0.015	-28.9	-13.3945945946	-0.13125	39.7439918534
31	0.0155	-20.38	8.21351351351	1.315625	35.5244399185
32	0.016	-13.28	3.89189189189	1.315625	34.1179226069
33	0.0165	-20.38	-0.42972972973	-0.13125	36.9309572301
34	0.017	-14.7	1.01081081081	4.209375	34.1179226069
35	0.0175	0.92	1.01081081081	1.315625	29.8983706721
36	0.018	6.6	-0.42972972973	-1.578125	31.3048879837
37	0.0185	13.7	1.01081081081	1.315625	28.4918533605
38	0.019	27.9	-0.42972972973	2.7625	35.5244399185
39	0.0195	32.16	2.45135135135	5.65625	29.8983706721
40	0.02	30.74	-1.87027027027	-10.259375	21.4592668024
41	0.0205	29.32	-0.42972972973	-8.8125	22.8657841141
42	0.021	32.16	-0.42972972973	-4.471875	21.4592668024
43	0.0215	29.32	-1.87027027027	-4.471875	22.8657841141
44	0.022	23.64	1.01081081081	-3.025	24.2723014257
45	0.0225	17.96	3.89189189189	-0.13125	28.4918533605
46	0.023	16.54	11.0945945946	-0.13125	35.5244399185
47	0.0235	10.86	-0.42972972973	-1.578125	38.3374745418
48	0.024	9.44	-10.5135135135	-0.13125	36.9309572301
49	0.0245	8.02	-11.9540540541	2.7625	36.9309572301
50	0.025	0.92	-1.87027027027	1.315625	39.7439918534
51	0.0255	23.64	-1.87027027027	-0.13125	36.9309572301
52	0.026	25.06	-0.42972972973	-1.578125	34.1179226069
53	0.0265	-4.76	-0.42972972973	-1.578125	36.9309572301
54	0.027	0.92	-1.87027027027	-0.13125	36.9309572301
55	0.0275	0.92	1.01081081081	2.7625	38.3374745418
56	0.028	-3.34	1.01081081081	1.315625	39.7439918534
57	0.0285	-6.18	-1.87027027027	14.3375	32.7114052953
58	0.029	-7.6	-1.87027027027	1.315625	27.0853360489
59	0.0295	-13.28	-4.75135135135	11.44375	35.5244399185
60	0.03	-21.8	1.01081081081	-1.578125	35.5244399185
61	0.0305	-26.06	1.01081081081	-8.8125	34.1179226069
62	0.031	-27.48	6.77297297297	2.7625	32.7114052953
63	0.0315	-27.48	-4.75135135135	2.7625	28.4918533605
64	0.032	-23.22	-10.5135135135	1.315625	27.0853360489
65	0.0325	-21.8	-3.31081081081	-0.13125	25.6788187373
66	0.033	6.6	-1.87027027027	-0.13125	18.6462321792
67	0.0335	10.86	1.01081081081	-0.13125	21.4592668024
68	0.034	5.18	-0.42972972973	1.315625	8.80061099796
69	0.0345	5.18	-0.42972972973	2.7625	7.39409368635
70	0.035	12.28	-1.87027027027	4.209375	4.58105906314
71	0.0355	23.64	-1.87027027027	-3.025	7.39409368635
72	0.036	30.74	-1.87027027027	-8.8125	7.39409368635
73	0.0365	29.32	-0.42972972973	18.678125	10.2071283096
74	0.037	27.9	-3.31081081081	4.209375	14.4266802444
75	0.0375	30.74	-4.75135135135	-5.91875	21.4592668024
76	0.038	32.16	-3.31081081081	-7.365625	27.0853360489
77	0.0385	26.48	1.01081081081	4.209375	34.1179226069
78	0.039	23.64	-3.31081081081	1.315625	39.7439918534
79	0.0395	19.38	-3.31081081081	1.315625	42.5570264766
80	0.04	13.7	-3.31081081081	-1.578125	42.5570264766
81	0.0405	23.64	-1.87027027027	-0.13125	41.150509165
82	0.041	23.64	-1.87027027027	1.315625	45.3700610998
83	0.0415	16.54	1.01081081081	4.209375	36.9309572301
84	0.042	5.18	-3.31081081081	5.65625	35.5244399185
85	0.0425	5.18	-3.31081081081	2.7625	28.4918533605
86	0.043	5.18	-1.87027027027	-1.578125	32.7114052953
87	0.0435	0.92	-1.87027027027	-7.365625	34.1179226069
88	0.044	-0.5	-4.75135135135	-8.8125	41.150509165
89	0.0445	-3.34	-6.19189189189	-7.365625	41.150509165
90	0.045	-6.18	-1.87027027027	-4.471875	41.150509165
91	0.0455	-9.02	8.21351351351	2.7625	36.9309572301
92	0.046	-14.7	16.8567567568	-0.13125	34.1179226069
93	0.0465	-21.8	-10.5135135135	-0.13125	31.3048879837
94	0.047	-28.9	-6.19189189189	-0.13125	28.4918533605
95	0.0475	-27.48	-6.19189189189	1.315625	29.8983706721
96	0.048	-11.86	-0.42972972973	-1.578125	25.6788187373
97	0.0485	-7.6	-1.87027027027	-3.025	24.2723014257
98	0.049	-13.28	1.01081081081	-0.13125	25.6788187373
99	0.0495	-10.44	1.01081081081	-1.578125	39.7439918534
100	0.05	-7.6	-1.87027027027	-0.13125	22.8657841141
101	0.0505	-3.34	1.01081081081	2.7625	29.8983706721
102	0.051	3.76	-0.42972972973	-8.8125	24.2723014257
103	0.0515	10.86	1.01081081081	-5.91875	28.4918533605
104	0.052	22.22	-3.31081081081	-4.471875	31.3048879837
105	0.0525	29.32	-1.87027027027	-1.578125	31.3048879837
106	0.053	29.32	1.01081081081	1.315625	35.5244399185
107	0.0535	26.48	-16.2756756757	-1.578125	35.5244399185
108	0.054	26.48	-11.9540540541	-0.13125	34.1179226069
109	0.0545	29.32	-9.07297297297	-1.578125	35.5244399185
110	0.055	26.48	-3.31081081081	-1.578125	35.5244399185
111	0.0555	20.8	-4.75135135135	-0.13125	34.1179226069
112	0.056	12.28	-0.42972972973	-3.025	31.3048879837
113	0.0565	10.86	-1.87027027027	-1.578125	35.5244399185
114	0.057	-0.5	-3.31081081081	-1.578125	29.8983706721
115	0.0575	5.18	-3.31081081081	-0.13125	41.150509165
116	0.058	9.44	-1.87027027027	-1.578125	43.9635437882
117	0.0585	3.76	-1.87027027027	2.7625	39.7439918534
118	0.059	5.18	-1.87027027027	5.65625	27.0853360489
119	0.0595	0.92	-0.42972972973	-5.91875	31.3048879837
120	0.06	0.92	-1.87027027027	-11.70625	32.7114052953
121	0.0605	0.92	-3.31081081081	-5.91875	32.7114052953
122	0.061	-1.92	3.89189189189	-0.13125	32.7114052953
123	0.0615	-4.76	13.9756756757	4.209375	32.7114052953
124	0.062	-7.6	-6.19189189189	2.7625	36.9309572301
125	0.0625	-14.7	-10.5135135135	2.7625	38.3374745418
126	0.063	-18.96	-4.75135135135	-0.13125	38.3374745418
127	0.0635	-17.54	-6.19189189189	-0.13125	35.5244399185
128	0.064	-11.86	-6.19189189189	-0.13125	41.150509165
129	0.0645	-11.86	-1.87027027027	-1.578125	39.7439918534
130	0.065	-33.16	-1.87027027027	-0.13125	32.7114052953
131	0.0655	-20.38	-0.42972972973	1.315625	31.3048879837
132	0.066	-13.28	-1.87027027027	4.209375	22.8657841141
133	0.0665	-7.6	-1.87027027027	-0.13125	22.8657841141
134	0.067	-4.76	-3.31081081081	-0.13125	27.0853360489
135	0.0675	-0.5	-4.75135135135	-8.8125	29.8983706721
136	0.068	10.86	-0.42972972973	-5.91875	31.3048879837
137	0.0685	17.96	11.0945945946	-0.13125	32.7114052953
138	0.069	32.16	16.8567567568	1.315625	32.7114052953
139	0.0695	30.74	9.65405405405	1.315625	32.7114052953
140	0.07	30.74	-0.42972972973	-0.13125	29.8983706721
141	0.0705	27.9	15.4162162162	2.7625	29.8983706721
142	0.071	20.8	-1.87027027027	1.315625	28.4918533605
143	0.0715	39.26	-1.87027027027	1.315625	31.3048879837
144	0.072	19.38	-0.42972972973	1.315625	28.4918533605
145	0.0725	20.8	-3.31081081081	-0.13125	38.3374745418
146	0.073	16.54	-1.87027027027	2.7625	32.7114052953
147	0.0735	16.54	-1.87027027027	-7.365625	29.8983706721
148	0.074	12.28	-1.87027027027	-5.91875	29.8983706721
149	0.0745	12.28	-1.87027027027	4.209375	32.7114052953
150	0.075	9.44	-3.31081081081	15.784375	25.6788187373
151	0.0755	5.18	1.01081081081	4.209375	29.8983706721
152	0.076	5.18	-10.5135135135	2.7625	31.3048879837
153	0.0765	2.34	-13.3945945946	2.7625	31.3048879837
154	0.077	0.92	-9.07297297297	1.315625	35.5244399185
155	0.0775	2.34	-6.19189189189	4.209375	38.3374745418
156	0.078	0.92	-4.75135135135	1.315625	42.5570264766
157	0.0785	-6.18	-3.31081081081	-1.578125	42.5570264766
158	0.079	-6.18	-1.87027027027	-0.13125	43.9635437882
159	0.0795	-23.22	-4.75135135135	1.315625	29.8983706721
160	0.08	-30.32	-4.75135135135	-1.578125	43.9635437882
161	0.0805	-27.48	-3.31081081081	-1.578125	39.7439918534
162	0.081	-27.48	-0.42972972973	-3.025	36.9309572301
163	0.0815	-24.64	-4.75135135135	8.55	38.3374745418
164	0.082	-23.22	-3.31081081081	18.678125	38.3374745418
165	0.0825	-16.12	-1.87027027027	14.3375	35.5244399185
166	0.083	-7.6	-11.9540540541	4.209375	32.7114052953
167	0.0835	-3.34	-13.3945945946	-0.13125	29.8983706721
168	0.084	3.76	-10.5135135135	-0.13125	28.4918533605
169	0.0845	10.86	-9.07297297297	2.7625	28.4918533605
170	0.085	23.64	-3.31081081081	1.315625	25.6788187373
171	0.0855	29.32	-0.42972972973	-0.13125	29.8983706721
172	0.086	36.42	-1.87027027027	2.7625	29.8983706721
173	0.0865	30.74	-1.87027027027	-0.13125	34.1179226069
174	0.087	23.64	-1.87027027027	-0.13125	31.3048879837
175	0.0875	30.74	1.01081081081	1.315625	28.4918533605
176	0.088	32.16	-1.87027027027	1.315625	32.7114052953
177	0.0885	25.06	-1.87027027027	-0.13125	31.3048879837
178	0.089	22.22	-3.31081081081	-8.8125	41.150509165
179	0.0895	20.8	-3.31081081081	15.784375	43.9635437882
180	0.09	16.54	-0.42972972973	15.784375	41.150509165
181	0.0905	13.7	-3.31081081081	7.103125	42.5570264766
182	0.091	10.86	-10.5135135135	2.7625	46.7765784114
183	0.0915	10.86	-10.5135135135	4.209375	45.3700610998
184	0.092	8.02	-4.75135135135	1.315625	48.183095723
185	0.0925	6.6	8.21351351351	-1.578125	45.3700610998
186	0.093	-0.5	15.4162162162	-1.578125	43.9635437882
187	0.0935	2.34	15.4162162162	-0.13125	48.183095723
188	0.094	5.18	-0.42972972973	-1.578125	49.5896130346
189	0.0945	13.7	-1.87027027027	-0.13125	49.5896130346
190	0.095	-16.12	-0.42972972973	2.7625	45.3700610998
191	0.0955	-14.7	-1.87027027027	2.7625	48.183095723
192	0.096	-16.12	-0.42972972973	-0.13125	56.6221995927
193	0.0965	-21.8	-1.87027027027	-5.91875	39.7439918534
194	0.097	-27.48	-3.31081081081	7.103125	38.3374745418
195	0.0975	-30.32	1.01081081081	15.784375	36.9309572301
196	0.098	-31.74	1.01081081081	-7.365625	38.3374745418
197	0.0985	-27.48	1.01081081081	-1.578125	38.3374745418
198	0.099	-20.38	-13.3945945946	-1.578125	39.7439918534
199	0.0995	-11.86	-10.5135135135	-0.13125	41.150509165
200	0.1	-4.76	3.89189189189	-0.13125	41.150509165
201	0.1005	-3.34	-7.63243243243	-1.578125	43.9635437882
202	0.101	0.92	-9.07297297297	-3.025	43.9635437882
203	0.1015	25.06	-1.87027027027	-1.578125	45.3700610998
204	0.102	39.26	-1.87027027027	-0.13125	45.3700610998
205	0.1025	25.06	-1.87027027027	-0.13125	39.7439918534
206	0.103	27.9	-4.75135135135	-0.13125	41.150509165
207	0.1035	29.32	-0.42972972973	4.209375	34.1179226069
208	0.104	29.32	-0.42972972973	4.209375	35.5244399185
209	0.1045	33.58	-0.42972972973	4.209375	43.9635437882
210	0.105	27.9	-1.87027027027	-1.578125	42.5570264766
211	0.1055	22.22	-0.42972972973	-4.471875	46.7765784114
212	0.106	19.38	-4.75135135135	2.7625	42.5570264766
213	0.1065	16.54	-10.5135135135	1.315625	39.7439918534
214	0.107	16.54	-14.8351351351	1.315625	39.7439918534
215	0.1075	15.12	-9.07297297297	-0.13125	35.5244399185
216	0.108	13.7	-4.75135135135	1.315625	31.3048879837
217	0.1085	8.02	-6.19189189189	-1.578125	28.4918533605
218	0.109	6.6	-3.31081081081	4.209375	28.4918533605
219	0.1095	12.28	-1.87027027027	2.7625	22.8657841141
220	0.11	-0.5	-1.87027027027	2.7625	18.6462321792
221	0.1105	0.92	-3.31081081081	4.209375	20.0527494908
222	0.111	0.92	-1.87027027027	1.315625	31.3048879837
223	0.1115	-0.5	-1.87027027027	-10.259375	29.8983706721
224	0.112	-0.5	-3.31081081081	-10.259375	31.3048879837
225	0.1125	-9.02	-0.42972972973	-3.025	42.5570264766
226	0.113	-14.7	-1.87027027027	12.890625	31.3048879837
227	0.1135	-21.8	-7.63243243243	-3.025	32.7114052953
228	0.114	-24.64	-13.3945945946	-3.025	28.4918533605
229	0.1145	-23.22	-11.9540540541	-0.13125	27.0853360489
230	0.115	-21.8	3.89189189189	-0.13125	29.8983706721
231	0.1155	-14.7	-0.42972972973	2.7625	32.7114052953
232	0.116	-14.7	-1.87027027027	2.7625	29.8983706721
233	0.1165	-18.96	-4.75135135135	2.7625	32.7114052953
234	0.117	-13.28	-1.87027027027	1.315625	34.1179226069
235	0.1175	9.44	-0.42972972973	-0.13125	31.3048879837
236	0.118	10.86	-0.42972972973	-0.13125	38.3374745418
237	0.1185	19.38	1.01081081081	2.7625	25.6788187373
238	0.119	26.48	-0.42972972973	7.103125	4.58105906314
239	0.1195	30.74	-1.87027027027	-1.578125	13.0201629328
240	0.12	29.32	-3.31081081081	-0.13125	18.6462321792
241	0.1205	26.48	-6.19189189189	-5.91875	20.0527494908
242	0.121	27.9	-1.87027027027	-3.025	25.6788187373
243	0.1215	29.32	1.01081081081	-0.13125	25.6788187373
244	0.122	26.48	15.4162162162	1.315625	24.2723014257
245	0.1225	22.22	5.33243243243	1.315625	24.2723014257
246	0.123	16.54	-3.31081081081	-1.578125	21.4592668024
247	0.1235	17.96	-0.42972972973	-1.578125	21.4592668024
248	0.124	6.6	-0.42972972973	-0.13125	21.4592668024
249	0.1245	15.12	-1.87027027027	-0.13125	31.3048879837
250	0.125	23.64	-1.87027027027	-1.578125	34.1179226069
251	0.1255	-4.76	-0.42972972973	2.7625	32.7114052953
252	0.126	2.34	-1.87027027027	4.209375	34.1179226069
253	0.1265	3.76	-1.87027027027	-11.70625	27.0853360489
254	0.127	0.92	-0.42972972973	-10.259375	28.4918533605
255	0.1275	-1.92	-1.87027027027	-7.365625	24.2723014257
256	0.128	-4.76	-3.31081081081	1.315625	25.6788187373
257	0.1285	-7.6	1.01081081081	-1.578125	24.2723014257
258	0.129	-10.44	-0.42972972973	-1.578125	21.4592668024
259	0.1295	-14.7	-4.75135135135	-4.471875	21.4592668024
260	0.13	-23.22	8.21351351351	-4.471875	22.8657841141
261	0.1305	-21.8	18.2972972973	-0.13125	25.6788187373
262	0.131	-24.64	16.8567567568	-1.578125	21.4592668024
263	0.1315	-24.64	1.01081081081	-1.578125	25.6788187373
264	0.132	-31.74	-0.42972972973	-0.13125	25.6788187373
265	0.1325	-23.22	-1.87027027027	1.315625	27.0853360489
266	0.133	-4.76	-1.87027027027	1.315625	29.8983706721
267	0.1335	-0.5	-1.87027027027	-1.578125	42.5570264766
268	0.134	5.18	-0.42972972973	1.315625	34.1179226069
269	0.1345	8.02	-3.31081081081	1.315625	29.8983706721
270	0.135	17.96	1.01081081081	2.7625	18.6462321792
271	0.1355	26.48	-3.31081081081	7.103125	18.6462321792
272	0.136	35.0	-1.87027027027	-1.578125	14.4266802444
273	0.1365	30.74	-0.42972972973	-11.70625	20.0527494908
274	0.137	29.32	-0.42972972973	1.315625	17.2397148676
275	0.1375	33.58	-3.31081081081	-1.578125	17.2397148676
276	0.138	30.74	-13.3945945946	-0.13125	15.833197556
277	0.1385	22.22	-11.9540540541	-0.13125	10.2071283096
278	0.139	17.96	-9.07297297297	1.315625	4.58105906314
279	0.1395	17.96	-10.5135135135	4.209375	5.98757637475
280	0.14	-0.5	-4.75135135135	2.7625	3.17454175153
281	0.1405	26.48	-3.31081081081	-0.13125	1.76802443992
282	0.141	17.96	-1.87027027027	-0.13125	5.98757637475
283	0.1415	-0.5	-3.31081081081	-0.13125	5.98757637475
284	0.142	5.18	-4.75135135135	-0.13125	22.8657841141
285	0.1425	3.76	-1.87027027027	-3.025	1.76802443992
286	0.143	0.92	-1.87027027027	-8.8125	8.80061099796
287	0.1435	-0.5	1.01081081081	-10.259375	13.0201629328
288	0.144	0.92	-1.87027027027	-1.578125	5.98757637475
289	0.1445	-0.5	-0.42972972973	-3.025	15.833197556
290	0.145	-6.18	-0.42972972973	-3.025	15.833197556
291	0.1455	-4.76	-13.3945945946	-1.578125	20.0527494908
292	0.146	-11.86	-10.5135135135	-4.471875	20.0527494908
293	0.1465	-20.38	3.89189189189	-3.025	21.4592668024
294	0.147	-21.8	-3.31081081081	-3.025	22.8657841141
295	0.1475	-26.06	-4.75135135135	-4.471875	22.8657841141
296	0.148	-26.06	-0.42972972973	-1.578125	22.8657841141
297	0.1485	-13.28	-1.87027027027	2.7625	21.4592668024
298	0.149	-14.7	-1.87027027027	1.315625	20.0527494908
299	0.1495	-11.86	-1.87027027027	-0.13125	21.4592668024
300	0.15	-11.86	-4.75135135135	2.7625	18.6462321792
301	0.1505	-0.5	1.01081081081	4.209375	17.2397148676
302	0.151	8.02	-6.19189189189	1.315625	20.0527494908
303	0.1515	13.7	-4.75135135135	5.65625	5.98757637475
304	0.152	20.8	-1.87027027027	18.678125	1.76802443992
305	0.1525	29.32	-0.42972972973	-8.8125	0.36150712831
306	0.153	33.58	-6.19189189189	-7.365625	0.36150712831
307	0.1535	30.74	-0.42972972973	-5.91875	1.76802443992
308	0.154	30.74	-1.87027027027	-4.471875	3.17454175153
309	0.1545	35.0	15.4162162162	1.315625	8.80061099796
310	0.155	32.16	13.9756756757	2.7625	7.39409368635
311	0.1555	27.9	16.8567567568	-1.578125	15.833197556
312	0.156	20.8	13.9756756757	1.315625	18.6462321792
313	0.1565	13.7	-1.87027027027	1.315625	20.0527494908
314	0.157	5.18	-0.42972972973	-0.13125	22.8657841141
315	0.1575	-0.5	-3.31081081081	-1.578125	21.4592668024
316	0.158	-3.34	-3.31081081081	-1.578125	21.4592668024
317	0.1585	20.8	1.01081081081	-1.578125	24.2723014257
318	0.159	5.18	-1.87027027027	-3.025	28.4918533605
319	0.1595	3.76	-3.31081081081	-3.025	31.3048879837
320	0.16	3.76	-3.31081081081	-4.471875	18.6462321792
321	0.1605	-0.5	-1.87027027027	-8.8125	10.2071283096
322	0.161	0.92	-3.31081081081	4.209375	7.39409368635
323	0.1615	-3.34	-1.87027027027	12.890625	4.58105906314
324	0.162	-9.02	-1.87027027027	21.571875	0.36150712831
325	0.1625	-11.86	-3.31081081081	-1.578125	-5.26456211813
326	0.163	-18.96	-7.63243243243	1.315625	-3.85804480652
327	0.1635	-24.64	-13.3945945946	2.7625	-3.85804480652
328	0.164	-28.9	-11.9540540541	2.7625	-8.07759674134
329	0.1645	-30.32	-7.63243243243	2.7625	-8.07759674134
330	0.165	-26.06	-6.19189189189	-0.13125	-9.48411405295
331	0.1655	-20.38	-1.87027027027	1.315625	-6.67107942974
332	0.166	0.92	-0.42972972973	1.315625	-5.26456211813
333	0.1665	-0.5	-3.31081081081	1.315625	-1.0450101833
334	0.167	-3.34	-3.31081081081	-1.578125	1.76802443992
335	0.1675	-1.92	-0.42972972973	1.315625	3.17454175153
336	0.168	5.18	-1.87027027027	1.315625	17.2397148676
337	0.1685	16.54	1.01081081081	4.209375	-2.45152749491
338	0.169	25.06	-0.42972972973	1.315625	-1.0450101833
339	0.1695	27.9	-1.87027027027	-1.578125	-2.45152749491
340	0.17	27.9	-1.87027027027	-0.13125	0.36150712831
341	0.1705	25.06	-3.31081081081	-8.8125	-3.85804480652
342	0.171	32.16	-1.87027027027	-8.8125	-8.07759674134
343	0.1715	27.9	-1.87027027027	-3.025	-9.48411405295
344	0.172	23.64	-14.8351351351	-0.13125	-9.48411405295
345	0.1725	19.38	-13.3945945946	-0.13125	-12.2971486762
346	0.173	12.28	-13.3945945946	2.7625	-9.48411405295
347	0.1735	10.86	-9.07297297297	-0.13125	-10.8906313646
348	0.174	0.92	-3.31081081081	1.315625	-16.516700611
349	0.1745	15.12	-1.87027027027	-0.13125	-16.516700611
350	0.175	22.22	-1.87027027027	-0.13125	-9.48411405295
351	0.1755	20.8	-3.31081081081	1.315625	-9.48411405295
352	0.176	-6.18	-0.42972972973	1.315625	-13.7036659878
353	0.1765	-6.18	-3.31081081081	-1.578125	-12.2971486762
354	0.177	-1.92	-3.31081081081	-11.70625	-16.516700611
355	0.1775	-1.92	-0.42972972973	-11.70625	-20.7362525458
356	0.178	-6.18	-3.31081081081	-10.259375	-20.7362525458
357	0.1785	-6.18	-4.75135135135	14.3375	-24.9558044807
358	0.179	-9.02	-3.31081081081	12.890625	-23.549287169
359	0.1795	-18.96	-4.75135135135	1.315625	-26.3623217923
360	0.18	-30.32	-11.9540540541	-0.13125	-23.549287169
361	0.1805	-27.48	-13.3945945946	-1.578125	-22.1427698574
362	0.181	-28.9	-11.9540540541	-0.13125	-23.549287169
363	0.1815	-26.06	-10.5135135135	-0.13125	-23.549287169
364	0.182	-23.22	-6.19189189189	1.315625	-23.549287169
365	0.1825	-16.12	-4.75135135135	-0.13125	-26.3623217923
366	0.183	-9.02	-3.31081081081	1.315625	-26.3623217923
367	0.1835	12.28	-3.31081081081	-0.13125	-29.1753564155
368	0.184	12.28	-3.31081081081	4.209375	-26.3623217923
369	0.1845	10.86	-3.31081081081	2.7625	-20.7362525458
370	0.185	15.12	-3.31081081081	1.315625	0.36150712831
371	0.1855	23.64	-1.87027027027	2.7625	0.36150712831
372	0.186	29.32	-3.31081081081	-5.91875	-13.7036659878
373	0.1865	26.48	-1.87027027027	-8.8125	-13.7036659878
374	0.187	23.64	-0.42972972973	-7.365625	-17.9232179226
375	0.1875	27.9	-1.87027027027	-7.365625	-22.1427698574
376	0.188	23.64	-3.31081081081	-3.025	-20.7362525458
377	0.1885	22.22	-0.42972972973	-3.025	-20.7362525458
378	0.189	16.54	1.01081081081	-0.13125	-24.9558044807
379	0.1895	15.12	15.4162162162	2.7625	-23.549287169
380	0.19	10.86	11.0945945946	4.209375	-26.3623217923
381	0.1905	8.02	3.89189189189	1.315625	-27.7688391039
382	0.191	5.18	-6.19189189189	2.7625	-30.5818737271
383	0.1915	-7.6	-4.75135135135	4.209375	-29.1753564155
384	0.192	-9.02	-4.75135135135	4.209375	-31.9883910387
385	0.1925	-4.76	-4.75135135135	-0.13125	-33.3949083503
386	0.193	-3.34	-4.75135135135	-1.578125	-31.9883910387
387	0.1935	-1.92	-3.31081081081	-1.578125	-29.1753564155
388	0.194	-1.92	-4.75135135135	-0.13125	-29.1753564155
389	0.1945	-6.18	1.01081081081	-1.578125	-27.7688391039
390	0.195	-6.18	1.01081081081	4.209375	-26.3623217923
391	0.1955	-9.02	1.01081081081	15.784375	-24.9558044807
392	0.196	-16.12	-3.31081081081	20.125	-26.3623217923
393	0.1965	-20.38	-0.42972972973	18.678125	-23.549287169
394	0.197	-27.48	-1.87027027027	12.890625	-22.1427698574
395	0.1975	-33.16	-4.75135135135	1.315625	-23.549287169
396	0.198	-28.9	16.8567567568	4.209375	-23.549287169
397	0.1985	-26.06	13.9756756757	1.315625	-26.3623217923
398	0.199	-21.8	3.89189189189	4.209375	-29.1753564155
399	0.1995	-17.54	6.77297297297	-0.13125	-26.3623217923
400	0.2	-23.22	-1.87027027027	-0.13125	-29.1753564155
401	0.2005	-20.38	1.01081081081	2.7625	-30.5818737271
402	0.201	-13.28	-1.87027027027	2.7625	-29.1753564155
403	0.2015	-1.92	1.01081081081	8.55	-34.8014256619
404	0.202	16.54	-0.42972972973	1.315625	-31.9883910387
405	0.2025	26.48	-1.87027027027	-0.13125	-30.5818737271
406	0.203	27.9	-1.87027027027	-1.578125	-20.7362525458
407	0.2035	23.64	-3.31081081081	-13.153125	-27.7688391039
408	0.204	22.22	-1.87027027027	17.23125	-20.7362525458
409	0.2045	23.64	-0.42972972973	15.784375	-16.516700611
410	0.205	20.8	-0.42972972973	14.3375	-15.1101832994
411	0.2055	16.54	-3.31081081081	-1.578125	-16.516700611
412	0.206	10.86	1.01081081081	-0.13125	-17.9232179226
413	0.2065	9.44	-1.87027027027	-1.578125	-19.3297352342
414	0.207	8.02	3.89189189189	-0.13125	-19.3297352342
415	0.2075	5.18	2.45135135135	1.315625	-19.3297352342
416	0.208	-0.5	-1.87027027027	-1.578125	-23.549287169
417	0.2085	-0.5	-1.87027027027	-1.578125	-27.7688391039
418	0.209	-3.34	-3.31081081081	-1.578125	-27.7688391039
419	0.2095	-4.76	-1.87027027027	-1.578125	-30.5818737271
420	0.21	9.44	-1.87027027027	-3.025	-29.1753564155
421	0.2105	13.7	-3.31081081081	-0.13125	-24.9558044807
422	0.211	-6.18	-1.87027027027	-0.13125	-15.1101832994
423	0.2115	-11.86	-3.31081081081	1.315625	-22.1427698574
424	0.212	-10.44	-1.87027027027	1.315625	-34.8014256619
425	0.2125	-14.7	-4.75135135135	1.315625	-24.9558044807
426	0.213	-27.48	-0.42972972973	2.7625	-29.1753564155
427	0.2135	-31.74	-3.31081081081	18.678125	-22.1427698574
428	0.214	-34.58	-1.87027027027	-5.91875	-22.1427698574
429	0.2145	-36.0	-4.75135135135	-5.91875	-23.549287169
430	0.215	-30.32	-1.87027027027	-3.025	-24.9558044807
431	0.2155	-27.48	-0.42972972973	1.315625	-22.1427698574
432	0.216	-17.54	9.65405405405	-0.13125	-22.1427698574
433	0.2165	-16.12	15.4162162162	4.209375	-22.1427698574
434	0.217	-9.02	11.0945945946	-0.13125	-20.7362525458
435	0.2175	-10.44	-3.31081081081	4.209375	-23.549287169
436	0.218	-10.44	-3.31081081081	2.7625	-23.549287169
437	0.2185	-4.76	-4.75135135135	2.7625	-29.1753564155
438	0.219	33.58	-3.31081081081	4.209375	-33.3949083503
439	0.2195	19.38	-0.42972972973	4.209375	-36.2079429735
440	0.22	22.22	-4.75135135135	4.209375	-27.7688391039
441	0.2205	19.38	-0.42972972973	7.103125	-31.9883910387
442	0.221	23.64	-1.87027027027	4.209375	-29.1753564155
443	0.2215	20.8	-4.75135135135	1.315625	-22.1427698574
444	0.222	17.96	-1.87027027027	4.209375	-23.549287169
445	0.2225	13.7	-1.87027027027	15.784375	-22.1427698574
446	0.223	10.86	-3.31081081081	18.678125	-31.9883910387
447	0.2235	8.02	-1.87027027027	-1.578125	-24.9558044807
448	0.224	5.18	-6.19189189189	-1.578125	-24.9558044807
449	0.2245	2.34	-10.5135135135	-0.13125	-27.7688391039
450	0.225	-1.92	-9.07297297297	1.315625	-26.3623217923
451	0.2255	-0.5	-10.5135135135	-0.13125	-23.549287169
452	0.226	-0.5	-1.87027027027	1.315625	-24.9558044807
453	0.2265	-11.86	-1.87027027027	1.315625	-22.1427698574
454	0.227	-14.7	-1.87027027027	2.7625	-27.7688391039
455	0.2275	-14.7	-0.42972972973	2.7625	-27.7688391039
456	0.228	-14.7	-1.87027027027	1.315625	-22.1427698574
457	0.2285	-13.28	-4.75135135135	-1.578125	-10.8906313646
458	0.229	-11.86	-0.42972972973	-1.578125	-5.26456211813
459	0.2295	-21.8	-1.87027027027	1.315625	-6.67107942974
460	0.23	-28.9	-1.87027027027	8.55	-13.7036659878
461	0.2305	-33.16	-1.87027027027	17.23125	-16.516700611
462	0.231	-30.32	-0.42972972973	14.3375	-13.7036659878
463	0.2315	-31.74	-1.87027027027	4.209375	-20.7362525458
464	0.232	-26.06	-14.8351351351	-0.13125	-17.9232179226
465	0.2325	-18.96	-13.3945945946	-1.578125	-16.516700611
466	0.233	-11.86	-6.19189189189	2.7625	-16.516700611
467	0.2335	-9.02	-4.75135135135	-0.13125	-17.9232179226
468	0.234	-0.5	-1.87027027027	1.315625	-17.9232179226
469	0.2345	5.18	-1.87027027027	4.209375	-13.7036659878
470	0.235	9.44	-0.42972972973	4.209375	-12.2971486762
471	0.2355	23.64	-3.31081081081	1.315625	-13.7036659878
472	0.236	17.96	-1.87027027027	2.7625	-16.516700611
473	0.2365	23.64	-1.87027027027	2.7625	-17.9232179226
474	0.237	23.64	-1.87027027027	2.7625	-20.7362525458
475	0.2375	26.48	1.01081081081	5.65625	-34.8014256619
476	0.238	26.48	-1.87027027027	4.209375	-33.3949083503
477	0.2385	20.8	-3.31081081081	1.315625	-29.1753564155
478	0.239	15.12	-4.75135135135	2.7625	-26.3623217923
479	0.2395	12.28	-3.31081081081	-4.471875	-23.549287169
480	0.24	9.44	-7.63243243243	-7.365625	-22.1427698574
481	0.2405	10.86	-7.63243243243	1.315625	-20.7362525458
482	0.241	3.76	6.77297297297	2.7625	-15.1101832994
483	0.2415	8.02	13.9756756757	-0.13125	-16.516700611
484	0.242	2.34	16.8567567568	1.315625	-16.516700611
485	0.2425	0.92	9.65405405405	5.65625	-13.7036659878
486	0.243	0.92	-1.87027027027	1.315625	-12.2971486762
487	0.2435	-14.7	1.01081081081	1.315625	-12.2971486762
488	0.244	-11.86	1.01081081081	1.315625	-13.7036659878
489	0.2445	-14.7	-0.42972972973	-0.13125	-19.3297352342
490	0.245	-10.44	-1.87027027027	-0.13125	-23.549287169
491	0.2455	-11.86	-3.31081081081	-1.578125	-5.26456211813
492	0.246	-13.28	-1.87027027027	1.315625	-16.516700611
493	0.2465	-21.8	-1.87027027027	2.7625	-23.549287169
494	0.247	-27.48	-3.31081081081	-0.13125	-26.3623217923
495	0.2475	-31.74	-3.31081081081	-0.13125	-16.516700611
496	0.248	-30.32	-13.3945945946	1.315625	-16.516700611
497	0.2485	-28.9	-4.75135135135	5.65625	-13.7036659878
498	0.249	-17.54	9.65405405405	4.209375	-12.2971486762
499	0.2495	-17.54	-3.31081081081	4.209375	-13.7036659878
500	0.25	-10.44	-1.87027027027	4.209375	-13.7036659878
501	0.2505	-14.7	-3.31081081081	2.7625	-16.516700611
502	0.251	-13.28	-0.42972972973	1.315625	-16.516700611
503	0.2515	23.64	-0.42972972973	2.7625	-16.516700611
504	0.252	25.06	-0.42972972973	1.315625	-15.1101832994
505	0.2525	25.06	-0.42972972973	-0.13125	-1.0450101833
506	0.253	30.74	-0.42972972973	1.315625	-5.26456211813
507	0.2535	25.06	-0.42972972973	2.7625	-26.3623217923
508	0.254	23.64	-1.87027027027	17.23125	-15.1101832994
509	0.2545	29.32	-0.42972972973	15.784375	-15.1101832994
510	0.255	22.22	-3.31081081081	2.7625	-20.7362525458
511	0.2555	16.54	-14.8351351351	1.315625	-17.9232179226
512	0.256	12.28	-10.5135135135	-0.13125	-16.516700611
513	0.2565	13.7	-4.75135135135	1.315625	-16.516700611
514	0.257	10.86	9.65405405405	-0.13125	-16.516700611
515	0.2575	9.44	-11.9540540541	1.315625	-15.1101832994
516	0.258	0.92	-0.42972972973	1.315625	-16.516700611
517	0.2585	15.12	-1.87027027027	1.315625	-16.516700611
518	0.259	20.8	-3.31081081081	1.315625	-17.9232179226
519	0.2595	13.7	-4.75135135135	2.7625	-17.9232179226
520	0.26	-4.76	-1.87027027027	-0.13125	-5.26456211813
521	0.2605	-3.34	-1.87027027027	4.209375	-26.3623217923
522	0.261	-4.76	-3.31081081081	-4.471875	-20.7362525458
523	0.2615	-6.18	-3.31081081081	-11.70625	-13.7036659878
524	0.262	-10.44	-1.87027027027	-4.471875	0.36150712831
525	0.2625	-16.12	-0.42972972973	-4.471875	-8.07759674134
526	0.263	-24.64	1.01081081081	-3.025	-2.45152749491
527	0.2635	-27.48	-4.75135135135	-1.578125	-5.26456211813
528	0.264	-31.74	-3.31081081081	1.315625	-3.85804480652
529	0.2645	-33.16	8.21351351351	1.315625	-2.45152749491
530	0.265	-28.9	-3.31081081081	2.7625	-5.26456211813
531	0.2655	-26.06	-1.87027027027	1.315625	-3.85804480652
532	0.266	-27.48	-1.87027027027	-0.13125	-5.26456211813
533	0.2665	-1.92	1.01081081081	2.7625	-2.45152749491
534	0.267	10.86	-1.87027027027	1.315625	-5.26456211813
535	0.2675	-3.34	-1.87027027027	-0.13125	-2.45152749491
536	0.268	5.18	-3.31081081081	1.315625	17.2397148676
537	0.2685	12.28	-3.31081081081	1.315625	14.4266802444
538	0.269	22.22	-1.87027027027	5.65625	-10.8906313646
539	0.2695	29.32	-0.42972972973	20.125	-5.26456211813
540	0.27	26.48	-1.87027027027	17.23125	-9.48411405295
541	0.2705	27.9	-0.42972972973	12.890625	-12.2971486762
542	0.271	29.32	-4.75135135135	-1.578125	-12.2971486762
543	0.2715	29.32	-10.5135135135	1.315625	-15.1101832994
544	0.272	22.22	-3.31081081081	1.315625	-15.1101832994
545	0.2725	19.38	-0.42972972973	1.315625	-13.7036659878
546	0.273	15.12	-11.9540540541	1.315625	-16.516700611
547	0.2735	15.12	-6.19189189189	2.7625	-13.7036659878
548	0.274	16.54	-4.75135135135	2.7625	-12.2971486762
549	0.2745	2.34	-3.31081081081	1.315625	-12.2971486762
550	0.275	13.7	-3.31081081081	1.315625	-6.67107942974
551	0.2755	-4.76	-3.31081081081	4.209375	-12.2971486762
552	0.276	8.02	-1.87027027027	2.7625	-5.26456211813
553	0.2765	0.92	-0.42972972973	1.315625	4.58105906314
554	0.277	-0.5	-1.87027027027	1.315625	-5.26456211813
555	0.2775	-1.92	1.01081081081	17.23125	-1.0450101833
556	0.278	-6.18	-4.75135135135	5.65625	-1.0450101833
557	0.2785	-7.6	-7.63243243243	-3.025	-3.85804480652
558	0.279	-10.44	1.01081081081	-1.578125	-2.45152749491
559	0.2795	-16.12	-1.87027027027	-0.13125	-3.85804480652
560	0.28	-26.06	-7.63243243243	-0.13125	-6.67107942974
561	0.2805	-28.9	-13.3945945946	-0.13125	-6.67107942974
562	0.281	-27.48	-16.2756756757	1.315625	-8.07759674134
563	0.2815	-28.9	-4.75135135135	1.315625	-8.07759674134
564	0.282	-13.28	-1.87027027027	4.209375	-6.67107942974
565	0.2825	-1.92	-3.31081081081	1.315625	-6.67107942974
566	0.283	-1.92	-3.31081081081	2.7625	-6.67107942974
567	0.2835	-6.18	-1.87027027027	4.209375	3.17454175153
568	0.284	-4.76	-4.75135135135	1.315625	8.80061099796
569	0.2845	0.92	-1.87027027027	4.209375	10.2071283096
570	0.285	9.44	-3.31081081081	4.209375	1.76802443992
571	0.2855	19.38	-3.31081081081	5.65625	-10.8906313646
572	0.286	25.06	-1.87027027027	2.7625	-10.8906313646
573	0.2865	26.48	-4.75135135135	5.65625	-3.85804480652
574	0.287	23.64	-3.31081081081	-1.578125	-5.26456211813
575	0.2875	23.64	-7.63243243243	-7.365625	-1.0450101833
576	0.288	25.06	-4.75135135135	-5.91875	-2.45152749491
577	0.2885	22.22	-6.19189189189	4.209375	-5.26456211813
578	0.289	13.7	-11.9540540541	-0.13125	-2.45152749491
579	0.2895	12.28	6.77297297297	-1.578125	-2.45152749491
580	0.29	15.12	-0.42972972973	1.315625	-5.26456211813
581	0.2905	26.48	-3.31081081081	-0.13125	-6.67107942974
582	0.291	23.64	-4.75135135135	-0.13125	-10.8906313646
583	0.2915	10.86	-3.31081081081	-1.578125	-10.8906313646
584	0.292	0.92	-1.87027027027	2.7625	-16.516700611
585	0.2925	3.76	-3.31081081081	-0.13125	-16.516700611
586	0.293	-1.92	-1.87027027027	-5.91875	-8.07759674134
587	0.2935	-0.5	-3.31081081081	-11.70625	-2.45152749491
588	0.294	-3.34	-3.31081081081	-7.365625	-1.0450101833
589	0.2945	-6.18	-1.87027027027	-3.025	0.36150712831
590	0.295	-7.6	1.01081081081	-3.025	0.36150712831
591	0.2955	-11.86	-1.87027027027	1.315625	0.36150712831
592	0.296	-16.12	1.01081081081	-1.578125	1.76802443992
593	0.2965	-26.06	-7.63243243243	1.315625	3.17454175153
594	0.297	-33.16	-1.87027027027	-0.13125	5.98757637475
595	0.2975	-30.32	-0.42972972973	-1.578125	10.2071283096
596	0.298	-36.0	1.01081081081	1.315625	14.4266802444
597	0.2985	-14.7	-1.87027027027	-0.13125	17.2397148676
598	0.299	-31.74	-0.42972972973	-0.13125	7.39409368635
599	0.2995	-21.8	1.01081081081	1.315625	3.17454175153
600	0.3	-11.86	-0.42972972973	2.7625	0.36150712831
601	0.3005	-7.6	-1.87027027027	-5.91875	0.36150712831
602	0.301	2.34	-0.42972972973	-4.471875	-3.85804480652
603	0.3015	5.18	-1.87027027027	5.65625	-6.67107942974
604	0.302	17.96	-3.31081081081	15.784375	-10.8906313646
605	0.3025	23.64	3.89189189189	5.65625	-13.7036659878
606	0.303	29.32	-3.31081081081	4.209375	-10.8906313646
607	0.3035	23.64	-11.9540540541	2.7625	-10.8906313646
608	0.304	23.64	-7.63243243243	-1.578125	-13.7036659878
609	0.3045	25.06	-11.9540540541	1.315625	-10.8906313646
610	0.305	23.64	-9.07297297297	-1.578125	-10.8906313646
611	0.3055	22.22	-1.87027027027	1.315625	-10.8906313646
612	0.306	3.76	-3.31081081081	1.315625	-6.67107942974
613	0.3065	3.76	-1.87027027027	2.7625	-8.07759674134
614	0.307	-0.5	-3.31081081081	4.209375	-3.85804480652
615	0.3075	0.92	-0.42972972973	1.315625	0.36150712831
616	0.308	-0.5	-1.87027027027	1.315625	0.36150712831
617	0.3085	2.34	-1.87027027027	1.315625	14.4266802444
618	0.309	2.34	-0.42972972973	-4.471875	-2.45152749491
619	0.3095	0.92	1.01081081081	4.209375	-1.0450101833
620	0.31	-1.92	-0.42972972973	-4.471875	-3.85804480652
621	0.3105	-3.34	2.45135135135	-1.578125	-3.85804480652
622	0.311	-4.76	-4.75135135135	1.315625	-6.67107942974
623	0.3115	-6.18	6.77297297297	2.7625	-5.26456211813
624	0.312	-6.18	13.9756756757	1.315625	-5.26456211813
625	0.3125	-16.12	-4.75135135135	-0.13125	-5.26456211813
626	0.313	-28.9	-1.87027027027	-3.025	-6.67107942974
627	0.3135	-37.42	-4.75135135135	-1.578125	-8.07759674134
628	0.314	-43.1	-1.87027027027	-1.578125	-6.67107942974
629	0.3145	-37.42	-1.87027027027	-1.578125	-13.7036659878
630	0.315	-33.16	-1.87027027027	-1.578125	-10.8906313646
631	0.3155	-27.48	-1.87027027027	2.7625	-17.9232179226
632	0.316	-18.96	-0.42972972973	-0.13125	-1.0450101833
633	0.3165	-13.28	-1.87027027027	1.315625	-6.67107942974
634	0.317	-6.18	-0.42972972973	14.3375	-10.8906313646
635	0.3175	-1.92	-0.42972972973	21.571875	-12.2971486762
636	0.318	2.34	2.45135135135	-1.578125	-8.07759674134
637	0.3185	12.28	-1.87027027027	-1.578125	-8.07759674134
638	0.319	23.64	3.89189189189	4.209375	-5.26456211813
639	0.3195	29.32	13.9756756757	2.7625	-5.26456211813
640	0.32	27.9	16.8567567568	4.209375	-6.67107942974
641	0.3205	27.9	-10.5135135135	4.209375	-9.48411405295
642	0.321	30.74	-6.19189189189	1.315625	-8.07759674134
643	0.3215	40.68	-3.31081081081	2.7625	-8.07759674134
644	0.322	37.84	-1.87027027027	1.315625	-5.26456211813
645	0.3225	33.58	1.01081081081	2.7625	-2.45152749491
646	0.323	2.34	-0.42972972973	-1.578125	-6.67107942974
647	0.3235	-0.5	-1.87027027027	-0.13125	-3.85804480652
648	0.324	10.86	-0.42972972973	-0.13125	0.36150712831
649	0.3245	2.34	1.01081081081	-13.153125	-9.48411405295
650	0.325	2.34	-1.87027027027	-8.8125	-8.07759674134
651	0.3255	3.76	-1.87027027027	12.890625	-8.07759674134
652	0.326	-0.5	-1.87027027027	2.7625	-8.07759674134
653	0.3265	2.34	-3.31081081081	-1.578125	-6.67107942974
654	0.327	-1.92	-6.19189189189	2.7625	-6.67107942974
655	0.3275	-3.34	2.45135135135	-1.578125	-3.85804480652
656	0.328	-1.92	15.4162162162	-1.578125	-2.45152749491
657	0.3285	-6.18	-1.87027027027	-3.025	-2.45152749491
658	0.329	-14.7	-1.87027027027	-1.578125	-5.26456211813
659	0.3295	-27.48	-0.42972972973	-4.471875	-5.26456211813
660	0.33	-10.44	-3.31081081081	-0.13125	-6.67107942974
661	0.3305	-28.9	-1.87027027027	-1.578125	-9.48411405295
662	0.331	-33.16	-1.87027027027	4.209375	-9.48411405295
663	0.3315	-33.16	-0.42972972973	-0.13125	-9.48411405295
664	0.332	-27.48	-0.42972972973	2.7625	4.58105906314
665	0.3325	-20.38	-0.42972972973	-8.8125	-5.26456211813
666	0.333	-13.28	3.89189189189	-3.025	-3.85804480652
667	0.3335	-9.02	5.33243243243	1.315625	-6.67107942974
668	0.334	-6.18	-13.3945945946	1.315625	-5.26456211813
669	0.3345	2.34	-6.19189189189	4.209375	-2.45152749491
670	0.335	12.28	3.89189189189	1.315625	-1.0450101833
671	0.3355	23.64	-0.42972972973	4.209375	-3.85804480652
672	0.336	32.16	1.01081081081	-0.13125	-2.45152749491
673	0.3365	29.32	-1.87027027027	-1.578125	-5.26456211813
674	0.337	29.32	1.01081081081	-0.13125	-9.48411405295
675	0.3375	26.48	-0.42972972973	2.7625	-17.9232179226
676	0.338	27.9	-3.31081081081	-1.578125	-8.07759674134
677	0.3385	20.8	-0.42972972973	-0.13125	-1.0450101833
678	0.339	16.54	-1.87027027027	-3.025	-5.26456211813
679	0.3395	15.12	-0.42972972973	-3.025	7.39409368635
680	0.34	12.28	-1.87027027027	1.315625	-6.67107942974
681	0.3405	5.18	2.45135135135	1.315625	-12.2971486762
682	0.341	8.02	-0.42972972973	1.315625	-12.2971486762
683	0.3415	5.18	-4.75135135135	2.7625	-10.8906313646
684	0.342	2.34	-11.9540540541	-1.578125	-10.8906313646
685	0.3425	2.34	-11.9540540541	1.315625	-9.48411405295
686	0.343	0.92	-9.07297297297	2.7625	-8.07759674134
687	0.3435	2.34	1.01081081081	-0.13125	-5.26456211813
688	0.344	-11.86	-0.42972972973	-0.13125	-6.67107942974
689	0.3445	-6.18	-0.42972972973	-0.13125	-10.8906313646
690	0.345	-3.34	-0.42972972973	-0.13125	-20.7362525458
691	0.3455	-6.18	1.01081081081	1.315625	-17.9232179226
692	0.346	-13.28	-3.31081081081	-0.13125	0.36150712831
693	0.3465	-21.8	-1.87027027027	4.209375	-8.07759674134
694	0.347	-24.64	-0.42972972973	5.65625	-13.7036659878
695	0.3475	-28.9	-1.87027027027	7.103125	-3.85804480652
696	0.348	-28.9	-1.87027027027	-4.471875	-3.85804480652
697	0.3485	-27.48	-3.31081081081	-5.91875	-6.67107942974
698	0.349	-16.12	-0.42972972973	-0.13125	-9.48411405295
699	0.3495	-13.28	15.4162162162	1.315625	-10.8906313646
700	0.35	-4.76	8.21351351351	1.315625	-10.8906313646
701	0.3505	-3.34	-9.07297297297	-0.13125	-9.48411405295
702	0.351	-4.76	-0.42972972973	2.7625	-3.85804480652
703	0.3515	19.38	-1.87027027027	1.315625	-1.0450101833
704	0.352	30.74	-1.87027027027	-0.13125	-8.07759674134
705	0.3525	47.78	1.01081081081	1.315625	-3.85804480652
706	0.353	23.64	-1.87027027027	-1.578125	-5.26456211813
707	0.3535	23.64	-3.31081081081	1.315625	-6.67107942974
708	0.354	29.32	-1.87027027027	-8.8125	-9.48411405295
709	0.3545	32.16	-0.42972972973	-5.91875	-10.8906313646
710	0.355	29.32	-1.87027027027	4.209375	-12.2971486762
711	0.3555	22.22	-1.87027027027	12.890625	-16.516700611
712	0.356	17.96	-1.87027027027	-1.578125	-15.1101832994
713	0.3565	15.12	-10.5135135135	-0.13125	-13.7036659878
714	0.357	13.7	-14.8351351351	1.315625	-13.7036659878
715	0.3575	9.44	-9.07297297297	1.315625	-15.1101832994
716	0.358	12.28	-6.19189189189	2.7625	-15.1101832994
717	0.3585	9.44	-3.31081081081	2.7625	-15.1101832994
718	0.359	5.18	-0.42972972973	-0.13125	-12.2971486762
719	0.3595	19.38	-0.42972972973	1.315625	-10.8906313646
720	0.36	9.44	1.01081081081	2.7625	-9.48411405295
721	0.3605	-6.18	-0.42972972973	1.315625	-5.26456211813
722	0.361	-13.28	1.01081081081	1.315625	-3.85804480652
723	0.3615	-6.18	1.01081081081	2.7625	1.76802443992
724	0.362	-6.18	-1.87027027027	4.209375	-5.26456211813
725	0.3625	-10.44	-0.42972972973	-8.8125	0.36150712831
726	0.363	-18.96	-0.42972972973	-1.578125	-3.85804480652
727	0.3635	-26.06	-0.42972972973	12.890625	-2.45152749491
728	0.364	-27.48	1.01081081081	-1.578125	-2.45152749491
729	0.3645	-30.32	1.01081081081	-0.13125	-5.26456211813
730	0.365	-28.9	-6.19189189189	-0.13125	-5.26456211813
731	0.3655	-24.64	-11.9540540541	-0.13125	-9.48411405295
732	0.366	-18.96	-9.07297297297	4.209375	-8.07759674134
733	0.3665	-11.86	-4.75135135135	-0.13125	-5.26456211813
734	0.367	-4.76	-4.75135135135	4.209375	-5.26456211813
735	0.3675	-14.7	-0.42972972973	1.315625	-6.67107942974
736	0.368	23.64	-3.31081081081	1.315625	-6.67107942974
737	0.3685	26.48	1.01081081081	4.209375	-6.67107942974
738	0.369	25.06	-0.42972972973	-0.13125	-10.8906313646
739	0.3695	30.74	1.01081081081	-0.13125	7.39409368635
740	0.37	27.9	1.01081081081	-1.578125	3.17454175153
741	0.3705	26.48	-1.87027027027	-0.13125	-12.2971486762
742	0.371	30.74	2.45135135135	12.890625	-10.8906313646
743	0.3715	29.32	1.01081081081	18.678125	-10.8906313646
744	0.372	23.64	1.01081081081	20.125	-10.8906313646
745	0.3725	16.54	-3.31081081081	-1.578125	-12.2971486762
746	0.373	15.12	-9.07297297297	1.315625	-13.7036659878
747	0.3735	12.28	18.2972972973	1.315625	-13.7036659878
748	0.374	10.86	6.77297297297	-0.13125	-16.516700611
749	0.3745	6.6	-3.31081081081	1.315625	-16.516700611
750	0.375	-10.44	-3.31081081081	1.315625	-15.1101832994
751	0.3755	-7.6	-1.87027027027	-0.13125	-15.1101832994
752	0.376	-0.5	-1.87027027027	-0.13125	-10.8906313646
753	0.3765	-3.34	-0.42972972973	1.315625	-16.516700611
754	0.377	-0.5	1.01081081081	2.7625	-6.67107942974
755	0.3775	-4.76	-0.42972972973	2.7625	-16.516700611
756	0.378	-3.34	-0.42972972973	-0.13125	-15.1101832994
757	0.3785	-7.6	-1.87027027027	-3.025	-6.67107942974
758	0.379	-10.44	-3.31081081081	-10.259375	-10.8906313646
759	0.3795	-14.7	-4.75135135135	-8.8125	-9.48411405295
760	0.38	-26.06	1.01081081081	-4.471875	-5.26456211813
761	0.3805	-28.9	3.89189189189	-1.578125	-5.26456211813
762	0.381	-33.16	1.01081081081	-0.13125	-2.45152749491
763	0.3815	-28.9	16.8567567568	-0.13125	-2.45152749491
764	0.382	-23.22	6.77297297297	-1.578125	-3.85804480652
765	0.3825	-21.8	-6.19189189189	-0.13125	-3.85804480652
766	0.383	-21.8	-1.87027027027	1.315625	-5.26456211813
767	0.3835	-9.02	-1.87027027027	4.209375	-3.85804480652
768	0.384	13.7	-3.31081081081	-0.13125	-6.67107942974
769	0.3845	3.76	-1.87027027027	4.209375	-9.48411405295
770	0.385	12.28	-3.31081081081	-0.13125	-3.85804480652
771	0.3855	23.64	1.01081081081	-3.025	10.2071283096
772	0.386	32.16	1.01081081081	2.7625	7.39409368635
773	0.3865	30.74	-1.87027027027	7.103125	-5.26456211813
774	0.387	26.48	1.01081081081	-1.578125	-8.07759674134
775	0.3875	29.32	-1.87027027027	-7.365625	-8.07759674134
776	0.388	30.74	2.45135135135	-3.025	-6.67107942974
777	0.3885	25.06	5.33243243243	-0.13125	-9.48411405295
778	0.389	19.38	-1.87027027027	-1.578125	-9.48411405295
779	0.3895	16.54	-6.19189189189	-1.578125	-9.48411405295
780	0.39	15.12	-4.75135135135	-0.13125	-9.48411405295
781	0.3905	16.54	-1.87027027027	-0.13125	-10.8906313646
782	0.391	8.02	-0.42972972973	-0.13125	-10.8906313646
783	0.3915	3.76	-1.87027027027	-0.13125	-22.1427698574
784	0.392	-4.76	-0.42972972973	1.315625	-15.1101832994
785	0.3925	2.34	-1.87027027027	-0.13125	1.76802443992
786	0.393	0.92	-0.42972972973	-0.13125	-9.48411405295
787	0.3935	2.34	-1.87027027027	8.55	-9.48411405295
788	0.394	-0.5	-1.87027027027	20.125	-10.8906313646
789	0.3945	-4.76	-0.42972972973	11.44375	-17.9232179226
790	0.395	-6.18	-4.75135135135	-0.13125	-12.2971486762
791	0.3955	-10.44	-10.5135135135	2.7625	-16.516700611
792	0.396	-13.28	3.89189189189	2.7625	-13.7036659878
793	0.3965	-20.38	18.2972972973	-0.13125	-12.2971486762
794	0.397	-26.06	-9.07297297297	-0.13125	-10.8906313646
795	0.3975	-27.48	-4.75135135135	-0.13125	-9.48411405295
796	0.398	-11.86	-1.87027027027	-3.025	-9.48411405295
797	0.3985	-20.38	-1.87027027027	-0.13125	-9.48411405295
798	0.399	-27.48	-1.87027027027	-3.025	-6.67107942974
799	0.3995	-16.12	-0.42972972973	1.315625	-1.0450101833
800	0.4	-10.44	1.01081081081	4.209375	-19.3297352342
801	0.4005	-4.76	-1.87027027027	2.7625	-15.1101832994
802	0.401	-1.92	-1.87027027027	-4.471875	-2.45152749491
803	0.4015	3.76	-3.31081081081	-3.025	-3.85804480652
804	0.402	16.54	-0.42972972973	-4.471875	-5.26456211813
805	0.4025	23.64	1.01081081081	-0.13125	-5.26456211813
806	0.403	29.32	-11.9540540541	1.315625	-8.07759674134
807	0.4035	25.06	-4.75135135135	1.315625	-8.07759674134
808	0.404	20.8	9.65405405405	2.7625	-12.2971486762
809	0.4045	29.32	16.8567567568	-1.578125	-12.2971486762
810	0.405	23.64	-3.31081081081	-3.025	-13.7036659878
811	0.4055	16.54	-1.87027027027	-4.471875	-13.7036659878
812	0.406	9.44	-1.87027027027	-1.578125	-16.516700611
813	0.4065	5.18	2.45135135135	-3.025	-10.8906313646
814	0.407	10.86	-0.42972972973	-3.025	-3.85804480652
815	0.4075	10.86	-0.42972972973	-7.365625	-15.1101832994
816	0.408	3.76	-3.31081081081	4.209375	-13.7036659878
817	0.4085	5.18	-1.87027027027	-5.91875	-13.7036659878
818	0.409	0.92	-1.87027027027	-8.8125	-15.1101832994
819	0.4095	0.92	1.01081081081	-5.91875	-15.1101832994
820	0.41	-0.5	1.01081081081	-0.13125	-16.516700611
821	0.4105	-1.92	15.4162162162	-0.13125	-15.1101832994
822	0.411	-4.76	-3.31081081081	-0.13125	-12.2971486762
823	0.4115	-6.18	-1.87027027027	-1.578125	-9.48411405295
824	0.412	-9.02	-3.31081081081	-1.578125	-10.8906313646
825	0.4125	-21.8	-3.31081081081	-0.13125	-9.48411405295
826	0.413	-28.9	-1.87027027027	2.7625	-17.9232179226
827	0.4135	-36.0	-0.42972972973	1.315625	-6.67107942974
828	0.414	-34.58	-0.42972972973	-0.13125	4.58105906314
829	0.4145	-33.16	-0.42972972973	-0.13125	1.76802443992
830	0.415	-30.32	-0.42972972973	-3.025	-16.516700611
831	0.4155	-27.48	-0.42972972973	-5.91875	-10.8906313646
832	0.416	-20.38	-1.87027027027	-7.365625	-15.1101832994
833	0.4165	-14.7	2.45135135135	-3.025	-13.7036659878
834	0.417	-9.02	2.45135135135	1.315625	-17.9232179226
835	0.4175	-4.76	-7.63243243243	1.315625	-16.516700611
836	0.418	3.76	-1.87027027027	2.7625	-15.1101832994
837	0.4185	16.54	-1.87027027027	1.315625	-16.516700611
838	0.419	20.8	1.01081081081	2.7625	-15.1101832994
839	0.4195	23.64	-0.42972972973	-0.13125	-15.1101832994
840	0.42	16.54	-1.87027027027	2.7625	-12.2971486762
841	0.4205	13.7	-0.42972972973	1.315625	-12.2971486762
842	0.421	17.96	-1.87027027027	-0.13125	-10.8906313646
843	0.4215	22.22	-4.75135135135	1.315625	-12.2971486762
844	0.422	20.8	-4.75135135135	-11.70625	-13.7036659878
845	0.4225	16.54	-0.42972972973	-5.91875	-13.7036659878
846	0.423	12.28	-1.87027027027	-0.13125	-12.2971486762
847	0.4235	12.28	-1.87027027027	8.55	-10.8906313646
848	0.424	8.02	-3.31081081081	12.890625	-12.2971486762
849	0.4245	5.18	-1.87027027027	15.784375	-12.2971486762
850	0.425	2.34	-0.42972972973	11.44375	-13.7036659878
851	0.4255	2.34	-3.31081081081	-0.13125	-13.7036659878
852	0.426	3.76	-13.3945945946	1.315625	-12.2971486762
853	0.4265	-0.5	-11.9540540541	-0.13125	-12.2971486762
854	0.427	-1.92	-0.42972972973	-0.13125	-12.2971486762
855	0.4275	-16.12	-0.42972972973	-0.13125	-10.8906313646
856	0.428	12.28	-1.87027027027	-0.13125	-8.07759674134
857	0.4285	5.18	1.01081081081	-1.578125	-5.26456211813
858	0.429	-4.76	-1.87027027027	-0.13125	-3.85804480652
859	0.4295	-20.38	-0.42972972973	-1.578125	4.58105906314
860	0.43	-27.48	-0.42972972973	-1.578125	-6.67107942974
861	0.4305	-31.74	-0.42972972973	-3.025	-1.0450101833
862	0.431	-33.16	1.01081081081	11.44375	-12.2971486762
863	0.4315	-30.32	3.89189189189	-5.91875	-13.7036659878
864	0.432	-28.9	3.89189189189	-8.8125	-13.7036659878
865	0.4325	-21.8	1.01081081081	4.209375	-15.1101832994
866	0.433	-18.96	-6.19189189189	-1.578125	-12.2971486762
867	0.4335	-9.02	21.1783783784	-0.13125	-13.7036659878
868	0.434	-4.76	15.4162162162	-0.13125	-13.7036659878
869	0.4345	0.92	5.33243243243	-1.578125	-15.1101832994
870	0.435	3.76	-3.31081081081	1.315625	-16.516700611
871	0.4355	8.02	2.45135135135	-0.13125	-9.48411405295
872	0.436	20.8	1.01081081081	-1.578125	-12.2971486762
873	0.4365	35.0	1.01081081081	-1.578125	-6.67107942974
874	0.437	42.1	-1.87027027027	-1.578125	-8.07759674134
875	0.4375	27.9	-0.42972972973	1.315625	-12.2971486762
876	0.438	27.9	-0.42972972973	1.315625	-12.2971486762
877	0.4385	23.64	1.01081081081	4.209375	-16.516700611
878	0.439	16.54	-0.42972972973	-3.025	-20.7362525458
879	0.4395	16.54	-0.42972972973	-4.471875	-15.1101832994
880	0.44	12.28	-1.87027027027	-3.025	-15.1101832994
881	0.4405	12.28	-1.87027027027	-8.8125	-13.7036659878
882	0.441	8.02	-1.87027027027	-1.578125	-19.3297352342
883	0.4415	5.18	-4.75135135135	-3.025	-17.9232179226
884	0.442	8.02	-10.5135135135	-0.13125	-17.9232179226
885	0.4425	2.34	-10.5135135135	-1.578125	-16.516700611
886	0.443	5.18	-7.63243243243	1.315625	-16.516700611
887	0.4435	-7.6	-0.42972972973	2.7625	-15.1101832994
888	0.444	-14.7	1.01081081081	-0.13125	-13.7036659878
889	0.4445	13.7	1.01081081081	2.7625	-12.2971486762
890	0.445	5.18	-0.42972972973	1.315625	-10.8906313646
891	0.4455	-11.86	-0.42972972973	1.315625	-1.0450101833
892	0.446	-17.54	1.01081081081	-0.13125	8.80061099796
893	0.4465	-20.38	1.01081081081	-1.578125	-2.45152749491
894	0.447	-30.32	1.01081081081	-1.578125	-1.0450101833
895	0.4475	-31.74	1.01081081081	14.3375	-5.26456211813
896	0.448	-30.32	1.01081081081	18.678125	-2.45152749491
897	0.4485	-31.74	3.89189189189	20.125	-5.26456211813
898	0.449	-26.06	2.45135135135	1.315625	-1.0450101833
899	0.4495	-17.54	-3.31081081081	2.7625	-2.45152749491
900	0.45	-10.44	-10.5135135135	1.315625	-3.85804480652
901	0.4505	-4.76	-9.07297297297	-0.13125	-6.67107942974
902	0.451	0.92	-1.87027027027	2.7625	-5.26456211813
903	0.4515	12.28	-4.75135135135	2.7625	-5.26456211813
904	0.452	22.22	-1.87027027027	1.315625	-5.26456211813
905	0.4525	16.54	-0.42972972973	2.7625	-8.07759674134
906	0.453	49.2	1.01081081081	2.7625	-12.2971486762
907	0.4535	43.52	1.01081081081	-0.13125	-8.07759674134
908	0.454	30.74	1.01081081081	-0.13125	-9.48411405295
909	0.4545	32.16	1.01081081081	-0.13125	3.17454175153
910	0.455	25.06	1.01081081081	-1.578125	1.76802443992
911	0.4555	23.64	-0.42972972973	4.209375	-10.8906313646
912	0.456	17.96	1.01081081081	4.209375	-27.7688391039
913	0.4565	15.12	-0.42972972973	14.3375	-10.8906313646
914	0.457	10.86	-0.42972972973	2.7625	-9.48411405295
915	0.4575	8.02	-1.87027027027	-4.471875	-9.48411405295
916	0.458	3.76	-0.42972972973	-5.91875	-10.8906313646
917	0.4585	3.76	2.45135135135	1.315625	-13.7036659878
918	0.459	2.34	16.8567567568	-0.13125	-15.1101832994
919	0.4595	0.92	16.8567567568	1.315625	-16.516700611
920	0.46	-0.5	-1.87027027027	-0.13125	-15.1101832994
921	0.4605	-14.7	-0.42972972973	-3.025	-16.516700611
922	0.461	-14.7	1.01081081081	-3.025	-19.3297352342
923	0.4615	8.02	-0.42972972973	-1.578125	-26.3623217923
924	0.462	-13.28	-0.42972972973	-1.578125	-27.7688391039
925	0.4625	-13.28	-3.31081081081	-1.578125	-8.07759674134
926	0.463	-21.8	-0.42972972973	-0.13125	-10.8906313646
927	0.4635	-26.06	1.01081081081	-0.13125	-12.2971486762
928	0.464	-28.9	2.45135135135	-0.13125	-16.516700611
929	0.4645	-30.32	2.45135135135	11.44375	-17.9232179226
930	0.465	-31.74	2.45135135135	-3.025	-16.516700611
931	0.4655	-26.06	-0.42972972973	-4.471875	-12.2971486762
932	0.466	-18.96	-1.87027027027	-5.91875	-12.2971486762
933	0.4665	-14.7	5.33243243243	-1.578125	-8.07759674134
934	0.467	-6.18	16.8567567568	-0.13125	-6.67107942974
935	0.4675	-4.76	18.2972972973	1.315625	-1.0450101833
936	0.468	3.76	-7.63243243243	1.315625	0.36150712831
937	0.4685	9.44	-3.31081081081	-0.13125	1.76802443992
938	0.469	36.42	1.01081081081	-0.13125	-3.85804480652
939	0.4695	43.52	2.45135135135	-1.578125	-1.0450101833
940	0.47	35.0	1.01081081081	2.7625	-10.8906313646
941	0.4705	23.64	-1.87027027027	2.7625	-8.07759674134
942	0.471	25.06	1.01081081081	4.209375	-15.1101832994
943	0.4715	23.64	-0.42972972973	-1.578125	-16.516700611
944	0.472	22.22	-1.87027027027	2.7625	-6.67107942974
945	0.4725	16.54	1.01081081081	1.315625	-3.85804480652
946	0.473	13.7	2.45135135135	-1.578125	-5.26456211813
947	0.4735	10.86	1.01081081081	-0.13125	-12.2971486762
948	0.474	9.44	-0.42972972973	-0.13125	-10.8906313646
949	0.4745	9.44	-1.87027027027	1.315625	-12.2971486762
950	0.475	2.34	-7.63243243243	-3.025	-13.7036659878
951	0.4755	2.34	-6.19189189189	-3.025	-10.8906313646
952	0.476	-0.5	-9.07297297297	1.315625	-9.48411405295
953	0.4765	-9.02	-3.31081081081	1.315625	-9.48411405295
954	0.477	-14.7	-0.42972972973	-1.578125	-9.48411405295
955	0.4775	-11.86	-0.42972972973	1.315625	-10.8906313646
956	0.478	-7.6	-0.42972972973	-0.13125	-2.45152749491
957	0.4785	-9.02	-3.31081081081	-3.025	-13.7036659878
958	0.479	-9.02	-1.87027027027	-0.13125	-10.8906313646
959	0.4795	-18.96	-0.42972972973	-3.025	-8.07759674134
960	0.48	-26.06	-1.87027027027	-7.365625	-5.26456211813
961	0.4805	-30.32	-0.42972972973	-10.259375	-1.0450101833
962	0.481	-34.58	-4.75135135135	1.315625	-2.45152749491
963	0.4815	-33.16	-9.07297297297	2.7625	-6.67107942974
964	0.482	-28.9	-10.5135135135	2.7625	-3.85804480652
965	0.4825	-24.64	-6.19189189189	4.209375	-8.07759674134
966	0.483	-17.54	-3.31081081081	4.209375	-8.07759674134
967	0.4835	-10.44	-1.87027027027	4.209375	-9.48411405295
968	0.484	13.7	3.89189189189	1.315625	-13.7036659878
969	0.4845	15.12	3.89189189189	1.315625	-17.9232179226
970	0.485	9.44	1.01081081081	4.209375	-20.7362525458
971	0.4855	17.96	1.01081081081	2.7625	-26.3623217923
972	0.486	29.32	-3.31081081081	4.209375	-15.1101832994
973	0.4865	29.32	1.01081081081	-3.025	-19.3297352342
974	0.487	25.06	1.01081081081	-8.8125	-17.9232179226
975	0.4875	27.9	1.01081081081	-10.259375	-15.1101832994
976	0.488	27.9	-1.87027027027	-4.471875	-16.516700611
977	0.4885	26.48	2.45135135135	-4.471875	-15.1101832994
978	0.489	17.96	1.01081081081	-1.578125	-15.1101832994
979	0.4895	15.12	1.01081081081	-3.025	-9.48411405295
980	0.49	15.12	6.77297297297	-1.578125	-8.07759674134
981	0.4905	10.86	5.33243243243	-0.13125	-9.48411405295
982	0.491	10.86	-0.42972972973	-0.13125	-9.48411405295
983	0.4915	10.86	-7.63243243243	1.315625	-9.48411405295
984	0.492	8.02	-7.63243243243	1.315625	-10.8906313646
985	0.4925	16.54	1.01081081081	-1.578125	-16.516700611
986	0.493	-1.92	1.01081081081	1.315625	-16.516700611
987	0.4935	-3.34	-1.87027027027	-1.578125	0.36150712831
988	0.494	-4.76	1.01081081081	-3.025	0.36150712831
989	0.4945	-4.76	1.01081081081	1.315625	-6.67107942974
990	0.495	-7.6	2.45135135135	-7.365625	-17.9232179226
991	0.4955	-9.02	1.01081081081	-8.8125	-16.516700611
992	0.496	-14.7	-1.87027027027	-8.8125	-15.1101832994
993	0.4965	-21.8	-1.87027027027	-7.365625	-12.2971486762
994	0.497	-28.9	-0.42972972973	-1.578125	-13.7036659878
995	0.4975	-30.32	-7.63243243243	-3.025	-12.2971486762
996	0.498	-33.16	-1.87027027027	-1.578125	-12.2971486762
997	0.4985	-28.9	-3.31081081081	-0.13125	-13.7036659878
998	0.499	-23.22	13.9756756757	1.315625	-9.48411405295
999	0.4995	-11.86	-0.42972972973	1.315625	-9.48411405295
1000	0.5	3.76	1.01081081081	2.7625	-9.48411405295
1001	0.5005	15.12	-1.87027027027	1.315625	-9.48411405295
1002	0.501	17.96	-1.87027027027	2.7625	-3.85804480652
1003	0.5015	-0.5	1.01081081081	1.315625	-5.26456211813
1004	0.502	17.96	1.01081081081	-1.578125	5.98757637475
1005	0.5025	27.9	1.01081081081	5.65625	-17.9232179226
1006	0.503	36.42	-0.42972972973	2.7625	-13.7036659878
1007	0.5035	30.74	-3.31081081081	-4.471875	-16.516700611
1008	0.504	27.9	-0.42972972973	1.315625	-12.2971486762
1009	0.5045	32.16	-1.87027027027	-3.025	-12.2971486762
1010	0.505	27.9	-3.31081081081	-1.578125	-13.7036659878
1011	0.5055	25.06	3.89189189189	14.3375	-13.7036659878
1012	0.506	19.38	13.9756756757	-0.13125	-10.8906313646
1013	0.5065	16.54	11.0945945946	-0.13125	-10.8906313646
1014	0.507	13.7	8.21351351351	-1.578125	-15.1101832994
1015	0.5075	5.18	1.01081081081	-1.578125	-13.7036659878
1016	0.508	-4.76	-1.87027027027	-1.578125	-12.2971486762
1017	0.5085	-7.6	1.01081081081	-1.578125	-13.7036659878
1018	0.509	23.64	-3.31081081081	-1.578125	-13.7036659878
1019	0.5095	2.34	-0.42972972973	2.7625	-17.9232179226
1020	0.51	2.34	-0.42972972973	-0.13125	-10.8906313646
1021	0.5105	-3.34	-3.31081081081	-0.13125	-2.45152749491
1022	0.511	-3.34	-4.75135135135	2.7625	-15.1101832994
1023	0.5115	-4.76	1.01081081081	14.3375	-8.07759674134
1024	0.512	-6.18	-0.42972972973	17.23125	-6.67107942974
1025	0.5125	-10.44	-0.42972972973	9.996875	-13.7036659878
1026	0.513	-18.96	-7.63243243243	-1.578125	-2.45152749491
1027	0.5135	-26.06	-11.9540540541	-0.13125	-6.67107942974
1028	0.514	-28.9	-11.9540540541	-1.578125	-5.26456211813
1029	0.5145	-30.32	-10.5135135135	-1.578125	-5.26456211813
1030	0.515	-31.74	-7.63243243243	-0.13125	-5.26456211813
1031	0.5155	-24.64	-6.19189189189	-0.13125	-5.26456211813
1032	0.516	-9.02	-0.42972972973	-1.578125	-9.48411405295
1033	0.5165	-3.34	-1.87027027027	-0.13125	-9.48411405295
1034	0.517	5.18	-0.42972972973	-1.578125	-10.8906313646
1035	0.5175	-1.92	-0.42972972973	-0.13125	-15.1101832994
1036	0.518	5.18	-3.31081081081	2.7625	-17.9232179226
1037	0.5185	15.12	-1.87027027027	2.7625	-15.1101832994
1038	0.519	23.64	-0.42972972973	-1.578125	-16.516700611
1039	0.5195	29.32	-1.87027027027	-3.025	-19.3297352342
1040	0.52	29.32	-3.31081081081	14.3375	-16.516700611
1041	0.5205	26.48	2.45135135135	-0.13125	-16.516700611
1042	0.521	27.9	6.77297297297	-0.13125	-13.7036659878
1043	0.5215	27.9	-1.87027027027	1.315625	-15.1101832994
1044	0.522	23.64	5.33243243243	1.315625	-10.8906313646
1045	0.5225	17.96	15.4162162162	-1.578125	-13.7036659878
1046	0.523	16.54	19.7378378378	-3.025	-12.2971486762
1047	0.5235	10.86	-0.42972972973	-3.025	-13.7036659878
1048	0.524	3.76	1.01081081081	-4.471875	-5.26456211813
1049	0.5245	19.38	1.01081081081	-4.471875	-5.26456211813
1050	0.525	20.8	1.01081081081	-3.025	3.17454175153
1051	0.5255	19.38	-0.42972972973	-4.471875	3.17454175153
1052	0.526	0.92	-1.87027027027	-1.578125	8.80061099796
1053	0.5265	2.34	-1.87027027027	1.315625	0.36150712831
1054	0.527	2.34	-1.87027027027	-10.259375	0.36150712831
1055	0.5275	-1.92	-1.87027027027	-3.025	15.833197556
1056	0.528	-6.18	1.01081081081	-0.13125	10.2071283096
1057	0.5285	-9.02	1.01081081081	-3.025	0.36150712831
1058	0.529	-9.02	2.45135135135	-1.578125	1.76802443992
1059	0.5295	-16.12	1.01081081081	-1.578125	-1.0450101833
1060	0.53	-23.22	-6.19189189189	-1.578125	-1.0450101833
1061	0.5305	-26.06	-10.5135135135	1.315625	0.36150712831
1062	0.531	-33.16	-6.19189189189	-0.13125	0.36150712831
1063	0.5315	-31.74	-10.5135135135	-1.578125	1.76802443992
1064	0.532	-34.58	-1.87027027027	-0.13125	0.36150712831
1065	0.5325	-20.38	-1.87027027027	2.7625	0.36150712831
1066	0.533	-7.6	-1.87027027027	-0.13125	0.36150712831
1067	0.5335	3.76	-0.42972972973	1.315625	1.76802443992
1068	0.534	-4.76	-0.42972972973	-1.578125	14.4266802444
1069	0.5345	-1.92	1.01081081081	1.315625	13.0201629328
1070	0.535	8.02	-0.42972972973	4.209375	0.36150712831
1071	0.5355	17.96	1.01081081081	11.44375	1.76802443992
1072	0.536	23.64	2.45135135135	21.571875	0.36150712831
1073	0.5365	26.48	-0.42972972973	15.784375	-1.0450101833
1074	0.537	23.64	1.01081081081	-1.578125	0.36150712831
1075	0.5375	26.48	-11.9540540541	-0.13125	-2.45152749491
1076	0.538	26.48	15.4162162162	1.315625	0.36150712831
1077	0.5385	23.64	8.21351351351	-0.13125	-2.45152749491
1078	0.539	15.12	-0.42972972973	-0.13125	0.36150712831
1079	0.5395	9.44	-3.31081081081	-0.13125	1.76802443992
1080	0.54	15.12	-3.31081081081	-0.13125	-2.45152749491
1081	0.5405	23.64	-1.87027027027	-0.13125	0.36150712831
1082	0.541	23.64	-3.31081081081	-0.13125	-1.0450101833
1083	0.5415	16.54	-3.31081081081	-1.578125	1.76802443992
1084	0.542	-0.5	-3.31081081081	-1.578125	3.17454175153
1085	0.5425	-1.92	-1.87027027027	-1.578125	1.76802443992
1086	0.543	-1.92	-0.42972972973	-4.471875	14.4266802444
1087	0.5435	-1.92	-3.31081081081	-1.578125	0.36150712831
1088	0.544	-4.76	-4.75135135135	-3.025	14.4266802444
1089	0.5445	-9.02	-3.31081081081	-1.578125	7.39409368635
1090	0.545	-9.02	-0.42972972973	-3.025	-1.0450101833
1091	0.5455	-9.02	-3.31081081081	-3.025	-1.0450101833
1092	0.546	-17.54	-0.42972972973	-1.578125	0.36150712831
1093	0.5465	-23.22	-3.31081081081	-0.13125	0.36150712831
1094	0.547	-27.48	1.01081081081	-1.578125	0.36150712831
1095	0.5475	-33.16	-3.31081081081	-1.578125	1.76802443992
1096	0.548	-33.16	-9.07297297297	-1.578125	0.36150712831
1097	0.5485	-37.42	-3.31081081081	-0.13125	1.76802443992
1098	0.549	-26.06	-3.31081081081	2.7625	1.76802443992
1099	0.5495	-13.28	1.01081081081	4.209375	0.36150712831
1100	0.55	0.92	-4.75135135135	1.315625	4.58105906314
1101	0.5505	-10.44	-1.87027027027	1.315625	17.2397148676
1102	0.551	-1.92	-3.31081081081	2.7625	3.17454175153
1103	0.5515	3.76	1.01081081081	4.209375	3.17454175153
1104	0.552	15.12	-3.31081081081	5.65625	7.39409368635
1105	0.5525	23.64	-0.42972972973	14.3375	-3.85804480652
1106	0.553	26.48	1.01081081081	18.678125	-3.85804480652
1107	0.5535	23.64	-0.42972972973	17.23125	-5.26456211813
1108	0.554	23.64	1.01081081081	11.44375	-3.85804480652
1109	0.5545	27.9	-10.5135135135	-1.578125	-6.67107942974
1110	0.555	23.64	-13.3945945946	-0.13125	-6.67107942974
1111	0.5555	16.54	-17.7162162162	-3.025	-9.48411405295
1112	0.556	12.28	15.4162162162	-1.578125	-6.67107942974
1113	0.5565	10.86	-4.75135135135	-0.13125	-8.07759674134
1114	0.557	-3.34	-3.31081081081	-1.578125	-8.07759674134
1115	0.5575	-4.76	-4.75135135135	-1.578125	-8.07759674134
1116	0.558	-0.5	-1.87027027027	1.315625	-6.67107942974
1117	0.5585	-3.34	-3.31081081081	1.315625	-12.2971486762
1118	0.559	-3.34	-1.87027027027	1.315625	-5.26456211813
1119	0.5595	-1.92	-1.87027027027	-1.578125	-15.1101832994
1120	0.56	-3.34	-3.31081081081	-0.13125	-5.26456211813
1121	0.5605	-4.76	-1.87027027027	-8.8125	-3.85804480652
1122	0.561	-6.18	-3.31081081081	-8.8125	8.80061099796
1123	0.5615	-10.44	-1.87027027027	-10.259375	-2.45152749491
1124	0.562	-9.02	-6.19189189189	-8.8125	0.36150712831
1125	0.5625	-13.28	-3.31081081081	-5.91875	-1.0450101833
1126	0.563	-20.38	-1.87027027027	-5.91875	1.76802443992
1127	0.5635	-24.64	9.65405405405	-0.13125	0.36150712831
1128	0.564	-28.9	13.9756756757	2.7625	0.36150712831
1129	0.5645	-27.48	9.65405405405	1.315625	-2.45152749491
1130	0.565	-28.9	-9.07297297297	2.7625	-1.0450101833
1131	0.5655	-23.22	-10.5135135135	1.315625	-2.45152749491
1132	0.566	-6.18	-1.87027027027	1.315625	-6.67107942974
1133	0.5665	2.34	-1.87027027027	-1.578125	-8.07759674134
1134	0.567	13.7	-4.75135135135	2.7625	-9.48411405295
1135	0.5675	-1.92	-1.87027027027	4.209375	-15.1101832994
1136	0.568	5.18	1.01081081081	4.209375	-8.07759674134
1137	0.5685	12.28	-6.19189189189	2.7625	0.36150712831
1138	0.569	20.8	-3.31081081081	-8.8125	-8.07759674134
1139	0.5695	30.74	-6.19189189189	-8.8125	-6.67107942974
1140	0.57	29.32	-1.87027027027	-1.578125	5.98757637475
1141	0.5705	23.64	-1.87027027027	-3.025	-5.26456211813
1142	0.571	29.32	1.01081081081	-0.13125	-6.67107942974
1143	0.5715	27.9	-6.19189189189	1.315625	-10.8906313646
1144	0.572	22.22	-11.9540540541	1.315625	-8.07759674134
1145	0.5725	15.12	-9.07297297297	-0.13125	-5.26456211813
1146	0.573	6.6	-11.9540540541	1.315625	-8.07759674134
1147	0.5735	3.76	-10.5135135135	1.315625	-8.07759674134
1148	0.574	5.18	-1.87027027027	1.315625	-9.48411405295
1149	0.5745	-4.76	-4.75135135135	2.7625	-10.8906313646
1150	0.575	-7.6	-1.87027027027	2.7625	-6.67107942974
1151	0.5755	-9.02	-4.75135135135	2.7625	-12.2971486762
1152	0.576	-4.76	-4.75135135135	4.209375	-22.1427698574
1153	0.5765	-3.34	-4.75135135135	4.209375	-17.9232179226
1154	0.577	-3.34	-3.31081081081	1.315625	-23.549287169
1155	0.5775	-6.18	-4.75135135135	-3.025	-20.7362525458
1156	0.578	-9.02	-3.31081081081	-7.365625	-16.516700611
1157	0.5785	-9.02	-7.63243243243	-7.365625	-16.516700611
1158	0.579	-14.7	-6.19189189189	-1.578125	-15.1101832994
1159	0.5795	-18.96	-10.5135135135	-1.578125	-10.8906313646
1160	0.58	-28.9	-14.8351351351	-0.13125	-10.8906313646
1161	0.5805	-34.58	-14.8351351351	1.315625	-6.67107942974
1162	0.581	-34.58	-10.5135135135	2.7625	-5.26456211813
1163	0.5815	-34.58	-10.5135135135	2.7625	-5.26456211813
1164	0.582	-27.48	-10.5135135135	1.315625	-5.26456211813
1165	0.5825	-18.96	-6.19189189189	-0.13125	-2.45152749491
1166	0.583	-30.32	-4.75135135135	2.7625	4.58105906314
1167	0.5835	-20.38	-3.31081081081	1.315625	0.36150712831
1168	0.584	-16.12	-3.31081081081	-0.13125	-1.0450101833
1169	0.5845	-10.44	-3.31081081081	1.315625	3.17454175153
1170	0.585	9.44	-3.31081081081	-1.578125	14.4266802444
1171	0.5855	17.96	-3.31081081081	-1.578125	8.80061099796
1172	0.586	26.48	-3.31081081081	1.315625	-6.67107942974
1173	0.5865	27.9	-6.19189189189	-0.13125	4.58105906314
1174	0.587	26.48	-4.75135135135	4.209375	1.76802443992
1175	0.5875	23.64	-3.31081081081	4.209375	-3.85804480652
1176	0.588	29.32	-4.75135135135	1.315625	-3.85804480652
1177	0.5885	22.22	-6.19189189189	1.315625	-5.26456211813
1178	0.589	16.54	-7.63243243243	-0.13125	-2.45152749491
1179	0.5895	15.12	-1.87027027027	-0.13125	-2.45152749491
1180	0.59	9.44	-6.19189189189	-0.13125	-6.67107942974
1181	0.5905	5.18	-11.9540540541	-0.13125	-6.67107942974
1182	0.591	5.18	-11.9540540541	2.7625	-6.67107942974
1183	0.5915	3.76	-4.75135135135	-0.13125	-6.67107942974
1184	0.592	9.44	-1.87027027027	-1.578125	-5.26456211813
1185	0.5925	16.54	-1.87027027027	1.315625	-5.26456211813
1186	0.593	-3.34	-1.87027027027	1.315625	-16.516700611
1187	0.5935	-0.5	-1.87027027027	1.315625	-1.0450101833
1188	0.594	-1.92	-1.87027027027	-1.578125	-1.0450101833
1189	0.5945	-6.18	-0.42972972973	-10.259375	-8.07759674134
1190	0.595	-7.6	-4.75135135135	-7.365625	-5.26456211813
1191	0.5955	-11.86	-3.31081081081	21.571875	-1.0450101833
1192	0.596	-13.28	-1.87027027027	14.3375	-1.0450101833
1193	0.5965	-23.22	-4.75135135135	2.7625	-1.0450101833
1194	0.597	-30.32	-4.75135135135	-3.025	-2.45152749491
1195	0.5975	-33.16	-14.8351351351	-1.578125	-3.85804480652
1196	0.598	-33.16	1.01081081081	-0.13125	-5.26456211813
1197	0.5985	-33.16	-1.87027027027	1.315625	-6.67107942974
1198	0.599	-26.06	-4.75135135135	1.315625	-6.67107942974
1199	0.5995	-16.12	-0.42972972973	1.315625	-6.67107942974
1200	0.6	-21.8	1.01081081081	-1.578125	-9.48411405295
1201	0.6005	-20.38	-1.87027027027	-0.13125	-12.2971486762
1202	0.601	-13.28	-1.87027027027	4.209375	-12.2971486762
1203	0.6015	23.64	-1.87027027027	5.65625	-12.2971486762
1204	0.602	17.96	-0.42972972973	2.7625	-2.45152749491
1205	0.6025	25.06	1.01081081081	2.7625	-8.07759674134
1206	0.603	30.74	-1.87027027027	1.315625	4.58105906314
1207	0.6035	23.64	-1.87027027027	4.209375	-13.7036659878
1208	0.604	23.64	-1.87027027027	7.103125	-10.8906313646
1209	0.6045	27.9	-0.42972972973	5.65625	-13.7036659878
1210	0.605	27.9	-1.87027027027	-0.13125	-8.07759674134
1211	0.6055	16.54	-3.31081081081	1.315625	-6.67107942974
1212	0.606	16.54	-1.87027027027	-0.13125	-6.67107942974
1213	0.6065	15.12	3.89189189189	-0.13125	-3.85804480652
1214	0.607	13.7	16.8567567568	-1.578125	-2.45152749491
1215	0.6075	10.86	15.4162162162	1.315625	1.76802443992
1216	0.608	0.92	-1.87027027027	1.315625	3.17454175153
1217	0.6085	-4.76	-3.31081081081	-0.13125	4.58105906314
1218	0.609	-11.86	-1.87027027027	1.315625	3.17454175153
1219	0.6095	-13.28	-1.87027027027	-0.13125	1.76802443992
1220	0.61	-9.02	-1.87027027027	-0.13125	0.36150712831
1221	0.6105	-1.92	-4.75135135135	1.315625	-6.67107942974
1222	0.611	-4.76	-4.75135135135	1.315625	-3.85804480652
1223	0.6115	-6.18	-3.31081081081	-1.578125	-2.45152749491
1224	0.612	-9.02	-1.87027027027	-1.578125	4.58105906314
1225	0.6125	-11.86	-3.31081081081	-1.578125	8.80061099796
1226	0.613	-20.38	-6.19189189189	-7.365625	-1.0450101833
1227	0.6135	-27.48	-6.19189189189	-5.91875	-3.85804480652
1228	0.614	-33.16	-1.87027027027	-3.025	-3.85804480652
1229	0.6145	-34.58	-0.42972972973	-1.578125	-1.0450101833
1230	0.615	-33.16	16.8567567568	-0.13125	-3.85804480652
1231	0.6155	-28.9	18.2972972973	-1.578125	-2.45152749491
1232	0.616	-20.38	11.0945945946	2.7625	-5.26456211813
1233	0.6165	-20.38	1.01081081081	4.209375	-3.85804480652
1234	0.617	-18.96	-4.75135135135	2.7625	-9.48411405295
1235	0.6175	-17.54	1.01081081081	2.7625	-12.2971486762
1236	0.618	20.8	-3.31081081081	4.209375	-12.2971486762
1237	0.6185	23.64	-3.31081081081	5.65625	-13.7036659878
1238	0.619	30.74	-0.42972972973	2.7625	-10.8906313646
1239	0.6195	27.9	-0.42972972973	5.65625	-10.8906313646
1240	0.62	27.9	-3.31081081081	2.7625	-16.516700611
1241	0.6205	23.64	-1.87027027027	-0.13125	-13.7036659878
1242	0.621	27.9	-3.31081081081	5.65625	-6.67107942974
1243	0.6215	27.9	-1.87027027027	-3.025	-6.67107942974
1244	0.622	26.48	-3.31081081081	-7.365625	-6.67107942974
1245	0.6225	17.96	1.01081081081	-3.025	-8.07759674134
1246	0.623	15.12	15.4162162162	-1.578125	-8.07759674134
1247	0.6235	16.54	6.77297297297	2.7625	-5.26456211813
1248	0.624	9.44	-1.87027027027	-0.13125	-3.85804480652
1249	0.6245	5.18	-10.5135135135	-0.13125	-6.67107942974
1250	0.625	3.76	-3.31081081081	-0.13125	-8.07759674134
1251	0.6255	15.12	-1.87027027027	4.209375	-6.67107942974
1252	0.626	23.64	-0.42972972973	-0.13125	-6.67107942974
1253	0.6265	16.54	-3.31081081081	2.7625	-6.67107942974
1254	0.627	0.92	-1.87027027027	2.7625	-6.67107942974
1255	0.6275	-3.34	-3.31081081081	4.209375	-13.7036659878
1256	0.628	-3.34	-4.75135135135	-1.578125	-12.2971486762
1257	0.6285	-7.6	-4.75135135135	-10.259375	1.76802443992
1258	0.629	-9.02	-4.75135135135	-10.259375	-8.07759674134
1259	0.6295	-14.7	-4.75135135135	4.209375	-6.67107942974
1260	0.63	-24.64	-4.75135135135	17.23125	-6.67107942974
1261	0.6305	-30.32	-6.19189189189	18.678125	-9.48411405295
1262	0.631	-28.9	-9.07297297297	1.315625	-2.45152749491
1263	0.6315	-33.16	-0.42972972973	-1.578125	-5.26456211813
1264	0.632	-31.74	-10.5135135135	-0.13125	-5.26456211813
1265	0.6325	-23.22	-11.9540540541	1.315625	-3.85804480652
1266	0.633	-11.86	-4.75135135135	-0.13125	-5.26456211813
1267	0.6335	8.02	-1.87027027027	-1.578125	-5.26456211813
1268	0.634	13.7	-3.31081081081	-3.025	-2.45152749491
1269	0.6345	-3.34	-0.42972972973	-3.025	7.39409368635
1270	0.635	9.44	-1.87027027027	-1.578125	13.0201629328
1271	0.6355	23.64	-1.87027027027	-3.025	0.36150712831
1272	0.636	27.9	-1.87027027027	2.7625	7.39409368635
1273	0.6365	33.58	-4.75135135135	14.3375	0.36150712831
1274	0.637	27.9	-1.87027027027	18.678125	3.17454175153
1275	0.6375	29.32	-1.87027027027	4.209375	-2.45152749491
1276	0.638	33.58	-6.19189189189	-3.025	0.36150712831
1277	0.6385	27.9	-14.8351351351	-0.13125	-1.0450101833
1278	0.639	22.22	2.45135135135	1.315625	1.76802443992
1279	0.6395	17.96	15.4162162162	-1.578125	3.17454175153
1280	0.64	17.96	11.0945945946	1.315625	0.36150712831
1281	0.6405	3.76	-3.31081081081	-0.13125	0.36150712831
1282	0.641	-0.5	-4.75135135135	1.315625	0.36150712831
1283	0.6415	-0.5	-3.31081081081	-0.13125	0.36150712831
1284	0.642	3.76	-3.31081081081	-1.578125	-3.85804480652
1285	0.6425	3.76	-3.31081081081	2.7625	-13.7036659878
1286	0.643	2.34	-3.31081081081	1.315625	-8.07759674134
1287	0.6435	0.92	-4.75135135135	2.7625	5.98757637475
1288	0.644	0.92	-0.42972972973	2.7625	-1.0450101833
1289	0.6445	-1.92	-1.87027027027	2.7625	-6.67107942974
1290	0.645	-1.92	-4.75135135135	11.44375	0.36150712831
1291	0.6455	-6.18	-1.87027027027	1.315625	0.36150712831
1292	0.646	-11.86	-4.75135135135	-8.8125	0.36150712831
1293	0.6465	-17.54	-1.87027027027	-5.91875	-1.0450101833
1294	0.647	-24.64	6.77297297297	-1.578125	-2.45152749491
1295	0.6475	-27.48	13.9756756757	-1.578125	-1.0450101833
1296	0.648	-28.9	13.9756756757	1.315625	-1.0450101833
1297	0.6485	-31.74	-4.75135135135	-0.13125	-2.45152749491
1298	0.649	-33.16	-3.31081081081	-0.13125	-1.0450101833
1299	0.6495	-28.9	-0.42972972973	1.315625	-5.26456211813
1300	0.65	-21.8	-1.87027027027	1.315625	-3.85804480652
1301	0.6505	2.34	-1.87027027027	1.315625	-1.0450101833
1302	0.651	-0.5	-1.87027027027	-1.578125	13.0201629328
1303	0.6515	8.02	-0.42972972973	4.209375	-10.8906313646
1304	0.652	19.38	1.01081081081	-1.578125	-8.07759674134
1305	0.6525	26.48	-3.31081081081	-4.471875	-5.26456211813
1306	0.653	33.58	-1.87027027027	-8.8125	-2.45152749491
1307	0.6535	29.32	-3.31081081081	-5.91875	0.36150712831
1308	0.654	27.9	-1.87027027027	2.7625	-1.0450101833
1309	0.6545	30.74	-11.9540540541	-0.13125	-1.0450101833
1310	0.655	30.74	-13.3945945946	-0.13125	0.36150712831
1311	0.6555	23.64	-10.5135135135	1.315625	-2.45152749491
1312	0.656	20.8	6.77297297297	-0.13125	0.36150712831
1313	0.6565	16.54	2.45135135135	-0.13125	0.36150712831
1314	0.657	-3.34	-4.75135135135	-1.578125	-1.0450101833
1315	0.6575	-4.76	-0.42972972973	-0.13125	0.36150712831
1316	0.658	26.48	-1.87027027027	-1.578125	0.36150712831
1317	0.6585	22.22	-0.42972972973	1.315625	-1.0450101833
1318	0.659	0.92	-1.87027027027	1.315625	-8.07759674134
1319	0.6595	2.34	-1.87027027027	-0.13125	-1.0450101833
1320	0.66	6.6	-1.87027027027	2.7625	-3.85804480652
1321	0.6605	2.34	-0.42972972973	1.315625	-10.8906313646
1322	0.661	0.92	-1.87027027027	1.315625	-8.07759674134
1323	0.6615	-3.34	-0.42972972973	18.678125	-2.45152749491
1324	0.662	-4.76	-0.42972972973	11.44375	-2.45152749491
1325	0.6625	-10.44	-3.31081081081	-1.578125	-2.45152749491
1326	0.663	-16.12	-13.3945945946	-1.578125	-1.0450101833
1327	0.6635	-23.22	-10.5135135135	-0.13125	-5.26456211813
1328	0.664	-27.48	11.0945945946	1.315625	-5.26456211813
1329	0.6645	-33.16	9.65405405405	-0.13125	-5.26456211813
1330	0.665	-36.0	-0.42972972973	-0.13125	-2.45152749491
1331	0.6655	-34.58	-4.75135135135	-0.13125	-2.45152749491
1332	0.666	-27.48	-0.42972972973	1.315625	-1.0450101833
1333	0.6665	-1.92	-1.87027027027	1.315625	-2.45152749491
1334	0.667	-9.02	-1.87027027027	4.209375	-9.48411405295
1335	0.6675	-0.5	-3.31081081081	4.209375	-2.45152749491
1336	0.668	6.6	-3.31081081081	2.7625	-2.45152749491
1337	0.6685	17.96	-1.87027027027	2.7625	1.76802443992
1338	0.669	26.48	-0.42972972973	14.3375	-1.0450101833
1339	0.6695	33.58	-1.87027027027	5.65625	-9.48411405295
1340	0.67	33.58	1.01081081081	15.784375	-5.26456211813
1341	0.6705	30.74	-3.31081081081	12.890625	-2.45152749491
1342	0.671	33.58	-3.31081081081	-0.13125	-2.45152749491
1343	0.6715	33.58	-14.8351351351	1.315625	-2.45152749491
1344	0.672	27.9	16.8567567568	-0.13125	-5.26456211813
1345	0.6725	20.8	8.21351351351	2.7625	-6.67107942974
1346	0.673	17.96	-0.42972972973	1.315625	-6.67107942974
1347	0.6735	15.12	-1.87027027027	-1.578125	-6.67107942974
1348	0.674	17.96	-4.75135135135	-1.578125	-6.67107942974
1349	0.6745	22.22	-4.75135135135	-1.578125	-2.45152749491
1350	0.675	9.44	-3.31081081081	-1.578125	0.36150712831
1351	0.6755	-0.5	-1.87027027027	1.315625	0.36150712831
1352	0.676	-3.34	-4.75135135135	-0.13125	-5.26456211813
1353	0.6765	0.92	-1.87027027027	1.315625	-3.85804480652
1354	0.677	-0.5	-3.31081081081	4.209375	-6.67107942974
1355	0.6775	0.92	-0.42972972973	1.315625	-5.26456211813
1356	0.678	-1.92	-0.42972972973	-5.91875	5.98757637475
1357	0.6785	-3.34	-1.87027027027	-5.91875	5.98757637475
1358	0.679	-6.18	-0.42972972973	-0.13125	13.0201629328
1359	0.6795	-11.86	-4.75135135135	-1.578125	8.80061099796
1360	0.68	-18.96	-10.5135135135	-1.578125	10.2071283096
1361	0.6805	-26.06	-11.9540540541	-1.578125	10.2071283096
1362	0.681	-28.9	-6.19189189189	1.315625	10.2071283096
1363	0.6815	-26.06	-3.31081081081	-0.13125	7.39409368635
1364	0.682	-21.8	-1.87027027027	4.209375	7.39409368635
1365	0.6825	-20.38	-10.5135135135	1.315625	5.98757637475
1366	0.683	-20.38	-4.75135135135	1.315625	5.98757637475
1367	0.6835	-10.44	-0.42972972973	2.7625	-6.67107942974
1368	0.684	-0.5	1.01081081081	2.7625	-3.85804480652
1369	0.6845	5.18	-3.31081081081	2.7625	4.58105906314
1370	0.685	16.54	-0.42972972973	-5.91875	1.76802443992
1371	0.6855	23.64	-1.87027027027	-5.91875	3.17454175153
1372	0.686	35.0	1.01081081081	-0.13125	3.17454175153
1373	0.6865	37.84	-0.42972972973	7.103125	4.58105906314
1374	0.687	32.16	1.01081081081	-1.578125	4.58105906314
1375	0.6875	30.74	-3.31081081081	1.315625	1.76802443992
1376	0.688	33.58	-6.19189189189	2.7625	4.58105906314
1377	0.6885	30.74	-10.5135135135	-0.13125	4.58105906314
1378	0.689	25.06	-10.5135135135	-1.578125	0.36150712831
1379	0.6895	19.38	-10.5135135135	-3.025	-1.0450101833
1380	0.69	16.54	-10.5135135135	-3.025	0.36150712831
1381	0.6905	16.54	-3.31081081081	-1.578125	-1.0450101833
1382	0.691	15.12	-3.31081081081	-1.578125	1.76802443992
1383	0.6915	0.92	-1.87027027027	-1.578125	0.36150712831
1384	0.692	-1.92	-3.31081081081	2.7625	1.76802443992
1385	0.6925	-3.34	-4.75135135135	1.315625	-1.0450101833
1386	0.693	3.76	-1.87027027027	-10.259375	0.36150712831
1387	0.6935	5.18	-3.31081081081	-10.259375	1.76802443992
1388	0.694	0.92	-3.31081081081	-8.8125	3.17454175153
1389	0.6945	2.34	-4.75135135135	-3.025	8.80061099796
1390	0.695	-0.5	-0.42972972973	-3.025	5.98757637475
1391	0.6955	-3.34	1.01081081081	-0.13125	7.39409368635
1392	0.696	-9.02	-11.9540540541	-1.578125	5.98757637475
1393	0.6965	-14.7	-1.87027027027	-3.025	5.98757637475
1394	0.697	-21.8	6.77297297297	-1.578125	15.833197556
1395	0.6975	-23.22	-10.5135135135	-0.13125	15.833197556
1396	0.698	-28.9	-6.19189189189	1.315625	17.2397148676
1397	0.6985	-30.32	-6.19189189189	1.315625	18.6462321792
1398	0.699	-31.74	-4.75135135135	1.315625	22.8657841141
1399	0.6995	-21.8	-0.42972972973	1.315625	17.2397148676
1400	0.7	-4.76	-0.42972972973	-1.578125	22.8657841141
1401	0.7005	-0.5	-0.42972972973	-3.025	35.5244399185
1402	0.701	5.18	-0.42972972973	-3.025	48.183095723
1403	0.7015	13.7	-1.87027027027	-11.70625	41.150509165
1404	0.702	20.8	-0.42972972973	-7.365625	34.1179226069
1405	0.7025	33.58	1.01081081081	-1.578125	56.6221995927
1406	0.703	36.42	1.01081081081	8.55	53.8091649695
1407	0.7035	33.58	2.45135135135	11.44375	59.4352342159
1408	0.704	30.74	2.45135135135	12.890625	65.0613034623
1409	0.7045	37.84	2.45135135135	-1.578125	67.8743380855
1410	0.705	32.16	-3.31081081081	-4.471875	70.6873727088
1411	0.7055	22.22	-6.19189189189	-4.471875	67.8743380855
1412	0.706	17.96	2.45135135135	-1.578125	70.6873727088
1413	0.7065	17.96	1.01081081081	-0.13125	72.0938900204
1414	0.707	26.48	1.01081081081	-1.578125	72.0938900204
1415	0.7075	17.96	-0.42972972973	-0.13125	69.2808553971
1416	0.708	8.02	-1.87027027027	-1.578125	67.8743380855
1417	0.7085	5.18	-1.87027027027	-0.13125	67.8743380855
1418	0.709	15.12	-0.42972972973	-0.13125	67.8743380855
1419	0.7095	13.7	-3.31081081081	4.209375	62.2482688391
1420	0.71	13.7	-1.87027027027	-11.70625	66.4678207739
1421	0.7105	8.02	-3.31081081081	-7.365625	63.6547861507
1422	0.711	10.86	-1.87027027027	-1.578125	62.2482688391
1423	0.7115	5.18	1.01081081081	7.103125	60.8417515275
1424	0.712	5.18	1.01081081081	-3.025	59.4352342159
1425	0.7125	0.92	-3.31081081081	-1.578125	58.0287169043
1426	0.713	-4.76	3.89189189189	-4.471875	58.0287169043
1427	0.7135	-13.28	-3.31081081081	-3.025	60.8417515275
1428	0.714	-16.12	-1.87027027027	-4.471875	60.8417515275
1429	0.7145	-24.64	-4.75135135135	-1.578125	58.0287169043
1430	0.715	0.92	-0.42972972973	-3.025	56.6221995927
1431	0.7155	-21.8	-0.42972972973	-1.578125	45.3700610998
1432	0.716	-11.86	-1.87027027027	-3.025	39.7439918534
1433	0.7165	-4.76	-1.87027027027	-3.025	31.3048879837
1434	0.717	5.18	-3.31081081081	-1.578125	14.4266802444
1435	0.7175	16.54	-1.87027027027	-0.13125	-13.7036659878
1436	0.718	22.22	-3.31081081081	15.784375	-40.4274949084
1437	0.7185	29.32	-3.31081081081	-1.578125	-62.9317718941
1438	0.719	36.42	-9.07297297297	-1.578125	-82.6230142566
1439	0.7195	43.52	-10.5135135135	-1.578125	-103.720773931
1440	0.72	42.1	-7.63243243243	7.103125	-127.631568228
1441	0.7205	40.68	-0.42972972973	7.103125	-148.729327902
1442	0.721	44.94	-19.1567567568	8.55	-169.827087576
1443	0.7215	44.94	-16.2756756757	12.890625	-192.331364562
1444	0.722	37.84	-17.7162162162	7.103125	-213.429124236
1445	0.7225	33.58	-14.8351351351	8.55	-234.52688391
1446	0.723	19.38	-13.3945945946	12.890625	-255.624643585
1447	0.7235	15.12	-11.9540540541	11.44375	-276.722403259
1448	0.724	44.94	-14.8351351351	12.890625	-295.00712831
1449	0.7245	23.64	-10.5135135135	12.890625	-321.73095723
1450	0.725	19.38	-11.9540540541	12.890625	-340.015682281
1451	0.7255	17.96	-13.3945945946	11.44375	-352.674338086
1452	0.726	17.96	-16.2756756757	2.7625	-370.959063136
1453	0.7265	15.12	-14.8351351351	25.9125	-387.837270876
1454	0.727	13.7	-13.3945945946	24.465625	-403.308961303
1455	0.7275	12.28	-14.8351351351	17.23125	-418.780651731
1456	0.728	9.44	-16.2756756757	5.65625	-435.65885947
1457	0.7285	2.34	-11.9540540541	7.103125	-445.504480652
1458	0.729	3.76	-13.3945945946	7.103125	-455.350101833
1459	0.7295	-6.18	-16.2756756757	7.103125	-465.195723014
1460	0.73	-11.86	-17.7162162162	7.103125	-466.602240326
1461	0.7305	-16.12	-17.7162162162	8.55	-466.602240326
1462	0.731	-16.12	-16.2756756757	5.65625	-463.789205703
1463	0.7315	-17.54	-10.5135135135	5.65625	-456.756619145
1464	0.732	-9.02	-10.5135135135	7.103125	-459.569653768
1465	0.7325	-16.12	-10.5135135135	8.55	-456.756619145
1466	0.733	-6.18	-11.9540540541	11.44375	-451.130549898
1467	0.7335	0.92	-11.9540540541	12.890625	-448.317515275
1468	0.734	3.76	-13.3945945946	15.784375	-456.756619145
1469	0.7345	9.44	-11.9540540541	7.103125	-452.53706721
1470	0.735	12.28	-13.3945945946	14.3375	-435.65885947
1471	0.7355	20.8	-13.3945945946	2.7625	-425.813238289
1472	0.736	29.32	-9.07297297297	1.315625	-404.715478615
1473	0.7365	30.74	-9.07297297297	1.315625	-390.650305499
1474	0.737	27.9	3.89189189189	8.55	-376.585132383
1475	0.7375	26.48	8.21351351351	11.44375	-361.113441955
1476	0.738	29.32	3.89189189189	8.55	-347.048268839
1477	0.7385	22.22	-13.3945945946	7.103125	-330.1700611
1478	0.739	0.92	-7.63243243243	11.44375	-317.511405295
1479	0.7395	25.06	-7.63243243243	11.44375	-303.446232179
1480	0.74	22.22	-4.75135135135	7.103125	-283.754989817
1481	0.7405	13.7	-4.75135135135	11.44375	-258.437678208
1482	0.741	-1.92	-6.19189189189	7.103125	-221.868228106
1483	0.7415	-4.76	-4.75135135135	5.65625	-212.022606925
1484	0.742	-9.02	-4.75135135135	8.55	-195.144399185
1485	0.7425	-10.44	-4.75135135135	24.465625	-185.298778004
1486	0.743	-16.12	-0.42972972973	25.9125	-179.672708758
1487	0.7435	-20.38	-1.87027027027	21.571875	-164.20101833
1488	0.744	-17.54	-4.75135135135	12.890625	-159.981466395
1489	0.7445	-21.8	-11.9540540541	7.103125	-141.696741344
1490	0.745	-23.22	-14.8351351351	11.44375	-129.03808554
1491	0.7455	-28.9	-10.5135135135	11.44375	-116.379429735
1492	0.746	-33.16	9.65405405405	8.55	-102.314256619
1493	0.7465	-41.68	-1.87027027027	11.44375	-95.2816700611
1494	0.747	-60.14	-0.42972972973	7.103125	-88.2490835031
1495	0.7475	-65.82	-3.31081081081	8.55	-82.6230142566
1496	0.748	-61.56	-0.42972972973	7.103125	-78.4034623218
1497	0.7485	-57.3	1.01081081081	7.103125	-81.216496945
1498	0.749	-50.2	1.01081081081	4.209375	-61.5252545825
1499	0.7495	-44.52	-1.87027027027	2.7625	-53.0861507128
1500	0.75	-38.84	-0.42972972973	2.7625	-44.6470468432
1501	0.7505	-28.9	2.45135135135	7.103125	-60.1187372709
1502	0.751	-23.22	1.01081081081	4.209375	-57.3057026477
1503	0.7515	-14.7	-0.42972972973	2.7625	-51.6796334012
1504	0.752	-6.18	1.01081081081	-0.13125	-46.0535641548
1505	0.7525	3.76	-0.42972972973	4.209375	-40.4274949084
1506	0.753	10.86	-3.31081081081	-1.578125	-34.8014256619
1507	0.7535	8.02	-11.9540540541	-0.13125	-33.3949083503
1508	0.754	8.02	-10.5135135135	2.7625	-27.7688391039
1509	0.7545	13.7	-1.87027027027	-0.13125	-24.9558044807
1510	0.755	13.7	-0.42972972973	-1.578125	-22.1427698574
1511	0.7555	13.7	-7.63243243243	-1.578125	-17.9232179226
1512	0.756	8.02	-13.3945945946	1.315625	-12.2971486762
1513	0.7565	-0.5	-7.63243243243	-0.13125	-6.67107942974
1514	0.757	0.92	-1.87027027027	1.315625	-10.8906313646
1515	0.7575	-0.5	-0.42972972973	2.7625	-6.67107942974
1516	0.758	-4.76	-0.42972972973	-0.13125	3.17454175153
1517	0.7585	-0.5	-1.87027027027	-0.13125	5.98757637475
1518	0.759	-1.92	-0.42972972973	-13.153125	4.58105906314
1519	0.7595	-4.76	1.01081081081	15.784375	10.2071283096
1520	0.76	-6.18	-0.42972972973	5.65625	5.98757637475
1521	0.7605	-9.02	2.45135135135	17.23125	17.2397148676
1522	0.761	-9.02	2.45135135135	-7.365625	18.6462321792
1523	0.7615	-10.44	-1.87027027027	-4.471875	18.6462321792
1524	0.762	-14.7	1.01081081081	1.315625	21.4592668024
1525	0.7625	-17.54	5.33243243243	-1.578125	25.6788187373
1526	0.763	-23.22	3.89189189189	-1.578125	29.8983706721
1527	0.7635	-30.32	8.21351351351	-4.471875	32.7114052953
1528	0.764	-28.9	-3.31081081081	-4.471875	39.7439918534
1529	0.7645	-28.9	-0.42972972973	-1.578125	38.3374745418
1530	0.765	-47.36	1.01081081081	-1.578125	38.3374745418
1531	0.7655	-16.12	2.45135135135	-4.471875	41.150509165
1532	0.766	-14.7	2.45135135135	-0.13125	41.150509165
1533	0.7665	-11.86	2.45135135135	-1.578125	45.3700610998
1534	0.767	-11.86	1.01081081081	2.7625	41.150509165
1535	0.7675	-6.18	2.45135135135	1.315625	41.150509165
1536	0.768	0.92	2.45135135135	-11.70625	48.183095723
1537	0.7685	5.18	3.89189189189	-8.8125	53.8091649695
1538	0.769	17.96	2.45135135135	-7.365625	56.6221995927
1539	0.7695	25.06	2.45135135135	-10.259375	58.0287169043
1540	0.77	25.06	1.01081081081	-1.578125	60.8417515275
1541	0.7705	22.22	1.01081081081	8.55	59.4352342159
1542	0.771	26.48	-3.31081081081	-0.13125	60.8417515275
1543	0.7715	29.32	9.65405405405	-1.578125	62.2482688391
1544	0.772	20.8	8.21351351351	-4.471875	65.0613034623
1545	0.7725	16.54	9.65405405405	-3.025	65.0613034623
1546	0.773	16.54	8.21351351351	-3.025	66.4678207739
1547	0.7735	5.18	3.89189189189	-1.578125	62.2482688391
1548	0.774	2.34	1.01081081081	1.315625	63.6547861507
1549	0.7745	2.34	1.01081081081	-1.578125	55.2156822811
1550	0.775	5.18	3.89189189189	-0.13125	60.8417515275
1551	0.7755	5.18	1.01081081081	-3.025	81.9395112016
1552	0.776	0.92	3.89189189189	-3.025	65.0613034623
1553	0.7765	2.34	2.45135135135	-1.578125	73.500407332
1554	0.777	-0.5	5.33243243243	7.103125	67.8743380855
1555	0.7775	-0.5	3.89189189189	8.55	66.4678207739
1556	0.778	-1.92	6.77297297297	-8.8125	67.8743380855
1557	0.7785	-3.34	2.45135135135	-14.6	66.4678207739
1558	0.779	-7.6	-10.5135135135	-3.025	70.6873727088
1559	0.7795	-11.86	-6.19189189189	-3.025	72.0938900204
1560	0.78	-21.8	-3.31081081081	-1.578125	73.500407332
1561	0.7805	-26.06	-4.75135135135	-1.578125	72.0938900204
1562	0.781	-27.48	-3.31081081081	-0.13125	76.3134419552
1563	0.7815	-26.06	1.01081081081	-1.578125	77.7199592668
1564	0.782	-36.0	3.89189189189	-1.578125	74.9069246436
1565	0.7825	-27.48	2.45135135135	-1.578125	74.9069246436
1566	0.783	-16.12	2.45135135135	-0.13125	76.3134419552
1567	0.7835	-10.44	5.33243243243	-1.578125	76.3134419552
1568	0.784	-4.76	5.33243243243	-3.025	79.1264765784
1569	0.7845	3.76	2.45135135135	-0.13125	73.500407332
1570	0.785	12.28	3.89189189189	2.7625	72.0938900204
1571	0.7855	20.8	1.01081081081	7.103125	72.0938900204
1572	0.786	30.74	2.45135135135	14.3375	69.2808553971
1573	0.7865	33.58	3.89189189189	-7.365625	72.0938900204
1574	0.787	30.74	5.33243243243	-7.365625	69.2808553971
1575	0.7875	29.32	-7.63243243243	-0.13125	70.6873727088
1576	0.788	33.58	-3.31081081081	-4.471875	72.0938900204
1577	0.7885	30.74	-3.31081081081	-1.578125	73.500407332
1578	0.789	23.64	-4.75135135135	-1.578125	74.9069246436
1579	0.7895	17.96	-4.75135135135	-1.578125	73.500407332
1580	0.79	13.7	3.89189189189	-3.025	72.0938900204
1581	0.7905	23.64	3.89189189189	-3.025	69.2808553971
1582	0.791	23.64	1.01081081081	-3.025	67.8743380855
1583	0.7915	26.48	1.01081081081	-0.13125	70.6873727088
1584	0.792	-0.5	1.01081081081	-3.025	62.2482688391
1585	0.7925	9.44	2.45135135135	-0.13125	62.2482688391
1586	0.793	8.02	2.45135135135	-1.578125	65.0613034623
1587	0.7935	5.18	3.89189189189	-7.365625	65.0613034623
1588	0.794	2.34	2.45135135135	11.44375	70.6873727088
1589	0.7945	2.34	3.89189189189	17.23125	67.8743380855
1590	0.795	-0.5	1.01081081081	14.3375	67.8743380855
1591	0.7955	-3.34	2.45135135135	-10.259375	67.8743380855
1592	0.796	-4.76	-1.87027027027	-4.471875	67.8743380855
1593	0.7965	-13.28	2.45135135135	-4.471875	69.2808553971
1594	0.797	-18.96	13.9756756757	-1.578125	67.8743380855
1595	0.7975	-21.8	21.1783783784	-1.578125	67.8743380855
1596	0.798	-27.48	-0.42972972973	-0.13125	67.8743380855
1597	0.7985	-28.9	1.01081081081	-0.13125	66.4678207739
1598	0.799	-27.48	2.45135135135	-1.578125	62.2482688391
1599	0.7995	-26.06	3.89189189189	-1.578125	62.2482688391
1600	0.8	13.7	2.45135135135	-1.578125	62.2482688391
1601	0.8005	0.92	3.89189189189	1.315625	67.8743380855
1602	0.801	3.76	3.89189189189	4.209375	56.6221995927
1603	0.8015	9.44	1.01081081081	2.7625	55.2156822811
1604	0.802	20.8	1.01081081081	-1.578125	56.6221995927
1605	0.8025	29.32	1.01081081081	-10.259375	73.500407332
1606	0.803	35.0	-1.87027027027	-4.471875	63.6547861507
1607	0.8035	33.58	-0.42972972973	-4.471875	66.4678207739
1608	0.804	29.32	3.89189189189	-1.578125	62.2482688391
1609	0.8045	30.74	21.1783783784	-0.13125	66.4678207739
1610	0.805	30.74	11.0945945946	-1.578125	69.2808553971
1611	0.8055	23.64	-0.42972972973	1.315625	72.0938900204
1612	0.806	16.54	-9.07297297297	2.7625	73.500407332
1613	0.8065	10.86	-1.87027027027	-0.13125	73.500407332
1614	0.807	16.54	-0.42972972973	-0.13125	76.3134419552
1615	0.8075	22.22	1.01081081081	-1.578125	80.53299389
1616	0.808	5.18	-0.42972972973	-3.025	76.3134419552
1617	0.8085	-1.92	1.01081081081	-0.13125	66.4678207739
1618	0.809	-0.5	-0.42972972973	-1.578125	69.2808553971
1619	0.8095	5.18	-1.87027027027	-3.025	73.500407332
1620	0.81	5.18	-1.87027027027	-5.91875	70.6873727088
1621	0.8105	2.34	-1.87027027027	-8.8125	87.5655804481
1622	0.811	2.34	1.01081081081	-5.91875	72.0938900204
1623	0.8115	-0.5	1.01081081081	7.103125	70.6873727088
1624	0.812	-4.76	3.89189189189	-1.578125	73.500407332
1625	0.8125	-7.6	5.33243243243	-0.13125	70.6873727088
1626	0.813	-10.44	18.2972972973	-0.13125	72.0938900204
1627	0.8135	-18.96	16.8567567568	-0.13125	70.6873727088
1628	0.814	-24.64	1.01081081081	-0.13125	72.0938900204
1629	0.8145	-40.26	1.01081081081	-1.578125	70.6873727088
1630	0.815	-34.58	2.45135135135	1.315625	70.6873727088
1631	0.8155	-17.54	2.45135135135	2.7625	72.0938900204
1632	0.816	-18.96	-0.42972972973	1.315625	70.6873727088
1633	0.8165	-10.44	-0.42972972973	-1.578125	84.7525458248
1634	0.817	-4.76	1.01081081081	-1.578125	67.8743380855
1635	0.8175	5.18	1.01081081081	4.209375	66.4678207739
1636	0.818	9.44	1.01081081081	21.571875	65.0613034623
1637	0.8185	17.96	2.45135135135	-7.365625	63.6547861507
1638	0.819	29.32	3.89189189189	-4.471875	60.8417515275
1639	0.8195	33.58	3.89189189189	-3.025	60.8417515275
1640	0.82	33.58	5.33243243243	-0.13125	55.2156822811
1641	0.8205	30.74	-10.5135135135	-1.578125	53.8091649695
1642	0.821	33.58	-7.63243243243	1.315625	55.2156822811
1643	0.8215	36.42	-4.75135135135	-0.13125	55.2156822811
1644	0.822	33.58	-1.87027027027	1.315625	53.8091649695
1645	0.8225	30.74	-0.42972972973	-1.578125	52.4026476578
1646	0.823	22.22	-0.42972972973	-1.578125	53.8091649695
1647	0.8235	29.32	-0.42972972973	-1.578125	48.183095723
1648	0.824	12.28	1.01081081081	-1.578125	43.9635437882
1649	0.8245	10.86	-0.42972972973	-3.025	67.8743380855
1650	0.825	9.44	-0.42972972973	-1.578125	66.4678207739
1651	0.8255	9.44	-0.42972972973	-0.13125	52.4026476578
1652	0.826	5.18	-0.42972972973	-0.13125	45.3700610998
1653	0.8265	5.18	1.01081081081	17.23125	50.9961303462
1654	0.827	2.34	-0.42972972973	7.103125	49.5896130346
1655	0.8275	0.92	-0.42972972973	-4.471875	52.4026476578
1656	0.828	-0.5	-7.63243243243	-0.13125	50.9961303462
1657	0.8285	-1.92	-0.42972972973	1.315625	53.8091649695
1658	0.829	-4.76	1.01081081081	-1.578125	50.9961303462
1659	0.8295	-13.28	-9.07297297297	-0.13125	55.2156822811
1660	0.83	-21.8	-10.5135135135	-0.13125	55.2156822811
1661	0.8305	-28.9	-1.87027027027	-0.13125	52.4026476578
1662	0.831	-18.96	-0.42972972973	-0.13125	58.0287169043
1663	0.8315	-10.44	2.45135135135	-0.13125	56.6221995927
1664	0.832	-33.16	1.01081081081	2.7625	46.7765784114
1665	0.8325	-18.96	-1.87027027027	4.209375	43.9635437882
1666	0.833	-10.44	-1.87027027027	4.209375	48.183095723
1667	0.8335	-3.34	-1.87027027027	2.7625	55.2156822811
1668	0.834	-1.92	1.01081081081	12.890625	53.8091649695
1669	0.8345	8.02	1.01081081081	20.125	53.8091649695
1670	0.835	15.12	2.45135135135	-5.91875	50.9961303462
1671	0.8355	25.06	-7.63243243243	-3.025	53.8091649695
1672	0.836	33.58	-11.9540540541	1.315625	50.9961303462
1673	0.8365	33.58	-3.31081081081	-1.578125	50.9961303462
1674	0.837	32.16	-1.87027027027	1.315625	50.9961303462
1675	0.8375	35.0	-1.87027027027	-0.13125	46.7765784114
1676	0.838	33.58	-0.42972972973	-0.13125	45.3700610998
1677	0.8385	42.1	-1.87027027027	-0.13125	46.7765784114
1678	0.839	43.52	-1.87027027027	4.209375	43.9635437882
1679	0.8395	19.38	-3.31081081081	4.209375	46.7765784114
1680	0.84	15.12	-1.87027027027	2.7625	36.9309572301
1681	0.8405	12.28	-1.87027027027	-1.578125	34.1179226069
1682	0.841	8.02	-0.42972972973	5.65625	43.9635437882
1683	0.8415	5.18	-0.42972972973	11.44375	42.5570264766
1684	0.842	8.02	-1.87027027027	18.678125	42.5570264766
1685	0.8425	5.18	-7.63243243243	-0.13125	45.3700610998
1686	0.843	0.92	-11.9540540541	-1.578125	45.3700610998
1687	0.8435	8.02	-3.31081081081	-0.13125	48.183095723
1688	0.844	0.92	11.0945945946	1.315625	46.7765784114
1689	0.8445	2.34	2.45135135135	-3.025	46.7765784114
1690	0.845	-1.92	2.45135135135	-0.13125	50.9961303462
1691	0.8455	-13.28	-1.87027027027	-1.578125	48.183095723
1692	0.846	-18.96	-0.42972972973	-0.13125	50.9961303462
1693	0.8465	-28.9	-0.42972972973	1.315625	46.7765784114
1694	0.847	-30.32	-1.87027027027	-1.578125	55.2156822811
1695	0.8475	-28.9	-0.42972972973	-1.578125	65.0613034623
1696	0.848	-26.06	-0.42972972973	-0.13125	49.5896130346
1697	0.8485	-26.06	1.01081081081	4.209375	53.8091649695
1698	0.849	-21.8	-1.87027027027	5.65625	45.3700610998
1699	0.8495	-16.12	1.01081081081	2.7625	36.9309572301
1700	0.85	-9.02	1.01081081081	2.7625	45.3700610998
1701	0.8505	-3.34	-0.42972972973	5.65625	45.3700610998
1702	0.851	2.34	-4.75135135135	-3.025	45.3700610998
1703	0.8515	8.02	-11.9540540541	1.315625	45.3700610998
1704	0.852	17.96	-7.63243243243	2.7625	45.3700610998
1705	0.8525	27.9	-6.19189189189	2.7625	48.183095723
1706	0.853	39.26	-0.42972972973	-0.13125	45.3700610998
1707	0.8535	39.26	-10.5135135135	-1.578125	45.3700610998
1708	0.854	50.62	-1.87027027027	-0.13125	46.7765784114
1709	0.8545	27.9	-3.31081081081	-0.13125	45.3700610998
1710	0.855	27.9	-3.31081081081	-0.13125	56.6221995927
1711	0.8555	23.64	-1.87027027027	-1.578125	63.6547861507
1712	0.856	19.38	-0.42972972973	-1.578125	62.2482688391
1713	0.8565	17.96	-0.42972972973	-4.471875	50.9961303462
1714	0.857	16.54	-1.87027027027	4.209375	45.3700610998
1715	0.8575	15.12	-1.87027027027	-3.025	48.183095723
1716	0.858	9.44	-0.42972972973	-10.259375	46.7765784114
1717	0.8585	9.44	-10.5135135135	-1.578125	50.9961303462
1718	0.859	3.76	-7.63243243243	-1.578125	48.183095723
1719	0.8595	5.18	-4.75135135135	-3.025	48.183095723
1720	0.86	9.44	-4.75135135135	-0.13125	49.5896130346
1721	0.8605	5.18	-3.31081081081	-1.578125	50.9961303462
1722	0.861	5.18	1.01081081081	-1.578125	49.5896130346
1723	0.8615	-16.12	-0.42972972973	-4.471875	49.5896130346
1724	0.862	-16.12	1.01081081081	-3.025	49.5896130346
1725	0.8625	13.7	-0.42972972973	-3.025	48.183095723
1726	0.863	-1.92	1.01081081081	-1.578125	49.5896130346
1727	0.8635	-20.38	-1.87027027027	-1.578125	53.8091649695
1728	0.864	-26.06	-0.42972972973	-0.13125	45.3700610998
1729	0.8645	-27.48	1.01081081081	-8.8125	50.9961303462
1730	0.865	-27.48	1.01081081081	-3.025	66.4678207739
1731	0.8655	-23.22	1.01081081081	7.103125	49.5896130346
1732	0.866	-17.54	1.01081081081	-0.13125	52.4026476578
1733	0.8665	-10.44	1.01081081081	1.315625	52.4026476578
1734	0.867	-3.34	3.89189189189	1.315625	53.8091649695
1735	0.8675	-1.92	-9.07297297297	1.315625	53.8091649695
1736	0.868	2.34	-7.63243243243	-1.578125	50.9961303462
1737	0.8685	15.12	-4.75135135135	2.7625	55.2156822811
1738	0.869	25.06	-3.31081081081	-0.13125	56.6221995927
1739	0.8695	33.58	3.89189189189	-0.13125	50.9961303462
1740	0.87	37.84	1.01081081081	-0.13125	50.9961303462
1741	0.8705	16.54	-0.42972972973	-0.13125	50.9961303462
1742	0.871	23.64	1.01081081081	1.315625	49.5896130346
1743	0.8715	25.06	2.45135135135	1.315625	46.7765784114
1744	0.872	22.22	1.01081081081	-0.13125	48.183095723
1745	0.8725	22.22	2.45135135135	-1.578125	55.2156822811
1746	0.873	15.12	-0.42972972973	1.315625	48.183095723
1747	0.8735	15.12	-0.42972972973	2.7625	42.5570264766
1748	0.874	13.7	-1.87027027027	2.7625	41.150509165
1749	0.8745	12.28	-0.42972972973	-0.13125	45.3700610998
1750	0.875	9.44	-1.87027027027	4.209375	52.4026476578
1751	0.8755	8.02	-1.87027027027	-0.13125	49.5896130346
1752	0.876	3.76	-13.3945945946	-0.13125	50.9961303462
1753	0.8765	5.18	-10.5135135135	-1.578125	50.9961303462
1754	0.877	8.02	-10.5135135135	-3.025	50.9961303462
1755	0.8775	-0.5	-7.63243243243	-0.13125	49.5896130346
1756	0.878	0.92	-6.19189189189	-0.13125	48.183095723
1757	0.8785	2.34	-0.42972972973	-1.578125	49.5896130346
1758	0.879	-16.12	-0.42972972973	-0.13125	50.9961303462
1759	0.8795	-23.22	-0.42972972973	-1.578125	49.5896130346
1760	0.88	-1.92	-0.42972972973	-0.13125	50.9961303462
1761	0.8805	-31.74	-1.87027027027	-1.578125	45.3700610998
1762	0.881	-33.16	2.45135135135	-4.471875	53.8091649695
1763	0.8815	-28.9	-1.87027027027	-4.471875	59.4352342159
1764	0.882	-24.64	3.89189189189	-0.13125	62.2482688391
1765	0.8825	-17.54	1.01081081081	-11.70625	49.5896130346
1766	0.883	-11.86	1.01081081081	-11.70625	42.5570264766
1767	0.8835	-6.18	-1.87027027027	15.784375	49.5896130346
1768	0.884	-0.5	-3.31081081081	12.890625	50.9961303462
1769	0.8845	6.6	-0.42972972973	15.784375	53.8091649695
1770	0.885	15.12	-3.31081081081	-0.13125	52.4026476578
1771	0.8855	20.8	-4.75135135135	1.315625	49.5896130346
1772	0.886	29.32	-0.42972972973	2.7625	49.5896130346
1773	0.8865	33.58	-6.19189189189	-1.578125	50.9961303462
1774	0.887	29.32	-9.07297297297	-1.578125	49.5896130346
1775	0.8875	29.32	-0.42972972973	-3.025	46.7765784114
1776	0.888	32.16	2.45135135135	-1.578125	49.5896130346
1777	0.8885	37.84	-1.87027027027	2.7625	50.9961303462
1778	0.889	40.68	1.01081081081	1.315625	52.4026476578
1779	0.8895	20.8	-1.87027027027	-0.13125	66.4678207739
1780	0.89	17.96	2.45135135135	-1.578125	62.2482688391
1781	0.8905	16.54	1.01081081081	-1.578125	42.5570264766
1782	0.891	13.7	-1.87027027027	-0.13125	48.183095723
1783	0.8915	10.86	-3.31081081081	-5.91875	45.3700610998
1784	0.892	9.44	-3.31081081081	-3.025	49.5896130346
1785	0.8925	10.86	-1.87027027027	-5.91875	48.183095723
1786	0.893	5.18	-3.31081081081	-7.365625	49.5896130346
1787	0.8935	3.76	-0.42972972973	-0.13125	50.9961303462
1788	0.894	0.92	5.33243243243	1.315625	48.183095723
1789	0.8945	2.34	-4.75135135135	2.7625	49.5896130346
1790	0.895	-4.76	-6.19189189189	2.7625	48.183095723
1791	0.8955	-7.6	-7.63243243243	1.315625	49.5896130346
1792	0.896	-14.7	-1.87027027027	-0.13125	46.7765784114
1793	0.8965	-16.12	-0.42972972973	2.7625	45.3700610998
1794	0.897	-13.28	-3.31081081081	-0.13125	49.5896130346
1795	0.8975	-11.86	-3.31081081081	-3.025	48.183095723
1796	0.898	-26.06	-4.75135135135	-0.13125	45.3700610998
1797	0.8985	-27.48	-1.87027027027	1.315625	43.9635437882
1798	0.899	-21.8	-1.87027027027	-0.13125	41.150509165
1799	0.8995	-14.7	2.45135135135	18.678125	45.3700610998
1800	0.9	-4.76	1.01081081081	18.678125	41.150509165
1801	0.9005	-1.92	1.01081081081	21.571875	43.9635437882
1802	0.901	3.76	-0.42972972973	-7.365625	45.3700610998
1803	0.9015	13.7	-1.87027027027	-0.13125	46.7765784114
1804	0.902	16.54	-0.42972972973	-7.365625	49.5896130346
1805	0.9025	27.9	8.21351351351	-0.13125	48.183095723
1806	0.903	33.58	11.0945945946	1.315625	46.7765784114
1807	0.9035	36.42	-6.19189189189	1.315625	48.183095723
1808	0.904	33.58	-7.63243243243	4.209375	48.183095723
1809	0.9045	22.22	-0.42972972973	-0.13125	48.183095723
1810	0.905	23.64	1.01081081081	-1.578125	46.7765784114
1811	0.9055	17.96	-3.31081081081	-1.578125	49.5896130346
1812	0.906	15.12	-1.87027027027	-3.025	48.183095723
1813	0.9065	20.8	-1.87027027027	-4.471875	48.183095723
1814	0.907	17.96	-1.87027027027	-3.025	49.5896130346
1815	0.9075	16.54	-0.42972972973	-3.025	58.0287169043
1816	0.908	12.28	-0.42972972973	-11.70625	45.3700610998
1817	0.9085	9.44	-0.42972972973	18.678125	48.183095723
1818	0.909	10.86	-1.87027027027	-0.13125	42.5570264766
1819	0.9095	10.86	-3.31081081081	-3.025	50.9961303462
1820	0.91	5.18	-3.31081081081	4.209375	49.5896130346
1821	0.9105	2.34	-7.63243243243	-0.13125	49.5896130346
1822	0.911	0.92	18.2972972973	-1.578125	50.9961303462
1823	0.9115	0.92	11.0945945946	-0.13125	52.4026476578
1824	0.912	-4.76	2.45135135135	-1.578125	50.9961303462
1825	0.9125	-17.54	-0.42972972973	-0.13125	45.3700610998
1826	0.913	-24.64	-1.87027027027	-1.578125	49.5896130346
1827	0.9135	-0.5	-0.42972972973	-1.578125	48.183095723
1828	0.914	-13.28	-0.42972972973	1.315625	46.7765784114
1829	0.9145	-21.8	-1.87027027027	-0.13125	45.3700610998
1830	0.915	-24.64	-0.42972972973	5.65625	46.7765784114
1831	0.9155	-21.8	-0.42972972973	-10.259375	50.9961303462
1832	0.916	-16.12	1.01081081081	-7.365625	50.9961303462
1833	0.9165	-10.44	1.01081081081	-4.471875	46.7765784114
1834	0.917	-1.92	1.01081081081	7.103125	49.5896130346
1835	0.9175	0.92	2.45135135135	-5.91875	43.9635437882
1836	0.918	6.6	-9.07297297297	1.315625	46.7765784114
1837	0.9185	16.54	-10.5135135135	-1.578125	45.3700610998
1838	0.919	25.06	-6.19189189189	2.7625	45.3700610998
1839	0.9195	33.58	16.8567567568	2.7625	48.183095723
1840	0.92	33.58	9.65405405405	1.315625	48.183095723
1841	0.9205	23.64	-0.42972972973	-0.13125	49.5896130346
1842	0.921	19.38	1.01081081081	1.315625	49.5896130346
1843	0.9215	23.64	-0.42972972973	1.315625	45.3700610998
1844	0.922	15.12	-0.42972972973	-0.13125	46.7765784114
1845	0.9225	13.7	-0.42972972973	-0.13125	49.5896130346
1846	0.923	19.38	-1.87027027027	-0.13125	43.9635437882
1847	0.9235	16.54	-3.31081081081	1.315625	50.9961303462
1848	0.924	13.7	1.01081081081	-5.91875	45.3700610998
1849	0.9245	13.7	1.01081081081	-10.259375	45.3700610998
1850	0.925	10.86	1.01081081081	-10.259375	46.7765784114
1851	0.9255	9.44	-0.42972972973	-8.8125	63.6547861507
1852	0.926	9.44	-1.87027027027	-10.259375	48.183095723
1853	0.9265	6.6	-1.87027027027	-5.91875	48.183095723
1854	0.927	3.76	3.89189189189	-3.025	48.183095723
1855	0.9275	5.18	16.8567567568	-0.13125	45.3700610998
1856	0.928	5.18	18.2972972973	-1.578125	46.7765784114
1857	0.9285	-0.5	13.9756756757	-1.578125	46.7765784114
1858	0.929	-9.02	-1.87027027027	-5.91875	48.183095723
1859	0.9295	-18.96	-0.42972972973	-4.471875	43.9635437882
1860	0.93	-27.48	-3.31081081081	-3.025	48.183095723
1861	0.9305	-14.7	-3.31081081081	-4.471875	49.5896130346
1862	0.931	-30.32	-3.31081081081	-3.025	48.183095723
1863	0.9315	-28.9	-1.87027027027	-1.578125	60.8417515275
1864	0.932	-26.06	-0.42972972973	1.315625	55.2156822811
1865	0.9325	-18.96	-0.42972972973	-8.8125	48.183095723
1866	0.933	-10.44	1.01081081081	-11.70625	48.183095723
1867	0.9335	-4.76	-3.31081081081	-7.365625	48.183095723
1868	0.934	-0.5	-0.42972972973	-5.91875	49.5896130346
1869	0.9345	8.02	1.01081081081	-1.578125	49.5896130346
1870	0.935	15.12	5.33243243243	4.209375	46.7765784114
1871	0.9355	26.48	16.8567567568	2.7625	49.5896130346
1872	0.936	33.58	-10.5135135135	5.65625	46.7765784114
1873	0.9365	35.0	-7.63243243243	4.209375	48.183095723
1874	0.937	33.58	-6.19189189189	4.209375	50.9961303462
1875	0.9375	23.64	1.01081081081	2.7625	50.9961303462
1876	0.938	33.58	2.45135135135	1.315625	50.9961303462
1877	0.9385	23.64	-1.87027027027	1.315625	50.9961303462
1878	0.939	16.54	-0.42972972973	1.315625	46.7765784114
1879	0.9395	20.8	-0.42972972973	-0.13125	50.9961303462
1880	0.94	16.54	-1.87027027027	4.209375	39.7439918534
1881	0.9405	16.54	-1.87027027027	4.209375	41.150509165
1882	0.941	12.28	1.01081081081	8.55	46.7765784114
1883	0.9415	12.28	-4.75135135135	-1.578125	46.7765784114
1884	0.942	10.86	-3.31081081081	-5.91875	43.9635437882
1885	0.9425	5.18	1.01081081081	-3.025	48.183095723
1886	0.943	5.18	15.4162162162	-3.025	45.3700610998
1887	0.9435	3.76	13.9756756757	-1.578125	45.3700610998
1888	0.944	5.18	2.45135135135	-1.578125	46.7765784114
1889	0.9445	-0.5	-6.19189189189	1.315625	45.3700610998
1890	0.945	-13.28	-0.42972972973	1.315625	46.7765784114
1891	0.9455	-10.44	2.45135135135	1.315625	46.7765784114
1892	0.946	0.92	-0.42972972973	-1.578125	48.183095723
1893	0.9465	-14.7	-0.42972972973	2.7625	39.7439918534
1894	0.947	-21.8	-1.87027027027	1.315625	38.3374745418
1895	0.9475	-26.06	-4.75135135135	-1.578125	43.9635437882
1896	0.948	-28.9	-1.87027027027	-1.578125	45.3700610998
1897	0.9485	-27.48	-1.87027027027	5.65625	52.4026476578
1898	0.949	-21.8	-0.42972972973	15.784375	53.8091649695
1899	0.9495	-16.12	2.45135135135	17.23125	52.4026476578
1900	0.95	-10.44	3.89189189189	-0.13125	52.4026476578
1901	0.9505	-6.18	-0.42972972973	-1.578125	53.8091649695
1902	0.951	-0.5	1.01081081081	-4.471875	52.4026476578
1903	0.9515	9.44	6.77297297297	-0.13125	50.9961303462
1904	0.952	19.38	1.01081081081	-0.13125	48.183095723
1905	0.9525	29.32	1.01081081081	1.315625	49.5896130346
1906	0.953	35.0	1.01081081081	1.315625	45.3700610998
1907	0.9535	29.32	1.01081081081	1.315625	48.183095723
1908	0.954	30.74	2.45135135135	-1.578125	48.183095723
1909	0.9545	33.58	2.45135135135	1.315625	46.7765784114
1910	0.955	26.48	1.01081081081	4.209375	48.183095723
1911	0.9555	27.9	-3.31081081081	-1.578125	42.5570264766
1912	0.956	23.64	-3.31081081081	-3.025	45.3700610998
1913	0.9565	20.8	-3.31081081081	7.103125	53.8091649695
1914	0.957	19.38	-3.31081081081	1.315625	48.183095723
1915	0.9575	15.12	-0.42972972973	18.678125	50.9961303462
1916	0.958	10.86	1.01081081081	-1.578125	49.5896130346
1917	0.9585	10.86	-0.42972972973	1.315625	50.9961303462
1918	0.959	8.02	-4.75135135135	-1.578125	49.5896130346
1919	0.9595	9.44	-0.42972972973	-3.025	48.183095723
1920	0.96	3.76	-4.75135135135	-0.13125	50.9961303462
1921	0.9605	10.86	-3.31081081081	-0.13125	46.7765784114
1922	0.961	10.86	-0.42972972973	-1.578125	48.183095723
1923	0.9615	-9.02	1.01081081081	-1.578125	46.7765784114
1924	0.962	10.86	1.01081081081	1.315625	50.9961303462
1925	0.9625	0.92	1.01081081081	-0.13125	55.2156822811
1926	0.963	-10.44	-1.87027027027	-1.578125	60.8417515275
1927	0.9635	-17.54	-3.31081081081	4.209375	43.9635437882
1928	0.964	-23.22	1.01081081081	1.315625	38.3374745418
1929	0.9645	-24.64	-1.87027027027	1.315625	43.9635437882
1930	0.965	-23.22	-1.87027027027	-7.365625	49.5896130346
1931	0.9655	-18.96	-0.42972972973	-3.025	49.5896130346
1932	0.966	-16.12	1.01081081081	2.7625	50.9961303462
1933	0.9665	-10.44	2.45135135135	-3.025	50.9961303462
1934	0.967	-3.34	-0.42972972973	1.315625	48.183095723
1935	0.9675	5.18	18.2972972973	1.315625	46.7765784114
1936	0.968	10.86	9.65405405405	2.7625	45.3700610998
1937	0.9685	15.12	6.77297297297	2.7625	48.183095723
1938	0.969	13.7	1.01081081081	2.7625	48.183095723
1939	0.9695	20.8	1.01081081081	5.65625	50.9961303462
1940	0.97	23.64	-3.31081081081	-0.13125	50.9961303462
1941	0.9705	40.68	1.01081081081	-0.13125	48.183095723
1942	0.971	36.42	-0.42972972973	2.7625	46.7765784114
1943	0.9715	36.42	1.01081081081	1.315625	38.3374745418
1944	0.972	29.32	-0.42972972973	2.7625	42.5570264766
1945	0.9725	23.64	-1.87027027027	-0.13125	50.9961303462
1946	0.973	20.8	-3.31081081081	8.55	52.4026476578
1947	0.9735	19.38	1.01081081081	18.678125	52.4026476578
1948	0.974	17.96	1.01081081081	-8.8125	50.9961303462
1949	0.9745	12.28	-1.87027027027	-8.8125	52.4026476578
1950	0.975	10.86	2.45135135135	-4.471875	56.6221995927
1951	0.9755	9.44	1.01081081081	-3.025	56.6221995927
1952	0.976	12.28	2.45135135135	-1.578125	53.8091649695
1953	0.9765	8.02	-1.87027027027	-0.13125	56.6221995927
1954	0.977	-7.6	-0.42972972973	-0.13125	56.6221995927
1955	0.9775	-9.02	1.01081081081	1.315625	55.2156822811
1956	0.978	-1.92	1.01081081081	2.7625	55.2156822811
1957	0.9785	-3.34	-1.87027027027	-0.13125	55.2156822811
1958	0.979	-9.02	-0.42972972973	4.209375	48.183095723
1959	0.9795	-7.6	-0.42972972973	-7.365625	49.5896130346
1960	0.98	-16.12	-4.75135135135	-0.13125	65.0613034623
1961	0.9805	-24.64	-0.42972972973	-4.471875	69.2808553971
1962	0.981	-26.06	-0.42972972973	-4.471875	50.9961303462
1963	0.9815	-27.48	1.01081081081	-4.471875	52.4026476578
1964	0.982	-23.22	1.01081081081	-1.578125	52.4026476578
1965	0.9825	-18.96	2.45135135135	-0.13125	52.4026476578
1966	0.983	-10.44	-1.87027027027	4.209375	50.9961303462
1967	0.9835	-4.76	-9.07297297297	1.315625	50.9961303462
1968	0.984	-4.76	-4.75135135135	-0.13125	50.9961303462
1969	0.9845	-7.6	1.01081081081	-1.578125	53.8091649695
1970	0.985	5.18	-0.42972972973	2.7625	56.6221995927
1971	0.9855	20.8	-0.42972972973	4.209375	53.8091649695
1972	0.986	33.58	-1.87027027027	2.7625	43.9635437882
1973	0.9865	32.16	2.45135135135	2.7625	41.150509165
1974	0.987	32.16	-1.87027027027	2.7625	48.183095723
1975	0.9875	33.58	1.01081081081	2.7625	42.5570264766
1976	0.988	35.0	-0.42972972973	-0.13125	52.4026476578
1977	0.9885	35.0	-3.31081081081	4.209375	60.8417515275
1978	0.989	27.9	-3.31081081081	-5.91875	50.9961303462
1979	0.9895	22.22	-0.42972972973	-10.259375	50.9961303462
1980	0.99	19.38	-1.87027027027	-4.471875	50.9961303462
1981	0.9905	19.38	2.45135135135	2.7625	50.9961303462
1982	0.991	16.54	6.77297297297	-1.578125	50.9961303462
1983	0.9915	15.12	18.2972972973	-0.13125	50.9961303462
1984	0.992	15.12	-6.19189189189	-0.13125	49.5896130346
1985	0.9925	10.86	-6.19189189189	-0.13125	45.3700610998
1986	0.993	10.86	1.01081081081	-1.578125	45.3700610998
1987	0.9935	17.96	-0.42972972973	1.315625	46.7765784114
1988	0.994	22.22	1.01081081081	-1.578125	49.5896130346
1989	0.9945	-6.18	1.01081081081	-0.13125	41.150509165
1990	0.995	3.76	-0.42972972973	-0.13125	45.3700610998
1991	0.9955	0.92	-0.42972972973	-1.578125	41.150509165
1992	0.996	-0.5	1.01081081081	-4.471875	39.7439918534
1993	0.9965	-11.86	-1.87027027027	-11.70625	49.5896130346
1994	0.997	-18.96	-1.87027027027	11.44375	48.183095723
1995	0.9975	-21.8	-4.75135135135	-5.91875	45.3700610998
1996	0.998	-21.8	-4.75135135135	-1.578125	55.2156822811
1997	0.9985	-20.38	-16.2756756757	-0.13125	50.9961303462
1998	0.999	-17.54	-10.5135135135	-1.578125	50.9961303462
1999	0.9995	-11.86	-3.31081081081	-3.025	49.5896130346
2000	1.0	-0.5	-3.31081081081	-1.578125	49.5896130346
2001	1.0005	3.76	-1.87027027027	1.315625	49.5896130346
2002	1.001	12.28	-0.42972972973	2.7625	48.183095723
2003	1.0015	0.92	-1.87027027027	2.7625	50.9961303462
2004	1.002	12.28	-0.42972972973	1.315625	45.3700610998
2005	1.0025	27.9	1.01081081081	-0.13125	46.7765784114
2006	1.003	39.26	-0.42972972973	1.315625	48.183095723
2007	1.0035	37.84	-1.87027027027	-4.471875	48.183095723
2008	1.004	33.58	-1.87027027027	-1.578125	56.6221995927
2009	1.0045	39.26	1.01081081081	1.315625	34.1179226069
2010	1.005	39.26	-1.87027027027	11.44375	41.150509165
2011	1.0055	33.58	-1.87027027027	-5.91875	36.9309572301
2012	1.006	25.06	-4.75135135135	-5.91875	35.5244399185
2013	1.0065	20.8	-4.75135135135	-4.471875	42.5570264766
2014	1.007	22.22	-16.2756756757	-0.13125	38.3374745418
2015	1.0075	17.96	-13.3945945946	-3.025	43.9635437882
2016	1.008	16.54	13.9756756757	-3.025	43.9635437882
2017	1.0085	13.7	9.65405405405	-0.13125	41.150509165
2018	1.009	8.02	2.45135135135	-1.578125	42.5570264766
2019	1.0095	-1.92	-0.42972972973	-1.578125	42.5570264766
2020	1.01	-4.76	-0.42972972973	-1.578125	38.3374745418
2021	1.0105	0.92	1.01081081081	1.315625	39.7439918534
2022	1.011	3.76	-1.87027027027	-0.13125	28.4918533605
2023	1.0115	3.76	-4.75135135135	-1.578125	55.2156822811
2024	1.012	-0.5	-1.87027027027	-1.578125	50.9961303462
2025	1.0125	-3.34	-1.87027027027	-0.13125	45.3700610998
2026	1.013	-11.86	-1.87027027027	-13.153125	38.3374745418
2027	1.0135	-17.54	-3.31081081081	-3.025	52.4026476578
2028	1.014	-20.38	-4.75135135135	-5.91875	38.3374745418
2029	1.0145	-26.06	-1.87027027027	-7.365625	39.7439918534
2030	1.015	-26.06	1.01081081081	-3.025	39.7439918534
2031	1.0155	-21.8	3.89189189189	-0.13125	39.7439918534
2032	1.016	-14.7	19.7378378378	-1.578125	41.150509165
2033	1.0165	-7.6	5.33243243243	-1.578125	43.9635437882
2034	1.017	-3.34	-3.31081081081	1.315625	38.3374745418
2035	1.0175	-7.6	2.45135135135	1.315625	43.9635437882
2036	1.018	5.18	2.45135135135	-1.578125	41.150509165
2037	1.0185	22.22	-0.42972972973	1.315625	42.5570264766
2038	1.019	32.16	-0.42972972973	-0.13125	43.9635437882
2039	1.0195	30.74	2.45135135135	2.7625	41.150509165
2040	1.02	39.26	-1.87027027027	-1.578125	34.1179226069
2041	1.0205	36.42	-3.31081081081	2.7625	31.3048879837
2042	1.021	35.0	-0.42972972973	-0.13125	27.0853360489
2043	1.0215	36.42	-0.42972972973	17.23125	34.1179226069
2044	1.022	30.74	-1.87027027027	8.55	34.1179226069
2045	1.0225	26.48	-1.87027027027	-1.578125	31.3048879837
2046	1.023	23.64	-1.87027027027	-7.365625	29.8983706721
2047	1.0235	17.96	-7.63243243243	-1.578125	28.4918533605
2048	1.024	16.54	5.33243243243	-1.578125	29.8983706721
2049	1.0245	16.54	15.4162162162	-3.025	24.2723014257
2050	1.025	15.12	-0.42972972973	-4.471875	25.6788187373
2051	1.0255	3.76	-1.87027027027	-1.578125	25.6788187373
2052	1.026	-3.34	-0.42972972973	-0.13125	25.6788187373
2053	1.0265	-4.76	-1.87027027027	-1.578125	22.8657841141
2054	1.027	20.8	-0.42972972973	-1.578125	22.8657841141
2055	1.0275	9.44	-1.87027027027	1.315625	15.833197556
2056	1.028	-0.5	-0.42972972973	1.315625	13.0201629328
2057	1.0285	-0.5	1.01081081081	4.209375	15.833197556
2058	1.029	-3.34	1.01081081081	-3.025	13.0201629328
2059	1.0295	-7.6	-1.87027027027	-8.8125	17.2397148676
2060	1.03	-13.28	-3.31081081081	-7.365625	18.6462321792
2061	1.0305	-23.22	-1.87027027027	-0.13125	20.0527494908
2062	1.031	-24.64	2.45135135135	-1.578125	20.0527494908
2063	1.0315	-26.06	-0.42972972973	-1.578125	21.4592668024
2064	1.032	-21.8	-4.75135135135	-0.13125	17.2397148676
2065	1.0325	-18.96	-1.87027027027	-1.578125	20.0527494908
2066	1.033	-14.7	-6.19189189189	-0.13125	18.6462321792
2067	1.0335	-7.6	-9.07297297297	-0.13125	17.2397148676
2068	1.034	-0.5	2.45135135135	2.7625	20.0527494908
2069	1.0345	16.54	1.01081081081	1.315625	15.833197556
2070	1.035	32.16	-1.87027027027	-0.13125	14.4266802444
2071	1.0355	33.58	-0.42972972973	1.315625	14.4266802444
2072	1.036	32.16	-0.42972972973	4.209375	25.6788187373
2073	1.0365	35.0	-0.42972972973	-0.13125	27.0853360489
2074	1.037	29.32	-0.42972972973	-1.578125	20.0527494908
2075	1.0375	30.74	1.01081081081	12.890625	4.58105906314
2076	1.038	35.0	2.45135135135	18.678125	0.36150712831
2077	1.0385	33.58	-1.87027027027	14.3375	5.98757637475
2078	1.039	26.48	-3.31081081081	-0.13125	5.98757637475
2079	1.0395	20.8	-14.8351351351	-1.578125	4.58105906314
2080	1.04	16.54	-10.5135135135	-1.578125	3.17454175153
2081	1.0405	16.54	-1.87027027027	-1.578125	5.98757637475
2082	1.041	13.7	11.0945945946	-0.13125	0.36150712831
2083	1.0415	16.54	-3.31081081081	-0.13125	4.58105906314
2084	1.042	3.76	-3.31081081081	1.315625	0.36150712831
2085	1.0425	-4.76	-4.75135135135	1.315625	0.36150712831
2086	1.043	-4.76	1.01081081081	4.209375	-2.45152749491
2087	1.0435	-1.92	-1.87027027027	1.315625	-1.0450101833
2088	1.044	2.34	-0.42972972973	-1.578125	13.0201629328
2089	1.0445	0.92	-0.42972972973	-1.578125	8.80061099796
2090	1.045	-3.34	-1.87027027027	2.7625	-2.45152749491
2091	1.0455	-4.76	-0.42972972973	4.209375	-13.7036659878
2092	1.046	-7.6	-0.42972972973	15.784375	-10.8906313646
2093	1.0465	-13.28	-0.42972972973	5.65625	-9.48411405295
2094	1.047	-21.8	2.45135135135	1.315625	-10.8906313646
2095	1.0475	-23.22	-16.2756756757	-1.578125	-12.2971486762
2096	1.048	-24.64	-10.5135135135	-0.13125	-12.2971486762
2097	1.0485	-24.64	11.0945945946	1.315625	-13.7036659878
2098	1.049	-24.64	2.45135135135	1.315625	-13.7036659878
2099	1.0495	-16.12	-6.19189189189	1.315625	-15.1101832994
2100	1.05	-7.6	-0.42972972973	-0.13125	-13.7036659878
2101	1.0505	-4.76	1.01081081081	-1.578125	-15.1101832994
2102	1.051	12.28	-1.87027027027	-0.13125	-16.516700611
2103	1.0515	20.8	1.01081081081	4.209375	-19.3297352342
2104	1.052	16.54	1.01081081081	2.7625	-26.3623217923
2105	1.0525	29.32	-0.42972972973	1.315625	-22.1427698574
2106	1.053	35.0	-0.42972972973	4.209375	-13.7036659878
2107	1.0535	35.0	-3.31081081081	-7.365625	-22.1427698574
2108	1.054	30.74	-0.42972972973	-8.8125	-10.8906313646
2109	1.0545	33.58	-1.87027027027	-7.365625	-20.7362525458
2110	1.055	35.0	2.45135135135	2.7625	-19.3297352342
2111	1.0555	30.74	1.01081081081	-3.025	-20.7362525458
2112	1.056	22.22	1.01081081081	1.315625	-19.3297352342
2113	1.0565	20.8	-10.5135135135	1.315625	-17.9232179226
2114	1.057	17.96	-9.07297297297	-0.13125	-22.1427698574
2115	1.0575	13.7	-1.87027027027	-0.13125	-19.3297352342
2116	1.058	16.54	-4.75135135135	-0.13125	-17.9232179226
2117	1.0585	13.7	-3.31081081081	-0.13125	-22.1427698574
2118	1.059	13.7	-1.87027027027	-0.13125	-19.3297352342
2119	1.0595	9.44	-0.42972972973	1.315625	-19.3297352342
2120	1.06	-6.18	1.01081081081	-0.13125	-19.3297352342
2121	1.0605	-3.34	2.45135135135	1.315625	-23.549287169
2122	1.061	-4.76	-0.42972972973	1.315625	-20.7362525458
2123	1.0615	-6.18	-0.42972972973	2.7625	-27.7688391039
2124	1.062	-4.76	-1.87027027027	2.7625	-23.549287169
2125	1.0625	-4.76	-4.75135135135	2.7625	-31.9883910387
2126	1.063	-11.86	-3.31081081081	4.209375	-26.3623217923
2127	1.0635	-21.8	1.01081081081	17.23125	-19.3297352342
2128	1.064	-26.06	-1.87027027027	14.3375	-29.1753564155
2129	1.0645	-27.48	-1.87027027027	8.55	-20.7362525458
2130	1.065	-28.9	-9.07297297297	-0.13125	-20.7362525458
2131	1.0655	-26.06	-9.07297297297	1.315625	-19.3297352342
2132	1.066	-20.38	16.8567567568	4.209375	-20.7362525458
2133	1.0665	-11.86	15.4162162162	4.209375	-20.7362525458
2134	1.067	-6.18	21.1783783784	2.7625	-17.9232179226
2135	1.0675	-0.5	-6.19189189189	2.7625	-24.9558044807
2136	1.068	0.92	-6.19189189189	1.315625	-17.9232179226
2137	1.0685	22.22	-1.87027027027	2.7625	-23.549287169
2138	1.069	36.42	1.01081081081	4.209375	-23.549287169
2139	1.0695	49.2	-0.42972972973	1.315625	-26.3623217923
2140	1.07	29.32	-1.87027027027	4.209375	-27.7688391039
2141	1.0705	30.74	-1.87027027027	5.65625	-20.7362525458
2142	1.071	29.32	-0.42972972973	5.65625	-24.9558044807
2143	1.0715	32.16	1.01081081081	4.209375	-34.8014256619
2144	1.072	26.48	-0.42972972973	4.209375	-34.8014256619
2145	1.0725	20.8	-0.42972972973	14.3375	-24.9558044807
2146	1.073	19.38	-0.42972972973	7.103125	-26.3623217923
2147	1.0735	17.96	-1.87027027027	-3.025	-23.549287169
2148	1.074	15.12	3.89189189189	-0.13125	-20.7362525458
2149	1.0745	10.86	2.45135135135	1.315625	-20.7362525458
2150	1.075	8.02	-0.42972972973	-0.13125	-22.1427698574
2151	1.0755	3.76	3.89189189189	2.7625	-23.549287169
2152	1.076	2.34	-6.19189189189	2.7625	-23.549287169
2153	1.0765	-4.76	2.45135135135	1.315625	-20.7362525458
2154	1.077	0.92	2.45135135135	2.7625	-22.1427698574
2155	1.0775	9.44	-0.42972972973	2.7625	-23.549287169
2156	1.078	-11.86	-0.42972972973	2.7625	-23.549287169
2157	1.0785	-16.12	-1.87027027027	-0.13125	-27.7688391039
2158	1.079	-9.02	1.01081081081	-0.13125	-19.3297352342
2159	1.0795	-14.7	1.01081081081	1.315625	-22.1427698574
2160	1.08	-20.38	-3.31081081081	15.784375	-20.7362525458
2161	1.0805	-26.06	-1.87027027027	14.3375	-22.1427698574
2162	1.081	-30.32	-1.87027027027	2.7625	-22.1427698574
2163	1.0815	-28.9	-1.87027027027	-1.578125	-22.1427698574
2164	1.082	-27.48	2.45135135135	-1.578125	-22.1427698574
2165	1.0825	-26.06	3.89189189189	2.7625	-23.549287169
2166	1.083	-17.54	11.0945945946	2.7625	-23.549287169
2167	1.0835	-13.28	3.89189189189	2.7625	-24.9558044807
2168	1.084	-7.6	-1.87027027027	1.315625	-23.549287169
2169	1.0845	3.76	-0.42972972973	4.209375	-27.7688391039
2170	1.085	9.44	1.01081081081	2.7625	-27.7688391039
2171	1.0855	27.9	-0.42972972973	-0.13125	-29.1753564155
2172	1.086	29.32	-0.42972972973	2.7625	-31.9883910387
2173	1.0865	25.06	2.45135135135	-0.13125	-30.5818737271
2174	1.087	26.48	1.01081081081	2.7625	-39.0209775967
2175	1.0875	23.64	-0.42972972973	-0.13125	-41.83401222
2176	1.088	29.32	-1.87027027027	2.7625	-37.6144602851
2177	1.0885	25.06	1.01081081081	1.315625	-30.5818737271
2178	1.089	22.22	-0.42972972973	-13.153125	-34.8014256619
2179	1.0895	17.96	1.01081081081	-10.259375	-33.3949083503
2180	1.09	13.7	-0.42972972973	-1.578125	-33.3949083503
2181	1.0905	9.44	-11.9540540541	-1.578125	-34.8014256619
2182	1.091	8.02	-13.3945945946	2.7625	-33.3949083503
2183	1.0915	9.44	-7.63243243243	-0.13125	-33.3949083503
2184	1.092	5.18	-6.19189189189	-3.025	-33.3949083503
2185	1.0925	8.02	-4.75135135135	-1.578125	-31.9883910387
2186	1.093	8.02	-3.31081081081	-0.13125	-29.1753564155
2187	1.0935	0.92	-3.31081081081	-1.578125	-29.1753564155
2188	1.094	15.12	-1.87027027027	-0.13125	-34.8014256619
