	Time	Channel 1	Channel 2	Channel 3	Channel 4
0	0.0	14.761549101	0.9256	1.60303030303	9.48301369863
1	0.0005	3.51618257261	2.3322	4.42424242424	8.07534246575
2	0.001	3.51618257261	0.9256	3.01363636364	27.782739726
3	0.0015	3.51618257261	20.618	-4.03939393939	3.85232876712
4	0.002	-4.91784232365	-1.8876	-1.21818181818	6.66767123288
5	0.0025	6.3275242047	0.9256	0.192424242424	8.07534246575
6	0.003	-2.10650069156	2.3322	5.83484848485	8.07534246575
7	0.0035	3.51618257261	0.9256	-5.45	15.1136986301
8	0.004	-0.700829875519	5.1454	4.42424242424	16.521369863
9	0.0045	-0.700829875519	5.1454	8.65606060606	20.7443835616
10	0.005	0.704840940526	2.3322	-2.62878787879	22.1520547945
11	0.0055	-3.51217150761	3.7388	4.42424242424	20.7443835616
12	0.006	-2.10650069156	0.9256	5.83484848485	13.7060273973
13	0.0065	0.704840940526	-1.8876	15.7090909091	22.1520547945
14	0.007	-2.10650069156	2.3322	-6.86060606061	23.5597260274
15	0.0075	0.704840940526	-4.7008	-8.27121212121	20.7443835616
16	0.008	0.704840940526	-3.2942	-1.21818181818	19.3367123288
17	0.0085	0.704840940526	6.552	-1.21818181818	15.1136986301
18	0.009	0.704840940526	6.552	-1.21818181818	12.2983561644
19	0.0095	0.704840940526	-7.514	-4.03939393939	6.66767123288
20	0.01	7.73319502075	-6.1074	-1.21818181818	3.85232876712
21	0.0105	2.11051175657	-1.8876	-6.86060606061	-1.77835616438
22	0.011	-6.3235131397	-1.8876	-5.45	-4.59369863014
23	0.0115	-2.10650069156	-4.7008	-6.86060606061	20.7443835616
24	0.012	3.51618257261	-4.7008	-1.21818181818	-1.77835616438
25	0.0125	0.704840940526	-1.8876	-18.1454545455	3.85232876712
26	0.013	0.704840940526	-3.2942	-13.9136363636	5.26
27	0.0135	0.704840940526	-3.2942	12.8878787879	5.26
28	0.014	0.704840940526	0.9256	-4.03939393939	5.26
29	0.0145	-0.700829875519	-1.8876	-1.21818181818	8.07534246575
30	0.015	-0.700829875519	-4.7008	-2.62878787879	9.48301369863
31	0.0155	2.11051175657	-7.514	-2.62878787879	8.07534246575
32	0.016	-4.91784232365	-1.8876	-4.03939393939	8.07534246575
33	0.0165	-3.51217150761	-3.2942	0.192424242424	13.7060273973
34	0.017	0.704840940526	-0.481	1.60303030303	13.7060273973
35	0.0175	-4.91784232365	-3.2942	-1.21818181818	24.9673972603
36	0.018	-0.700829875519	-0.481	0.192424242424	6.66767123288
37	0.0185	0.704840940526	-3.2942	0.192424242424	20.7443835616
38	0.019	-2.10650069156	-1.8876	-13.9136363636	22.1520547945
39	0.0195	-3.51217150761	-1.8876	-2.62878787879	24.9673972603
40	0.02	-3.51217150761	0.9256	-2.62878787879	24.9673972603
41	0.0205	-2.10650069156	3.7388	-6.86060606061	26.3750684932
42	0.021	-2.10650069156	-10.3272	0.192424242424	27.782739726
43	0.0215	-4.91784232365	-4.7008	0.192424242424	32.0057534247
44	0.022	0.704840940526	2.3322	0.192424242424	32.0057534247
45	0.0225	7.73319502075	2.3322	-2.62878787879	32.0057534247
46	0.023	-10.5405255878	2.3322	-1.21818181818	23.5597260274
47	0.0235	16.167219917	3.7388	0.192424242424	26.3750684932
48	0.024	-2.10650069156	5.1454	0.192424242424	22.1520547945
49	0.0245	-0.700829875519	6.552	-4.03939393939	17.9290410959
50	0.025	-0.700829875519	0.9256	-8.27121212121	13.7060273973
51	0.0255	-2.10650069156	6.552	-4.03939393939	13.7060273973
52	0.026	-3.51217150761	9.3652	-6.86060606061	12.2983561644
53	0.0265	-3.51217150761	-6.1074	-4.03939393939	13.7060273973
54	0.027	-2.10650069156	17.8048	-6.86060606061	9.48301369863
55	0.0275	0.704840940526	16.3982	-6.86060606061	8.07534246575
56	0.028	-4.91784232365	-3.2942	-1.21818181818	15.1136986301
57	0.0285	-16.163208852	2.3322	-2.62878787879	8.07534246575
58	0.029	17.5728907331	0.9256	-1.21818181818	12.2983561644
59	0.0295	-9.13485477178	2.3322	-5.45	2.44465753425
60	0.03	-9.13485477178	2.3322	-4.03939393939	5.26
61	0.0305	-3.51217150761	2.3322	-6.86060606061	29.1904109589
62	0.031	-2.10650069156	2.3322	-12.503030303	3.85232876712
63	0.0315	-3.51217150761	6.552	-11.0924242424	5.26
64	0.032	-3.51217150761	2.3322	-1.21818181818	13.7060273973
65	0.0325	-3.51217150761	5.1454	-13.9136363636	12.2983561644
66	0.033	-2.10650069156	14.9916	-9.68181818182	15.1136986301
67	0.0335	-6.3235131397	-3.2942	-11.0924242424	13.7060273973
68	0.034	-6.3235131397	3.7388	-12.503030303	15.1136986301
69	0.0345	-0.700829875519	2.3322	-13.9136363636	16.521369863
70	0.035	-16.163208852	3.7388	-12.503030303	15.1136986301
71	0.0355	17.5728907331	3.7388	-12.503030303	19.3367123288
72	0.036	-0.700829875519	3.7388	-13.9136363636	33.4134246575
73	0.0365	-2.10650069156	3.7388	-8.27121212121	13.7060273973
74	0.037	-4.91784232365	3.7388	-12.503030303	13.7060273973
75	0.0375	-4.91784232365	3.7388	-5.45	22.1520547945
76	0.038	-4.91784232365	6.552	-2.62878787879	23.5597260274
77	0.0385	-2.10650069156	9.3652	-6.86060606061	24.9673972603
78	0.039	-3.51217150761	-6.1074	-4.03939393939	24.9673972603
79	0.0395	-0.700829875519	17.8048	-4.03939393939	26.3750684932
80	0.04	-0.700829875519	-4.7008	-5.45	23.5597260274
81	0.0405	-13.3518672199	3.7388	-9.68181818182	23.5597260274
82	0.041	14.761549101	2.3322	-5.45	23.5597260274
83	0.0415	16.167219917	0.9256	-4.03939393939	24.9673972603
84	0.042	-11.9461964039	2.3322	-2.62878787879	5.26
85	0.0425	-3.51217150761	0.9256	-2.62878787879	16.521369863
86	0.043	-2.10650069156	2.3322	-13.9136363636	13.7060273973
87	0.0435	-2.10650069156	2.3322	5.83484848485	8.07534246575
88	0.044	-2.10650069156	0.9256	3.01363636364	9.48301369863
89	0.0445	0.704840940526	0.9256	-12.503030303	6.66767123288
90	0.045	2.11051175657	-3.2942	-6.86060606061	3.85232876712
91	0.0455	-0.700829875519	0.9256	-6.86060606061	1.03698630137
92	0.046	-4.91784232365	-1.8876	-6.86060606061	2.44465753425
93	0.0465	3.51618257261	-0.481	-6.86060606061	5.26
94	0.047	-16.163208852	0.9256	-6.86060606061	2.44465753425
95	0.0475	16.167219917	0.9256	-8.27121212121	12.2983561644
96	0.048	-4.91784232365	0.9256	-9.68181818182	23.5597260274
97	0.0485	-3.51217150761	0.9256	-5.45	-0.370684931507
98	0.049	-2.10650069156	3.7388	-5.45	22.1520547945
99	0.0495	-0.700829875519	6.552	-15.3242424242	3.85232876712
100	0.05	0.704840940526	6.552	-1.21818181818	5.26
101	0.0505	-0.700829875519	0.9256	-2.62878787879	8.07534246575
102	0.051	-0.700829875519	-3.2942	-8.27121212121	9.48301369863
103	0.0515	-3.51217150761	17.8048	-11.0924242424	9.48301369863
104	0.052	3.51618257261	0.9256	-12.503030303	12.2983561644
105	0.0525	-14.757538036	2.3322	-11.0924242424	9.48301369863
106	0.053	-16.163208852	3.7388	-11.0924242424	6.66767123288
107	0.0535	17.5728907331	2.3322	-11.0924242424	12.2983561644
108	0.054	-7.72918395574	2.3322	-8.27121212121	12.2983561644
109	0.0545	-3.51217150761	2.3322	-18.1454545455	12.2983561644
110	0.055	-0.700829875519	5.1454	-23.7878787879	13.7060273973
111	0.0555	-0.700829875519	6.552	4.42424242424	17.9290410959
112	0.056	-0.700829875519	5.1454	-19.5560606061	16.521369863
113	0.0565	-2.10650069156	-4.7008	-11.0924242424	13.7060273973
114	0.057	-0.700829875519	-4.7008	-15.3242424242	12.2983561644
115	0.0575	-0.700829875519	13.585	-12.503030303	12.2983561644
116	0.058	-2.10650069156	9.3652	-12.503030303	15.1136986301
117	0.0585	-11.9461964039	3.7388	-12.503030303	8.07534246575
118	0.059	17.5728907331	2.3322	-11.0924242424	13.7060273973
119	0.0595	-7.72918395574	2.3322	-11.0924242424	-4.59369863014
120	0.06	2.11051175657	0.9256	-12.503030303	-1.77835616438
121	0.0605	0.704840940526	2.3322	-22.3772727273	2.44465753425
122	0.061	4.92185338866	6.552	-6.86060606061	-0.370684931507
123	0.0615	2.11051175657	5.1454	-20.9666666667	2.44465753425
124	0.062	2.11051175657	0.9256	-20.9666666667	-0.370684931507
125	0.0625	2.11051175657	-1.8876	-11.0924242424	1.03698630137
126	0.063	-0.700829875519	3.7388	-6.86060606061	1.03698630137
127	0.0635	9.13886583679	3.7388	-8.27121212121	3.85232876712
128	0.064	4.92185338866	5.1454	-11.0924242424	5.26
129	0.0645	-9.13485477178	5.1454	-11.0924242424	2.44465753425
130	0.065	16.167219917	3.7388	-9.68181818182	3.85232876712
131	0.0655	0.704840940526	5.1454	-11.0924242424	15.1136986301
132	0.066	-2.10650069156	6.552	-8.27121212121	12.2983561644
133	0.0665	-0.700829875519	6.552	-12.503030303	17.9290410959
134	0.067	-0.700829875519	2.3322	-18.1454545455	2.44465753425
135	0.0675	-0.700829875519	6.552	-13.9136363636	1.03698630137
136	0.068	-0.700829875519	6.552	-11.0924242424	2.44465753425
137	0.0685	0.704840940526	5.1454	-11.0924242424	3.85232876712
138	0.069	3.51618257261	6.552	-11.0924242424	5.26
139	0.0695	-11.9461964039	3.7388	-11.0924242424	6.66767123288
140	0.07	-13.3518672199	3.7388	-12.503030303	5.26
141	0.0705	20.3842323651	3.7388	-12.503030303	12.2983561644
142	0.071	-7.72918395574	5.1454	-9.68181818182	1.03698630137
143	0.0715	0.704840940526	6.552	-11.0924242424	9.48301369863
144	0.072	-2.10650069156	6.552	-11.0924242424	12.2983561644
145	0.0725	-0.700829875519	6.552	-8.27121212121	2.44465753425
146	0.073	-0.700829875519	6.552	-5.45	9.48301369863
147	0.0735	-2.10650069156	2.3322	-11.0924242424	8.07534246575
148	0.074	0.704840940526	6.552	-12.503030303	8.07534246575
149	0.0745	0.704840940526	19.2114	-8.27121212121	3.85232876712
150	0.075	-2.10650069156	-4.7008	-8.27121212121	5.26
151	0.0755	-2.10650069156	5.1454	-8.27121212121	3.85232876712
152	0.076	16.167219917	5.1454	-8.27121212121	3.85232876712
153	0.0765	-9.13485477178	6.552	-6.86060606061	-0.370684931507
154	0.077	-6.3235131397	6.552	-5.45	-4.59369863014
155	0.0775	0.704840940526	5.1454	-4.03939393939	5.26
156	0.078	-2.10650069156	6.552	-4.03939393939	3.85232876712
157	0.0785	-0.700829875519	7.9586	-6.86060606061	1.03698630137
158	0.079	-0.700829875519	2.3322	-8.27121212121	-0.370684931507
159	0.0795	-2.10650069156	3.7388	7.24545454545	-0.370684931507
160	0.08	0.704840940526	26.2444	-5.45	1.03698630137
161	0.0805	0.704840940526	29.0576	-4.03939393939	2.44465753425
162	0.081	-0.700829875519	2.3322	-2.62878787879	3.85232876712
163	0.0815	-0.700829875519	5.1454	-5.45	3.85232876712
164	0.082	0.704840940526	5.1454	-4.03939393939	5.26
165	0.0825	-7.72918395574	5.1454	-2.62878787879	6.66767123288
166	0.083	-3.51217150761	6.552	-1.21818181818	9.48301369863
167	0.0835	-0.700829875519	3.7388	-2.62878787879	9.48301369863
168	0.084	3.51618257261	2.3322	-18.1454545455	1.03698630137
169	0.0845	3.51618257261	5.1454	-6.86060606061	-6.00136986301
170	0.085	0.704840940526	5.1454	-11.0924242424	-1.77835616438
171	0.0855	2.11051175657	-4.7008	-6.86060606061	2.44465753425
172	0.086	0.704840940526	-4.7008	-8.27121212121	-0.370684931507
173	0.0865	-0.700829875519	5.1454	-12.503030303	-0.370684931507
174	0.087	2.11051175657	10.7718	-9.68181818182	-3.18602739726
175	0.0875	-10.5405255878	3.7388	-9.68181818182	1.03698630137
176	0.088	13.3558782849	3.7388	-11.0924242424	6.66767123288
177	0.0885	-4.91784232365	6.552	-9.68181818182	-3.18602739726
178	0.089	-6.3235131397	5.1454	-8.27121212121	-3.18602739726
179	0.0895	-0.700829875519	7.9586	-11.0924242424	27.782739726
180	0.09	-2.10650069156	6.552	-16.7348484848	-1.77835616438
181	0.0905	-3.51217150761	9.3652	3.01363636364	6.66767123288
182	0.091	-0.700829875519	9.3652	-12.503030303	3.85232876712
183	0.0915	-0.700829875519	9.3652	-8.27121212121	2.44465753425
184	0.092	-0.700829875519	-6.1074	-4.03939393939	2.44465753425
185	0.0925	-2.10650069156	-1.8876	-4.03939393939	-0.370684931507
186	0.093	4.92185338866	5.1454	-5.45	-0.370684931507
187	0.0935	-0.700829875519	3.7388	-6.86060606061	-8.81671232877
188	0.094	3.51618257261	0.9256	-4.03939393939	-4.59369863014
189	0.0945	7.73319502075	2.3322	-4.03939393939	-11.6320547945
190	0.095	0.704840940526	3.7388	-4.03939393939	-10.2243835616
191	0.0955	-0.700829875519	2.3322	-13.9136363636	-11.6320547945
192	0.096	2.11051175657	5.1454	8.65606060606	-6.00136986301
193	0.0965	-0.700829875519	2.3322	-12.503030303	-6.00136986301
194	0.097	2.11051175657	0.9256	-9.68181818182	-4.59369863014
195	0.0975	0.704840940526	5.1454	7.24545454545	-1.77835616438
196	0.098	3.51618257261	-1.8876	-8.27121212121	-6.00136986301
197	0.0985	0.704840940526	6.552	-8.27121212121	-1.77835616438
198	0.099	4.92185338866	0.9256	-8.27121212121	-1.77835616438
199	0.0995	17.5728907331	5.1454	-9.68181818182	1.03698630137
200	0.1	-0.700829875519	5.1454	-9.68181818182	-7.40904109589
201	0.1005	-3.51217150761	5.1454	-5.45	-8.81671232877
202	0.101	-0.700829875519	6.552	-11.0924242424	16.521369863
203	0.1015	0.704840940526	6.552	-16.7348484848	-3.18602739726
204	0.102	-0.700829875519	5.1454	-6.86060606061	-4.59369863014
205	0.1025	0.704840940526	6.552	8.65606060606	5.26
206	0.103	0.704840940526	3.7388	-8.27121212121	5.26
207	0.1035	0.704840940526	2.3322	-9.68181818182	5.26
208	0.104	0.704840940526	9.3652	-9.68181818182	8.07534246575
209	0.1045	-3.51217150761	6.552	-11.0924242424	8.07534246575
210	0.105	3.51618257261	3.7388	-8.27121212121	9.48301369863
211	0.1055	-14.757538036	5.1454	-5.45	9.48301369863
212	0.106	-7.72918395574	3.7388	-2.62878787879	-3.18602739726
213	0.1065	0.704840940526	3.7388	-4.03939393939	13.7060273973
214	0.107	0.704840940526	6.552	-8.27121212121	24.9673972603
215	0.1075	2.11051175657	6.552	-8.27121212121	-3.18602739726
216	0.108	4.92185338866	5.1454	-12.503030303	12.2983561644
217	0.1085	0.704840940526	7.9586	-11.0924242424	-1.77835616438
218	0.109	3.51618257261	10.7718	-11.0924242424	-0.370684931507
219	0.1095	0.704840940526	-1.8876	-9.68181818182	-3.18602739726
220	0.11	0.704840940526	0.9256	-11.0924242424	-6.00136986301
221	0.1105	3.51618257261	24.8378	-9.68181818182	-8.81671232877
222	0.111	-3.51217150761	6.552	-8.27121212121	-8.81671232877
223	0.1115	10.5445366528	6.552	-8.27121212121	-11.6320547945
224	0.112	16.167219917	6.552	-9.68181818182	-8.81671232877
225	0.1125	-0.700829875519	5.1454	-8.27121212121	2.44465753425
226	0.113	0.704840940526	5.1454	-5.45	-14.4473972603
227	0.1135	2.11051175657	6.552	-6.86060606061	-11.6320547945
228	0.114	3.51618257261	5.1454	4.42424242424	-8.81671232877
229	0.1145	3.51618257261	7.9586	14.2984848485	-4.59369863014
230	0.115	3.51618257261	6.552	-11.0924242424	-3.18602739726
231	0.1155	2.11051175657	3.7388	-6.86060606061	-4.59369863014
232	0.116	3.51618257261	16.3982	-6.86060606061	-3.18602739726
233	0.1165	0.704840940526	6.552	-2.62878787879	-4.59369863014
234	0.117	-10.5405255878	6.552	-4.03939393939	-6.00136986301
235	0.1175	17.5728907331	6.552	-2.62878787879	-6.00136986301
236	0.118	16.167219917	6.552	-1.21818181818	-11.6320547945
237	0.1185	-0.700829875519	6.552	-2.62878787879	9.48301369863
238	0.119	-2.10650069156	5.1454	-5.45	12.2983561644
239	0.1195	-2.10650069156	7.9586	-11.0924242424	-1.77835616438
240	0.12	-3.51217150761	5.1454	8.65606060606	-1.77835616438
241	0.1205	-2.10650069156	6.552	-8.27121212121	-1.77835616438
242	0.121	0.704840940526	22.0246	-5.45	2.44465753425
243	0.1215	0.704840940526	20.618	-5.45	5.26
244	0.122	-0.700829875519	-1.8876	-5.45	5.26
245	0.1225	-3.51217150761	-1.8876	-8.27121212121	8.07534246575
246	0.123	-6.3235131397	5.1454	-5.45	8.07534246575
247	0.1235	3.51618257261	7.9586	-6.86060606061	-1.77835616438
248	0.124	-6.3235131397	6.552	-4.03939393939	12.2983561644
249	0.1245	-4.91784232365	6.552	-8.27121212121	12.2983561644
250	0.125	-3.51217150761	5.1454	-1.21818181818	-13.0397260274
251	0.1255	-0.700829875519	6.552	5.83484848485	-7.40904109589
252	0.126	-3.51217150761	5.1454	-13.9136363636	-11.6320547945
253	0.1265	-0.700829875519	5.1454	-6.86060606061	-10.2243835616
254	0.127	0.704840940526	-1.8876	-8.27121212121	-11.6320547945
255	0.1275	-2.10650069156	5.1454	-8.27121212121	-11.6320547945
256	0.128	3.51618257261	2.3322	-8.27121212121	-11.6320547945
257	0.1285	-11.9461964039	6.552	-6.86060606061	-14.4473972603
258	0.129	-4.91784232365	7.9586	-8.27121212121	-14.4473972603
259	0.1295	16.167219917	5.1454	-8.27121212121	-11.6320547945
260	0.13	-2.10650069156	6.552	-8.27121212121	1.03698630137
261	0.1305	-0.700829875519	5.1454	-2.62878787879	-18.6704109589
262	0.131	3.51618257261	2.3322	-1.21818181818	5.26
263	0.1315	-2.10650069156	7.9586	-12.503030303	-11.6320547945
264	0.132	0.704840940526	7.9586	7.24545454545	-11.6320547945
265	0.1325	-0.700829875519	6.552	4.42424242424	-10.2243835616
266	0.133	0.704840940526	6.552	-6.86060606061	-8.81671232877
267	0.1335	0.704840940526	13.585	-8.27121212121	-10.2243835616
268	0.134	-2.10650069156	7.9586	-11.0924242424	-10.2243835616
269	0.1345	-10.5405255878	6.552	-8.27121212121	-11.6320547945
270	0.135	17.5728907331	6.552	-8.27121212121	-6.00136986301
271	0.1355	17.5728907331	3.7388	-9.68181818182	-10.2243835616
272	0.136	-9.13485477178	3.7388	-8.27121212121	-10.2243835616
273	0.1365	-2.10650069156	5.1454	-9.68181818182	-0.370684931507
274	0.137	-0.700829875519	2.3322	-8.27121212121	2.44465753425
275	0.1375	-2.10650069156	3.7388	-13.9136363636	-0.370684931507
276	0.138	-0.700829875519	0.9256	-8.27121212121	1.03698630137
277	0.1385	-3.51217150761	9.3652	-8.27121212121	1.03698630137
278	0.139	-2.10650069156	7.9586	-12.503030303	5.26
279	0.1395	2.11051175657	-7.514	-11.0924242424	5.26
280	0.14	-4.91784232365	3.7388	-9.68181818182	5.26
281	0.1405	-2.10650069156	6.552	-11.0924242424	3.85232876712
282	0.141	-6.3235131397	5.1454	-8.27121212121	3.85232876712
283	0.1415	-4.91784232365	5.1454	-6.86060606061	1.03698630137
284	0.142	-0.700829875519	3.7388	-5.45	-4.59369863014
285	0.1425	-2.10650069156	3.7388	-2.62878787879	-3.18602739726
286	0.143	-0.700829875519	5.1454	-15.3242424242	-6.00136986301
287	0.1435	-2.10650069156	6.552	-15.3242424242	-17.262739726
288	0.144	0.704840940526	2.3322	-5.45	-8.81671232877
289	0.1445	0.704840940526	5.1454	0.192424242424	-13.0397260274
290	0.145	-0.700829875519	3.7388	-6.86060606061	-13.0397260274
291	0.1455	2.11051175657	13.585	-4.03939393939	-13.0397260274
292	0.146	7.73319502075	2.3322	-1.21818181818	-11.6320547945
293	0.1465	-9.13485477178	2.3322	-2.62878787879	-10.2243835616
294	0.147	-7.72918395574	0.9256	-5.45	-11.6320547945
295	0.1475	-7.72918395574	2.3322	-2.62878787879	-7.40904109589
296	0.148	3.51618257261	3.7388	-2.62878787879	-3.18602739726
297	0.1485	0.704840940526	2.3322	-4.03939393939	-14.4473972603
298	0.149	2.11051175657	0.9256	-12.503030303	-13.0397260274
299	0.1495	-2.10650069156	2.3322	1.60303030303	-13.0397260274
300	0.15	-0.700829875519	5.1454	0.192424242424	-10.2243835616
301	0.1505	2.11051175657	0.9256	4.42424242424	-8.81671232877
302	0.151	2.11051175657	2.3322	1.60303030303	-10.2243835616
303	0.1515	0.704840940526	10.7718	4.42424242424	-11.6320547945
304	0.152	9.13886583679	3.7388	0.192424242424	-13.0397260274
305	0.1525	-4.91784232365	6.552	1.60303030303	-14.4473972603
306	0.153	11.9502074689	9.3652	1.60303030303	-21.4857534247
307	0.1535	9.13886583679	6.552	5.83484848485	-25.7087671233
308	0.154	-3.51217150761	7.9586	1.60303030303	-7.40904109589
309	0.1545	0.704840940526	7.9586	-5.45	-22.8934246575
310	0.155	-0.700829875519	7.9586	8.65606060606	-32.7471232877
311	0.1555	0.704840940526	10.7718	4.42424242424	-28.524109589
312	0.156	0.704840940526	6.552	3.01363636364	-29.9317808219
313	0.1565	2.11051175657	27.651	4.42424242424	-34.1547945205
314	0.157	2.11051175657	26.2444	5.83484848485	-38.3778082192
315	0.1575	0.704840940526	0.9256	8.65606060606	-44.0084931507
316	0.158	2.11051175657	3.7388	8.65606060606	-48.2315068493
317	0.1585	14.761549101	6.552	8.65606060606	-51.0468493151
318	0.159	-10.5405255878	6.552	12.8878787879	-62.3082191781
319	0.1595	-0.700829875519	7.9586	11.4772727273	-58.0852054795
320	0.16	-0.700829875519	7.9586	8.65606060606	-46.8238356164
321	0.1605	-2.10650069156	7.9586	8.65606060606	-65.1235616438
322	0.161	-0.700829875519	7.9586	5.83484848485	-65.1235616438
323	0.1615	0.704840940526	9.3652	4.42424242424	-53.8621917808
324	0.162	3.51618257261	14.9916	7.24545454545	-59.4928767123
325	0.1625	0.704840940526	-3.2942	11.4772727273	-56.6775342466
326	0.163	0.704840940526	6.552	10.0666666667	-53.8621917808
327	0.1635	0.704840940526	20.618	12.8878787879	-51.0468493151
328	0.164	-9.13485477178	12.1784	12.8878787879	-48.2315068493
329	0.1645	17.5728907331	13.585	11.4772727273	-44.0084931507
330	0.165	14.761549101	9.3652	14.2984848485	-46.8238356164
331	0.1655	-4.91784232365	7.9586	12.8878787879	-45.4161643836
332	0.166	2.11051175657	10.7718	1.60303030303	-45.4161643836
333	0.1665	0.704840940526	5.1454	28.4045454545	-46.8238356164
334	0.167	4.92185338866	6.552	24.1727272727	-48.2315068493
335	0.1675	0.704840940526	7.9586	12.8878787879	-51.0468493151
336	0.168	3.51618257261	14.9916	14.2984848485	-46.8238356164
337	0.1685	4.92185338866	22.0246	18.5303030303	-42.6008219178
338	0.169	2.11051175657	0.9256	17.1196969697	-35.5624657534
339	0.1695	3.51618257261	3.7388	14.2984848485	-24.3010958904
340	0.17	13.3558782849	5.1454	14.2984848485	-6.00136986301
341	0.1705	-7.72918395574	5.1454	7.24545454545	3.85232876712
342	0.171	-11.9461964039	3.7388	3.01363636364	27.782739726
343	0.1715	-3.51217150761	5.1454	0.192424242424	41.8594520548
344	0.172	-2.10650069156	6.552	14.2984848485	55.9361643836
345	0.1725	-3.51217150761	3.7388	3.01363636364	71.4205479452
346	0.173	-2.10650069156	7.9586	-2.62878787879	91.1279452055
347	0.1735	-2.10650069156	-6.1074	-6.86060606061	105.204657534
348	0.174	-2.10650069156	-6.1074	-9.68181818182	117.87369863
349	0.1745	-3.51217150761	9.3652	-13.9136363636	137.58109589
350	0.175	-2.10650069156	-3.2942	-15.3242424242	151.657808219
351	0.1755	11.9502074689	-1.8876	-22.3772727273	168.549863014
352	0.176	16.167219917	-4.7008	-23.7878787879	184.034246575
353	0.1765	-11.9461964039	-4.7008	-26.6090909091	189.664931507
354	0.177	-4.91784232365	-7.514	-32.2515151515	202.333972603
355	0.1775	-4.91784232365	-7.514	-19.5560606061	222.041369863
356	0.178	-4.91784232365	-6.1074	-20.9666666667	234.710410959
357	0.1785	-6.3235131397	-4.7008	-46.3575757576	250.194794521
358	0.179	-6.3235131397	-8.9206	-52.0	267.086849315
359	0.1795	-4.91784232365	-7.514	-43.5363636364	279.755890411
360	0.18	-7.72918395574	-8.9206	-49.1787878788	296.647945205
361	0.1805	-4.91784232365	-10.3272	-49.1787878788	310.724657534
362	0.181	-4.91784232365	-7.514	-50.5893939394	319.170684932
363	0.1815	-18.9745504841	-8.9206	-52.0	327.616712329
364	0.182	-16.163208852	-10.3272	-52.0	321.986027397
365	0.1825	-10.5405255878	-10.3272	-52.0	336.062739726
366	0.183	-9.13485477178	-10.3272	-57.6424242424	323.39369863
367	0.1835	-9.13485477178	-8.9206	-56.2318181818	317.763013699
368	0.184	-7.72918395574	-6.1074	-63.2848484848	319.170684932
369	0.1845	-9.13485477178	-1.8876	-60.4636363636	314.947671233
370	0.185	-10.5405255878	-10.3272	-57.6424242424	320.578356164
371	0.1855	-7.72918395574	-13.1404	-60.4636363636	323.39369863
372	0.186	-9.13485477178	0.9256	-61.8742424242	326.209041096
373	0.1865	-9.13485477178	-3.2942	-60.4636363636	330.432054795
374	0.187	-11.9461964039	-3.2942	-60.4636363636	329.024383562
375	0.1875	-2.10650069156	-1.8876	-60.4636363636	326.209041096
376	0.188	-7.72918395574	-1.8876	-60.4636363636	326.209041096
377	0.1885	-6.3235131397	-1.8876	-64.6954545455	299.463287671
378	0.189	-9.13485477178	0.9256	-63.2848484848	283.97890411
379	0.1895	-4.91784232365	-1.8876	-70.3378787879	298.055616438
380	0.19	-7.72918395574	-3.2942	-81.6227272727	264.271506849
381	0.1905	-3.51217150761	-1.8876	-75.9803030303	261.456164384
382	0.191	-4.91784232365	0.9256	-78.8015151515	245.971780822
383	0.1915	-6.3235131397	-1.8876	-85.8545454545	229.079726027
384	0.192	-6.3235131397	-4.7008	-81.6227272727	209.372328767
385	0.1925	-3.51217150761	-6.1074	-81.6227272727	195.295616438
386	0.193	-17.568879668	-0.481	-83.0333333333	171.365205479
387	0.1935	-14.757538036	-1.8876	-85.8545454545	151.657808219
388	0.194	-16.163208852	-1.8876	-84.4439393939	130.542739726
389	0.1945	-3.51217150761	-3.2942	-84.4439393939	129.135068493
390	0.195	-4.91784232365	-0.481	-84.4439393939	126.319726027
391	0.1955	-4.91784232365	3.7388	-85.8545454545	112.243013699
392	0.196	-4.91784232365	2.3322	-95.7287878788	99.5739726027
393	0.1965	-3.51217150761	-0.481	-90.0863636364	91.1279452055
394	0.197	-4.91784232365	3.7388	-88.6757575758	79.8665753425
395	0.1975	-0.700829875519	19.2114	-85.8545454545	70.0128767123
396	0.198	-4.91784232365	-0.481	-90.0863636364	61.5668493151
397	0.1985	-2.10650069156	2.3322	-91.496969697	62.9745205479
398	0.199	0.704840940526	6.552	-91.496969697	65.7898630137
399	0.1995	-10.5405255878	6.552	-90.0863636364	62.9745205479
400	0.2	-10.5405255878	5.1454	-85.8545454545	50.3054794521
401	0.2005	-0.700829875519	2.3322	-85.8545454545	78.4589041096
402	0.201	-4.91784232365	2.3322	-83.0333333333	51.7131506849
403	0.2015	-3.51217150761	2.3322	-74.5696969697	55.9361643836
404	0.202	-3.51217150761	0.9256	-85.8545454545	54.5284931507
405	0.2025	-3.51217150761	5.1454	-83.0333333333	51.7131506849
406	0.203	-3.51217150761	-8.9206	-80.2121212121	50.3054794521
407	0.2035	-2.10650069156	-8.9206	-77.3909090909	44.6747945205
408	0.204	-0.700829875519	5.1454	-71.7484848485	46.0824657534
409	0.2045	-4.91784232365	5.1454	-70.3378787879	39.044109589
410	0.205	3.51618257261	3.7388	-68.9272727273	37.6364383562
411	0.2055	11.9502074689	7.9586	-64.6954545455	34.8210958904
412	0.206	-9.13485477178	5.1454	-63.2848484848	23.5597260274
413	0.2065	-2.10650069156	5.1454	-60.4636363636	15.1136986301
414	0.207	-2.10650069156	6.552	-67.5166666667	16.521369863
415	0.2075	0.704840940526	3.7388	-40.7151515152	9.48301369863
416	0.208	2.11051175657	5.1454	-44.946969697	5.26
417	0.2085	2.11051175657	6.552	-54.8212121212	3.85232876712
418	0.209	2.11051175657	16.3982	-43.5363636364	-0.370684931507
419	0.2095	4.92185338866	17.8048	-44.946969697	-3.18602739726
420	0.21	-2.10650069156	-4.7008	-40.7151515152	-8.81671232877
421	0.2105	-3.51217150761	2.3322	-37.8939393939	-11.6320547945
422	0.211	16.167219917	3.7388	-37.8939393939	-17.262739726
423	0.2115	-7.72918395574	2.3322	-33.6621212121	-24.3010958904
424	0.212	-2.10650069156	2.3322	-33.6621212121	-11.6320547945
425	0.2125	2.11051175657	5.1454	-30.8409090909	-32.7471232877
426	0.213	-0.700829875519	3.7388	-6.86060606061	-22.8934246575
427	0.2135	3.51618257261	5.1454	-9.68181818182	-25.7087671233
428	0.214	2.11051175657	5.1454	-29.4303030303	-25.7087671233
429	0.2145	-4.91784232365	7.9586	-8.27121212121	-25.7087671233
430	0.215	-0.700829875519	0.9256	-16.7348484848	-27.1164383562
431	0.2155	3.51618257261	6.552	-15.3242424242	-24.3010958904
432	0.216	3.51618257261	-0.481	-12.503030303	-25.7087671233
433	0.2165	2.11051175657	6.552	-9.68181818182	-27.1164383562
434	0.217	18.9785615491	10.7718	-11.0924242424	-28.524109589
435	0.2175	-10.5405255878	7.9586	-9.68181818182	-34.1547945205
436	0.218	-2.10650069156	9.3652	-11.0924242424	-17.262739726
437	0.2185	0.704840940526	10.7718	-12.503030303	-24.3010958904
438	0.219	-0.700829875519	9.3652	-11.0924242424	-44.0084931507
439	0.2195	3.51618257261	6.552	-1.21818181818	-39.7854794521
440	0.22	0.704840940526	5.1454	-8.27121212121	-42.6008219178
441	0.2205	-0.700829875519	9.3652	-4.03939393939	-39.7854794521
442	0.221	7.73319502075	22.0246	-1.21818181818	-41.1931506849
443	0.2215	2.11051175657	-4.7008	1.60303030303	-39.7854794521
444	0.222	-2.10650069156	-1.8876	0.192424242424	-39.7854794521
445	0.2225	-3.51217150761	22.0246	3.01363636364	-38.3778082192
446	0.223	16.167219917	5.1454	4.42424242424	-38.3778082192
447	0.2235	7.73319502075	3.7388	5.83484848485	-39.7854794521
448	0.224	0.704840940526	5.1454	3.01363636364	-45.4161643836
449	0.2245	-0.700829875519	3.7388	8.65606060606	-36.9701369863
450	0.225	0.704840940526	0.9256	5.83484848485	-34.1547945205
451	0.2255	3.51618257261	-0.481	4.42424242424	-38.3778082192
452	0.226	-0.700829875519	0.9256	4.42424242424	-56.6775342466
453	0.2265	2.11051175657	2.3322	8.65606060606	-59.4928767123
454	0.227	0.704840940526	-13.1404	7.24545454545	-62.3082191781
455	0.2275	0.704840940526	-10.3272	7.24545454545	-63.715890411
456	0.228	4.92185338866	-6.1074	7.24545454545	-63.715890411
457	0.2285	4.92185338866	5.1454	7.24545454545	-63.715890411
458	0.229	0.704840940526	2.3322	8.65606060606	-66.5312328767
459	0.2295	-3.51217150761	-0.481	11.4772727273	-67.9389041096
460	0.23	-6.3235131397	0.9256	8.65606060606	-66.5312328767
461	0.2305	0.704840940526	0.9256	4.42424242424	-65.1235616438
462	0.231	2.11051175657	3.7388	25.5833333333	-62.3082191781
463	0.2315	0.704840940526	5.1454	1.60303030303	-60.9005479452
464	0.232	-0.700829875519	3.7388	7.24545454545	-60.9005479452
465	0.2325	0.704840940526	-1.8876	18.5303030303	-60.9005479452
466	0.233	-0.700829875519	-6.1074	15.7090909091	-62.3082191781
467	0.2335	0.704840940526	3.7388	15.7090909091	-62.3082191781
468	0.234	-3.51217150761	3.7388	18.5303030303	-60.9005479452
469	0.2345	4.92185338866	5.1454	15.7090909091	-59.4928767123
470	0.235	4.92185338866	2.3322	15.7090909091	-65.1235616438
471	0.2355	-2.10650069156	5.1454	19.9409090909	-70.7542465753
472	0.236	0.704840940526	6.552	4.42424242424	-58.0852054795
473	0.2365	-0.700829875519	5.1454	14.2984848485	-44.0084931507
474	0.237	-0.700829875519	6.552	24.1727272727	-56.6775342466
475	0.2375	0.704840940526	5.1454	14.2984848485	-53.8621917808
476	0.238	-2.10650069156	7.9586	12.8878787879	-51.0468493151
477	0.2385	2.11051175657	24.8378	12.8878787879	-48.2315068493
478	0.239	2.11051175657	22.0246	12.8878787879	-51.0468493151
479	0.2395	-0.700829875519	7.9586	14.2984848485	-48.2315068493
480	0.24	13.3558782849	2.3322	14.2984848485	-55.2698630137
481	0.2405	18.9785615491	5.1454	12.8878787879	-51.0468493151
482	0.241	-7.72918395574	6.552	10.0666666667	-52.4545205479
483	0.2415	-6.3235131397	6.552	7.24545454545	-44.0084931507
484	0.242	0.704840940526	3.7388	7.24545454545	-36.9701369863
485	0.2425	0.704840940526	3.7388	4.42424242424	-58.0852054795
486	0.243	-0.700829875519	3.7388	7.24545454545	-52.4545205479
487	0.2435	0.704840940526	-0.481	8.65606060606	-58.0852054795
488	0.244	2.11051175657	16.3982	5.83484848485	-56.6775342466
489	0.2445	-0.700829875519	7.9586	11.4772727273	-56.6775342466
490	0.245	3.51618257261	2.3322	8.65606060606	-55.2698630137
491	0.2455	3.51618257261	3.7388	7.24545454545	-59.4928767123
492	0.246	-10.5405255878	0.9256	8.65606060606	-59.4928767123
493	0.2465	-9.13485477178	2.3322	14.2984848485	-59.4928767123
494	0.247	-0.700829875519	0.9256	12.8878787879	-51.0468493151
495	0.2475	-0.700829875519	3.7388	15.7090909091	-59.4928767123
496	0.248	-2.10650069156	2.3322	0.192424242424	-59.4928767123
497	0.2485	-2.10650069156	3.7388	28.4045454545	-56.6775342466
498	0.249	-0.700829875519	6.552	14.2984848485	-56.6775342466
499	0.2495	-2.10650069156	-0.481	14.2984848485	-58.0852054795
500	0.25	0.704840940526	2.3322	14.2984848485	-58.0852054795
501	0.2505	-3.51217150761	6.552	15.7090909091	-53.8621917808
502	0.251	-10.5405255878	3.7388	14.2984848485	-53.8621917808
503	0.2515	16.167219917	5.1454	12.8878787879	-49.6391780822
504	0.252	17.5728907331	6.552	14.2984848485	-48.2315068493
505	0.2525	-10.5405255878	5.1454	14.2984848485	-56.6775342466
506	0.253	0.704840940526	5.1454	14.2984848485	-39.7854794521
507	0.2535	0.704840940526	6.552	22.7621212121	-48.2315068493
508	0.254	-0.700829875519	5.1454	3.01363636364	-44.0084931507
509	0.2545	-0.700829875519	0.9256	7.24545454545	-44.0084931507
510	0.255	-0.700829875519	0.9256	18.5303030303	-42.6008219178
511	0.2555	-0.700829875519	7.9586	17.1196969697	-39.7854794521
512	0.256	-2.10650069156	2.3322	14.2984848485	-38.3778082192
513	0.2565	2.11051175657	5.1454	14.2984848485	-42.6008219178
514	0.257	2.11051175657	5.1454	12.8878787879	-44.0084931507
515	0.2575	-7.72918395574	2.3322	11.4772727273	-45.4161643836
516	0.258	-3.51217150761	5.1454	12.8878787879	-34.1547945205
517	0.2585	0.704840940526	6.552	15.7090909091	-55.2698630137
518	0.259	0.704840940526	3.7388	11.4772727273	-35.5624657534
519	0.2595	-0.700829875519	5.1454	3.01363636364	-51.0468493151
520	0.26	0.704840940526	6.552	5.83484848485	-52.4545205479
521	0.2605	-0.700829875519	-7.514	8.65606060606	-51.0468493151
522	0.261	-0.700829875519	-4.7008	12.8878787879	-49.6391780822
523	0.2615	0.704840940526	13.585	11.4772727273	-52.4545205479
524	0.262	-13.3518672199	5.1454	8.65606060606	-49.6391780822
525	0.2625	-14.757538036	5.1454	11.4772727273	-51.0468493151
526	0.263	16.167219917	6.552	12.8878787879	-48.2315068493
527	0.2635	-7.72918395574	7.9586	14.2984848485	-46.8238356164
528	0.264	-0.700829875519	6.552	14.2984848485	-46.8238356164
529	0.2645	0.704840940526	3.7388	8.65606060606	-39.7854794521
530	0.265	0.704840940526	3.7388	4.42424242424	-46.8238356164
531	0.2655	0.704840940526	5.1454	7.24545454545	-48.2315068493
532	0.266	-0.700829875519	3.7388	8.65606060606	-48.2315068493
533	0.2665	-2.10650069156	5.1454	8.65606060606	-49.6391780822
534	0.267	-2.10650069156	10.7718	11.4772727273	-49.6391780822
535	0.2675	0.704840940526	-1.8876	7.24545454545	-51.0468493151
536	0.268	-14.757538036	0.9256	11.4772727273	-51.0468493151
537	0.2685	-9.13485477178	0.9256	11.4772727273	-51.0468493151
538	0.269	9.13886583679	2.3322	14.2984848485	-52.4545205479
539	0.2695	-2.10650069156	0.9256	18.5303030303	-45.4161643836
540	0.27	-0.700829875519	2.3322	12.8878787879	-34.1547945205
541	0.2705	-2.10650069156	5.1454	11.4772727273	-28.524109589
542	0.271	-0.700829875519	6.552	24.1727272727	-42.6008219178
543	0.2715	-2.10650069156	3.7388	19.9409090909	-39.7854794521
544	0.272	-3.51217150761	-6.1074	12.8878787879	-39.7854794521
545	0.2725	-2.10650069156	17.8048	12.8878787879	-38.3778082192
546	0.273	-2.10650069156	22.0246	12.8878787879	-38.3778082192
547	0.2735	0.704840940526	0.9256	11.4772727273	-38.3778082192
548	0.274	-11.9461964039	2.3322	12.8878787879	-42.6008219178
549	0.2745	7.73319502075	-0.481	12.8878787879	-45.4161643836
550	0.275	-7.72918395574	0.9256	15.7090909091	-29.9317808219
551	0.2755	-3.51217150761	3.7388	15.7090909091	-27.1164383562
552	0.276	-0.700829875519	0.9256	14.2984848485	-51.0468493151
553	0.2765	-0.700829875519	0.9256	12.8878787879	-49.6391780822
554	0.277	-2.10650069156	0.9256	15.7090909091	-46.8238356164
555	0.2775	2.11051175657	-10.3272	22.7621212121	-46.8238356164
556	0.278	0.704840940526	17.8048	21.3515151515	-46.8238356164
557	0.2785	3.51618257261	13.585	17.1196969697	-48.2315068493
558	0.279	0.704840940526	-6.1074	21.3515151515	-49.6391780822
559	0.2795	11.9502074689	0.9256	19.9409090909	-46.8238356164
560	0.28	-10.5405255878	0.9256	19.9409090909	-58.0852054795
561	0.2805	-10.5405255878	5.1454	22.7621212121	-56.6775342466
562	0.281	0.704840940526	5.1454	19.9409090909	-39.7854794521
563	0.2815	0.704840940526	6.552	18.5303030303	-45.4161643836
564	0.282	-0.700829875519	2.3322	14.2984848485	-49.6391780822
565	0.2825	-0.700829875519	3.7388	7.24545454545	-45.4161643836
566	0.283	-2.10650069156	9.3652	15.7090909091	-46.8238356164
567	0.2835	-0.700829875519	3.7388	8.65606060606	-44.0084931507
568	0.284	-0.700829875519	2.3322	10.0666666667	-44.0084931507
569	0.2845	2.11051175657	0.9256	19.9409090909	-45.4161643836
570	0.285	0.704840940526	-1.8876	14.2984848485	-45.4161643836
571	0.2855	3.51618257261	-4.7008	8.65606060606	-41.1931506849
572	0.286	-11.9461964039	2.3322	8.65606060606	-42.6008219178
573	0.2865	-7.72918395574	5.1454	8.65606060606	-38.3778082192
574	0.287	-3.51217150761	3.7388	12.8878787879	-42.6008219178
575	0.2875	0.704840940526	6.552	14.2984848485	-42.6008219178
576	0.288	-0.700829875519	6.552	28.4045454545	-31.3394520548
577	0.2885	-2.10650069156	5.1454	-1.21818181818	-28.524109589
578	0.289	-2.10650069156	6.552	7.24545454545	-28.524109589
579	0.2895	-0.700829875519	5.1454	5.83484848485	-29.9317808219
580	0.29	-2.10650069156	19.2114	8.65606060606	-31.3394520548
581	0.2905	-7.72918395574	-6.1074	7.24545454545	-32.7471232877
582	0.291	-10.5405255878	2.3322	4.42424242424	-34.1547945205
583	0.2915	10.5445366528	0.9256	4.42424242424	-42.6008219178
584	0.292	2.11051175657	3.7388	5.83484848485	-45.4161643836
585	0.2925	-4.91784232365	2.3322	4.42424242424	-35.5624657534
586	0.293	-4.91784232365	2.3322	-5.45	-42.6008219178
587	0.2935	-3.51217150761	0.9256	4.42424242424	-52.4545205479
588	0.294	-2.10650069156	2.3322	11.4772727273	-44.0084931507
589	0.2945	0.704840940526	5.1454	-1.21818181818	-45.4161643836
590	0.295	-2.10650069156	6.552	0.192424242424	-45.4161643836
591	0.2955	-0.700829875519	-6.1074	4.42424242424	-46.8238356164
592	0.296	-2.10650069156	-4.7008	3.01363636364	-45.4161643836
593	0.2965	2.11051175657	9.3652	5.83484848485	-38.3778082192
594	0.297	-4.91784232365	5.1454	7.24545454545	-41.1931506849
595	0.2975	-10.5405255878	5.1454	11.4772727273	-48.2315068493
596	0.298	-0.700829875519	5.1454	10.0666666667	-18.6704109589
597	0.2985	0.704840940526	2.3322	11.4772727273	-38.3778082192
598	0.299	-0.700829875519	3.7388	11.4772727273	-34.1547945205
599	0.2995	-2.10650069156	3.7388	4.42424242424	-35.5624657534
600	0.3	-2.10650069156	13.585	14.2984848485	-36.9701369863
601	0.3005	-2.10650069156	7.9586	11.4772727273	-34.1547945205
602	0.301	0.704840940526	-1.8876	11.4772727273	-34.1547945205
603	0.3015	0.704840940526	-1.8876	14.2984848485	-36.9701369863
604	0.302	-0.700829875519	10.7718	12.8878787879	-36.9701369863
605	0.3025	-11.9461964039	5.1454	11.4772727273	-41.1931506849
606	0.303	-13.3518672199	2.3322	14.2984848485	-42.6008219178
607	0.3035	-2.10650069156	0.9256	14.2984848485	-29.9317808219
608	0.304	-3.51217150761	3.7388	18.5303030303	-28.524109589
609	0.3045	-2.10650069156	2.3322	3.01363636364	-34.1547945205
610	0.305	-4.91784232365	0.9256	32.6363636364	-34.1547945205
611	0.3055	-3.51217150761	3.7388	28.4045454545	-34.1547945205
612	0.306	-2.10650069156	-1.8876	15.7090909091	-32.7471232877
613	0.3065	-2.10650069156	9.3652	11.4772727273	-35.5624657534
614	0.307	-2.10650069156	13.585	7.24545454545	-36.9701369863
615	0.3075	0.704840940526	0.9256	7.24545454545	-36.9701369863
616	0.308	-16.163208852	0.9256	8.65606060606	-39.7854794521
617	0.3085	16.167219917	-1.8876	11.4772727273	-42.6008219178
618	0.309	-2.10650069156	-0.481	7.24545454545	-28.524109589
619	0.3095	-0.700829875519	-0.481	4.42424242424	-45.4161643836
620	0.31	-2.10650069156	-0.481	-1.21818181818	-48.2315068493
621	0.3105	-2.10650069156	-1.8876	8.65606060606	-44.0084931507
622	0.311	2.11051175657	-0.481	19.9409090909	-45.4161643836
623	0.3115	-0.700829875519	-10.3272	7.24545454545	-44.0084931507
624	0.312	2.11051175657	-8.9206	7.24545454545	-48.2315068493
625	0.3125	-0.700829875519	13.585	7.24545454545	-48.2315068493
626	0.313	0.704840940526	-3.2942	7.24545454545	-45.4161643836
627	0.3135	3.51618257261	-1.8876	8.65606060606	-41.1931506849
628	0.314	17.5728907331	-0.481	14.2984848485	-44.0084931507
629	0.3145	-7.72918395574	-0.481	8.65606060606	-42.6008219178
630	0.315	-0.700829875519	-1.8876	12.8878787879	-38.3778082192
631	0.3155	-2.10650069156	0.9256	15.7090909091	-49.6391780822
632	0.316	-0.700829875519	2.3322	11.4772727273	-46.8238356164
633	0.3165	-3.51217150761	0.9256	21.3515151515	-44.0084931507
634	0.317	-0.700829875519	-0.481	15.7090909091	-38.3778082192
635	0.3175	-0.700829875519	16.3982	12.8878787879	-39.7854794521
636	0.318	2.11051175657	17.8048	12.8878787879	-38.3778082192
637	0.3185	-0.700829875519	-8.9206	10.0666666667	-36.9701369863
638	0.319	-0.700829875519	2.3322	12.8878787879	-38.3778082192
639	0.3195	-0.700829875519	2.3322	12.8878787879	-48.2315068493
640	0.32	-3.51217150761	2.3322	12.8878787879	-36.9701369863
641	0.3205	-3.51217150761	2.3322	10.0666666667	-18.6704109589
642	0.321	-4.91784232365	3.7388	15.7090909091	-42.6008219178
643	0.3215	-6.3235131397	3.7388	14.2984848485	-20.0780821918
644	0.322	-6.3235131397	5.1454	8.65606060606	-31.3394520548
645	0.3225	-2.10650069156	9.3652	5.83484848485	-32.7471232877
646	0.323	-4.91784232365	-3.2942	11.4772727273	-31.3394520548
647	0.3235	-3.51217150761	-3.2942	4.42424242424	-34.1547945205
648	0.324	-4.91784232365	3.7388	4.42424242424	-32.7471232877
649	0.3245	-3.51217150761	3.7388	4.42424242424	-31.3394520548
650	0.325	3.51618257261	2.3322	3.01363636364	-28.524109589
651	0.3255	10.5445366528	6.552	4.42424242424	-29.9317808219
652	0.326	-0.700829875519	3.7388	0.192424242424	-45.4161643836
653	0.3265	-2.10650069156	2.3322	5.83484848485	-46.8238356164
654	0.327	-2.10650069156	0.9256	-2.62878787879	-42.6008219178
655	0.3275	-0.700829875519	2.3322	0.192424242424	-46.8238356164
656	0.328	0.704840940526	2.3322	3.01363636364	-41.1931506849
657	0.3285	-2.10650069156	-10.3272	4.42424242424	-41.1931506849
658	0.329	-3.51217150761	-8.9206	1.60303030303	-42.6008219178
659	0.3295	-3.51217150761	-3.2942	5.83484848485	-42.6008219178
660	0.33	-10.5405255878	2.3322	1.60303030303	-44.0084931507
661	0.3305	-14.757538036	3.7388	3.01363636364	-41.1931506849
662	0.331	16.167219917	0.9256	5.83484848485	-35.5624657534
663	0.3315	-13.3518672199	2.3322	5.83484848485	-41.1931506849
664	0.332	-0.700829875519	5.1454	8.65606060606	-48.2315068493
665	0.3325	-2.10650069156	3.7388	14.2984848485	-38.3778082192
666	0.333	-3.51217150761	-0.481	3.01363636364	-36.9701369863
667	0.3335	-2.10650069156	2.3322	25.5833333333	-35.5624657534
668	0.334	-0.700829875519	-0.481	12.8878787879	-34.1547945205
669	0.3345	-0.700829875519	-3.2942	5.83484848485	-34.1547945205
670	0.335	0.704840940526	7.9586	14.2984848485	-32.7471232877
671	0.3355	-0.700829875519	-0.481	18.5303030303	-35.5624657534
672	0.336	-10.5405255878	2.3322	18.5303030303	-32.7471232877
673	0.3365	9.13886583679	-1.8876	18.5303030303	-32.7471232877
674	0.337	2.11051175657	-0.481	18.5303030303	-35.5624657534
675	0.3375	2.11051175657	0.9256	17.1196969697	-34.1547945205
676	0.338	-0.700829875519	0.9256	17.1196969697	-35.5624657534
677	0.3385	-4.91784232365	2.3322	1.60303030303	-28.524109589
678	0.339	-3.51217150761	0.9256	1.60303030303	-28.524109589
679	0.3395	-3.51217150761	6.552	26.9939393939	-25.7087671233
680	0.34	-2.10650069156	6.552	12.8878787879	-31.3394520548
681	0.3405	-4.91784232365	-11.7338	14.2984848485	-31.3394520548
682	0.341	-3.51217150761	17.8048	11.4772727273	-34.1547945205
683	0.3415	-2.10650069156	16.3982	11.4772727273	-36.9701369863
684	0.342	-2.10650069156	-8.9206	11.4772727273	-35.5624657534
685	0.3425	-2.10650069156	0.9256	7.24545454545	-36.9701369863
686	0.343	-3.51217150761	0.9256	8.65606060606	-41.1931506849
687	0.3435	2.11051175657	-1.8876	7.24545454545	-42.6008219178
688	0.344	-0.700829875519	-0.481	11.4772727273	-45.4161643836
689	0.3445	-0.700829875519	-0.481	-2.62878787879	-42.6008219178
690	0.345	-0.700829875519	0.9256	12.8878787879	-44.0084931507
691	0.3455	-0.700829875519	0.9256	26.9939393939	-42.6008219178
692	0.346	-2.10650069156	0.9256	5.83484848485	-41.1931506849
693	0.3465	-0.700829875519	-6.1074	11.4772727273	-36.9701369863
694	0.347	-0.700829875519	10.7718	11.4772727273	-38.3778082192
695	0.3475	-0.700829875519	-4.7008	12.8878787879	-35.5624657534
696	0.348	-2.10650069156	-4.7008	11.4772727273	-35.5624657534
697	0.3485	7.73319502075	0.9256	5.83484848485	-36.9701369863
698	0.349	0.704840940526	2.3322	7.24545454545	-39.7854794521
699	0.3495	-6.3235131397	0.9256	5.83484848485	-34.1547945205
700	0.35	-2.10650069156	0.9256	-4.03939393939	-39.7854794521
701	0.3505	-2.10650069156	-1.8876	15.7090909091	-35.5624657534
702	0.351	-3.51217150761	0.9256	15.7090909091	-34.1547945205
703	0.3515	-3.51217150761	0.9256	-5.45	-36.9701369863
704	0.352	-2.10650069156	0.9256	1.60303030303	-32.7471232877
705	0.3525	-3.51217150761	13.585	4.42424242424	-34.1547945205
706	0.353	-0.700829875519	19.2114	4.42424242424	-32.7471232877
707	0.3535	-4.91784232365	-6.1074	8.65606060606	-35.5624657534
708	0.354	-6.3235131397	-0.481	4.42424242424	-31.3394520548
709	0.3545	11.9502074689	-0.481	11.4772727273	-29.9317808219
710	0.355	4.92185338866	0.9256	5.83484848485	-34.1547945205
711	0.3555	-4.91784232365	0.9256	7.24545454545	-13.0397260274
712	0.356	-3.51217150761	0.9256	12.8878787879	-34.1547945205
713	0.3565	-4.91784232365	3.7388	14.2984848485	-24.3010958904
714	0.357	-4.91784232365	0.9256	4.42424242424	-25.7087671233
715	0.3575	-2.10650069156	3.7388	11.4772727273	-24.3010958904
716	0.358	-3.51217150761	-6.1074	7.24545454545	-27.1164383562
717	0.3585	-2.10650069156	19.2114	7.24545454545	-31.3394520548
718	0.359	0.704840940526	20.618	4.42424242424	-32.7471232877
719	0.3595	-7.72918395574	0.9256	7.24545454545	-35.5624657534
720	0.36	-4.91784232365	-0.481	4.42424242424	-35.5624657534
721	0.3605	7.73319502075	0.9256	7.24545454545	-44.0084931507
722	0.361	-3.51217150761	2.3322	11.4772727273	-39.7854794521
723	0.3615	-0.700829875519	0.9256	0.192424242424	-42.6008219178
724	0.362	-0.700829875519	0.9256	-1.21818181818	-46.8238356164
725	0.3625	0.704840940526	0.9256	17.1196969697	-48.2315068493
726	0.363	-2.10650069156	2.3322	28.4045454545	-39.7854794521
727	0.3635	-0.700829875519	-0.481	14.2984848485	-41.1931506849
728	0.364	-2.10650069156	-0.481	11.4772727273	-42.6008219178
729	0.3645	-0.700829875519	-0.481	14.2984848485	-39.7854794521
730	0.365	-2.10650069156	6.552	12.8878787879	-39.7854794521
731	0.3655	-9.13485477178	-4.7008	12.8878787879	-41.1931506849
732	0.366	7.73319502075	2.3322	8.65606060606	-34.1547945205
733	0.3665	-7.72918395574	0.9256	11.4772727273	-46.8238356164
734	0.367	-3.51217150761	3.7388	12.8878787879	-25.7087671233
735	0.3675	-4.91784232365	2.3322	11.4772727273	-34.1547945205
736	0.368	-4.91784232365	2.3322	-1.21818181818	-44.0084931507
737	0.3685	-3.51217150761	6.552	26.9939393939	-38.3778082192
738	0.369	-2.10650069156	6.552	1.60303030303	-35.5624657534
739	0.3695	-3.51217150761	3.7388	4.42424242424	-35.5624657534
740	0.37	0.704840940526	17.8048	8.65606060606	-34.1547945205
741	0.3705	-2.10650069156	20.618	11.4772727273	-32.7471232877
742	0.371	-6.3235131397	-6.1074	12.8878787879	-34.1547945205
743	0.3715	-11.9461964039	5.1454	12.8878787879	-31.3394520548
744	0.372	11.9502074689	3.7388	14.2984848485	-31.3394520548
745	0.3725	3.51618257261	5.1454	15.7090909091	-32.7471232877
746	0.373	-10.5405255878	3.7388	14.2984848485	-28.524109589
747	0.3735	-3.51217150761	5.1454	-2.62878787879	-28.524109589
748	0.374	-3.51217150761	3.7388	26.9939393939	-31.3394520548
749	0.3745	-2.10650069156	0.9256	1.60303030303	-32.7471232877
750	0.375	-3.51217150761	0.9256	0.192424242424	-32.7471232877
751	0.3755	-4.91784232365	-3.2942	7.24545454545	-32.7471232877
752	0.376	-3.51217150761	-4.7008	1.60303030303	-38.3778082192
753	0.3765	-3.51217150761	-1.8876	8.65606060606	-38.3778082192
754	0.377	-0.700829875519	-1.8876	5.83484848485	-39.7854794521
755	0.3775	-16.163208852	-1.8876	7.24545454545	-42.6008219178
756	0.378	7.73319502075	-0.481	7.24545454545	-39.7854794521
757	0.3785	-3.51217150761	0.9256	11.4772727273	-46.8238356164
758	0.379	-2.10650069156	-0.481	11.4772727273	-49.6391780822
759	0.3795	-0.700829875519	-0.481	0.192424242424	-44.0084931507
760	0.38	-3.51217150761	-1.8876	4.42424242424	-48.2315068493
761	0.3805	-3.51217150761	-0.481	11.4772727273	-42.6008219178
762	0.381	-3.51217150761	-11.7338	12.8878787879	-45.4161643836
763	0.3815	-2.10650069156	16.3982	12.8878787879	-46.8238356164
764	0.382	-2.10650069156	17.8048	8.65606060606	-44.0084931507
765	0.3825	0.704840940526	-6.1074	14.2984848485	-44.0084931507
766	0.383	-6.3235131397	3.7388	14.2984848485	-41.1931506849
767	0.3835	7.73319502075	0.9256	15.7090909091	-44.0084931507
768	0.384	-10.5405255878	-1.8876	15.7090909091	-39.7854794521
769	0.3845	-3.51217150761	2.3322	5.83484848485	-44.0084931507
770	0.385	-3.51217150761	2.3322	0.192424242424	-39.7854794521
771	0.3855	-0.700829875519	2.3322	18.5303030303	-41.1931506849
772	0.386	-3.51217150761	0.9256	32.6363636364	-38.3778082192
773	0.3865	-3.51217150761	0.9256	8.65606060606	-35.5624657534
774	0.387	-0.700829875519	0.9256	17.1196969697	-34.1547945205
775	0.3875	-3.51217150761	6.552	18.5303030303	-35.5624657534
776	0.388	-4.91784232365	7.9586	18.5303030303	-32.7471232877
777	0.3885	10.5445366528	2.3322	17.1196969697	-29.9317808219
778	0.389	16.167219917	3.7388	18.5303030303	-28.524109589
779	0.3895	-10.5405255878	3.7388	18.5303030303	-41.1931506849
780	0.39	-4.91784232365	5.1454	14.2984848485	-15.8550684932
781	0.3905	-3.51217150761	2.3322	14.2984848485	-34.1547945205
782	0.391	-3.51217150761	0.9256	12.8878787879	-29.9317808219
783	0.3915	-2.10650069156	-0.481	17.1196969697	-29.9317808219
784	0.392	-4.91784232365	3.7388	11.4772727273	-31.3394520548
785	0.3925	-4.91784232365	0.9256	14.2984848485	-32.7471232877
786	0.393	-2.10650069156	-11.7338	12.8878787879	-35.5624657534
787	0.3935	-4.91784232365	-10.3272	11.4772727273	-36.9701369863
788	0.394	0.704840940526	0.9256	11.4772727273	-39.7854794521
789	0.3945	4.92185338866	-1.8876	11.4772727273	-42.6008219178
790	0.395	2.11051175657	-0.481	14.2984848485	-49.6391780822
791	0.3955	-4.91784232365	-0.481	8.65606060606	-36.9701369863
792	0.396	-4.91784232365	-0.481	7.24545454545	-22.8934246575
793	0.3965	-3.51217150761	-1.8876	29.8151515152	-39.7854794521
794	0.397	-4.91784232365	3.7388	25.5833333333	-39.7854794521
795	0.3975	-3.51217150761	-0.481	5.83484848485	-36.9701369863
796	0.398	-3.51217150761	5.1454	8.65606060606	-36.9701369863
797	0.3985	-4.91784232365	-10.3272	11.4772727273	-41.1931506849
798	0.399	-4.91784232365	-8.9206	8.65606060606	-35.5624657534
799	0.3995	-0.700829875519	-0.481	8.65606060606	-34.1547945205
800	0.4	-3.51217150761	-1.8876	8.65606060606	-36.9701369863
801	0.4005	7.73319502075	-3.2942	11.4772727273	-36.9701369863
802	0.401	13.3558782849	-0.481	8.65606060606	-34.1547945205
803	0.4015	-2.10650069156	0.9256	11.4772727273	-46.8238356164
804	0.402	-3.51217150761	2.3322	5.83484848485	-34.1547945205
805	0.4025	-2.10650069156	3.7388	18.5303030303	-32.7471232877
806	0.403	-3.51217150761	2.3322	4.42424242424	-36.9701369863
807	0.4035	-3.51217150761	-0.481	11.4772727273	-32.7471232877
808	0.404	-2.10650069156	-10.3272	14.2984848485	-29.9317808219
809	0.4045	-4.91784232365	22.0246	14.2984848485	-31.3394520548
810	0.405	-3.51217150761	17.8048	12.8878787879	-29.9317808219
811	0.4055	-3.51217150761	-3.2942	15.7090909091	-28.524109589
812	0.406	2.11051175657	0.9256	14.2984848485	-28.524109589
813	0.4065	-6.3235131397	2.3322	14.2984848485	-27.1164383562
814	0.407	-7.72918395574	0.9256	14.2984848485	-31.3394520548
815	0.4075	-3.51217150761	3.7388	15.7090909091	-42.6008219178
816	0.408	-4.91784232365	0.9256	12.8878787879	-18.6704109589
817	0.4085	-0.700829875519	2.3322	11.4772727273	-24.3010958904
818	0.409	-3.51217150761	5.1454	12.8878787879	-35.5624657534
819	0.4095	-0.700829875519	0.9256	4.42424242424	-36.9701369863
820	0.41	-3.51217150761	-10.3272	12.8878787879	-39.7854794521
821	0.4105	-2.10650069156	14.9916	10.0666666667	-44.0084931507
822	0.411	-3.51217150761	10.7718	11.4772727273	-42.6008219178
823	0.4115	-10.5405255878	-3.2942	8.65606060606	-39.7854794521
824	0.412	6.3275242047	-1.8876	8.65606060606	-41.1931506849
825	0.4125	16.167219917	-0.481	12.8878787879	-44.0084931507
826	0.413	-10.5405255878	0.9256	11.4772727273	-49.6391780822
827	0.4135	-4.91784232365	-0.481	7.24545454545	-46.8238356164
828	0.414	-6.3235131397	-1.8876	8.65606060606	-39.7854794521
829	0.4145	-7.72918395574	0.9256	15.7090909091	-39.7854794521
830	0.415	-4.91784232365	-4.7008	4.42424242424	-41.1931506849
831	0.4155	-4.91784232365	-0.481	28.4045454545	-39.7854794521
832	0.416	-3.51217150761	14.9916	12.8878787879	-36.9701369863
833	0.4165	-3.51217150761	14.9916	12.8878787879	-36.9701369863
834	0.417	-4.91784232365	-4.7008	12.8878787879	-38.3778082192
835	0.4175	0.704840940526	-0.481	14.2984848485	-36.9701369863
836	0.418	2.11051175657	-1.8876	15.7090909091	-34.1547945205
837	0.4185	-6.3235131397	-1.8876	14.2984848485	-44.0084931507
838	0.419	-4.91784232365	-1.8876	17.1196969697	-15.8550684932
839	0.4195	-6.3235131397	-0.481	10.0666666667	-17.262739726
840	0.42	-3.51217150761	-1.8876	24.1727272727	-28.524109589
841	0.4205	-7.72918395574	-0.481	19.9409090909	-24.3010958904
842	0.421	-6.3235131397	0.9256	17.1196969697	-25.7087671233
843	0.4215	-6.3235131397	0.9256	11.4772727273	-24.3010958904
844	0.422	-3.51217150761	-6.1074	15.7090909091	-24.3010958904
845	0.4225	-4.91784232365	-4.7008	14.2984848485	-25.7087671233
846	0.423	-10.5405255878	2.3322	11.4772727273	-25.7087671233
847	0.4235	-16.163208852	3.7388	7.24545454545	-24.3010958904
848	0.424	-13.3518672199	2.3322	14.2984848485	-35.5624657534
849	0.4245	-3.51217150761	0.9256	5.83484848485	-27.1164383562
850	0.425	-6.3235131397	0.9256	14.2984848485	-32.7471232877
851	0.4255	-7.72918395574	0.9256	14.2984848485	-31.3394520548
852	0.426	-6.3235131397	0.9256	3.01363636364	-32.7471232877
853	0.4265	-6.3235131397	-1.8876	0.192424242424	-35.5624657534
854	0.427	-4.91784232365	3.7388	11.4772727273	-34.1547945205
855	0.4275	-4.91784232365	-10.3272	7.24545454545	-35.5624657534
856	0.428	-7.72918395574	-7.514	10.0666666667	-34.1547945205
857	0.4285	-4.91784232365	-3.2942	11.4772727273	-36.9701369863
858	0.429	-9.13485477178	-4.7008	12.8878787879	-39.7854794521
859	0.4295	-16.163208852	-7.514	12.8878787879	-36.9701369863
860	0.43	-6.3235131397	-4.7008	14.2984848485	-34.1547945205
861	0.4305	-3.51217150761	-4.7008	11.4772727273	-20.0780821918
862	0.431	-6.3235131397	-4.7008	12.8878787879	-44.0084931507
863	0.4315	-3.51217150761	-1.8876	7.24545454545	-29.9317808219
864	0.432	-6.3235131397	-4.7008	11.4772727273	-32.7471232877
865	0.4325	-6.3235131397	-0.481	11.4772727273	-31.3394520548
866	0.433	-4.91784232365	-11.7338	15.7090909091	-28.524109589
867	0.4335	-4.91784232365	9.3652	15.7090909091	-28.524109589
868	0.434	-6.3235131397	7.9586	15.7090909091	-29.9317808219
869	0.4345	-11.9461964039	-6.1074	19.9409090909	-25.7087671233
870	0.435	4.92185338866	-1.8876	18.5303030303	-22.8934246575
871	0.4355	-11.9461964039	-4.7008	17.1196969697	-20.0780821918
872	0.436	-16.163208852	-4.7008	15.7090909091	-24.3010958904
873	0.4365	-4.91784232365	-1.8876	14.2984848485	-14.4473972603
874	0.437	-4.91784232365	-1.8876	3.01363636364	-24.3010958904
875	0.4375	-6.3235131397	-1.8876	31.2257575758	-18.6704109589
876	0.438	-7.72918395574	-0.481	3.01363636364	-17.262739726
877	0.4385	-7.72918395574	0.9256	15.7090909091	-14.4473972603
878	0.439	-4.91784232365	7.9586	14.2984848485	-17.262739726
879	0.4395	-7.72918395574	-10.3272	12.8878787879	-13.0397260274
880	0.44	-9.13485477178	-11.7338	11.4772727273	-17.262739726
881	0.4405	-2.10650069156	-3.2942	7.24545454545	-13.0397260274
882	0.441	-10.5405255878	-6.1074	12.8878787879	-27.1164383562
883	0.4415	-3.51217150761	-4.7008	8.65606060606	-1.77835616438
884	0.442	-4.91784232365	-0.481	7.24545454545	-4.59369863014
885	0.4425	-4.91784232365	0.9256	7.24545454545	-18.6704109589
886	0.443	-4.91784232365	-3.2942	4.42424242424	-22.8934246575
887	0.4435	-4.91784232365	-4.7008	4.42424242424	-22.8934246575
888	0.444	-6.3235131397	-0.481	1.60303030303	-22.8934246575
889	0.4445	-6.3235131397	-1.8876	-1.21818181818	-24.3010958904
890	0.445	-4.91784232365	-6.1074	8.65606060606	-25.7087671233
891	0.4455	-4.91784232365	-4.7008	7.24545454545	-24.3010958904
892	0.446	-0.700829875519	-6.1074	5.83484848485	-22.8934246575
893	0.4465	13.3558782849	-0.481	11.4772727273	-18.6704109589
894	0.447	-14.757538036	-1.8876	8.65606060606	-27.1164383562
895	0.4475	-4.91784232365	-0.481	4.42424242424	-17.262739726
896	0.448	-4.91784232365	-0.481	5.83484848485	-6.00136986301
897	0.4485	-7.72918395574	0.9256	7.24545454545	-15.8550684932
898	0.449	-7.72918395574	-1.8876	8.65606060606	-15.8550684932
899	0.4495	-4.91784232365	-1.8876	21.3515151515	-14.4473972603
900	0.45	-4.91784232365	3.7388	11.4772727273	-13.0397260274
901	0.4505	-0.700829875519	17.8048	7.24545454545	-14.4473972603
902	0.451	-6.3235131397	-8.9206	11.4772727273	-11.6320547945
903	0.4515	-6.3235131397	-1.8876	12.8878787879	-13.0397260274
904	0.452	-14.757538036	2.3322	12.8878787879	-8.81671232877
905	0.4525	-10.5405255878	2.3322	15.7090909091	-15.8550684932
906	0.453	-4.91784232365	2.3322	18.5303030303	-6.00136986301
907	0.4535	-6.3235131397	0.9256	14.2984848485	-10.2243835616
908	0.454	-6.3235131397	0.9256	26.9939393939	-3.18602739726
909	0.4545	-6.3235131397	0.9256	1.60303030303	-1.77835616438
910	0.455	-4.91784232365	-0.481	1.60303030303	3.85232876712
911	0.4555	-2.10650069156	0.9256	19.9409090909	5.26
912	0.456	-3.51217150761	0.9256	8.65606060606	8.07534246575
913	0.4565	-7.72918395574	3.7388	8.65606060606	3.85232876712
914	0.457	-4.91784232365	5.1454	5.83484848485	6.66767123288
915	0.4575	-4.91784232365	5.1454	4.42424242424	3.85232876712
916	0.458	-3.51217150761	2.3322	4.42424242424	5.26
917	0.4585	-4.91784232365	3.7388	7.24545454545	-3.18602739726
918	0.459	-4.91784232365	0.9256	7.24545454545	3.85232876712
919	0.4595	-4.91784232365	3.7388	7.24545454545	-1.77835616438
920	0.46	-3.51217150761	-1.8876	-5.45	-7.40904109589
921	0.4605	-3.51217150761	-4.7008	-6.86060606061	-3.18602739726
922	0.461	-3.51217150761	-7.514	4.42424242424	-3.18602739726
923	0.4615	-2.10650069156	-0.481	5.83484848485	-7.40904109589
924	0.462	-4.91784232365	-7.514	3.01363636364	-6.00136986301
925	0.4625	0.704840940526	-3.2942	5.83484848485	-6.00136986301
926	0.463	13.3558782849	-4.7008	4.42424242424	-7.40904109589
927	0.4635	-6.3235131397	-0.481	5.83484848485	-0.370684931507
928	0.464	-2.10650069156	-1.8876	7.24545454545	-8.81671232877
929	0.4645	-4.91784232365	-3.2942	11.4772727273	-10.2243835616
930	0.465	-4.91784232365	-3.2942	1.60303030303	-3.18602739726
931	0.4655	-4.91784232365	-6.1074	3.01363636364	1.03698630137
932	0.466	-4.91784232365	-11.7338	11.4772727273	2.44465753425
933	0.4665	-3.51217150761	-13.1404	8.65606060606	1.03698630137
934	0.467	-3.51217150761	16.3982	7.24545454545	2.44465753425
935	0.4675	-4.91784232365	-0.481	7.24545454545	3.85232876712
936	0.468	-11.9461964039	-0.481	3.01363636364	3.85232876712
937	0.4685	10.5445366528	0.9256	4.42424242424	5.26
938	0.469	9.13886583679	-0.481	1.60303030303	9.48301369863
939	0.4695	-11.9461964039	0.9256	4.42424242424	9.48301369863
940	0.47	-4.91784232365	-0.481	-4.03939393939	9.48301369863
941	0.4705	-4.91784232365	2.3322	22.7621212121	12.2983561644
942	0.471	-6.3235131397	5.1454	-8.27121212121	16.521369863
943	0.4715	-6.3235131397	0.9256	-2.62878787879	16.521369863
944	0.472	-7.72918395574	3.7388	21.3515151515	16.521369863
945	0.4725	-4.91784232365	19.2114	3.01363636364	15.1136986301
946	0.473	-4.91784232365	-4.7008	4.42424242424	15.1136986301
947	0.4735	-4.91784232365	-1.8876	4.42424242424	15.1136986301
948	0.474	-0.700829875519	0.9256	3.01363636364	17.9290410959
949	0.4745	-7.72918395574	0.9256	1.60303030303	13.7060273973
950	0.475	-6.3235131397	-0.481	1.60303030303	13.7060273973
951	0.4755	-4.91784232365	0.9256	-1.21818181818	20.7443835616
952	0.476	-6.3235131397	2.3322	-6.86060606061	-0.370684931507
953	0.4765	-4.91784232365	0.9256	4.42424242424	3.85232876712
954	0.477	-3.51217150761	-0.481	5.83484848485	1.03698630137
955	0.4775	-4.91784232365	0.9256	14.2984848485	3.85232876712
956	0.478	-2.10650069156	2.3322	-2.62878787879	5.26
957	0.4785	-0.700829875519	10.7718	-2.62878787879	2.44465753425
958	0.479	-3.51217150761	-6.1074	-1.21818181818	1.03698630137
959	0.4795	-14.757538036	0.9256	0.192424242424	-1.77835616438
960	0.48	17.5728907331	-0.481	0.192424242424	3.85232876712
961	0.4805	-10.5405255878	0.9256	3.01363636364	-6.00136986301
962	0.481	-11.9461964039	-1.8876	1.60303030303	-1.77835616438
963	0.4815	-2.10650069156	-0.481	3.01363636364	19.3367123288
964	0.482	-4.91784232365	0.9256	8.65606060606	9.48301369863
965	0.4825	-3.51217150761	-1.8876	11.4772727273	12.2983561644
966	0.483	-4.91784232365	-1.8876	7.24545454545	9.48301369863
967	0.4835	-3.51217150761	-0.481	-1.21818181818	15.1136986301
968	0.484	-3.51217150761	10.7718	1.60303030303	15.1136986301
969	0.4845	-6.3235131397	-7.514	1.60303030303	15.1136986301
970	0.485	-4.91784232365	-1.8876	3.01363636364	15.1136986301
971	0.4855	-0.700829875519	-1.8876	1.60303030303	16.521369863
972	0.486	16.167219917	-1.8876	1.60303030303	19.3367123288
973	0.4865	-14.757538036	-0.481	3.01363636364	8.07534246575
974	0.487	-4.91784232365	-0.481	-1.21818181818	34.8210958904
975	0.4875	-4.91784232365	-0.481	-1.21818181818	13.7060273973
976	0.488	-3.51217150761	2.3322	15.7090909091	22.1520547945
977	0.4885	-4.91784232365	2.3322	8.65606060606	26.3750684932
978	0.489	-4.91784232365	3.7388	-2.62878787879	27.782739726
979	0.4895	-3.51217150761	2.3322	3.01363636364	27.782739726
980	0.49	-3.51217150761	-0.481	-1.21818181818	26.3750684932
981	0.4905	-7.72918395574	-0.481	-1.21818181818	24.9673972603
982	0.491	0.704840940526	2.3322	-2.62878787879	23.5597260274
983	0.4915	-14.757538036	2.3322	0.192424242424	19.3367123288
984	0.492	-14.757538036	2.3322	1.60303030303	2.44465753425
985	0.4925	-3.51217150761	2.3322	1.60303030303	16.521369863
986	0.493	-2.10650069156	3.7388	-1.21818181818	26.3750684932
987	0.4935	-2.10650069156	2.3322	-2.62878787879	1.03698630137
988	0.494	-2.10650069156	-0.481	-2.62878787879	8.07534246575
989	0.4945	-2.10650069156	0.9256	-6.86060606061	8.07534246575
990	0.495	-2.10650069156	3.7388	3.01363636364	8.07534246575
991	0.4955	-2.10650069156	0.9256	-4.03939393939	9.48301369863
992	0.496	-2.10650069156	-10.3272	0.192424242424	8.07534246575
993	0.4965	-4.91784232365	19.2114	0.192424242424	5.26
994	0.497	-6.3235131397	2.3322	4.42424242424	6.66767123288
995	0.4975	0.704840940526	3.7388	0.192424242424	13.7060273973
996	0.498	3.51618257261	3.7388	3.01363636364	9.48301369863
997	0.4985	-9.13485477178	3.7388	1.60303030303	-3.18602739726
998	0.499	-3.51217150761	5.1454	1.60303030303	-1.77835616438
999	0.4995	-4.91784232365	2.3322	-5.45	9.48301369863
1000	0.5	-3.51217150761	3.7388	3.01363636364	9.48301369863
1001	0.5005	-3.51217150761	0.9256	1.60303030303	12.2983561644
1002	0.501	-3.51217150761	6.552	-2.62878787879	13.7060273973
1003	0.5015	-0.700829875519	17.8048	-1.21818181818	12.2983561644
1004	0.502	-2.10650069156	-8.9206	-1.21818181818	13.7060273973
1005	0.5025	-3.51217150761	-7.514	-2.62878787879	15.1136986301
1006	0.503	-4.91784232365	13.585	-2.62878787879	16.521369863
1007	0.5035	-2.10650069156	2.3322	-4.03939393939	22.1520547945
1008	0.504	-3.51217150761	-0.481	-4.03939393939	19.3367123288
1009	0.5045	-3.51217150761	-0.481	0.192424242424	17.9290410959
1010	0.505	-6.3235131397	2.3322	-12.503030303	20.7443835616
1011	0.5055	-4.91784232365	2.3322	-12.503030303	20.7443835616
1012	0.506	-2.10650069156	2.3322	11.4772727273	23.5597260274
1013	0.5065	-4.91784232365	-0.481	-2.62878787879	23.5597260274
1014	0.507	-4.91784232365	-1.8876	-6.86060606061	22.1520547945
1015	0.5075	-4.91784232365	14.9916	-1.21818181818	20.7443835616
1016	0.508	-2.10650069156	-0.481	-2.62878787879	20.7443835616
1017	0.5085	-17.568879668	2.3322	-2.62878787879	15.1136986301
1018	0.509	16.167219917	2.3322	-2.62878787879	19.3367123288
1019	0.5095	-10.5405255878	5.1454	-4.03939393939	-0.370684931507
1020	0.51	-10.5405255878	2.3322	-2.62878787879	-1.77835616438
1021	0.5105	-0.700829875519	2.3322	-5.45	5.26
1022	0.511	-3.51217150761	3.7388	0.192424242424	8.07534246575
1023	0.5115	-2.10650069156	2.3322	-2.62878787879	3.85232876712
1024	0.512	-0.700829875519	2.3322	-4.03939393939	-0.370684931507
1025	0.5125	-3.51217150761	2.3322	-9.68181818182	-0.370684931507
1026	0.513	0.704840940526	-11.7338	-6.86060606061	2.44465753425
1027	0.5135	-4.91784232365	-8.9206	-8.27121212121	5.26
1028	0.514	0.704840940526	-1.8876	-6.86060606061	8.07534246575
1029	0.5145	-3.51217150761	-1.8876	-8.27121212121	8.07534246575
1030	0.515	-2.10650069156	0.9256	-12.503030303	12.2983561644
1031	0.5155	-9.13485477178	2.3322	-9.68181818182	15.1136986301
1032	0.516	-7.72918395574	-0.481	-9.68181818182	26.3750684932
1033	0.5165	-4.91784232365	3.7388	-6.86060606061	9.48301369863
1034	0.517	-3.51217150761	5.1454	-6.86060606061	27.782739726
1035	0.5175	-4.91784232365	6.552	-18.1454545455	13.7060273973
1036	0.518	-0.700829875519	6.552	-15.3242424242	15.1136986301
1037	0.5185	-2.10650069156	-4.7008	-8.27121212121	15.1136986301
1038	0.519	-4.91784232365	-4.7008	-11.0924242424	19.3367123288
1039	0.5195	-4.91784232365	23.4312	-5.45	17.9290410959
1040	0.52	-3.51217150761	6.552	-4.03939393939	19.3367123288
1041	0.5205	-0.700829875519	6.552	-1.21818181818	22.1520547945
1042	0.521	3.51618257261	6.552	-4.03939393939	22.1520547945
1043	0.5215	-7.72918395574	5.1454	-2.62878787879	40.4517808219
1044	0.522	-6.3235131397	3.7388	0.192424242424	17.9290410959
1045	0.5225	-3.51217150761	3.7388	-4.03939393939	24.9673972603
1046	0.523	-4.91784232365	5.1454	-2.62878787879	30.5980821918
1047	0.5235	-6.3235131397	6.552	-4.03939393939	22.1520547945
1048	0.524	-4.91784232365	-8.9206	-1.21818181818	20.7443835616
1049	0.5245	-3.51217150761	-6.1074	0.192424242424	15.1136986301
1050	0.525	-3.51217150761	17.8048	0.192424242424	13.7060273973
1051	0.5255	-13.3518672199	0.9256	0.192424242424	15.1136986301
1052	0.526	9.13886583679	3.7388	1.60303030303	12.2983561644
1053	0.5265	13.3558782849	0.9256	-1.21818181818	9.48301369863
1054	0.527	-9.13485477178	2.3322	0.192424242424	-6.00136986301
1055	0.5275	-2.10650069156	-0.481	-1.21818181818	-3.18602739726
1056	0.528	-3.51217150761	0.9256	-5.45	20.7443835616
1057	0.5285	-3.51217150761	0.9256	-4.03939393939	15.1136986301
1058	0.529	-4.91784232365	3.7388	-6.86060606061	3.85232876712
1059	0.5295	-2.10650069156	-7.514	-2.62878787879	6.66767123288
1060	0.53	-2.10650069156	-6.1074	-5.45	8.07534246575
1061	0.5305	0.704840940526	23.4312	-2.62878787879	5.26
1062	0.531	-2.10650069156	5.1454	-4.03939393939	8.07534246575
1063	0.5315	-0.700829875519	2.3322	-4.03939393939	9.48301369863
1064	0.532	10.5445366528	0.9256	-6.86060606061	15.1136986301
1065	0.5325	-9.13485477178	2.3322	-5.45	8.07534246575
1066	0.533	-3.51217150761	6.552	-2.62878787879	-1.77835616438
1067	0.5335	-0.700829875519	2.3322	-6.86060606061	9.48301369863
1068	0.534	-0.700829875519	6.552	3.01363636364	8.07534246575
1069	0.5345	-2.10650069156	2.3322	-13.9136363636	8.07534246575
1070	0.535	-4.91784232365	7.9586	-5.45	6.66767123288
1071	0.5355	-2.10650069156	0.9256	-6.86060606061	5.26
1072	0.536	-3.51217150761	13.585	-5.45	8.07534246575
1073	0.5365	3.51618257261	2.3322	-4.03939393939	8.07534246575
1074	0.537	0.704840940526	-3.2942	-2.62878787879	9.48301369863
1075	0.5375	-11.9461964039	-0.481	0.192424242424	8.07534246575
1076	0.538	-11.9461964039	-0.481	0.192424242424	6.66767123288
1077	0.5385	-4.91784232365	-1.8876	3.01363636364	19.3367123288
1078	0.539	-4.91784232365	-1.8876	3.01363636364	22.1520547945
1079	0.5395	-4.91784232365	0.9256	-11.0924242424	16.521369863
1080	0.54	-4.91784232365	-4.7008	-11.0924242424	12.2983561644
1081	0.5405	-4.91784232365	-6.1074	-1.21818181818	12.2983561644
1082	0.541	-3.51217150761	-10.3272	-6.86060606061	6.66767123288
1083	0.5415	0.704840940526	6.552	-4.03939393939	2.44465753425
1084	0.542	-2.10650069156	-3.2942	-1.21818181818	2.44465753425
1085	0.5425	-2.10650069156	-3.2942	-2.62878787879	3.85232876712
1086	0.543	-0.700829875519	-0.481	-4.03939393939	-1.77835616438
1087	0.5435	4.92185338866	-1.8876	-2.62878787879	-4.59369863014
1088	0.544	0.704840940526	0.9256	-1.21818181818	-13.0397260274
1089	0.5445	0.704840940526	0.9256	3.01363636364	-15.8550684932
1090	0.545	-2.10650069156	-0.481	-5.45	-4.59369863014
1091	0.5455	-4.91784232365	-0.481	0.192424242424	-7.40904109589
1092	0.546	-3.51217150761	2.3322	-1.21818181818	-6.00136986301
1093	0.5465	-3.51217150761	-10.3272	-1.21818181818	-3.18602739726
1094	0.547	-3.51217150761	19.2114	-1.21818181818	-3.18602739726
1095	0.5475	-3.51217150761	3.7388	0.192424242424	-0.370684931507
1096	0.548	-2.10650069156	0.9256	0.192424242424	1.03698630137
1097	0.5485	-3.51217150761	0.9256	-5.45	-1.77835616438
1098	0.549	-0.700829875519	0.9256	-2.62878787879	-11.6320547945
1099	0.5495	-9.13485477178	0.9256	0.192424242424	-11.6320547945
1100	0.55	-3.51217150761	0.9256	-8.27121212121	-0.370684931507
1101	0.5505	-3.51217150761	0.9256	-5.45	-1.77835616438
1102	0.551	-3.51217150761	0.9256	0.192424242424	-0.370684931507
1103	0.5515	-0.700829875519	0.9256	8.65606060606	-0.370684931507
1104	0.552	-2.10650069156	3.7388	-4.03939393939	1.03698630137
1105	0.5525	-0.700829875519	19.2114	-2.62878787879	3.85232876712
1106	0.553	-3.51217150761	-6.1074	-1.21818181818	5.26
1107	0.5535	-4.91784232365	0.9256	-1.21818181818	3.85232876712
1108	0.554	-6.3235131397	2.3322	-1.21818181818	1.03698630137
1109	0.5545	-4.91784232365	2.3322	4.42424242424	-6.00136986301
1110	0.555	-3.51217150761	0.9256	-2.62878787879	23.5597260274
1111	0.5555	-4.91784232365	2.3322	-4.03939393939	-0.370684931507
1112	0.556	-4.91784232365	0.9256	-4.03939393939	1.03698630137
1113	0.5565	-6.3235131397	3.7388	3.01363636364	3.85232876712
1114	0.557	-6.3235131397	2.3322	-1.21818181818	3.85232876712
1115	0.5575	-4.91784232365	-3.2942	-11.0924242424	2.44465753425
1116	0.558	-3.51217150761	-8.9206	-1.21818181818	-1.77835616438
1117	0.5585	-4.91784232365	10.7718	0.192424242424	-0.370684931507
1118	0.559	-4.91784232365	0.9256	3.01363636364	-3.18602739726
1119	0.5595	-14.757538036	-1.8876	4.42424242424	-8.81671232877
1120	0.56	16.167219917	-1.8876	3.01363636364	-7.40904109589
1121	0.5605	10.5445366528	-1.8876	1.60303030303	-8.81671232877
1122	0.561	-0.700829875519	-1.8876	4.42424242424	-21.4857534247
1123	0.5615	-0.700829875519	0.9256	3.01363636364	3.85232876712
1124	0.562	0.704840940526	-0.481	-1.21818181818	-10.2243835616
1125	0.5625	-0.700829875519	0.9256	0.192424242424	-10.2243835616
1126	0.563	-2.10650069156	-13.1404	1.60303030303	-10.2243835616
1127	0.5635	-0.700829875519	19.2114	3.01363636364	-13.0397260274
1128	0.564	0.704840940526	16.3982	-1.21818181818	-11.6320547945
1129	0.5645	-2.10650069156	-1.8876	-2.62878787879	-10.2243835616
1130	0.565	10.5445366528	2.3322	1.60303030303	-7.40904109589
1131	0.5655	14.761549101	2.3322	0.192424242424	-8.81671232877
1132	0.566	-10.5405255878	2.3322	3.01363636364	-10.2243835616
1133	0.5665	-3.51217150761	2.3322	4.42424242424	-11.6320547945
1134	0.567	-3.51217150761	0.9256	0.192424242424	-3.18602739726
1135	0.5675	-3.51217150761	0.9256	22.7621212121	-7.40904109589
1136	0.568	-2.10650069156	3.7388	8.65606060606	-6.00136986301
1137	0.5685	-3.51217150761	-4.7008	3.01363636364	-6.00136986301
1138	0.569	-4.91784232365	2.3322	4.42424242424	-6.00136986301
1139	0.5695	-7.72918395574	19.2114	11.4772727273	-4.59369863014
1140	0.57	-2.10650069156	2.3322	8.65606060606	-0.370684931507
1141	0.5705	-13.3518672199	-0.481	8.65606060606	-0.370684931507
1142	0.571	-6.3235131397	2.3322	7.24545454545	6.66767123288
1143	0.5715	-6.3235131397	0.9256	4.42424242424	-3.18602739726
1144	0.572	-4.91784232365	5.1454	11.4772727273	-3.18602739726
1145	0.5725	-4.91784232365	2.3322	-2.62878787879	5.26
1146	0.573	-3.51217150761	5.1454	15.7090909091	5.26
1147	0.5735	-3.51217150761	3.7388	11.4772727273	5.26
1148	0.574	-3.51217150761	-7.514	3.01363636364	5.26
1149	0.5745	-3.51217150761	20.618	1.60303030303	3.85232876712
1150	0.575	-0.700829875519	19.2114	0.192424242424	1.03698630137
1151	0.5755	-2.10650069156	-4.7008	1.60303030303	-3.18602739726
1152	0.576	3.51618257261	-0.481	0.192424242424	2.44465753425
1153	0.5765	-3.51217150761	2.3322	-1.21818181818	-13.0397260274
1154	0.577	-7.72918395574	3.7388	0.192424242424	-18.6704109589
1155	0.5775	-0.700829875519	0.9256	-4.03939393939	-6.00136986301
1156	0.578	0.704840940526	0.9256	-6.86060606061	-8.81671232877
1157	0.5785	-2.10650069156	0.9256	-4.03939393939	-7.40904109589
1158	0.579	-0.700829875519	-3.2942	-8.27121212121	-8.81671232877
1159	0.5795	0.704840940526	0.9256	-2.62878787879	-7.40904109589
1160	0.58	-3.51217150761	-0.481	-6.86060606061	-6.00136986301
1161	0.5805	0.704840940526	-3.2942	-1.21818181818	-6.00136986301
1162	0.581	3.51618257261	-1.8876	0.192424242424	-1.77835616438
1163	0.5815	-11.9461964039	2.3322	1.60303030303	-3.18602739726
1164	0.582	-10.5405255878	5.1454	3.01363636364	-4.59369863014
1165	0.5825	14.761549101	5.1454	3.01363636364	-0.370684931507
1166	0.583	-2.10650069156	5.1454	4.42424242424	1.03698630137
1167	0.5835	-3.51217150761	3.7388	4.42424242424	2.44465753425
1168	0.584	-3.51217150761	3.7388	3.01363636364	8.07534246575
1169	0.5845	0.704840940526	5.1454	-4.03939393939	-1.77835616438
1170	0.585	-0.700829875519	2.3322	-5.45	-0.370684931507
1171	0.5855	-0.700829875519	-1.8876	1.60303030303	-0.370684931507
1172	0.586	-2.10650069156	9.3652	4.42424242424	-1.77835616438
1173	0.5865	-4.91784232365	-0.481	1.60303030303	-0.370684931507
1174	0.587	2.11051175657	-0.481	4.42424242424	1.03698630137
1175	0.5875	-14.757538036	0.9256	1.60303030303	-0.370684931507
1176	0.588	-11.9461964039	-1.8876	5.83484848485	-8.81671232877
1177	0.5885	-3.51217150761	0.9256	1.60303030303	5.26
1178	0.589	-7.72918395574	-0.481	3.01363636364	6.66767123288
1179	0.5895	-4.91784232365	0.9256	-8.27121212121	1.03698630137
1180	0.59	-4.91784232365	2.3322	1.60303030303	-7.40904109589
1181	0.5905	-3.51217150761	2.3322	14.2984848485	-3.18602739726
1182	0.591	-4.91784232365	-1.8876	1.60303030303	-6.00136986301
1183	0.5915	-3.51217150761	3.7388	0.192424242424	-4.59369863014
1184	0.592	-2.10650069156	3.7388	-1.21818181818	-4.59369863014
1185	0.5925	-2.10650069156	7.9586	0.192424242424	-6.00136986301
1186	0.593	-0.700829875519	-1.8876	-1.21818181818	-8.81671232877
1187	0.5935	11.9502074689	0.9256	-1.21818181818	-8.81671232877
1188	0.594	-4.91784232365	-1.8876	1.60303030303	-17.262739726
1189	0.5945	-4.91784232365	3.7388	-2.62878787879	1.03698630137
1190	0.595	-0.700829875519	0.9256	1.60303030303	-11.6320547945
1191	0.5955	-0.700829875519	2.3322	1.60303030303	1.03698630137
1192	0.596	-2.10650069156	2.3322	-12.503030303	-10.2243835616
1193	0.5965	-3.51217150761	0.9256	-2.62878787879	-8.81671232877
1194	0.597	-4.91784232365	6.552	-1.21818181818	-8.81671232877
1195	0.5975	-2.10650069156	-6.1074	3.01363636364	-6.00136986301
1196	0.598	0.704840940526	16.3982	4.42424242424	-6.00136986301
1197	0.5985	0.704840940526	13.585	3.01363636364	-1.77835616438
1198	0.599	-3.51217150761	-7.514	7.24545454545	-3.18602739726
1199	0.5995	-4.91784232365	-0.481	7.24545454545	-1.77835616438
1200	0.6	10.5445366528	-0.481	5.83484848485	-0.370684931507
1201	0.6005	-7.72918395574	2.3322	5.83484848485	-0.370684931507
1202	0.601	-2.10650069156	0.9256	1.60303030303	-6.00136986301
1203	0.6015	-2.10650069156	-1.8876	4.42424242424	1.03698630137
1204	0.602	-3.51217150761	-1.8876	11.4772727273	2.44465753425
1205	0.6025	-3.51217150761	-0.481	7.24545454545	3.85232876712
1206	0.603	-0.700829875519	-0.481	17.1196969697	1.03698630137
1207	0.6035	-2.10650069156	19.2114	4.42424242424	3.85232876712
1208	0.604	-2.10650069156	-8.9206	7.24545454545	2.44465753425
1209	0.6045	-4.91784232365	-6.1074	7.24545454545	1.03698630137
1210	0.605	-0.700829875519	0.9256	7.24545454545	5.26
1211	0.6055	13.3558782849	2.3322	5.83484848485	5.26
1212	0.606	16.167219917	-0.481	7.24545454545	6.66767123288
1213	0.6065	-11.9461964039	2.3322	5.83484848485	-6.00136986301
1214	0.607	-4.91784232365	2.3322	3.01363636364	5.26
1215	0.6075	-3.51217150761	5.1454	-5.45	1.03698630137
1216	0.608	-4.91784232365	3.7388	14.2984848485	-0.370684931507
1217	0.6085	-4.91784232365	5.1454	12.8878787879	-0.370684931507
1218	0.609	-4.91784232365	5.1454	-8.27121212121	-0.370684931507
1219	0.6095	-2.10650069156	-4.7008	0.192424242424	-6.00136986301
1220	0.61	-2.10650069156	20.618	-4.03939393939	-7.40904109589
1221	0.6105	-0.700829875519	-4.7008	-2.62878787879	-6.00136986301
1222	0.611	-6.3235131397	-4.7008	0.192424242424	-7.40904109589
1223	0.6115	-16.163208852	0.9256	-1.21818181818	-8.81671232877
1224	0.612	16.167219917	0.9256	-2.62878787879	-4.59369863014
1225	0.6125	-11.9461964039	0.9256	0.192424242424	-14.4473972603
1226	0.613	-3.51217150761	0.9256	-1.21818181818	-1.77835616438
1227	0.6135	-2.10650069156	-4.7008	-9.68181818182	-4.59369863014
1228	0.614	-4.91784232365	-3.2942	14.2984848485	-6.00136986301
1229	0.6145	-4.91784232365	-1.8876	8.65606060606	-6.00136986301
1230	0.615	-3.51217150761	-1.8876	-5.45	-3.18602739726
1231	0.6155	-3.51217150761	-0.481	-5.45	-6.00136986301
1232	0.616	-2.10650069156	5.1454	-1.21818181818	-3.18602739726
1233	0.6165	-3.51217150761	0.9256	-5.45	-1.77835616438
1234	0.617	-4.91784232365	2.3322	-4.03939393939	-1.77835616438
1235	0.6175	-3.51217150761	-4.7008	-1.21818181818	-0.370684931507
1236	0.618	-2.10650069156	0.9256	0.192424242424	-0.370684931507
1237	0.6185	-4.91784232365	-0.481	3.01363636364	-6.00136986301
1238	0.619	-7.72918395574	-1.8876	0.192424242424	2.44465753425
1239	0.6195	-7.72918395574	-1.8876	3.01363636364	2.44465753425
1240	0.62	-3.51217150761	-3.2942	1.60303030303	16.521369863
1241	0.6205	-4.91784232365	-1.8876	-9.68181818182	1.03698630137
1242	0.621	-3.51217150761	-0.481	21.3515151515	8.07534246575
1243	0.6215	-3.51217150761	0.9256	-4.03939393939	9.48301369863
1244	0.622	-3.51217150761	-3.2942	-6.86060606061	8.07534246575
1245	0.6225	-2.10650069156	-6.1074	3.01363636364	9.48301369863
1246	0.623	-3.51217150761	16.3982	3.01363636364	8.07534246575
1247	0.6235	-3.51217150761	13.585	1.60303030303	5.26
1248	0.624	-4.91784232365	0.9256	0.192424242424	6.66767123288
1249	0.6245	-7.72918395574	-0.481	-1.21818181818	6.66767123288
1250	0.625	-0.700829875519	-1.8876	-1.21818181818	3.85232876712
1251	0.6255	2.11051175657	-0.481	-1.21818181818	-0.370684931507
1252	0.626	-2.10650069156	-4.7008	0.192424242424	5.26
1253	0.6265	-2.10650069156	-1.8876	-4.03939393939	9.48301369863
1254	0.627	-2.10650069156	-3.2942	-4.03939393939	8.07534246575
1255	0.6275	-2.10650069156	-3.2942	17.1196969697	-4.59369863014
1256	0.628	-3.51217150761	-1.8876	18.5303030303	-0.370684931507
1257	0.6285	-2.10650069156	-3.2942	-1.21818181818	-1.77835616438
1258	0.629	-0.700829875519	-3.2942	3.01363636364	-1.77835616438
1259	0.6295	-0.700829875519	-0.481	0.192424242424	-3.18602739726
1260	0.63	-3.51217150761	-4.7008	0.192424242424	-3.18602739726
1261	0.6305	-10.5405255878	-3.2942	4.42424242424	-4.59369863014
1262	0.631	14.761549101	-0.481	3.01363636364	-0.370684931507
1263	0.6315	9.13886583679	0.9256	4.42424242424	-0.370684931507
1264	0.632	-2.10650069156	0.9256	5.83484848485	-6.00136986301
1265	0.6325	-0.700829875519	-0.481	-8.27121212121	-3.18602739726
1266	0.633	0.704840940526	-0.481	5.83484848485	-7.40904109589
1267	0.6335	2.11051175657	2.3322	21.3515151515	-3.18602739726
1268	0.634	-0.700829875519	-6.1074	-2.62878787879	-0.370684931507
1269	0.6345	0.704840940526	-7.514	3.01363636364	-1.77835616438
1270	0.635	-0.700829875519	9.3652	3.01363636364	-0.370684931507
1271	0.6355	-2.10650069156	-7.514	4.42424242424	1.03698630137
1272	0.636	-4.91784232365	-6.1074	3.01363636364	3.85232876712
1273	0.6365	-7.72918395574	0.9256	1.60303030303	3.85232876712
1274	0.637	0.704840940526	-0.481	4.42424242424	-0.370684931507
1275	0.6375	-11.9461964039	0.9256	4.42424242424	8.07534246575
1276	0.638	-7.72918395574	-3.2942	4.42424242424	9.48301369863
1277	0.6385	-4.91784232365	0.9256	-6.86060606061	8.07534246575
1278	0.639	-6.3235131397	0.9256	7.24545454545	3.85232876712
1279	0.6395	-4.91784232365	0.9256	8.65606060606	-0.370684931507
1280	0.64	-4.91784232365	-1.8876	-5.45	9.48301369863
1281	0.6405	-6.3235131397	-1.8876	-8.27121212121	3.85232876712
1282	0.641	-2.10650069156	-0.481	-1.21818181818	5.26
1283	0.6415	-3.51217150761	3.7388	0.192424242424	2.44465753425
1284	0.642	-3.51217150761	2.3322	-2.62878787879	1.03698630137
1285	0.6425	-4.91784232365	-1.8876	1.60303030303	-0.370684931507
1286	0.643	-4.91784232365	-1.8876	4.42424242424	-4.59369863014
1287	0.6435	4.92185338866	-1.8876	3.01363636364	-6.00136986301
1288	0.644	7.73319502075	-4.7008	1.60303030303	-7.40904109589
1289	0.6445	0.704840940526	-1.8876	0.192424242424	-11.6320547945
1290	0.645	-2.10650069156	-4.7008	-1.21818181818	3.85232876712
1291	0.6455	-0.700829875519	-1.8876	5.83484848485	-0.370684931507
1292	0.646	-2.10650069156	-0.481	4.42424242424	-10.2243835616
1293	0.6465	-3.51217150761	2.3322	4.42424242424	-8.81671232877
1294	0.647	-6.3235131397	-6.1074	4.42424242424	-8.81671232877
1295	0.6475	-4.91784232365	6.552	4.42424242424	-4.59369863014
1296	0.648	-2.10650069156	9.3652	7.24545454545	-6.00136986301
1297	0.6485	0.704840940526	-0.481	7.24545454545	-3.18602739726
1298	0.649	-13.3518672199	0.9256	7.24545454545	-1.77835616438
1299	0.6495	17.5728907331	-0.481	7.24545454545	-0.370684931507
1300	0.65	17.5728907331	-1.8876	7.24545454545	1.03698630137
1301	0.6505	-11.9461964039	-1.8876	7.24545454545	-6.00136986301
1302	0.651	-0.700829875519	0.9256	7.24545454545	-11.6320547945
1303	0.6515	-2.10650069156	-0.481	3.01363636364	9.48301369863
1304	0.652	-4.91784232365	2.3322	4.42424242424	12.2983561644
1305	0.6525	-4.91784232365	2.3322	5.83484848485	-1.77835616438
1306	0.653	-6.3235131397	2.3322	7.24545454545	-0.370684931507
1307	0.6535	-3.51217150761	-7.514	8.65606060606	1.03698630137
1308	0.654	-2.10650069156	-1.8876	8.65606060606	3.85232876712
1309	0.6545	2.11051175657	0.9256	8.65606060606	8.07534246575
1310	0.655	-16.163208852	-1.8876	11.4772727273	5.26
1311	0.6555	-11.9461964039	-1.8876	7.24545454545	9.48301369863
1312	0.656	17.5728907331	0.9256	8.65606060606	13.7060273973
1313	0.6565	-13.3518672199	-0.481	8.65606060606	-0.370684931507
1314	0.657	-3.51217150761	3.7388	7.24545454545	-8.81671232877
1315	0.6575	-2.10650069156	2.3322	-2.62878787879	3.85232876712
1316	0.658	-3.51217150761	0.9256	-2.62878787879	3.85232876712
1317	0.6585	-2.10650069156	0.9256	19.9409090909	3.85232876712
1318	0.659	-2.10650069156	-3.2942	7.24545454545	-0.370684931507
1319	0.6595	-3.51217150761	0.9256	4.42424242424	-0.370684931507
1320	0.66	-0.700829875519	2.3322	7.24545454545	-1.77835616438
1321	0.6605	-4.91784232365	0.9256	5.83484848485	-4.59369863014
1322	0.661	0.704840940526	-3.2942	7.24545454545	-3.18602739726
1323	0.6615	10.5445366528	0.9256	5.83484848485	-1.77835616438
1324	0.662	-2.10650069156	3.7388	3.01363636364	-6.00136986301
1325	0.6625	-4.91784232365	0.9256	7.24545454545	-13.0397260274
1326	0.663	-2.10650069156	2.3322	7.24545454545	5.26
1327	0.6635	-4.91784232365	0.9256	-4.03939393939	-7.40904109589
1328	0.664	-2.10650069156	-0.481	11.4772727273	-3.18602739726
1329	0.6645	-3.51217150761	0.9256	11.4772727273	-0.370684931507
1330	0.665	-3.51217150761	-1.8876	19.9409090909	-0.370684931507
1331	0.6655	-4.91784232365	-0.481	8.65606060606	-1.77835616438
1332	0.666	-2.10650069156	14.9916	7.24545454545	1.03698630137
1333	0.6665	-3.51217150761	-10.3272	7.24545454545	2.44465753425
1334	0.667	-4.91784232365	-4.7008	5.83484848485	3.85232876712
1335	0.6675	-9.13485477178	-4.7008	4.42424242424	3.85232876712
1336	0.668	2.11051175657	-3.2942	4.42424242424	2.44465753425
1337	0.6685	-7.72918395574	-7.514	4.42424242424	13.7060273973
1338	0.669	-2.10650069156	-6.1074	5.83484848485	1.03698630137
1339	0.6695	-3.51217150761	-6.1074	5.83484848485	-1.77835616438
1340	0.67	-4.91784232365	-4.7008	1.60303030303	23.5597260274
1341	0.6705	-3.51217150761	-4.7008	-4.03939393939	9.48301369863
1342	0.671	-2.10650069156	-0.481	4.42424242424	15.1136986301
1343	0.6715	-4.91784232365	0.9256	5.83484848485	16.521369863
1344	0.672	-4.91784232365	-10.3272	4.42424242424	16.521369863
1345	0.6725	-3.51217150761	17.8048	4.42424242424	17.9290410959
1346	0.673	-7.72918395574	0.9256	4.42424242424	19.3367123288
1347	0.6735	-7.72918395574	0.9256	3.01363636364	15.1136986301
1348	0.674	-0.700829875519	0.9256	1.60303030303	16.521369863
1349	0.6745	-0.700829875519	0.9256	3.01363636364	6.66767123288
1350	0.675	-4.91784232365	2.3322	4.42424242424	13.7060273973
1351	0.6755	-6.3235131397	-0.481	0.192424242424	15.1136986301
1352	0.676	-3.51217150761	-0.481	-6.86060606061	6.66767123288
1353	0.6765	-3.51217150761	2.3322	7.24545454545	-0.370684931507
1354	0.677	-4.91784232365	0.9256	-11.0924242424	-4.59369863014
1355	0.6775	-3.51217150761	-11.7338	-1.21818181818	-3.18602739726
1356	0.678	-3.51217150761	19.2114	-4.03939393939	-1.77835616438
1357	0.6785	-0.700829875519	19.2114	-4.03939393939	-3.18602739726
1358	0.679	-4.91784232365	-11.7338	-4.03939393939	-0.370684931507
1359	0.6795	-13.3518672199	0.9256	-2.62878787879	1.03698630137
1360	0.68	14.761549101	0.9256	-1.21818181818	3.85232876712
1361	0.6805	9.13886583679	0.9256	0.192424242424	5.26
1362	0.681	-6.3235131397	0.9256	1.60303030303	1.03698630137
1363	0.6815	-2.10650069156	2.3322	0.192424242424	8.07534246575
1364	0.682	-0.700829875519	0.9256	-11.0924242424	2.44465753425
1365	0.6825	-2.10650069156	-1.8876	17.1196969697	9.48301369863
1366	0.683	-6.3235131397	0.9256	14.2984848485	9.48301369863
1367	0.6835	-4.91784232365	-0.481	-11.0924242424	12.2983561644
1368	0.684	-2.10650069156	-1.8876	-9.68181818182	8.07534246575
1369	0.6845	-0.700829875519	-1.8876	-4.03939393939	8.07534246575
1370	0.685	0.704840940526	-6.1074	-4.03939393939	8.07534246575
1371	0.6855	-11.9461964039	-0.481	-5.45	3.85232876712
1372	0.686	-10.5405255878	0.9256	-4.03939393939	6.66767123288
1373	0.6865	9.13886583679	-0.481	-4.03939393939	12.2983561644
1374	0.687	-3.51217150761	-1.8876	-4.03939393939	23.5597260274
1375	0.6875	-2.10650069156	-1.8876	1.60303030303	12.2983561644
1376	0.688	-0.700829875519	0.9256	-2.62878787879	30.5980821918
1377	0.6885	-0.700829875519	0.9256	-12.503030303	19.3367123288
1378	0.689	-3.51217150761	-0.481	-8.27121212121	20.7443835616
1379	0.6895	-3.51217150761	2.3322	-2.62878787879	19.3367123288
1380	0.69	-2.10650069156	0.9256	-2.62878787879	20.7443835616
1381	0.6905	-3.51217150761	-7.514	-1.21818181818	15.1136986301
1382	0.691	-0.700829875519	16.3982	-5.45	15.1136986301
1383	0.6915	-0.700829875519	0.9256	-1.21818181818	9.48301369863
1384	0.692	-6.3235131397	-0.481	-2.62878787879	12.2983561644
1385	0.6925	-9.13485477178	-1.8876	-4.03939393939	9.48301369863
1386	0.693	13.3558782849	0.9256	-4.03939393939	5.26
1387	0.6935	-2.10650069156	-1.8876	-2.62878787879	-7.40904109589
1388	0.694	-0.700829875519	-0.481	-1.21818181818	-7.40904109589
1389	0.6945	-3.51217150761	-0.481	-5.45	-1.77835616438
1390	0.695	-2.10650069156	0.9256	5.83484848485	-3.18602739726
1391	0.6955	-3.51217150761	0.9256	4.42424242424	-6.00136986301
1392	0.696	-2.10650069156	-3.2942	-1.21818181818	-6.00136986301
1393	0.6965	0.704840940526	2.3322	-2.62878787879	-1.77835616438
1394	0.697	0.704840940526	3.7388	-5.45	-0.370684931507
1395	0.6975	-4.91784232365	-4.7008	-5.45	-1.77835616438
1396	0.698	-2.10650069156	0.9256	-6.86060606061	-1.77835616438
1397	0.6985	-10.5405255878	3.7388	-6.86060606061	-4.59369863014
1398	0.699	2.11051175657	0.9256	-6.86060606061	-0.370684931507
1399	0.6995	-10.5405255878	-0.481	-6.86060606061	-1.77835616438
1400	0.7	-3.51217150761	-1.8876	-5.45	-6.00136986301
1401	0.7005	-2.10650069156	-1.8876	-1.21818181818	3.85232876712
1402	0.701	-2.10650069156	0.9256	4.42424242424	-8.81671232877
1403	0.7015	-0.700829875519	-1.8876	-4.03939393939	-3.18602739726
1404	0.702	-2.10650069156	-1.8876	-8.27121212121	-1.77835616438
1405	0.7025	-0.700829875519	10.7718	-6.86060606061	-0.370684931507
1406	0.703	-0.700829875519	3.7388	-2.62878787879	-0.370684931507
1407	0.7035	-3.51217150761	-3.2942	-5.45	-1.77835616438
1408	0.704	-0.700829875519	3.7388	-4.03939393939	1.03698630137
1409	0.7045	-6.3235131397	5.1454	-2.62878787879	3.85232876712
1410	0.705	2.11051175657	3.7388	-2.62878787879	3.85232876712
1411	0.7055	-7.72918395574	2.3322	-4.03939393939	6.66767123288
1412	0.706	-4.91784232365	0.9256	-11.0924242424	3.85232876712
1413	0.7065	-3.51217150761	3.7388	-15.3242424242	1.03698630137
1414	0.707	-4.91784232365	-0.481	0.192424242424	-1.77835616438
1415	0.7075	-2.10650069156	2.3322	14.2984848485	-0.370684931507
1416	0.708	-2.10650069156	5.1454	-2.62878787879	1.03698630137
1417	0.7085	-2.10650069156	-10.3272	-2.62878787879	-0.370684931507
1418	0.709	-0.700829875519	20.618	0.192424242424	-1.77835616438
1419	0.7095	0.704840940526	22.0246	-1.21818181818	-6.00136986301
1420	0.71	2.11051175657	2.3322	-1.21818181818	-7.40904109589
1421	0.7105	-11.9461964039	0.9256	-2.62878787879	-10.2243835616
1422	0.711	23.1955739972	0.9256	-1.21818181818	-7.40904109589
1423	0.7115	18.9785615491	0.9256	-5.45	-4.59369863014
1424	0.712	-2.10650069156	0.9256	-4.03939393939	-4.59369863014
1425	0.7125	-0.700829875519	-0.481	-5.45	-17.262739726
1426	0.713	-0.700829875519	0.9256	15.7090909091	-7.40904109589
1427	0.7135	2.11051175657	2.3322	-9.68181818182	-7.40904109589
1428	0.714	0.704840940526	-1.8876	-11.0924242424	-6.00136986301
1429	0.7145	-2.10650069156	5.1454	-5.45	-3.18602739726
1430	0.715	-2.10650069156	20.618	-5.45	-6.00136986301
1431	0.7155	-2.10650069156	-6.1074	-4.03939393939	-1.77835616438
1432	0.716	-3.51217150761	-7.514	-4.03939393939	-1.77835616438
1433	0.7165	3.51618257261	5.1454	-4.03939393939	1.03698630137
1434	0.717	18.9785615491	2.3322	-4.03939393939	1.03698630137
1435	0.7175	-10.5405255878	6.552	-2.62878787879	-11.6320547945
1436	0.718	-10.5405255878	5.1454	-5.45	-6.00136986301
1437	0.7185	0.704840940526	5.1454	-1.21818181818	9.48301369863
1438	0.719	0.704840940526	6.552	-5.45	13.7060273973
1439	0.7195	-0.700829875519	9.3652	8.65606060606	-7.40904109589
1440	0.72	0.704840940526	9.3652	-8.27121212121	-3.18602739726
1441	0.7205	-3.51217150761	7.9586	-8.27121212121	-1.77835616438
1442	0.721	-2.10650069156	9.3652	4.42424242424	-0.370684931507
1443	0.7215	-3.51217150761	6.552	-2.62878787879	-1.77835616438
1444	0.722	-0.700829875519	5.1454	-1.21818181818	-0.370684931507
1445	0.7225	0.704840940526	3.7388	-1.21818181818	3.85232876712
1446	0.723	18.9785615491	5.1454	-2.62878787879	3.85232876712
1447	0.7235	-11.9461964039	2.3322	-6.86060606061	-1.77835616438
1448	0.724	-13.3518672199	-0.481	-8.27121212121	-4.59369863014
1449	0.7245	-2.10650069156	0.9256	-5.45	-0.370684931507
1450	0.725	-2.10650069156	2.3322	-8.27121212121	-0.370684931507
1451	0.7255	-2.10650069156	0.9256	-2.62878787879	-3.18602739726
1452	0.726	-3.51217150761	-1.8876	-12.503030303	-7.40904109589
1453	0.7265	-2.10650069156	-0.481	-13.9136363636	-11.6320547945
1454	0.727	3.51618257261	10.7718	-9.68181818182	-14.4473972603
1455	0.7275	-2.10650069156	-4.7008	-6.86060606061	-15.8550684932
1456	0.728	0.704840940526	-6.1074	-9.68181818182	-11.6320547945
1457	0.7285	3.51618257261	3.7388	-8.27121212121	-14.4473972603
1458	0.729	17.5728907331	2.3322	-8.27121212121	-21.4857534247
1459	0.7295	-3.51217150761	0.9256	-8.27121212121	-6.00136986301
1460	0.73	-3.51217150761	3.7388	-9.68181818182	-7.40904109589
1461	0.7305	0.704840940526	0.9256	-4.03939393939	-18.6704109589
1462	0.731	3.51618257261	3.7388	11.4772727273	-10.2243835616
1463	0.7315	-0.700829875519	0.9256	-12.503030303	-7.40904109589
1464	0.732	-2.10650069156	0.9256	-6.86060606061	-8.81671232877
1465	0.7325	-2.10650069156	6.552	-4.03939393939	-8.81671232877
1466	0.733	-2.10650069156	-7.514	-2.62878787879	-3.18602739726
1467	0.7335	-3.51217150761	-3.2942	-1.21818181818	-6.00136986301
1468	0.734	-0.700829875519	2.3322	-1.21818181818	-4.59369863014
1469	0.7345	-7.72918395574	2.3322	-2.62878787879	-4.59369863014
1470	0.735	3.51618257261	0.9256	-2.62878787879	-3.18602739726
1471	0.7355	-0.700829875519	2.3322	-1.21818181818	-13.0397260274
1472	0.736	0.704840940526	0.9256	1.60303030303	-13.0397260274
1473	0.7365	-2.10650069156	0.9256	1.60303030303	-14.4473972603
1474	0.737	-3.51217150761	0.9256	1.60303030303	9.48301369863
1475	0.7375	-0.700829875519	0.9256	-4.03939393939	-0.370684931507
1476	0.738	-0.700829875519	5.1454	-5.45	1.03698630137
1477	0.7385	-0.700829875519	-4.7008	-1.21818181818	2.44465753425
1478	0.739	-0.700829875519	-4.7008	-2.62878787879	1.03698630137
1479	0.7395	-3.51217150761	22.0246	-4.03939393939	1.03698630137
1480	0.74	-2.10650069156	6.552	-5.45	-0.370684931507
1481	0.7405	-6.3235131397	5.1454	-1.21818181818	-0.370684931507
1482	0.741	-3.51217150761	2.3322	-2.62878787879	1.03698630137
1483	0.7415	-3.51217150761	3.7388	-4.03939393939	15.1136986301
1484	0.742	-0.700829875519	3.7388	-4.03939393939	-13.0397260274
1485	0.7425	-0.700829875519	3.7388	5.83484848485	-7.40904109589
1486	0.743	0.704840940526	3.7388	-12.503030303	-4.59369863014
1487	0.7435	0.704840940526	3.7388	-8.27121212121	-8.81671232877
1488	0.744	0.704840940526	-4.7008	-4.03939393939	-8.81671232877
1489	0.7445	-0.700829875519	-6.1074	-8.27121212121	-10.2243835616
1490	0.745	-2.10650069156	5.1454	-4.03939393939	-11.6320547945
1491	0.7455	0.704840940526	5.1454	-1.21818181818	-11.6320547945
1492	0.746	-4.91784232365	-0.481	-5.45	-11.6320547945
1493	0.7465	10.5445366528	5.1454	-6.86060606061	-7.40904109589
1494	0.747	-2.10650069156	3.7388	-6.86060606061	8.07534246575
1495	0.7475	-2.10650069156	5.1454	-5.45	-11.6320547945
1496	0.748	-0.700829875519	0.9256	-5.45	-7.40904109589
1497	0.7485	-0.700829875519	5.1454	1.60303030303	-7.40904109589
1498	0.749	-0.700829875519	5.1454	-6.86060606061	-6.00136986301
1499	0.7495	-3.51217150761	-8.9206	-6.86060606061	-8.81671232877
1500	0.75	-0.700829875519	-7.514	-6.86060606061	-6.00136986301
1501	0.7505	3.51618257261	14.9916	-6.86060606061	-3.18602739726
1502	0.751	2.11051175657	7.9586	-8.27121212121	-3.18602739726
1503	0.7515	-7.72918395574	3.7388	-6.86060606061	-3.18602739726
1504	0.752	21.7899031812	2.3322	-2.62878787879	1.03698630137
1505	0.7525	-9.13485477178	7.9586	-2.62878787879	-11.6320547945
1506	0.753	-9.13485477178	2.3322	-1.21818181818	-7.40904109589
1507	0.7535	-2.10650069156	2.3322	-1.21818181818	2.44465753425
1508	0.754	0.704840940526	3.7388	-1.21818181818	3.85232876712
1509	0.7545	-0.700829875519	6.552	8.65606060606	1.03698630137
1510	0.755	0.704840940526	0.9256	-1.21818181818	3.85232876712
1511	0.7555	-3.51217150761	-7.514	-1.21818181818	5.26
1512	0.756	-0.700829875519	-6.1074	-1.21818181818	5.26
1513	0.7565	-0.700829875519	23.4312	-4.03939393939	2.44465753425
1514	0.757	-0.700829875519	0.9256	-2.62878787879	2.44465753425
1515	0.7575	0.704840940526	5.1454	-2.62878787879	-0.370684931507
1516	0.758	-4.91784232365	6.552	-4.03939393939	-6.00136986301
1517	0.7585	-0.700829875519	5.1454	-4.03939393939	-6.00136986301
1518	0.759	-0.700829875519	6.552	-5.45	-15.8550684932
1519	0.7595	-0.700829875519	2.3322	-2.62878787879	-14.4473972603
1520	0.76	-0.700829875519	3.7388	-15.3242424242	-13.0397260274
1521	0.7605	-2.10650069156	3.7388	-15.3242424242	-14.4473972603
1522	0.761	2.11051175657	2.3322	7.24545454545	-13.0397260274
1523	0.7615	0.704840940526	5.1454	4.42424242424	-11.6320547945
1524	0.762	-0.700829875519	-0.481	-6.86060606061	-11.6320547945
1525	0.7625	0.704840940526	10.7718	-5.45	-13.0397260274
1526	0.763	4.92185338866	0.9256	-4.03939393939	-8.81671232877
1527	0.7635	-13.3518672199	0.9256	-5.45	-11.6320547945
1528	0.764	-9.13485477178	0.9256	-5.45	-10.2243835616
1529	0.7645	16.167219917	5.1454	-6.86060606061	-7.40904109589
1530	0.765	-2.10650069156	3.7388	-6.86060606061	1.03698630137
1531	0.7655	-0.700829875519	0.9256	-12.503030303	-14.4473972603
1532	0.766	0.704840940526	3.7388	-12.503030303	-3.18602739726
1533	0.7665	0.704840940526	5.1454	8.65606060606	-14.4473972603
1534	0.767	0.704840940526	6.552	-6.86060606061	-11.6320547945
1535	0.7675	-0.700829875519	2.3322	-11.0924242424	-13.0397260274
1536	0.768	0.704840940526	3.7388	-8.27121212121	-11.6320547945
1537	0.7685	-0.700829875519	10.7718	-2.62878787879	-10.2243835616
1538	0.769	-13.3518672199	7.9586	-2.62878787879	-13.0397260274
1539	0.7695	-13.3518672199	6.552	-2.62878787879	-11.6320547945
1540	0.77	18.9785615491	6.552	-2.62878787879	-3.18602739726
1541	0.7705	-9.13485477178	5.1454	-1.21818181818	-8.81671232877
1542	0.771	-0.700829875519	6.552	-1.21818181818	-0.370684931507
1543	0.7715	-0.700829875519	9.3652	4.42424242424	-0.370684931507
1544	0.772	-2.10650069156	7.9586	14.2984848485	-1.77835616438
1545	0.7725	-2.10650069156	10.7718	-8.27121212121	-0.370684931507
1546	0.773	-0.700829875519	6.552	-8.27121212121	-1.77835616438
1547	0.7735	-0.700829875519	-0.481	-2.62878787879	-0.370684931507
1548	0.774	2.11051175657	23.4312	-1.21818181818	-8.81671232877
1549	0.7745	0.704840940526	19.2114	-4.03939393939	-8.81671232877
1550	0.775	-0.700829875519	-3.2942	-1.21818181818	-11.6320547945
1551	0.7755	-4.91784232365	6.552	-5.45	-11.6320547945
1552	0.776	10.5445366528	3.7388	-4.03939393939	-14.4473972603
1553	0.7765	-7.72918395574	5.1454	-4.03939393939	-17.262739726
1554	0.777	-9.13485477178	3.7388	-5.45	-17.262739726
1555	0.7775	0.704840940526	3.7388	-4.03939393939	-15.8550684932
1556	0.778	0.704840940526	2.3322	14.2984848485	-18.6704109589
1557	0.7785	-0.700829875519	6.552	12.8878787879	-20.0780821918
1558	0.779	3.51618257261	5.1454	-15.3242424242	-15.8550684932
1559	0.7795	-4.91784232365	-4.7008	-2.62878787879	-15.8550684932
1560	0.78	0.704840940526	0.9256	-2.62878787879	-13.0397260274
1561	0.7805	0.704840940526	-3.2942	-4.03939393939	-11.6320547945
1562	0.781	-3.51217150761	-6.1074	-6.86060606061	-13.0397260274
1563	0.7815	-13.3518672199	0.9256	-6.86060606061	-11.6320547945
1564	0.782	10.5445366528	0.9256	-8.27121212121	-13.0397260274
1565	0.7825	-9.13485477178	0.9256	-5.45	-10.2243835616
1566	0.783	-6.3235131397	-0.481	-6.86060606061	-8.81671232877
1567	0.7835	-2.10650069156	2.3322	-16.7348484848	-11.6320547945
1568	0.784	0.704840940526	2.3322	-6.86060606061	-11.6320547945
1569	0.7845	-7.72918395574	6.552	3.01363636364	-11.6320547945
1570	0.785	-3.51217150761	6.552	-8.27121212121	-10.2243835616
1571	0.7855	-2.10650069156	7.9586	-15.3242424242	-10.2243835616
1572	0.786	-0.700829875519	2.3322	-15.3242424242	-8.81671232877
1573	0.7865	0.704840940526	2.3322	-5.45	-10.2243835616
1574	0.787	0.704840940526	6.552	-2.62878787879	-6.00136986301
1575	0.7875	-13.3518672199	5.1454	-4.03939393939	-8.81671232877
1576	0.788	-11.9461964039	6.552	-5.45	-4.59369863014
1577	0.7885	-0.700829875519	6.552	-2.62878787879	-10.2243835616
1578	0.789	-0.700829875519	7.9586	-6.86060606061	6.66767123288
1579	0.7895	-2.10650069156	6.552	-1.21818181818	-10.2243835616
1580	0.79	-2.10650069156	3.7388	-12.503030303	-7.40904109589
1581	0.7905	-3.51217150761	3.7388	14.2984848485	-7.40904109589
1582	0.791	-3.51217150761	0.9256	-4.03939393939	-7.40904109589
1583	0.7915	-3.51217150761	-1.8876	-6.86060606061	-8.81671232877
1584	0.792	0.704840940526	17.8048	-5.45	-11.6320547945
1585	0.7925	-2.10650069156	-0.481	-8.27121212121	-14.4473972603
1586	0.793	-4.91784232365	-3.2942	-5.45	-14.4473972603
1587	0.7935	0.704840940526	3.7388	-6.86060606061	-17.262739726
1588	0.794	13.3558782849	2.3322	-5.45	-21.4857534247
1589	0.7945	-3.51217150761	2.3322	-5.45	-22.8934246575
1590	0.795	-3.51217150761	2.3322	-5.45	-11.6320547945
1591	0.7955	0.704840940526	-0.481	-5.45	-25.7087671233
1592	0.796	0.704840940526	-0.481	14.2984848485	-18.6704109589
1593	0.7965	0.704840940526	2.3322	15.7090909091	-17.262739726
1594	0.797	-0.700829875519	0.9256	-8.27121212121	-15.8550684932
1595	0.7975	0.704840940526	0.9256	-5.45	-17.262739726
1596	0.798	0.704840940526	0.9256	0.192424242424	-17.262739726
1597	0.7985	2.11051175657	13.585	-1.21818181818	-17.262739726
1598	0.799	-2.10650069156	-7.514	-1.21818181818	-13.0397260274
1599	0.7995	-10.5405255878	0.9256	-2.62878787879	-14.4473972603
1600	0.8	-4.91784232365	-0.481	-6.86060606061	-13.0397260274
1601	0.8005	0.704840940526	0.9256	-2.62878787879	-14.4473972603
1602	0.801	-0.700829875519	0.9256	-4.03939393939	-13.0397260274
1603	0.8015	-0.700829875519	-0.481	-1.21818181818	-21.4857534247
1604	0.802	-0.700829875519	0.9256	-5.45	-27.1164383562
1605	0.8025	0.704840940526	-0.481	0.192424242424	-20.0780821918
1606	0.803	-2.10650069156	5.1454	-5.45	-17.262739726
1607	0.8035	-2.10650069156	6.552	-4.03939393939	-18.6704109589
1608	0.804	-3.51217150761	-8.9206	-2.62878787879	-22.8934246575
1609	0.8045	-4.91784232365	-4.7008	-4.03939393939	-21.4857534247
1610	0.805	-2.10650069156	2.3322	-4.03939393939	-22.8934246575
1611	0.8055	-2.10650069156	0.9256	-4.03939393939	-21.4857534247
1612	0.806	-3.51217150761	2.3322	-1.21818181818	-24.3010958904
1613	0.8065	3.51618257261	2.3322	-2.62878787879	-32.7471232877
1614	0.807	-3.51217150761	2.3322	-1.21818181818	-32.7471232877
1615	0.8075	-2.10650069156	2.3322	3.01363636364	-39.7854794521
1616	0.808	-2.10650069156	3.7388	5.83484848485	-45.4161643836
1617	0.8085	0.704840940526	3.7388	4.42424242424	-45.4161643836
1618	0.809	-2.10650069156	0.9256	-1.21818181818	-60.9005479452
1619	0.8095	-0.700829875519	-0.481	8.65606060606	-63.715890411
1620	0.81	-4.91784232365	5.1454	25.5833333333	-70.7542465753
1621	0.8105	-0.700829875519	14.9916	11.4772727273	-72.1619178082
1622	0.811	0.704840940526	10.7718	14.2984848485	-69.3465753425
1623	0.8115	-3.51217150761	0.9256	15.7090909091	-67.9389041096
1624	0.812	3.51618257261	2.3322	18.5303030303	-67.9389041096
1625	0.8125	9.13886583679	2.3322	14.2984848485	-63.715890411
1626	0.813	0.704840940526	0.9256	17.1196969697	-69.3465753425
1627	0.8135	-2.10650069156	3.7388	15.7090909091	-58.0852054795
1628	0.814	-2.10650069156	2.3322	4.42424242424	-60.9005479452
1629	0.8145	-0.700829875519	2.3322	1.60303030303	-55.2698630137
1630	0.815	-0.700829875519	2.3322	31.2257575758	-55.2698630137
1631	0.8155	-0.700829875519	6.552	26.9939393939	-55.2698630137
1632	0.816	-0.700829875519	6.552	15.7090909091	-55.2698630137
1633	0.8165	0.704840940526	0.9256	14.2984848485	-55.2698630137
1634	0.817	-0.700829875519	7.9586	12.8878787879	-56.6775342466
1635	0.8175	-2.10650069156	3.7388	15.7090909091	-55.2698630137
1636	0.818	-11.9461964039	3.7388	18.5303030303	-56.6775342466
1637	0.8185	-14.757538036	3.7388	15.7090909091	-58.0852054795
1638	0.819	-13.3518672199	2.3322	17.1196969697	-52.4545205479
1639	0.8195	-10.5405255878	2.3322	14.2984848485	-45.4161643836
1640	0.82	-0.700829875519	3.7388	12.8878787879	-17.262739726
1641	0.8205	0.704840940526	5.1454	11.4772727273	-20.0780821918
1642	0.821	-3.51217150761	5.1454	3.01363636364	-0.370684931507
1643	0.8215	-0.700829875519	0.9256	0.192424242424	23.5597260274
1644	0.822	-4.91784232365	3.7388	12.8878787879	36.2287671233
1645	0.8225	-4.91784232365	5.1454	0.192424242424	50.3054794521
1646	0.823	-3.51217150761	-8.9206	-8.27121212121	62.9745205479
1647	0.8235	-4.91784232365	19.2114	-11.0924242424	78.4589041096
1648	0.824	-4.91784232365	3.7388	-11.0924242424	91.1279452055
1649	0.8245	-7.72918395574	-0.481	-18.1454545455	102.389315068
1650	0.825	-7.72918395574	0.9256	-18.1454545455	117.87369863
1651	0.8255	-2.10650069156	-1.8876	-22.3772727273	129.135068493
1652	0.826	-4.91784232365	-3.2942	-25.1984848485	140.396438356
1653	0.8265	-6.3235131397	-1.8876	-23.7878787879	167.142191781
1654	0.827	-7.72918395574	-3.2942	-33.6621212121	188.257260274
1655	0.8275	-7.72918395574	-7.514	-39.3045454545	205.149315068
1656	0.828	-4.91784232365	-7.514	-50.5893939394	210.78
1657	0.8285	-7.72918395574	-10.3272	-43.5363636364	227.672054795
1658	0.829	-9.13485477178	-8.9206	-49.1787878788	237.525753425
1659	0.8295	-9.13485477178	-4.7008	-49.1787878788	250.194794521
1660	0.83	-3.51217150761	-10.3272	-49.1787878788	268.494520548
1661	0.8305	-3.51217150761	-10.3272	-50.5893939394	285.386575342
1662	0.831	9.13886583679	-8.9206	-50.5893939394	303.68630137
1663	0.8315	-14.757538036	-8.9206	-53.4106060606	309.316986301
1664	0.832	-9.13485477178	-10.3272	-53.4106060606	324.801369863
1665	0.8325	-11.9461964039	-11.7338	-54.8212121212	333.24739726
1666	0.833	-7.72918395574	-13.1404	-60.4636363636	350.139452055
1667	0.8335	-7.72918395574	-11.7338	-43.5363636364	340.285753425
1668	0.834	-7.72918395574	-10.3272	-46.3575757576	340.285753425
1669	0.8345	-10.5405255878	-14.547	-68.9272727273	338.878082192
1670	0.835	-9.13485477178	-15.9536	-63.2848484848	337.470410959
1671	0.8355	-9.13485477178	-1.8876	-61.8742424242	338.878082192
1672	0.836	-9.13485477178	-0.481	-67.5166666667	341.693424658
1673	0.8365	-6.3235131397	-10.3272	-67.5166666667	343.10109589
1674	0.837	3.51618257261	-7.514	-73.1590909091	348.731780822
1675	0.8375	-11.9461964039	-6.1074	-75.9803030303	347.324109589
1676	0.838	-14.757538036	-8.9206	-75.9803030303	344.508767123
1677	0.8385	-16.163208852	-8.9206	-77.3909090909	336.062739726
1678	0.839	-10.5405255878	-8.9206	-71.7484848485	345.916438356
1679	0.8395	-9.13485477178	-8.9206	-87.2651515152	317.763013699
1680	0.84	-9.13485477178	-7.514	-70.3378787879	303.68630137
1681	0.8405	-6.3235131397	-7.514	-73.1590909091	292.424931507
1682	0.841	-7.72918395574	-11.7338	-91.496969697	281.163561644
1683	0.8415	-7.72918395574	-6.1074	-91.496969697	269.902191781
1684	0.842	-4.91784232365	3.7388	-88.6757575758	253.010136986
1685	0.8425	-7.72918395574	-13.1404	-90.0863636364	237.525753425
1686	0.843	-16.163208852	-7.514	-90.0863636364	213.595342466
1687	0.8435	4.92185338866	-6.1074	-90.0863636364	196.703287671
1688	0.844	-4.91784232365	-3.2942	-90.0863636364	167.142191781
1689	0.8445	-9.13485477178	-7.514	-87.2651515152	161.511506849
1690	0.845	-3.51217150761	-4.7008	-99.9606060606	144.619452055
1691	0.8455	-2.10650069156	-3.2942	-97.1393939394	146.027123288
1692	0.846	-3.51217150761	-3.2942	-77.3909090909	126.319726027
1693	0.8465	-2.10650069156	-6.1074	-88.6757575758	117.87369863
1694	0.847	-4.91784232365	-7.514	-97.1393939394	112.243013699
1695	0.8475	-0.700829875519	0.9256	-91.496969697	103.796986301
1696	0.848	-3.51217150761	5.1454	-87.2651515152	95.3509589041
1697	0.8485	-6.3235131397	-6.1074	-88.6757575758	89.7202739726
1698	0.849	7.73319502075	0.9256	-87.2651515152	86.9049315068
1699	0.8495	11.9502074689	0.9256	-87.2651515152	81.2742465753
1700	0.85	-7.72918395574	2.3322	-85.8545454545	74.235890411
1701	0.8505	-4.91784232365	2.3322	-85.8545454545	88.3126027397
1702	0.851	-4.91784232365	2.3322	-84.4439393939	78.4589041096
1703	0.8515	-0.700829875519	0.9256	-91.496969697	72.8282191781
1704	0.852	-2.10650069156	0.9256	-64.6954545455	72.8282191781
1705	0.8525	-3.51217150761	6.552	-57.6424242424	71.4205479452
1706	0.853	-2.10650069156	5.1454	-74.5696969697	65.7898630137
1707	0.8535	-2.10650069156	-4.7008	-73.1590909091	67.1975342466
1708	0.854	-2.10650069156	-0.481	-68.9272727273	62.9745205479
1709	0.8545	-3.51217150761	10.7718	-67.5166666667	60.1591780822
1710	0.855	-11.9461964039	6.552	-67.5166666667	55.9361643836
1711	0.8555	-13.3518672199	3.7388	-63.2848484848	50.3054794521
1712	0.856	-16.163208852	0.9256	-60.4636363636	43.2671232877
1713	0.8565	-4.91784232365	6.552	-54.8212121212	51.7131506849
1714	0.857	-3.51217150761	3.7388	-53.4106060606	33.4134246575
1715	0.8575	-0.700829875519	3.7388	-46.3575757576	16.521369863
1716	0.858	-3.51217150761	5.1454	-42.1257575758	3.85232876712
1717	0.8585	-2.10650069156	5.1454	-32.2515151515	5.26
1718	0.859	-2.10650069156	2.3322	-44.946969697	-0.370684931507
1719	0.8595	-2.10650069156	5.1454	-47.7681818182	-4.59369863014
1720	0.86	-0.700829875519	14.9916	-40.7151515152	-8.81671232877
1721	0.8605	0.704840940526	17.8048	-36.4833333333	-10.2243835616
1722	0.861	0.704840940526	-7.514	-29.4303030303	-14.4473972603
1723	0.8615	-16.163208852	0.9256	-29.4303030303	-17.262739726
1724	0.862	-14.757538036	-0.481	-29.4303030303	-20.0780821918
1725	0.8625	-14.757538036	0.9256	-26.6090909091	-24.3010958904
1726	0.863	-0.700829875519	2.3322	-22.3772727273	-21.4857534247
1727	0.8635	0.704840940526	3.7388	-22.3772727273	-11.6320547945
1728	0.864	-2.10650069156	5.1454	-18.1454545455	-32.7471232877
1729	0.8645	0.704840940526	2.3322	-18.1454545455	-34.1547945205
1730	0.865	-0.700829875519	2.3322	-9.68181818182	-29.9317808219
1731	0.8655	-0.700829875519	9.3652	-12.503030303	-32.7471232877
1732	0.866	0.704840940526	6.552	-11.0924242424	-34.1547945205
1733	0.8665	-3.51217150761	-4.7008	-9.68181818182	-35.5624657534
1734	0.867	-2.10650069156	-0.481	-6.86060606061	-36.9701369863
1735	0.8675	-0.700829875519	-0.481	-5.45	-41.1931506849
1736	0.868	2.11051175657	14.9916	-6.86060606061	-38.3778082192
1737	0.8685	-3.51217150761	7.9586	-5.45	-53.8621917808
1738	0.869	-10.5405255878	3.7388	-4.03939393939	-55.2698630137
1739	0.8695	-2.10650069156	5.1454	-2.62878787879	-28.524109589
1740	0.87	-2.10650069156	5.1454	-6.86060606061	-56.6775342466
1741	0.8705	-3.51217150761	3.7388	3.01363636364	-55.2698630137
1742	0.871	-2.10650069156	5.1454	19.9409090909	-44.0084931507
1743	0.8715	-4.91784232365	6.552	3.01363636364	-44.0084931507
1744	0.872	-4.91784232365	7.9586	14.2984848485	-41.1931506849
1745	0.8725	-3.51217150761	5.1454	3.01363636364	-45.4161643836
1746	0.873	-3.51217150761	22.0246	8.65606060606	-46.8238356164
1747	0.8735	-7.72918395574	-4.7008	8.65606060606	-49.6391780822
1748	0.874	-11.9461964039	2.3322	7.24545454545	-55.2698630137
1749	0.8745	9.13886583679	0.9256	8.65606060606	-56.6775342466
1750	0.875	4.92185338866	2.3322	12.8878787879	-58.0852054795
1751	0.8755	-3.51217150761	0.9256	18.5303030303	-65.1235616438
1752	0.876	-0.700829875519	2.3322	5.83484848485	-66.5312328767
1753	0.8765	-0.700829875519	2.3322	5.83484848485	-63.715890411
1754	0.877	-3.51217150761	2.3322	25.5833333333	-65.1235616438
1755	0.8775	-0.700829875519	2.3322	11.4772727273	-67.9389041096
1756	0.878	-0.700829875519	0.9256	7.24545454545	-66.5312328767
1757	0.8785	-2.10650069156	-10.3272	14.2984848485	-67.9389041096
1758	0.879	-2.10650069156	12.1784	15.7090909091	-66.5312328767
1759	0.8795	-0.700829875519	10.7718	17.1196969697	-67.9389041096
1760	0.88	-6.3235131397	-3.2942	18.5303030303	-69.3465753425
1761	0.8805	9.13886583679	2.3322	17.1196969697	-63.715890411
1762	0.881	-9.13485477178	5.1454	18.5303030303	-63.715890411
1763	0.8815	-3.51217150761	0.9256	14.2984848485	-70.7542465753
1764	0.882	0.704840940526	3.7388	24.1727272727	-76.3849315068
1765	0.8825	0.704840940526	2.3322	19.9409090909	-53.8621917808
1766	0.883	3.51618257261	3.7388	15.7090909091	-69.3465753425
1767	0.8835	-0.700829875519	2.3322	21.3515151515	-69.3465753425
1768	0.884	-0.700829875519	-6.1074	19.9409090909	-69.3465753425
1769	0.8845	-0.700829875519	-6.1074	17.1196969697	-69.3465753425
1770	0.885	-0.700829875519	20.618	15.7090909091	-69.3465753425
1771	0.8855	-3.51217150761	20.618	17.1196969697	-66.5312328767
1772	0.886	2.11051175657	-1.8876	18.5303030303	-63.715890411
1773	0.8865	-2.10650069156	6.552	18.5303030303	-63.715890411
1774	0.887	-4.91784232365	5.1454	18.5303030303	-60.9005479452
1775	0.8875	-2.10650069156	5.1454	21.3515151515	-52.4545205479
1776	0.888	-0.700829875519	6.552	24.1727272727	-56.6775342466
1777	0.8885	-0.700829875519	6.552	24.1727272727	-62.3082191781
1778	0.889	-3.51217150761	7.9586	36.8681818182	-56.6775342466
1779	0.8895	-2.10650069156	7.9586	8.65606060606	-56.6775342466
1780	0.89	-0.700829875519	3.7388	8.65606060606	-58.0852054795
1781	0.8905	-2.10650069156	6.552	17.1196969697	-60.9005479452
1782	0.891	-2.10650069156	16.3982	18.5303030303	-63.715890411
1783	0.8915	0.704840940526	-8.9206	15.7090909091	-65.1235616438
1784	0.892	-14.757538036	5.1454	15.7090909091	-67.9389041096
1785	0.8925	-11.9461964039	2.3322	18.5303030303	-66.5312328767
1786	0.893	-4.91784232365	0.9256	17.1196969697	-70.7542465753
1787	0.8935	-2.10650069156	0.9256	15.7090909091	-80.6079452055
1788	0.894	2.11051175657	-1.8876	18.5303030303	-84.8309589041
1789	0.8945	-0.700829875519	-1.8876	18.5303030303	-82.0156164384
1790	0.895	-0.700829875519	0.9256	31.2257575758	-84.8309589041
1791	0.8955	-2.10650069156	0.9256	26.9939393939	-73.5695890411
1792	0.896	0.704840940526	2.3322	18.5303030303	-72.1619178082
1793	0.8965	3.51618257261	7.9586	19.9409090909	-70.7542465753
1794	0.897	-2.10650069156	-4.7008	18.5303030303	-69.3465753425
1795	0.8975	-2.10650069156	-11.7338	17.1196969697	-70.7542465753
1796	0.898	-0.700829875519	0.9256	14.2984848485	-69.3465753425
1797	0.8985	11.9502074689	0.9256	15.7090909091	-70.7542465753
1798	0.899	-3.51217150761	-1.8876	14.2984848485	-70.7542465753
1799	0.8995	-2.10650069156	0.9256	17.1196969697	-49.6391780822
1800	0.9	-0.700829875519	-0.481	15.7090909091	-46.8238356164
1801	0.9005	0.704840940526	0.9256	8.65606060606	-70.7542465753
1802	0.901	-0.700829875519	-0.481	34.046969697	-62.3082191781
1803	0.9015	-0.700829875519	2.3322	14.2984848485	-62.3082191781
1804	0.902	2.11051175657	0.9256	17.1196969697	-60.9005479452
1805	0.9025	0.704840940526	-7.514	22.7621212121	-58.0852054795
1806	0.903	-0.700829875519	-1.8876	24.1727272727	-56.6775342466
1807	0.9035	2.11051175657	0.9256	24.1727272727	-55.2698630137
1808	0.904	2.11051175657	2.3322	25.5833333333	-49.6391780822
1809	0.9045	-11.9461964039	-0.481	24.1727272727	-53.8621917808
1810	0.905	-10.5405255878	-1.8876	25.5833333333	-52.4545205479
1811	0.9055	-2.10650069156	0.9256	22.7621212121	-52.4545205479
1812	0.906	-0.700829875519	-0.481	19.9409090909	-41.1931506849
1813	0.9065	0.704840940526	-0.481	15.7090909091	-58.0852054795
1814	0.907	-0.700829875519	-1.8876	14.2984848485	-56.6775342466
1815	0.9075	-2.10650069156	-3.2942	15.7090909091	-53.8621917808
1816	0.908	-0.700829875519	-4.7008	35.4575757576	-56.6775342466
1817	0.9085	0.704840940526	-1.8876	32.6363636364	-55.2698630137
1818	0.909	0.704840940526	6.552	18.5303030303	-60.9005479452
1819	0.9095	-2.10650069156	5.1454	19.9409090909	-63.715890411
1820	0.91	3.51618257261	-4.7008	17.1196969697	-65.1235616438
1821	0.9105	11.9502074689	0.9256	17.1196969697	-63.715890411
1822	0.911	-3.51217150761	-1.8876	15.7090909091	-74.977260274
1823	0.9115	-6.3235131397	-1.8876	19.9409090909	-77.7926027397
1824	0.912	0.704840940526	-1.8876	18.5303030303	-62.3082191781
1825	0.9125	0.704840940526	-0.481	0.192424242424	-63.715890411
1826	0.913	0.704840940526	2.3322	32.6363636364	-63.715890411
1827	0.9135	0.704840940526	0.9256	3.01363636364	-62.3082191781
1828	0.914	2.11051175657	-0.481	4.42424242424	-60.9005479452
1829	0.9145	0.704840940526	-13.1404	18.5303030303	-56.6775342466
1830	0.915	-0.700829875519	0.9256	14.2984848485	-58.0852054795
1831	0.9155	2.11051175657	16.3982	15.7090909091	-55.2698630137
1832	0.916	-2.10650069156	-6.1074	18.5303030303	-53.8621917808
1833	0.9165	-11.9461964039	-1.8876	14.2984848485	-51.0468493151
1834	0.917	11.9502074689	0.9256	12.8878787879	-49.6391780822
1835	0.9175	-0.700829875519	-1.8876	17.1196969697	-53.8621917808
1836	0.918	-7.72918395574	-0.481	12.8878787879	-48.2315068493
1837	0.9185	-0.700829875519	-0.481	14.2984848485	-53.8621917808
1838	0.919	-2.10650069156	2.3322	7.24545454545	-46.8238356164
1839	0.9195	-2.10650069156	2.3322	7.24545454545	-45.4161643836
1840	0.92	-4.91784232365	0.9256	21.3515151515	-46.8238356164
1841	0.9205	-4.91784232365	2.3322	14.2984848485	-44.0084931507
1842	0.921	-6.3235131397	-8.9206	8.65606060606	-41.1931506849
1843	0.9215	-2.10650069156	16.3982	12.8878787879	-39.7854794521
1844	0.922	-3.51217150761	-4.7008	17.1196969697	-39.7854794521
1845	0.9225	-9.13485477178	-4.7008	17.1196969697	-41.1931506849
1846	0.923	-14.757538036	0.9256	17.1196969697	-41.1931506849
1847	0.9235	14.761549101	0.9256	19.9409090909	-38.3778082192
1848	0.924	-10.5405255878	0.9256	21.3515151515	-46.8238356164
1849	0.9245	-4.91784232365	2.3322	19.9409090909	-34.1547945205
1850	0.925	-0.700829875519	0.9256	15.7090909091	-34.1547945205
1851	0.9255	-0.700829875519	3.7388	32.6363636364	-44.0084931507
1852	0.926	-2.10650069156	3.7388	35.4575757576	-46.8238356164
1853	0.9265	-3.51217150761	-0.481	10.0666666667	-45.4161643836
1854	0.927	-0.700829875519	-0.481	29.8151515152	-49.6391780822
1855	0.9275	0.704840940526	2.3322	18.5303030303	-48.2315068493
1856	0.928	-3.51217150761	-8.9206	19.9409090909	-46.8238356164
1857	0.9285	2.11051175657	-4.7008	21.3515151515	-45.4161643836
1858	0.929	-14.757538036	-0.481	18.5303030303	-46.8238356164
1859	0.9295	-11.9461964039	0.9256	22.7621212121	-59.4928767123
1860	0.93	-3.51217150761	0.9256	24.1727272727	-45.4161643836
1861	0.9305	-3.51217150761	2.3322	22.7621212121	-32.7471232877
1862	0.931	-3.51217150761	0.9256	22.7621212121	-51.0468493151
1863	0.9315	0.704840940526	2.3322	19.9409090909	-42.6008219178
1864	0.932	2.11051175657	3.7388	19.9409090909	-41.1931506849
1865	0.9325	-0.700829875519	5.1454	24.1727272727	-41.1931506849
1866	0.933	-0.700829875519	-8.9206	22.7621212121	-41.1931506849
1867	0.9335	-2.10650069156	19.2114	17.1196969697	-44.0084931507
1868	0.934	0.704840940526	17.8048	19.9409090909	-44.0084931507
1869	0.9345	2.11051175657	0.9256	19.9409090909	-41.1931506849
1870	0.935	-7.72918395574	-0.481	17.1196969697	-42.6008219178
1871	0.9355	-7.72918395574	3.7388	18.5303030303	-42.6008219178
1872	0.936	-11.9461964039	3.7388	19.9409090909	-44.0084931507
1873	0.9365	-0.700829875519	2.3322	21.3515151515	-36.9701369863
1874	0.937	-2.10650069156	5.1454	18.5303030303	-24.3010958904
1875	0.9375	-0.700829875519	3.7388	15.7090909091	-42.6008219178
1876	0.938	-3.51217150761	2.3322	26.9939393939	-34.1547945205
1877	0.9385	-3.51217150761	5.1454	15.7090909091	-32.7471232877
1878	0.939	0.704840940526	6.552	14.2984848485	-31.3394520548
1879	0.9395	-0.700829875519	16.3982	18.5303030303	-29.9317808219
1880	0.94	-4.91784232365	0.9256	14.2984848485	-34.1547945205
1881	0.9405	-2.10650069156	-0.481	17.1196969697	-36.9701369863
1882	0.941	-4.91784232365	16.3982	11.4772727273	-35.5624657534
1883	0.9415	-14.757538036	0.9256	12.8878787879	-39.7854794521
1884	0.942	17.5728907331	3.7388	11.4772727273	-36.9701369863
1885	0.9425	-13.3518672199	3.7388	12.8878787879	-51.0468493151
1886	0.943	-2.10650069156	0.9256	12.8878787879	-55.2698630137
1887	0.9435	-2.10650069156	0.9256	11.4772727273	-52.4545205479
1888	0.944	0.704840940526	0.9256	18.5303030303	-49.6391780822
1889	0.9445	-0.700829875519	3.7388	19.9409090909	-48.2315068493
1890	0.945	-4.91784232365	5.1454	8.65606060606	-51.0468493151
1891	0.9455	-2.10650069156	-10.3272	11.4772727273	-48.2315068493
1892	0.946	-2.10650069156	-10.3272	14.2984848485	-49.6391780822
1893	0.9465	-0.700829875519	22.0246	14.2984848485	-48.2315068493
1894	0.947	-3.51217150761	5.1454	12.8878787879	-45.4161643836
1895	0.9475	-6.3235131397	2.3322	14.2984848485	-44.0084931507
1896	0.948	-0.700829875519	2.3322	12.8878787879	-42.6008219178
1897	0.9485	7.73319502075	3.7388	15.7090909091	-39.7854794521
1898	0.949	0.704840940526	6.552	15.7090909091	-38.3778082192
1899	0.9495	0.704840940526	6.552	12.8878787879	-36.9701369863
1900	0.95	-0.700829875519	6.552	4.42424242424	-39.7854794521
1901	0.9505	-2.10650069156	3.7388	8.65606060606	-38.3778082192
1902	0.951	-2.10650069156	10.7718	8.65606060606	-36.9701369863
1903	0.9515	-4.91784232365	-4.7008	14.2984848485	-38.3778082192
1904	0.952	-0.700829875519	-4.7008	12.8878787879	-39.7854794521
1905	0.9525	-2.10650069156	22.0246	14.2984848485	-39.7854794521
1906	0.953	-3.51217150761	5.1454	14.2984848485	-36.9701369863
1907	0.9535	-10.5405255878	3.7388	12.8878787879	-36.9701369863
1908	0.954	14.761549101	5.1454	12.8878787879	-29.9317808219
1909	0.9545	-2.10650069156	7.9586	15.7090909091	-28.524109589
1910	0.955	-3.51217150761	5.1454	19.9409090909	-35.5624657534
1911	0.9555	-3.51217150761	10.7718	15.7090909091	-13.0397260274
1912	0.956	-2.10650069156	9.3652	8.65606060606	-27.1164383562
1913	0.9565	-3.51217150761	6.552	15.7090909091	-28.524109589
1914	0.957	-2.10650069156	0.9256	17.1196969697	-29.9317808219
1915	0.9575	-0.700829875519	10.7718	18.5303030303	-34.1547945205
1916	0.958	0.704840940526	5.1454	18.5303030303	-34.1547945205
1917	0.9585	0.704840940526	10.7718	17.1196969697	-36.9701369863
1918	0.959	-6.3235131397	6.552	17.1196969697	-35.5624657534
1919	0.9595	-0.700829875519	5.1454	15.7090909091	-38.3778082192
1920	0.96	-4.91784232365	0.9256	14.2984848485	-39.7854794521
1921	0.9605	-3.51217150761	2.3322	15.7090909091	-32.7471232877
1922	0.961	-0.700829875519	0.9256	15.7090909091	-45.4161643836
1923	0.9615	-0.700829875519	0.9256	8.65606060606	-49.6391780822
1924	0.962	-2.10650069156	0.9256	8.65606060606	-45.4161643836
1925	0.9625	-2.10650069156	2.3322	4.42424242424	-52.4545205479
1926	0.963	-0.700829875519	-0.481	14.2984848485	-41.1931506849
1927	0.9635	-2.10650069156	0.9256	18.5303030303	-41.1931506849
1928	0.964	-3.51217150761	-1.8876	14.2984848485	-39.7854794521
1929	0.9645	0.704840940526	6.552	15.7090909091	-36.9701369863
1930	0.965	2.11051175657	5.1454	17.1196969697	-35.5624657534
1931	0.9655	-11.9461964039	3.7388	15.7090909091	-34.1547945205
1932	0.966	16.167219917	3.7388	15.7090909091	-36.9701369863
1933	0.9665	-4.91784232365	0.9256	14.2984848485	-34.1547945205
1934	0.967	-3.51217150761	6.552	11.4772727273	-21.4857534247
1935	0.9675	-2.10650069156	7.9586	7.24545454545	-41.1931506849
1936	0.968	-2.10650069156	5.1454	5.83484848485	-27.1164383562
1937	0.9685	-3.51217150761	6.552	8.65606060606	-34.1547945205
1938	0.969	-4.91784232365	14.9916	7.24545454545	-32.7471232877
1939	0.9695	-3.51217150761	-4.7008	14.2984848485	-32.7471232877
1940	0.97	-2.10650069156	-1.8876	14.2984848485	-29.9317808219
1941	0.9705	-0.700829875519	23.4312	15.7090909091	-29.9317808219
1942	0.971	-4.91784232365	6.552	12.8878787879	-27.1164383562
1943	0.9715	2.11051175657	3.7388	14.2984848485	-24.3010958904
1944	0.972	2.11051175657	5.1454	14.2984848485	-21.4857534247
1945	0.9725	-2.10650069156	5.1454	15.7090909091	-27.1164383562
1946	0.973	-0.700829875519	2.3322	14.2984848485	-32.7471232877
1947	0.9735	-2.10650069156	0.9256	1.60303030303	-32.7471232877
1948	0.974	-2.10650069156	0.9256	-1.21818181818	-32.7471232877
1949	0.9745	-3.51217150761	2.3322	26.9939393939	-25.7087671233
