	Time	Channel 1	Channel 2	Channel 3	Channel 4
0	0.0	-6.2152173913	-1.76326530612	4.5	-16.393
1	0.0005	-16.0684782609	-1.76326530612	0.2	-6.5468
2	0.001	-10.4380434783	8.15816326531	0.2	-5.1402
3	0.0015	-7.62282608696	1.07142857143	1.63333333333	-7.9534
4	0.002	-7.62282608696	-0.345918367347	1.63333333333	-6.5468
5	0.0025	-6.2152173913	-1.76326530612	3.06666666667	-6.5468
6	0.003	-3.4	20.9142857143	3.06666666667	-13.5798
7	0.0035	-6.2152173913	1.07142857143	3.06666666667	-2.327
8	0.004	-4.80760869565	-10.2673469388	4.5	-10.7666
9	0.0045	-1.99239130435	-1.76326530612	-5.53333333333	-2.327
10	0.005	-3.4	1.07142857143	4.5	-20.6128
11	0.0055	-1.99239130435	1.07142857143	-5.53333333333	-13.5798
12	0.006	-1.99239130435	1.07142857143	4.5	-19.2062
13	0.0065	-3.4	2.4887755102	18.8333333333	-13.5798
14	0.007	-3.4	1.07142857143	-6.96666666667	-10.7666
15	0.0075	-4.80760869565	2.4887755102	-8.4	-12.1732
16	0.008	-3.4	1.07142857143	-8.4	-12.1732
17	0.0085	-0.584782608696	-0.345918367347	0.2	-10.7666
18	0.009	-1.99239130435	8.15816326531	0.2	-12.1732
19	0.0095	0.822826086957	-6.01530612245	0.2	-13.5798
20	0.01	2.23043478261	-3.1806122449	0.2	-10.7666
21	0.0105	-11.8456521739	-1.76326530612	-1.23333333333	-12.1732
22	0.011	-3.4	-3.1806122449	0.2	-13.5798
23	0.0115	-9.03043478261	1.07142857143	1.63333333333	-12.1732
24	0.012	-9.03043478261	-1.76326530612	0.2	0.4862
25	0.0125	-4.80760869565	-4.59795918367	0.2	3.2994
26	0.013	-3.4	-4.59795918367	1.63333333333	-20.6128
27	0.0135	-3.4	-0.345918367347	8.8	-7.9534
28	0.014	-3.4	-4.59795918367	3.06666666667	-10.7666
29	0.0145	-0.584782608696	-3.1806122449	0.2	-13.5798
30	0.015	-0.584782608696	-4.59795918367	-1.23333333333	-9.36
31	0.0155	-3.4	-13.1020408163	-1.23333333333	-10.7666
32	0.016	-0.584782608696	-14.5193877551	0.2	-6.5468
33	0.0165	-3.4	-14.5193877551	0.2	-7.9534
34	0.017	-4.80760869565	-10.2673469388	0.2	-7.9534
35	0.0175	-9.03043478261	-0.345918367347	0.2	-9.36
36	0.018	-13.2532608696	-0.345918367347	1.63333333333	-13.5798
37	0.0185	17.7141304348	-0.345918367347	1.63333333333	-6.5468
38	0.019	16.3065217391	-0.345918367347	3.06666666667	-6.5468
39	0.0195	-10.4380434783	1.07142857143	1.63333333333	-9.36
40	0.02	-0.584782608696	-1.76326530612	-1.23333333333	-16.393
41	0.0205	-0.584782608696	1.07142857143	4.5	-16.393
42	0.021	-4.80760869565	-0.345918367347	-2.66666666667	-16.393
43	0.0215	-1.99239130435	-0.345918367347	5.93333333333	-7.9534
44	0.022	0.822826086957	-1.76326530612	4.5	-7.9534
45	0.0225	-1.99239130435	1.07142857143	18.8333333333	-9.36
46	0.023	-0.584782608696	3.90612244898	1.63333333333	-10.7666
47	0.0235	-0.584782608696	3.90612244898	3.06666666667	-9.36
48	0.024	-0.584782608696	-6.01530612245	1.63333333333	-9.36
49	0.0245	-3.4	-8.85	3.06666666667	-7.9534
50	0.025	-4.80760869565	-8.85	1.63333333333	-10.7666
51	0.0255	-1.99239130435	-1.76326530612	-1.23333333333	-10.7666
52	0.026	3.63804347826	-1.76326530612	-1.23333333333	-6.5468
53	0.0265	13.4913043478	1.07142857143	0.2	-6.5468
54	0.027	-4.80760869565	-0.345918367347	-2.66666666667	-5.1402
55	0.0275	-3.4	3.90612244898	-1.23333333333	10.3324
56	0.028	-1.99239130435	2.4887755102	0.2	-17.7996
57	0.0285	-1.99239130435	-0.345918367347	1.63333333333	-14.9864
58	0.029	-4.80760869565	1.07142857143	15.9666666667	-5.1402
59	0.0295	-0.584782608696	3.90612244898	13.1	-5.1402
60	0.03	-3.4	-1.76326530612	-4.1	-3.7336
61	0.0305	-1.99239130435	-1.76326530612	8.8	-5.1402
62	0.031	-1.99239130435	1.07142857143	-2.66666666667	-3.7336
63	0.0315	0.822826086957	19.4969387755	-1.23333333333	-2.327
64	0.032	2.23043478261	16.662244898	1.63333333333	-0.9204
65	0.0325	0.822826086957	-8.85	-1.23333333333	-0.9204
66	0.033	-4.80760869565	-0.345918367347	0.2	-3.7336
67	0.0335	3.63804347826	1.07142857143	4.5	-2.327
68	0.034	9.26847826087	-1.76326530612	0.2	0.4862
69	0.0345	-6.2152173913	-0.345918367347	3.06666666667	0.4862
70	0.035	0.822826086957	-1.76326530612	0.2	0.4862
71	0.0355	-1.99239130435	-1.76326530612	-1.23333333333	10.3324
72	0.036	-1.99239130435	-0.345918367347	1.63333333333	-0.9204
73	0.0365	-1.99239130435	-1.76326530612	4.5	1.8928
74	0.037	-0.584782608696	2.4887755102	14.5333333333	-2.327
75	0.0375	0.822826086957	-1.76326530612	-1.23333333333	-3.7336
76	0.038	-0.584782608696	-11.6846938776	4.5	-6.5468
77	0.0385	0.822826086957	-7.43265306122	0.2	-6.5468
78	0.039	0.822826086957	-4.59795918367	3.06666666667	-7.9534
79	0.0395	3.63804347826	-0.345918367347	-1.23333333333	-5.1402
80	0.04	7.86086956522	-1.76326530612	3.06666666667	-5.1402
81	0.0405	7.86086956522	-1.76326530612	1.63333333333	-6.5468
82	0.041	3.63804347826	-10.2673469388	3.06666666667	-9.36
83	0.0415	12.0836956522	-0.345918367347	3.06666666667	-5.1402
84	0.042	-0.584782608696	-0.345918367347	3.06666666667	-13.5798
85	0.0425	2.23043478261	2.4887755102	4.5	-7.9534
86	0.043	2.23043478261	1.07142857143	1.63333333333	-14.9864
87	0.0435	0.822826086957	1.07142857143	0.2	-12.1732
88	0.044	2.23043478261	-1.76326530612	8.8	-6.5468
89	0.0445	-1.99239130435	1.07142857143	-2.66666666667	-5.1402
90	0.045	-1.99239130435	-1.76326530612	0.2	-6.5468
91	0.0455	0.822826086957	-0.345918367347	17.4	-6.5468
92	0.046	-3.4	6.74081632653	3.06666666667	-3.7336
93	0.0465	-6.2152173913	-0.345918367347	0.2	-5.1402
94	0.047	-3.4	-8.85	1.63333333333	-2.327
95	0.0475	-6.2152173913	-1.76326530612	4.5	-3.7336
96	0.048	-3.4	1.07142857143	0.2	-2.327
97	0.0485	3.63804347826	-1.76326530612	-1.23333333333	-0.9204
98	0.049	-1.99239130435	-3.1806122449	-1.23333333333	-2.327
99	0.0495	-1.99239130435	-3.1806122449	0.2	-10.7666
100	0.05	-1.99239130435	1.07142857143	3.06666666667	-5.1402
101	0.0505	-1.99239130435	1.07142857143	4.5	-6.5468
102	0.051	-0.584782608696	-1.76326530612	1.63333333333	-6.5468
103	0.0515	0.822826086957	-0.345918367347	15.9666666667	1.8928
104	0.052	-0.584782608696	-1.76326530612	-8.4	4.706
105	0.0525	0.822826086957	1.07142857143	-5.53333333333	0.4862
106	0.053	0.822826086957	9.57551020408	0.2	0.4862
107	0.0535	2.23043478261	-7.43265306122	1.63333333333	0.4862
108	0.054	-0.584782608696	-6.01530612245	4.5	0.4862
109	0.0545	-0.584782608696	-6.01530612245	4.5	1.8928
110	0.055	-6.2152173913	1.07142857143	1.63333333333	-0.9204
111	0.0555	16.3065217391	2.4887755102	-1.23333333333	3.2994
112	0.056	12.0836956522	1.07142857143	0.2	-0.9204
113	0.0565	-6.2152173913	1.07142857143	-1.23333333333	0.4862
114	0.057	0.822826086957	1.07142857143	3.06666666667	6.1126
115	0.0575	0.822826086957	2.4887755102	-6.96666666667	-2.327
116	0.058	0.822826086957	1.07142857143	-1.23333333333	13.1456
117	0.0585	2.23043478261	-1.76326530612	-9.83333333333	0.4862
118	0.059	-0.584782608696	2.4887755102	1.63333333333	3.2994
119	0.0595	2.23043478261	1.07142857143	20.2666666667	3.2994
120	0.06	-0.584782608696	1.07142857143	1.63333333333	1.8928
121	0.0605	-1.99239130435	2.4887755102	0.2	4.706
122	0.061	0.822826086957	9.57551020408	-1.23333333333	0.4862
123	0.0615	-3.4	18.0795918367	-1.23333333333	0.4862
124	0.062	3.63804347826	-1.76326530612	-2.66666666667	-0.9204
125	0.0625	19.1217391304	1.07142857143	0.2	3.2994
126	0.063	9.26847826087	-1.76326530612	1.63333333333	6.1126
127	0.0635	0.822826086957	1.07142857143	1.63333333333	1.8928
128	0.064	-0.584782608696	1.07142857143	4.5	-2.327
129	0.0645	-1.99239130435	3.90612244898	0.2	-2.327
130	0.065	-1.99239130435	-1.76326530612	-2.66666666667	0.4862
131	0.0655	0.822826086957	1.07142857143	13.1	4.706
132	0.066	0.822826086957	-0.345918367347	4.5	0.4862
133	0.0665	-0.584782608696	1.07142857143	1.63333333333	6.1126
134	0.067	-3.4	-3.1806122449	1.63333333333	3.2994
135	0.0675	-1.99239130435	-10.2673469388	-1.23333333333	7.5192
136	0.068	0.822826086957	3.90612244898	-1.23333333333	6.1126
137	0.0685	-1.99239130435	-1.76326530612	1.63333333333	7.5192
138	0.069	-4.80760869565	-0.345918367347	1.63333333333	7.5192
139	0.0695	-11.8456521739	1.07142857143	1.63333333333	6.1126
140	0.07	19.1217391304	-1.76326530612	4.5	7.5192
141	0.0705	16.3065217391	-1.76326530612	3.06666666667	4.706
142	0.071	-4.80760869565	-3.1806122449	4.5	-0.9204
143	0.0715	-0.584782608696	-0.345918367347	3.06666666667	20.1786
144	0.072	0.822826086957	-0.345918367347	0.2	18.772
145	0.0725	2.23043478261	-0.345918367347	1.63333333333	1.8928
146	0.073	3.63804347826	-0.345918367347	4.5	10.3324
147	0.0735	-0.584782608696	-0.345918367347	14.5333333333	1.8928
148	0.074	0.822826086957	2.4887755102	0.2	3.2994
149	0.0745	0.822826086957	1.07142857143	0.2	0.4862
150	0.075	-0.584782608696	13.8275510204	0.2	4.706
151	0.0755	-0.584782608696	13.8275510204	3.06666666667	1.8928
152	0.076	-0.584782608696	8.15816326531	1.63333333333	0.4862
153	0.0765	2.23043478261	-3.1806122449	1.63333333333	1.8928
154	0.077	5.04565217391	-7.43265306122	0.2	3.2994
155	0.0775	19.1217391304	-0.345918367347	3.06666666667	4.706
156	0.078	-6.2152173913	-0.345918367347	1.63333333333	3.2994
157	0.0785	-6.2152173913	-0.345918367347	0.2	4.706
158	0.079	2.23043478261	1.07142857143	1.63333333333	13.1456
159	0.0795	0.822826086957	-1.76326530612	4.5	0.4862
160	0.08	3.63804347826	-0.345918367347	18.8333333333	3.2994
161	0.0805	2.23043478261	-1.76326530612	18.8333333333	4.706
162	0.081	0.822826086957	-0.345918367347	14.5333333333	3.2994
163	0.0815	-0.584782608696	-1.76326530612	-4.1	6.1126
164	0.082	-0.584782608696	-13.1020408163	-4.1	7.5192
165	0.0825	-0.584782608696	13.8275510204	-1.23333333333	7.5192
166	0.083	-1.99239130435	15.2448979592	-1.23333333333	8.9258
167	0.0835	-1.99239130435	-8.85	-1.23333333333	8.9258
168	0.084	-0.584782608696	-7.43265306122	1.63333333333	8.9258
169	0.0845	5.04565217391	-0.345918367347	-1.23333333333	6.1126
170	0.085	5.04565217391	-0.345918367347	0.2	7.5192
171	0.0855	9.26847826087	-3.1806122449	3.06666666667	6.1126
172	0.086	-3.4	-1.76326530612	0.2	10.3324
173	0.0865	-6.2152173913	-1.76326530612	0.2	21.5852
174	0.087	-3.4	-0.345918367347	0.2	-5.1402
175	0.0875	-1.99239130435	-0.345918367347	-1.23333333333	15.9588
176	0.088	2.23043478261	-1.76326530612	-1.23333333333	1.8928
177	0.0885	0.822826086957	-1.76326530612	3.06666666667	-0.9204
178	0.089	3.63804347826	3.90612244898	-2.66666666667	0.4862
179	0.0895	3.63804347826	3.90612244898	1.63333333333	0.4862
180	0.09	3.63804347826	18.0795918367	1.63333333333	3.2994
181	0.0905	5.04565217391	10.9928571429	0.2	1.8928
182	0.091	5.04565217391	8.15816326531	0.2	1.8928
183	0.0915	-4.80760869565	-1.76326530612	3.06666666667	4.706
184	0.092	-10.4380434783	-3.1806122449	0.2	-2.327
185	0.0925	21.9369565217	1.07142857143	1.63333333333	0.4862
186	0.093	19.1217391304	-0.345918367347	1.63333333333	1.8928
187	0.0935	-9.03043478261	1.07142857143	3.06666666667	1.8928
188	0.094	0.822826086957	-0.345918367347	3.06666666667	-3.7336
189	0.0945	-1.99239130435	-3.1806122449	-5.53333333333	-2.327
190	0.095	-0.584782608696	-0.345918367347	-5.53333333333	-3.7336
191	0.0955	-3.4	3.90612244898	3.06666666667	7.5192
192	0.096	-1.99239130435	2.4887755102	15.9666666667	1.8928
193	0.0965	-3.4	6.74081632653	0.2	3.2994
194	0.097	-3.4	3.90612244898	3.06666666667	1.8928
195	0.0975	-1.99239130435	-0.345918367347	0.2	0.4862
196	0.098	-6.2152173913	-3.1806122449	0.2	1.8928
197	0.0985	-3.4	-6.01530612245	-1.23333333333	1.8928
198	0.099	-1.99239130435	19.4969387755	-1.23333333333	3.2994
199	0.0995	-3.4	1.07142857143	0.2	1.8928
200	0.1	3.63804347826	-1.76326530612	3.06666666667	-3.7336
201	0.1005	0.822826086957	-0.345918367347	-1.23333333333	4.706
202	0.101	0.822826086957	-3.1806122449	1.63333333333	3.2994
203	0.1015	-0.584782608696	-0.345918367347	1.63333333333	-6.5468
204	0.102	0.822826086957	-1.76326530612	1.63333333333	3.2994
205	0.1025	-0.584782608696	-0.345918367347	-1.23333333333	4.706
206	0.103	0.822826086957	-1.76326530612	-1.23333333333	1.8928
207	0.1035	0.822826086957	1.07142857143	1.63333333333	0.4862
208	0.104	0.822826086957	-13.1020408163	1.63333333333	1.8928
209	0.1045	2.23043478261	-8.85	3.06666666667	-2.327
210	0.105	-0.584782608696	18.0795918367	0.2	0.4862
211	0.1055	0.822826086957	-0.345918367347	0.2	0.4862
212	0.106	-1.99239130435	2.4887755102	1.63333333333	-0.9204
213	0.1065	3.63804347826	1.07142857143	3.06666666667	-0.9204
214	0.107	-6.2152173913	1.07142857143	3.06666666667	-2.327
215	0.1075	-1.99239130435	1.07142857143	0.2	-3.7336
216	0.108	0.822826086957	1.07142857143	0.2	-10.7666
217	0.1085	0.822826086957	1.07142857143	3.06666666667	3.2994
218	0.109	0.822826086957	-0.345918367347	-8.4	-5.1402
219	0.1095	-0.584782608696	-0.345918367347	-12.7	-3.7336
220	0.11	0.822826086957	-3.1806122449	-1.23333333333	0.4862
221	0.1105	0.822826086957	1.07142857143	15.9666666667	1.8928
222	0.111	-0.584782608696	1.07142857143	-2.66666666667	-0.9204
223	0.1115	-0.584782608696	-4.59795918367	-4.1	-2.327
224	0.112	-0.584782608696	-3.1806122449	0.2	0.4862
225	0.1125	0.822826086957	-4.59795918367	1.63333333333	3.2994
226	0.113	2.23043478261	-1.76326530612	0.2	0.4862
227	0.1135	19.1217391304	-1.76326530612	-1.23333333333	-0.9204
228	0.114	-10.4380434783	1.07142857143	1.63333333333	-0.9204
229	0.1145	-7.62282608696	-0.345918367347	1.63333333333	3.2994
230	0.115	-0.584782608696	1.07142857143	-2.66666666667	-7.9534
231	0.1155	0.822826086957	1.07142857143	-11.2666666667	-0.9204
232	0.116	2.23043478261	1.07142857143	1.63333333333	-3.7336
233	0.1165	2.23043478261	-0.345918367347	8.8	4.706
234	0.117	3.63804347826	-0.345918367347	-6.96666666667	6.1126
235	0.1175	2.23043478261	10.9928571429	-1.23333333333	8.9258
236	0.118	3.63804347826	15.2448979592	-1.23333333333	4.706
237	0.1185	-1.99239130435	12.4102040816	-1.23333333333	4.706
238	0.119	2.23043478261	-8.85	1.63333333333	6.1126
239	0.1195	5.04565217391	-4.59795918367	1.63333333333	4.706
240	0.12	23.3445652174	-1.76326530612	0.2	6.1126
241	0.1205	13.4913043478	-1.76326530612	4.5	4.706
242	0.121	2.23043478261	-3.1806122449	3.06666666667	14.5522
243	0.1215	0.822826086957	-0.345918367347	0.2	4.706
244	0.122	2.23043478261	1.07142857143	0.2	15.9588
245	0.1225	-0.584782608696	1.07142857143	5.93333333333	8.9258
246	0.123	0.822826086957	-0.345918367347	11.6666666667	1.8928
247	0.1235	0.822826086957	3.90612244898	18.8333333333	1.8928
248	0.124	0.822826086957	6.74081632653	-1.23333333333	6.1126
249	0.1245	-0.584782608696	2.4887755102	1.63333333333	3.2994
250	0.125	-0.584782608696	3.90612244898	-1.23333333333	4.706
251	0.1255	-1.99239130435	-4.59795918367	0.2	1.8928
252	0.126	-0.584782608696	-0.345918367347	0.2	0.4862
253	0.1265	-0.584782608696	2.4887755102	1.63333333333	0.4862
254	0.127	-9.03043478261	-3.1806122449	1.63333333333	1.8928
255	0.1275	-6.2152173913	-0.345918367347	3.06666666667	-0.9204
256	0.128	2.23043478261	-0.345918367347	3.06666666667	-2.327
257	0.1285	2.23043478261	-3.1806122449	0.2	3.2994
258	0.129	3.63804347826	-0.345918367347	1.63333333333	-6.5468
259	0.1295	0.822826086957	1.07142857143	4.5	-2.327
260	0.13	0.822826086957	1.07142857143	18.8333333333	3.2994
261	0.1305	0.822826086957	1.07142857143	7.36666666667	3.2994
262	0.131	-0.584782608696	-10.2673469388	-1.23333333333	4.706
263	0.1315	-1.99239130435	-10.2673469388	-1.23333333333	4.706
264	0.132	-1.99239130435	-10.2673469388	0.2	4.706
265	0.1325	-6.2152173913	2.4887755102	0.2	3.2994
266	0.133	-9.03043478261	1.07142857143	0.2	6.1126
267	0.1335	-10.4380434783	-0.345918367347	0.2	7.5192
268	0.134	12.0836956522	-1.76326530612	0.2	4.706
269	0.1345	14.8989130435	-1.76326530612	3.06666666667	8.9258
270	0.135	-3.4	1.07142857143	3.06666666667	14.5522
271	0.1355	0.822826086957	-1.76326530612	1.63333333333	1.8928
272	0.136	-0.584782608696	-3.1806122449	-9.83333333333	6.1126
273	0.1365	2.23043478261	-0.345918367347	3.06666666667	8.9258
274	0.137	3.63804347826	1.07142857143	1.63333333333	7.5192
275	0.1375	0.822826086957	-0.345918367347	-8.4	7.5192
276	0.138	-0.584782608696	-6.01530612245	4.5	6.1126
277	0.1385	0.822826086957	5.32346938776	4.5	7.5192
278	0.139	-0.584782608696	10.9928571429	1.63333333333	11.739
279	0.1395	2.23043478261	1.07142857143	3.06666666667	7.5192
280	0.14	0.822826086957	1.07142857143	3.06666666667	10.3324
281	0.1405	-0.584782608696	-0.345918367347	0.2	10.3324
282	0.141	-9.03043478261	-6.01530612245	1.63333333333	15.9588
283	0.1415	-4.80760869565	-1.76326530612	1.63333333333	3.2994
284	0.142	-1.99239130435	-1.76326530612	3.06666666667	6.1126
285	0.1425	-3.4	-3.1806122449	-1.23333333333	17.3654
286	0.143	-4.80760869565	-3.1806122449	-5.53333333333	22.9918
287	0.1435	-4.80760869565	1.07142857143	-11.2666666667	15.9588
288	0.144	-3.4	1.07142857143	-14.1333333333	32.838
289	0.1445	-1.99239130435	1.07142857143	-11.2666666667	21.5852
290	0.145	-3.4	1.07142857143	-9.83333333333	21.5852
291	0.1455	0.822826086957	1.07142857143	0.2	27.2116
292	0.146	3.63804347826	9.57551020408	-1.23333333333	31.4314
293	0.1465	3.63804347826	-7.43265306122	-2.66666666667	32.838
294	0.147	-0.584782608696	-7.43265306122	-1.23333333333	35.6512
295	0.1475	0.822826086957	-6.01530612245	-4.1	37.0578
296	0.148	0.822826086957	3.90612244898	-5.53333333333	42.6842
297	0.1485	13.4913043478	3.90612244898	-2.66666666667	48.3106
298	0.149	-4.80760869565	1.07142857143	-5.53333333333	49.7172
299	0.1495	-9.03043478261	-1.76326530612	-4.1	49.7172
300	0.15	0.822826086957	-1.76326530612	-5.53333333333	55.3436
301	0.1505	0.822826086957	-1.76326530612	-9.83333333333	66.5964
302	0.151	0.822826086957	-0.345918367347	-12.7	68.003
303	0.1515	2.23043478261	-0.345918367347	-6.96666666667	75.036
304	0.152	2.23043478261	-0.345918367347	-1.23333333333	76.4426
305	0.1525	2.23043478261	2.4887755102	13.1	75.036
306	0.153	0.822826086957	-0.345918367347	0.2	75.036
307	0.1535	3.63804347826	15.2448979592	-1.23333333333	70.8162
308	0.154	-0.584782608696	1.07142857143	0.2	66.5964
309	0.1545	-4.80760869565	18.0795918367	3.06666666667	63.7832
310	0.155	2.23043478261	2.4887755102	0.2	65.1898
311	0.1555	7.86086956522	1.07142857143	0.2	60.97
312	0.156	-1.99239130435	2.4887755102	3.06666666667	51.1238
313	0.1565	-4.80760869565	2.4887755102	3.06666666667	46.904
314	0.157	-3.4	1.07142857143	-4.1	70.8162
315	0.1575	-4.80760869565	1.07142857143	-1.23333333333	69.4096
316	0.158	-3.4	-0.345918367347	-2.66666666667	53.937
317	0.1585	-4.80760869565	-0.345918367347	4.5	52.5304
318	0.159	-0.584782608696	-6.01530612245	-8.4	48.3106
319	0.1595	0.822826086957	-3.1806122449	-4.1	53.937
320	0.16	0.822826086957	-13.1020408163	0.2	53.937
321	0.1605	-0.584782608696	-11.6846938776	-1.23333333333	53.937
322	0.161	-0.584782608696	-7.43265306122	-1.23333333333	51.1238
323	0.1615	-1.99239130435	-8.85	-1.23333333333	46.904
324	0.162	-0.584782608696	5.32346938776	0.2	31.4314
325	0.1625	12.0836956522	-4.59795918367	-1.23333333333	17.3654
326	0.163	-9.03043478261	-3.1806122449	1.63333333333	0.4862
327	0.1635	-11.8456521739	1.07142857143	4.5	-26.2392
328	0.164	-16.0684782609	-0.345918367347	5.93333333333	-37.492
329	0.1645	-7.62282608696	-0.345918367347	4.5	-55.7778
330	0.165	-3.4	-3.1806122449	-1.23333333333	-69.8438
331	0.1655	-3.4	-1.76326530612	-4.1	-78.2834
332	0.166	-1.99239130435	-3.1806122449	-6.96666666667	-102.1956
333	0.1665	-4.80760869565	-4.59795918367	-1.23333333333	-114.855
334	0.167	-6.2152173913	-4.59795918367	7.36666666667	-131.7342
335	0.1675	-4.80760869565	3.90612244898	8.8	-151.4266
336	0.168	-9.03043478261	-3.1806122449	5.93333333333	-171.119
337	0.1685	-7.62282608696	-8.85	7.36666666667	-190.8114
338	0.169	-7.62282608696	-8.85	11.6666666667	-206.284
339	0.1695	-20.2913043478	-0.345918367347	13.1	-224.5698
340	0.17	-17.4760869565	-3.1806122449	11.6666666667	-244.2622
341	0.1705	-0.584782608696	-1.76326530612	14.5333333333	-265.3612
342	0.171	-16.0684782609	-3.1806122449	17.4	-294.8998
343	0.1715	-14.6608695652	-3.1806122449	18.8333333333	-307.5592
344	0.172	-16.0684782609	-3.1806122449	15.9666666667	-338.5044
345	0.1725	-16.0684782609	-1.76326530612	15.9666666667	-353.977
346	0.173	-16.0684782609	1.07142857143	23.1333333333	-359.6034
347	0.1735	-16.0684782609	-3.1806122449	21.7	-379.2958
348	0.174	-18.8836956522	-4.59795918367	11.6666666667	-389.142
349	0.1745	-16.0684782609	-11.6846938776	11.6666666667	-397.5816
350	0.175	-16.0684782609	-13.1020408163	8.8	-408.8344
351	0.1755	-16.0684782609	-8.85	11.6666666667	-417.274
352	0.176	-16.0684782609	-8.85	8.8	-421.4938
353	0.1765	-14.6608695652	-6.01530612245	8.8	-422.9004
354	0.177	-13.2532608696	-0.345918367347	7.36666666667	-422.9004
355	0.1775	-17.4760869565	1.07142857143	5.93333333333	-421.4938
356	0.178	-17.4760869565	1.07142857143	14.5333333333	-432.7466
357	0.1785	-20.2913043478	-0.345918367347	13.1	-436.9664
358	0.179	-14.6608695652	-0.345918367347	7.36666666667	-418.6806
359	0.1795	-16.0684782609	1.07142857143	8.8	-429.9334
360	0.18	-11.8456521739	1.07142857143	4.5	-429.9334
361	0.1805	-13.2532608696	1.07142857143	20.2666666667	-428.5268
362	0.181	-10.4380434783	-1.76326530612	7.36666666667	-432.7466
363	0.1815	-13.2532608696	1.07142857143	18.8333333333	-418.6806
364	0.182	-13.2532608696	-6.01530612245	7.36666666667	-404.6146
365	0.1825	-11.8456521739	-7.43265306122	7.36666666667	-394.7684
366	0.183	-9.03043478261	-8.85	3.06666666667	-382.109
367	0.1835	-11.8456521739	-1.76326530612	11.6666666667	-369.4496
368	0.184	-9.03043478261	-0.345918367347	8.8	-356.7902
369	0.1845	-9.03043478261	-0.345918367347	13.1	-339.911
370	0.185	-6.2152173913	-4.59795918367	7.36666666667	-330.0648
371	0.1855	3.63804347826	1.07142857143	11.6666666667	-310.3724
372	0.186	-21.6989130435	-1.76326530612	8.8	-290.68
373	0.1865	-16.0684782609	-3.1806122449	11.6666666667	-279.4272
374	0.187	-14.6608695652	-1.76326530612	10.2333333333	-245.6688
375	0.1875	-4.80760869565	-1.76326530612	8.8	-233.0094
376	0.188	-3.4	-4.59795918367	14.5333333333	-210.5038
377	0.1885	-6.2152173913	-4.59795918367	-1.23333333333	-196.4378
378	0.189	-4.80760869565	-1.76326530612	0.2	-180.9652
379	0.1895	-4.80760869565	-3.1806122449	1.63333333333	-173.9322
380	0.19	-4.80760869565	-1.76326530612	8.8	-159.8662
381	0.1905	-4.80760869565	-1.76326530612	23.1333333333	-148.6134
382	0.191	-4.80760869565	1.07142857143	4.5	-137.3606
383	0.1915	-3.4	9.57551020408	4.5	-128.921
384	0.192	-4.80760869565	6.74081632653	5.93333333333	-117.6682
385	0.1925	-11.8456521739	-0.345918367347	5.93333333333	-113.4484
386	0.193	-16.0684782609	-0.345918367347	5.93333333333	-107.822
387	0.1935	-14.6608695652	-1.76326530612	4.5	-100.789
388	0.194	9.26847826087	1.07142857143	7.36666666667	-96.5692
389	0.1945	-4.80760869565	-0.345918367347	7.36666666667	-95.1626
390	0.195	-3.4	2.4887755102	3.06666666667	-74.0636
391	0.1955	-4.80760869565	2.4887755102	4.5	-100.789
392	0.196	-4.80760869565	-0.345918367347	3.06666666667	-89.5362
393	0.1965	-6.2152173913	2.4887755102	-1.23333333333	-85.3164
394	0.197	-9.03043478261	-1.76326530612	4.5	-74.0636
395	0.1975	-6.2152173913	-0.345918367347	-1.23333333333	-71.2504
396	0.198	-9.03043478261	-1.76326530612	-6.96666666667	-58.591
397	0.1985	-4.80760869565	-7.43265306122	0.2	-51.558
398	0.199	-4.80760869565	-3.1806122449	1.63333333333	-45.9316
399	0.1995	-4.80760869565	-4.59795918367	1.63333333333	-41.7118
400	0.2	-14.6608695652	1.07142857143	0.2	-33.2722
401	0.2005	-16.0684782609	-1.76326530612	0.2	-29.0524
402	0.201	17.7141304348	-0.345918367347	0.2	-24.8326
403	0.2015	14.8989130435	1.07142857143	1.63333333333	-16.393
404	0.202	-9.03043478261	-0.345918367347	1.63333333333	-16.393
405	0.2025	-3.4	-0.345918367347	3.06666666667	-14.9864
406	0.203	-3.4	-1.76326530612	4.5	-3.7336
407	0.2035	-3.4	1.07142857143	-9.83333333333	-3.7336
408	0.204	-3.4	-3.1806122449	-4.1	1.8928
409	0.2045	-3.4	-1.76326530612	-9.83333333333	3.2994
410	0.205	-0.584782608696	-3.1806122449	0.2	7.5192
411	0.2055	0.822826086957	-1.76326530612	14.5333333333	13.1456
412	0.206	-1.99239130435	5.32346938776	-1.23333333333	14.5522
413	0.2065	-4.80760869565	-0.345918367347	-1.23333333333	15.9588
414	0.207	3.63804347826	-1.76326530612	1.63333333333	17.3654
415	0.2075	2.23043478261	1.07142857143	0.2	22.9918
416	0.208	12.0836956522	-0.345918367347	-1.23333333333	27.2116
417	0.2085	0.822826086957	-0.345918367347	-2.66666666667	32.838
418	0.209	-6.2152173913	-0.345918367347	-1.23333333333	24.3984
419	0.2095	0.822826086957	-0.345918367347	0.2	28.6182
420	0.21	3.63804347826	2.4887755102	-1.23333333333	32.838
421	0.2105	-1.99239130435	2.4887755102	-4.1	45.4974
422	0.211	-1.99239130435	1.07142857143	-12.7	42.6842
423	0.2115	-1.99239130435	-1.76326530612	-11.2666666667	48.3106
424	0.212	-0.584782608696	-1.76326530612	-12.7	49.7172
425	0.2125	-0.584782608696	5.32346938776	-1.23333333333	49.7172
426	0.213	-0.584782608696	16.662244898	-2.66666666667	53.937
427	0.2135	-3.4	-11.6846938776	-1.23333333333	55.3436
428	0.214	-1.99239130435	-8.85	-5.53333333333	56.7502
429	0.2145	-1.99239130435	-7.43265306122	-1.23333333333	58.1568
430	0.215	-14.6608695652	-0.345918367347	-2.66666666667	60.97
431	0.2155	-11.8456521739	-3.1806122449	-2.66666666667	62.3766
432	0.216	-7.62282608696	-1.76326530612	-5.53333333333	68.003
433	0.2165	-4.80760869565	-0.345918367347	-5.53333333333	76.4426
434	0.217	-1.99239130435	-1.76326530612	-2.66666666667	72.2228
435	0.2175	-4.80760869565	-1.76326530612	-6.96666666667	83.4756
436	0.218	-4.80760869565	-1.76326530612	-12.7	87.6954
437	0.2185	-0.584782608696	-1.76326530612	-12.7	75.036
438	0.219	0.822826086957	-3.1806122449	-8.4	77.8492
439	0.2195	-0.584782608696	1.07142857143	-8.4	77.8492
440	0.22	-1.99239130435	3.90612244898	0.2	79.2558
441	0.2205	-1.99239130435	10.9928571429	0.2	79.2558
442	0.221	-3.4	-7.43265306122	3.06666666667	77.8492
443	0.2215	-10.4380434783	2.4887755102	1.63333333333	77.8492
444	0.222	-0.584782608696	1.07142857143	0.2	76.4426
445	0.2225	-0.584782608696	-0.345918367347	-2.66666666667	79.2558
446	0.223	-3.4	-0.345918367347	0.2	66.5964
447	0.2235	-1.99239130435	-0.345918367347	0.2	68.003
448	0.224	-0.584782608696	-0.345918367347	-1.23333333333	93.3218
449	0.2245	3.63804347826	1.07142857143	-1.23333333333	76.4426
450	0.225	0.822826086957	1.07142857143	4.5	79.2558
451	0.2255	3.63804347826	2.4887755102	-5.53333333333	80.6624
452	0.226	0.822826086957	1.07142857143	-11.2666666667	80.6624
453	0.2265	2.23043478261	-10.2673469388	-1.23333333333	80.6624
454	0.227	5.04565217391	-1.76326530612	0.2	80.6624
455	0.2275	3.63804347826	8.15816326531	-1.23333333333	79.2558
456	0.228	5.04565217391	1.07142857143	-1.23333333333	82.069
457	0.2285	3.63804347826	1.07142857143	-1.23333333333	82.069
458	0.229	-0.584782608696	-0.345918367347	-1.23333333333	83.4756
459	0.2295	10.6760869565	-0.345918367347	-4.1	84.8822
460	0.23	5.04565217391	-0.345918367347	-2.66666666667	82.069
461	0.2305	-4.80760869565	2.4887755102	0.2	77.8492
462	0.231	-3.4	1.07142857143	1.63333333333	79.2558
463	0.2315	-4.80760869565	2.4887755102	-1.23333333333	83.4756
464	0.232	-1.99239130435	1.07142857143	-9.83333333333	84.8822
465	0.2325	-4.80760869565	1.07142857143	0.2	96.135
466	0.233	-0.584782608696	-0.345918367347	1.63333333333	87.6954
467	0.2335	-1.99239130435	3.90612244898	-2.66666666667	84.8822
468	0.234	-3.4	2.4887755102	0.2	83.4756
469	0.2345	-3.4	-3.1806122449	-8.4	84.8822
470	0.235	-0.584782608696	-10.2673469388	-1.23333333333	82.069
471	0.2355	-3.4	-7.43265306122	0.2	84.8822
472	0.236	0.822826086957	-1.76326530612	0.2	83.4756
473	0.2365	16.3065217391	-1.76326530612	0.2	82.069
474	0.237	17.7141304348	1.07142857143	0.2	80.6624
475	0.2375	-7.62282608696	1.07142857143	1.63333333333	79.2558
476	0.238	0.822826086957	1.07142857143	0.2	79.2558
477	0.2385	2.23043478261	-0.345918367347	3.06666666667	87.6954
478	0.239	0.822826086957	1.07142857143	7.36666666667	80.6624
479	0.2395	0.822826086957	2.4887755102	7.36666666667	82.069
480	0.24	-0.584782608696	3.90612244898	14.5333333333	77.8492
481	0.2405	-0.584782608696	3.90612244898	0.2	79.2558
482	0.241	0.822826086957	6.74081632653	-1.23333333333	82.069
483	0.2415	-1.99239130435	1.07142857143	-6.96666666667	79.2558
484	0.242	-0.584782608696	-8.85	0.2	79.2558
485	0.2425	-3.4	-1.76326530612	1.63333333333	79.2558
486	0.243	-0.584782608696	-3.1806122449	-1.23333333333	79.2558
487	0.2435	3.63804347826	1.07142857143	-1.23333333333	80.6624
488	0.244	12.0836956522	-1.76326530612	1.63333333333	79.2558
489	0.2445	-4.80760869565	-4.59795918367	-1.23333333333	79.2558
490	0.245	-6.2152173913	-3.1806122449	0.2	69.4096
491	0.2455	0.822826086957	-0.345918367347	3.06666666667	68.003
492	0.246	3.63804347826	1.07142857143	4.5	73.6294
493	0.2465	3.63804347826	-0.345918367347	0.2	69.4096
494	0.247	0.822826086957	-1.76326530612	8.8	75.036
495	0.2475	0.822826086957	1.07142857143	3.06666666667	75.036
496	0.248	-0.584782608696	-1.76326530612	-4.1	76.4426
497	0.2485	0.822826086957	2.4887755102	-2.66666666667	73.6294
498	0.249	5.04565217391	13.8275510204	-1.23333333333	73.6294
499	0.2495	5.04565217391	16.662244898	-4.1	77.8492
500	0.25	-0.584782608696	19.4969387755	-1.23333333333	76.4426
501	0.2505	3.63804347826	-1.76326530612	0.2	75.036
502	0.251	-11.8456521739	-3.1806122449	-1.23333333333	75.036
503	0.2515	-10.4380434783	-1.76326530612	1.63333333333	75.036
504	0.252	0.822826086957	-0.345918367347	0.2	73.6294
505	0.2525	-11.8456521739	1.07142857143	3.06666666667	66.5964
506	0.253	-11.8456521739	3.90612244898	0.2	73.6294
507	0.2535	-7.62282608696	2.4887755102	-1.23333333333	72.2228
508	0.254	-9.03043478261	2.4887755102	0.2	62.3766
509	0.2545	-7.62282608696	1.07142857143	14.5333333333	66.5964
510	0.255	-7.62282608696	1.07142857143	15.9666666667	65.1898
511	0.2555	-11.8456521739	-0.345918367347	15.9666666667	58.1568
512	0.256	-9.03043478261	1.07142857143	15.9666666667	62.3766
513	0.2565	-7.62282608696	-1.76326530612	-1.23333333333	65.1898
514	0.257	-7.62282608696	-0.345918367347	-1.23333333333	60.97
515	0.2575	-1.99239130435	-10.2673469388	-1.23333333333	62.3766
516	0.258	-3.4	-8.85	-1.23333333333	62.3766
517	0.2585	-0.584782608696	-8.85	-2.66666666667	65.1898
518	0.259	7.86086956522	-1.76326530612	0.2	65.1898
519	0.2595	7.86086956522	1.07142857143	-1.23333333333	63.7832
520	0.26	-4.80760869565	1.07142857143	0.2	63.7832
521	0.2605	-6.2152173913	-0.345918367347	-2.66666666667	59.5634
522	0.261	2.23043478261	1.07142857143	-1.23333333333	65.1898
523	0.2615	3.63804347826	-0.345918367347	-2.66666666667	73.6294
524	0.262	2.23043478261	2.4887755102	-1.23333333333	52.5304
525	0.2625	0.822826086957	-0.345918367347	-5.53333333333	53.937
526	0.263	-1.99239130435	-0.345918367347	3.06666666667	59.5634
527	0.2635	-0.584782608696	-1.76326530612	4.5	59.5634
528	0.264	-0.584782608696	-1.76326530612	4.5	59.5634
529	0.2645	-1.99239130435	-7.43265306122	-2.66666666667	59.5634
530	0.265	-1.99239130435	18.0795918367	-1.23333333333	59.5634
531	0.2655	0.822826086957	18.0795918367	-2.66666666667	59.5634
532	0.266	-0.584782608696	-0.345918367347	-1.23333333333	58.1568
533	0.2665	-1.99239130435	-0.345918367347	0.2	56.7502
534	0.267	-3.4	-0.345918367347	-2.66666666667	58.1568
535	0.2675	10.6760869565	-3.1806122449	4.5	52.5304
536	0.268	-4.80760869565	-1.76326530612	1.63333333333	49.7172
537	0.2685	-6.2152173913	-0.345918367347	0.2	55.3436
538	0.269	-3.4	-1.76326530612	0.2	60.97
539	0.2695	-0.584782608696	-4.59795918367	0.2	56.7502
540	0.27	0.822826086957	-0.345918367347	-1.23333333333	65.1898
541	0.2705	0.822826086957	-1.76326530612	-12.7	65.1898
542	0.271	-0.584782608696	-0.345918367347	-12.7	51.1238
543	0.2715	3.63804347826	-1.76326530612	-9.83333333333	53.937
544	0.272	0.822826086957	-0.345918367347	-1.23333333333	53.937
545	0.2725	-0.584782608696	18.0795918367	-1.23333333333	52.5304
546	0.273	2.23043478261	18.0795918367	-1.23333333333	49.7172
547	0.2735	0.822826086957	15.2448979592	-1.23333333333	51.1238
548	0.274	-1.99239130435	-7.43265306122	0.2	51.1238
549	0.2745	-3.4	-0.345918367347	-1.23333333333	52.5304
550	0.275	10.6760869565	1.07142857143	-2.66666666667	52.5304
551	0.2755	12.0836956522	2.4887755102	-1.23333333333	52.5304
552	0.276	-7.62282608696	1.07142857143	0.2	51.1238
553	0.2765	-0.584782608696	2.4887755102	-2.66666666667	62.3766
554	0.277	-0.584782608696	-0.345918367347	1.63333333333	38.4644
555	0.2775	-0.584782608696	1.07142857143	1.63333333333	42.6842
556	0.278	2.23043478261	-0.345918367347	-2.66666666667	45.4974
557	0.2785	0.822826086957	-0.345918367347	4.5	51.1238
558	0.279	2.23043478261	1.07142857143	0.2	51.1238
559	0.2795	2.23043478261	-0.345918367347	-4.1	51.1238
560	0.28	-1.99239130435	20.9142857143	-1.23333333333	51.1238
561	0.2805	0.822826086957	19.4969387755	-2.66666666667	49.7172
562	0.281	0.822826086957	19.4969387755	0.2	52.5304
563	0.2815	0.822826086957	-3.1806122449	-1.23333333333	48.3106
564	0.282	0.822826086957	-6.01530612245	-1.23333333333	49.7172
565	0.2825	14.8989130435	2.4887755102	-1.23333333333	51.1238
566	0.283	-6.2152173913	2.4887755102	-1.23333333333	46.904
567	0.2835	-6.2152173913	1.07142857143	1.63333333333	39.871
568	0.284	0.822826086957	1.07142857143	1.63333333333	38.4644
569	0.2845	-1.99239130435	-3.1806122449	0.2	58.1568
570	0.285	0.822826086957	1.07142857143	5.93333333333	46.904
571	0.2855	-1.99239130435	2.4887755102	5.93333333333	52.5304
572	0.286	-1.99239130435	5.32346938776	8.8	46.904
573	0.2865	0.822826086957	5.32346938776	0.2	45.4974
574	0.287	-0.584782608696	5.32346938776	0.2	45.4974
575	0.2875	0.822826086957	8.15816326531	4.5	39.871
576	0.288	0.822826086957	-4.59795918367	0.2	41.2776
577	0.2885	2.23043478261	-4.59795918367	1.63333333333	41.2776
578	0.289	-0.584782608696	-6.01530612245	0.2	42.6842
579	0.2895	-1.99239130435	-1.76326530612	0.2	41.2776
580	0.29	-16.0684782609	1.07142857143	1.63333333333	44.0908
581	0.2905	-10.4380434783	-0.345918367347	1.63333333333	45.4974
582	0.291	-10.4380434783	-0.345918367347	-1.23333333333	39.871
583	0.2915	-13.2532608696	-0.345918367347	3.06666666667	42.6842
584	0.292	-4.80760869565	1.07142857143	1.63333333333	34.2446
585	0.2925	-4.80760869565	2.4887755102	0.2	34.2446
586	0.293	-6.2152173913	2.4887755102	-4.1	42.6842
587	0.2935	-6.2152173913	2.4887755102	-1.23333333333	45.4974
588	0.294	-7.62282608696	3.90612244898	-1.23333333333	42.6842
589	0.2945	-4.80760869565	3.90612244898	-2.66666666667	41.2776
590	0.295	-4.80760869565	-10.2673469388	-1.23333333333	38.4644
591	0.2955	-4.80760869565	-8.85	1.63333333333	38.4644
592	0.296	-4.80760869565	-10.2673469388	0.2	39.871
593	0.2965	-4.80760869565	-8.85	0.2	41.2776
594	0.297	-3.4	-6.01530612245	-1.23333333333	39.871
595	0.2975	-10.4380434783	-10.2673469388	-1.23333333333	42.6842
596	0.298	12.0836956522	-1.76326530612	0.2	38.4644
597	0.2985	-1.99239130435	-4.59795918367	-1.23333333333	31.4314
598	0.299	-4.80760869565	-3.1806122449	1.63333333333	38.4644
599	0.2995	-3.4	-3.1806122449	-1.23333333333	27.2116
600	0.3	-1.99239130435	-1.76326530612	1.63333333333	30.0248
601	0.3005	-1.99239130435	-1.76326530612	-2.66666666667	53.937
602	0.301	2.23043478261	2.4887755102	-1.23333333333	38.4644
603	0.3015	0.822826086957	-1.76326530612	3.06666666667	37.0578
604	0.302	-1.99239130435	1.07142857143	-2.66666666667	39.871
605	0.3025	-1.99239130435	3.90612244898	0.2	38.4644
606	0.303	-4.80760869565	1.07142857143	0.2	39.871
607	0.3035	-4.80760869565	-8.85	0.2	38.4644
608	0.304	-1.99239130435	-10.2673469388	1.63333333333	37.0578
609	0.3045	-4.80760869565	-6.01530612245	4.5	37.0578
610	0.305	-11.8456521739	1.07142857143	1.63333333333	39.871
611	0.3055	-13.2532608696	1.07142857143	0.2	35.6512
612	0.306	21.9369565217	-1.76326530612	-1.23333333333	35.6512
613	0.3065	20.5293478261	-3.1806122449	0.2	38.4644
614	0.307	-9.03043478261	-6.01530612245	1.63333333333	38.4644
615	0.3075	9.26847826087	-1.76326530612	-2.66666666667	42.6842
616	0.308	5.04565217391	1.07142857143	-1.23333333333	55.3436
617	0.3085	2.23043478261	-0.345918367347	-8.4	38.4644
618	0.309	0.822826086957	-1.76326530612	15.9666666667	41.2776
619	0.3095	-1.99239130435	-1.76326530612	15.9666666667	38.4644
620	0.31	-6.2152173913	-1.76326530612	-6.96666666667	41.2776
621	0.3105	-4.80760869565	-1.76326530612	-9.83333333333	41.2776
622	0.311	-1.99239130435	9.57551020408	0.2	39.871
623	0.3115	3.63804347826	18.0795918367	1.63333333333	39.871
624	0.312	-3.4	-7.43265306122	1.63333333333	42.6842
625	0.3125	-7.62282608696	-6.01530612245	-1.23333333333	42.6842
626	0.313	-7.62282608696	-4.59795918367	-2.66666666667	44.0908
627	0.3135	-4.80760869565	1.07142857143	1.63333333333	45.4974
628	0.314	-4.80760869565	3.90612244898	-2.66666666667	45.4974
629	0.3145	-4.80760869565	1.07142857143	1.63333333333	41.2776
630	0.315	-9.03043478261	2.4887755102	1.63333333333	37.0578
631	0.3155	-7.62282608696	2.4887755102	-4.1	60.97
632	0.316	-6.2152173913	3.90612244898	-14.1333333333	46.904
633	0.3165	-6.2152173913	1.07142857143	-11.2666666667	41.2776
634	0.317	-6.2152173913	-1.76326530612	15.9666666667	48.3106
635	0.3175	-1.99239130435	-0.345918367347	17.4	46.904
636	0.318	-3.4	-0.345918367347	-6.96666666667	45.4974
637	0.3185	-1.99239130435	-10.2673469388	-2.66666666667	45.4974
638	0.319	0.822826086957	9.57551020408	3.06666666667	46.904
639	0.3195	0.822826086957	15.2448979592	-1.23333333333	46.904
640	0.32	-0.584782608696	10.9928571429	0.2	46.904
641	0.3205	-6.2152173913	-0.345918367347	0.2	48.3106
642	0.321	-6.2152173913	-0.345918367347	0.2	48.3106
643	0.3215	12.0836956522	-1.76326530612	3.06666666667	48.3106
644	0.322	-6.2152173913	-1.76326530612	0.2	51.1238
645	0.3225	-10.4380434783	-0.345918367347	0.2	39.871
646	0.323	-9.03043478261	-0.345918367347	1.63333333333	48.3106
647	0.3235	-0.584782608696	1.07142857143	1.63333333333	51.1238
648	0.324	-3.4	1.07142857143	-9.83333333333	45.4974
649	0.3245	-3.4	3.90612244898	-11.2666666667	45.4974
650	0.325	-4.80760869565	2.4887755102	14.5333333333	46.904
651	0.3255	-3.4	5.32346938776	11.6666666667	46.904
652	0.326	-1.99239130435	-4.59795918367	0.2	46.904
653	0.3265	-4.80760869565	-10.2673469388	0.2	48.3106
654	0.327	-4.80760869565	-10.2673469388	0.2	49.7172
655	0.3275	-4.80760869565	-4.59795918367	0.2	45.4974
656	0.328	-6.2152173913	-6.01530612245	-2.66666666667	44.0908
657	0.3285	-1.99239130435	20.9142857143	-2.66666666667	44.0908
658	0.329	-7.62282608696	-1.76326530612	-2.66666666667	45.4974
659	0.3295	13.4913043478	-1.76326530612	0.2	42.6842
660	0.33	5.04565217391	-3.1806122449	-1.23333333333	35.6512
661	0.3305	-3.4	-4.59795918367	1.63333333333	39.871
662	0.331	0.822826086957	-1.76326530612	1.63333333333	32.838
663	0.3315	-0.584782608696	-1.76326530612	1.63333333333	34.2446
664	0.332	-0.584782608696	-0.345918367347	3.06666666667	58.1568
665	0.3325	-0.584782608696	-0.345918367347	-8.4	42.6842
666	0.333	-0.584782608696	-0.345918367347	-8.4	42.6842
667	0.3335	0.822826086957	-3.1806122449	-6.96666666667	48.3106
668	0.334	0.822826086957	-1.76326530612	1.63333333333	46.904
669	0.3345	2.23043478261	5.32346938776	0.2	44.0908
670	0.335	3.63804347826	-7.43265306122	0.2	45.4974
671	0.3355	-1.99239130435	-7.43265306122	0.2	48.3106
672	0.336	-4.80760869565	-10.2673469388	1.63333333333	48.3106
673	0.3365	-7.62282608696	-0.345918367347	1.63333333333	48.3106
674	0.337	-7.62282608696	1.07142857143	1.63333333333	48.3106
675	0.3375	14.8989130435	1.07142857143	0.2	48.3106
676	0.338	0.822826086957	-0.345918367347	1.63333333333	51.1238
677	0.3385	-3.4	3.90612244898	3.06666666667	55.3436
678	0.339	-0.584782608696	1.07142857143	1.63333333333	44.0908
679	0.3395	-1.99239130435	3.90612244898	3.06666666667	45.4974
680	0.34	-3.4	1.07142857143	18.8333333333	51.1238
681	0.3405	-3.4	2.4887755102	-4.1	48.3106
682	0.341	-3.4	-0.345918367347	-6.96666666667	48.3106
683	0.3415	-0.584782608696	-0.345918367347	3.06666666667	49.7172
684	0.342	-1.99239130435	1.07142857143	4.5	46.904
685	0.3425	0.822826086957	-13.1020408163	1.63333333333	49.7172
686	0.343	-1.99239130435	-10.2673469388	1.63333333333	48.3106
687	0.3435	-1.99239130435	-8.85	0.2	49.7172
688	0.344	-4.80760869565	1.07142857143	-1.23333333333	46.904
689	0.3445	-0.584782608696	-0.345918367347	1.63333333333	48.3106
690	0.345	12.0836956522	-3.1806122449	0.2	48.3106
691	0.3455	2.23043478261	-0.345918367347	3.06666666667	51.1238
692	0.346	-1.99239130435	-1.76326530612	4.5	44.0908
693	0.3465	-4.80760869565	-1.76326530612	4.5	46.904
694	0.347	-1.99239130435	-1.76326530612	4.5	45.4974
695	0.3475	-4.80760869565	-0.345918367347	3.06666666667	39.871
696	0.348	-6.2152173913	1.07142857143	0.2	39.871
697	0.3485	-6.2152173913	1.07142857143	-8.4	42.6842
698	0.349	-7.62282608696	-1.76326530612	-5.53333333333	48.3106
699	0.3495	-9.03043478261	1.07142857143	-4.1	46.904
700	0.35	-6.2152173913	18.0795918367	0.2	48.3106
701	0.3505	-6.2152173913	13.8275510204	-1.23333333333	46.904
702	0.351	-9.03043478261	8.15816326531	-1.23333333333	48.3106
703	0.3515	-7.62282608696	6.74081632653	-1.23333333333	45.4974
704	0.352	0.822826086957	-1.76326530612	0.2	45.4974
705	0.3525	16.3065217391	-0.345918367347	3.06666666667	42.6842
706	0.353	7.86086956522	3.90612244898	0.2	42.6842
707	0.3535	-1.99239130435	3.90612244898	0.2	41.2776
708	0.354	-3.4	3.90612244898	-4.1	38.4644
709	0.3545	-1.99239130435	3.90612244898	1.63333333333	31.4314
710	0.355	-4.80760869565	8.15816326531	1.63333333333	31.4314
711	0.3555	-3.4	8.15816326531	-4.1	32.838
712	0.356	-1.99239130435	5.32346938776	5.93333333333	42.6842
713	0.3565	-1.99239130435	3.90612244898	1.63333333333	39.871
714	0.357	-3.4	5.32346938776	14.5333333333	42.6842
715	0.3575	-0.584782608696	5.32346938776	3.06666666667	41.2776
716	0.358	-3.4	9.57551020408	3.06666666667	38.4644
717	0.3585	-4.80760869565	2.4887755102	4.5	38.4644
718	0.359	-3.4	-8.85	-1.23333333333	34.2446
719	0.3595	-0.584782608696	-8.85	-1.23333333333	35.6512
720	0.36	-6.2152173913	-11.6846938776	0.2	31.4314
721	0.3605	12.0836956522	1.07142857143	-1.23333333333	34.2446
722	0.361	-9.03043478261	1.07142857143	0.2	30.0248
723	0.3615	-4.80760869565	-0.345918367347	-1.23333333333	51.1238
724	0.362	-7.62282608696	-1.76326530612	-2.66666666667	51.1238
725	0.3625	-6.2152173913	-0.345918367347	-1.23333333333	49.7172
726	0.363	-7.62282608696	-4.59795918367	1.63333333333	37.0578
727	0.3635	-7.62282608696	-6.01530612245	-9.83333333333	35.6512
728	0.364	-9.03043478261	-1.76326530612	-12.7	37.0578
729	0.3645	-7.62282608696	-3.1806122449	-6.96666666667	38.4644
730	0.365	-10.4380434783	-10.2673469388	0.2	39.871
731	0.3655	-7.62282608696	3.90612244898	-1.23333333333	39.871
732	0.366	-6.2152173913	16.662244898	-1.23333333333	39.871
733	0.3665	-4.80760869565	-7.43265306122	1.63333333333	42.6842
734	0.367	-9.03043478261	1.07142857143	-1.23333333333	45.4974
735	0.3675	3.63804347826	1.07142857143	-4.1	42.6842
736	0.368	7.86086956522	-0.345918367347	-1.23333333333	42.6842
737	0.3685	-14.6608695652	1.07142857143	-1.23333333333	45.4974
738	0.369	-6.2152173913	1.07142857143	0.2	38.4644
739	0.3695	-4.80760869565	-3.1806122449	0.2	53.937
740	0.37	-4.80760869565	-0.345918367347	3.06666666667	39.871
741	0.3705	-3.4	-0.345918367347	4.5	37.0578
742	0.371	-1.99239130435	2.4887755102	3.06666666667	34.2446
743	0.3715	-3.4	2.4887755102	13.1	41.2776
744	0.372	-1.99239130435	-3.1806122449	-1.23333333333	39.871
745	0.3725	-6.2152173913	-1.76326530612	-5.53333333333	38.4644
746	0.373	-3.4	9.57551020408	1.63333333333	38.4644
747	0.3735	-0.584782608696	12.4102040816	0.2	39.871
748	0.374	3.63804347826	3.90612244898	0.2	39.871
749	0.3745	3.63804347826	2.4887755102	-1.23333333333	39.871
750	0.375	-11.8456521739	3.90612244898	0.2	41.2776
751	0.3755	-10.4380434783	3.90612244898	0.2	37.0578
752	0.376	-7.62282608696	2.4887755102	1.63333333333	44.0908
753	0.3765	-7.62282608696	-0.345918367347	-1.23333333333	42.6842
754	0.377	-6.2152173913	-0.345918367347	-2.66666666667	53.937
755	0.3775	-7.62282608696	-0.345918367347	1.63333333333	39.871
756	0.378	-6.2152173913	2.4887755102	-8.4	34.2446
757	0.3785	-3.4	-0.345918367347	-2.66666666667	35.6512
758	0.379	-1.99239130435	-3.1806122449	-9.83333333333	35.6512
759	0.3795	-0.584782608696	-11.6846938776	-1.23333333333	37.0578
760	0.38	-1.99239130435	-10.2673469388	-1.23333333333	38.4644
761	0.3805	-0.584782608696	-3.1806122449	3.06666666667	37.0578
762	0.381	-0.584782608696	-4.59795918367	0.2	39.871
763	0.3815	0.822826086957	-0.345918367347	-1.23333333333	41.2776
764	0.382	-3.4	-7.43265306122	1.63333333333	41.2776
765	0.3825	-10.4380434783	-1.76326530612	1.63333333333	42.6842
766	0.383	-7.62282608696	2.4887755102	0.2	38.4644
767	0.3835	-7.62282608696	2.4887755102	-2.66666666667	44.0908
768	0.384	-4.80760869565	2.4887755102	-4.1	53.937
769	0.3845	-1.99239130435	1.07142857143	-4.1	48.3106
770	0.385	-0.584782608696	1.07142857143	-1.23333333333	56.7502
771	0.3855	-4.80760869565	1.07142857143	-4.1	42.6842
772	0.386	-0.584782608696	-1.76326530612	-4.1	44.0908
773	0.3865	-3.4	-0.345918367347	-1.23333333333	39.871
774	0.387	-7.62282608696	-10.2673469388	0.2	41.2776
775	0.3875	-4.80760869565	-7.43265306122	0.2	42.6842
776	0.388	-6.2152173913	5.32346938776	-1.23333333333	41.2776
777	0.3885	-9.03043478261	5.32346938776	0.2	41.2776
778	0.389	-23.1065217391	1.07142857143	1.63333333333	38.4644
779	0.3895	-21.6989130435	-1.76326530612	1.63333333333	38.4644
780	0.39	-7.62282608696	-4.59795918367	3.06666666667	35.6512
781	0.3905	-9.03043478261	-1.76326530612	1.63333333333	45.4974
782	0.391	-3.4	-4.59795918367	-1.23333333333	51.1238
783	0.3915	-1.99239130435	-3.1806122449	3.06666666667	27.2116
784	0.392	-0.584782608696	-6.01530612245	4.5	25.805
785	0.3925	-4.80760869565	-3.1806122449	-6.96666666667	34.2446
786	0.393	-6.2152173913	-0.345918367347	0.2	34.2446
787	0.3935	-3.4	5.32346938776	-4.1	35.6512
788	0.394	-1.99239130435	5.32346938776	-1.23333333333	37.0578
789	0.3945	0.822826086957	6.74081632653	0.2	34.2446
790	0.395	-0.584782608696	-7.43265306122	-1.23333333333	37.0578
791	0.3955	-0.584782608696	-6.01530612245	-1.23333333333	39.871
792	0.396	2.23043478261	1.07142857143	1.63333333333	41.2776
793	0.3965	-3.4	-1.76326530612	-1.23333333333	42.6842
794	0.397	17.7141304348	-1.76326530612	1.63333333333	45.4974
795	0.3975	-4.80760869565	-0.345918367347	-1.23333333333	45.4974
796	0.398	-10.4380434783	-4.59795918367	0.2	38.4644
797	0.3985	-10.4380434783	-3.1806122449	-1.23333333333	46.904
798	0.399	-7.62282608696	-1.76326530612	-1.23333333333	49.7172
799	0.3995	-4.80760869565	1.07142857143	-11.2666666667	46.904
800	0.4	-4.80760869565	-0.345918367347	-9.83333333333	62.3766
801	0.4005	-4.80760869565	-1.76326530612	-8.4	49.7172
802	0.401	-0.584782608696	2.4887755102	-5.53333333333	52.5304
803	0.4015	0.822826086957	5.32346938776	0.2	51.1238
804	0.402	2.23043478261	2.4887755102	-4.1	51.1238
805	0.4025	3.63804347826	-7.43265306122	4.5	51.1238
806	0.403	3.63804347826	-8.85	0.2	49.7172
807	0.4035	0.822826086957	-7.43265306122	1.63333333333	45.4974
808	0.404	17.7141304348	-3.1806122449	4.5	44.0908
809	0.4045	19.1217391304	-0.345918367347	3.06666666667	46.904
810	0.405	14.8989130435	-3.1806122449	-1.23333333333	45.4974
811	0.4055	9.26847826087	-6.01530612245	-1.23333333333	45.4974
812	0.406	-3.4	-3.1806122449	1.63333333333	34.2446
813	0.4065	-4.80760869565	-4.59795918367	5.93333333333	35.6512
814	0.407	-3.4	1.07142857143	-5.53333333333	39.871
815	0.4075	-7.62282608696	2.4887755102	-1.23333333333	51.1238
816	0.408	-11.8456521739	6.74081632653	4.5	42.6842
817	0.4085	-13.2532608696	10.9928571429	0.2	38.4644
818	0.409	-9.03043478261	9.57551020408	3.06666666667	39.871
819	0.4095	-4.80760869565	6.74081632653	-1.23333333333	42.6842
820	0.41	-4.80760869565	12.4102040816	-1.23333333333	38.4644
821	0.4105	-0.584782608696	3.90612244898	1.63333333333	39.871
822	0.411	-3.4	-0.345918367347	-1.23333333333	41.2776
823	0.4115	-4.80760869565	1.07142857143	-4.1	44.0908
824	0.412	23.3445652174	-0.345918367347	0.2	41.2776
825	0.4125	7.86086956522	-0.345918367347	0.2	46.904
826	0.413	7.86086956522	-0.345918367347	-2.66666666667	42.6842
827	0.4135	9.26847826087	-0.345918367347	4.5	45.4974
828	0.414	7.86086956522	-3.1806122449	-1.23333333333	42.6842
829	0.4145	3.63804347826	-6.01530612245	-8.4	45.4974
830	0.415	2.23043478261	-10.2673469388	-6.96666666667	51.1238
831	0.4155	-0.584782608696	-10.2673469388	-5.53333333333	51.1238
832	0.416	0.822826086957	-11.6846938776	-1.23333333333	49.7172
833	0.4165	0.822826086957	-1.76326530612	-2.66666666667	53.937
834	0.417	3.63804347826	-10.2673469388	-2.66666666667	46.904
835	0.4175	5.04565217391	-10.2673469388	-1.23333333333	48.3106
836	0.418	0.822826086957	-4.59795918367	0.2	46.904
837	0.4185	-6.2152173913	-4.59795918367	-1.23333333333	44.0908
838	0.419	0.822826086957	-4.59795918367	0.2	46.904
839	0.4195	-10.4380434783	-4.59795918367	-1.23333333333	48.3106
840	0.42	-6.2152173913	-4.59795918367	1.63333333333	44.0908
841	0.4205	-11.8456521739	-4.59795918367	4.5	42.6842
842	0.421	-6.2152173913	-3.1806122449	1.63333333333	44.0908
843	0.4215	-9.03043478261	-0.345918367347	8.8	51.1238
844	0.422	-7.62282608696	-0.345918367347	5.93333333333	48.3106
845	0.4225	-4.80760869565	1.07142857143	0.2	46.904
846	0.423	-9.03043478261	16.662244898	5.93333333333	48.3106
847	0.4235	-4.80760869565	18.0795918367	4.5	53.937
848	0.424	-6.2152173913	16.662244898	0.2	56.7502
849	0.4245	-7.62282608696	-6.01530612245	0.2	53.937
850	0.425	-10.4380434783	-7.43265306122	-1.23333333333	55.3436
851	0.4255	-0.584782608696	-1.76326530612	-1.23333333333	53.937
852	0.426	2.23043478261	-0.345918367347	-1.23333333333	58.1568
853	0.4265	10.6760869565	2.4887755102	-1.23333333333	59.5634
854	0.427	-3.4	3.90612244898	-4.1	68.003
855	0.4275	-3.4	1.07142857143	1.63333333333	45.4974
856	0.428	-0.584782608696	-0.345918367347	0.2	46.904
857	0.4285	-3.4	-1.76326530612	0.2	45.4974
858	0.429	0.822826086957	2.4887755102	-1.23333333333	46.904
859	0.4295	0.822826086957	1.07142857143	-1.23333333333	55.3436
860	0.43	3.63804347826	3.90612244898	14.5333333333	55.3436
861	0.4305	9.26847826087	-10.2673469388	0.2	53.937
862	0.431	12.0836956522	6.74081632653	1.63333333333	58.1568
863	0.4315	12.0836956522	-0.345918367347	3.06666666667	55.3436
864	0.432	7.86086956522	1.07142857143	0.2	56.7502
865	0.4325	13.4913043478	-7.43265306122	-1.23333333333	56.7502
866	0.433	19.1217391304	-6.01530612245	-2.66666666667	56.7502
867	0.4335	19.1217391304	-4.59795918367	0.2	59.5634
868	0.434	-16.0684782609	-6.01530612245	-4.1	56.7502
869	0.4345	-7.62282608696	-8.85	-1.23333333333	60.97
870	0.435	-4.80760869565	-1.76326530612	1.63333333333	52.5304
871	0.4355	-6.2152173913	-0.345918367347	-8.4	55.3436
872	0.436	-4.80760869565	1.07142857143	18.8333333333	53.937
873	0.4365	-4.80760869565	2.4887755102	18.8333333333	56.7502
874	0.437	-1.99239130435	2.4887755102	-6.96666666667	56.7502
875	0.4375	-3.4	2.4887755102	-1.23333333333	56.7502
876	0.438	-0.584782608696	5.32346938776	0.2	56.7502
877	0.4385	-1.99239130435	10.9928571429	0.2	56.7502
878	0.439	-1.99239130435	-7.43265306122	-1.23333333333	55.3436
879	0.4395	-3.4	-3.1806122449	-1.23333333333	55.3436
880	0.44	-4.80760869565	3.90612244898	0.2	53.937
881	0.4405	7.86086956522	1.07142857143	3.06666666667	56.7502
882	0.441	13.4913043478	3.90612244898	-1.23333333333	56.7502
883	0.4415	-9.03043478261	1.07142857143	-4.1	51.1238
884	0.442	-3.4	-3.1806122449	-5.53333333333	60.97
885	0.4425	0.822826086957	-4.59795918367	1.63333333333	46.904
886	0.443	3.63804347826	-3.1806122449	-2.66666666667	62.3766
887	0.4435	0.822826086957	-6.01530612245	15.9666666667	59.5634
888	0.444	0.822826086957	-3.1806122449	4.5	62.3766
889	0.4445	-0.584782608696	-8.85	-1.23333333333	60.97
890	0.445	-4.80760869565	-10.2673469388	-1.23333333333	62.3766
891	0.4455	-4.80760869565	-11.6846938776	0.2	58.1568
892	0.446	-6.2152173913	-4.59795918367	-1.23333333333	56.7502
893	0.4465	-1.99239130435	-3.1806122449	1.63333333333	53.937
894	0.447	-4.80760869565	-1.76326530612	3.06666666667	52.5304
895	0.4475	2.23043478261	1.07142857143	4.5	55.3436
896	0.448	-3.4	5.32346938776	3.06666666667	42.6842
897	0.4485	-1.99239130435	1.07142857143	-1.23333333333	55.3436
898	0.449	3.63804347826	-0.345918367347	0.2	60.97
899	0.4495	2.23043478261	-6.01530612245	0.2	52.5304
900	0.45	0.822826086957	-1.76326530612	0.2	51.1238
901	0.4505	3.63804347826	-1.76326530612	14.5333333333	58.1568
902	0.451	3.63804347826	1.07142857143	5.93333333333	53.937
903	0.4515	0.822826086957	1.07142857143	0.2	56.7502
904	0.452	-1.99239130435	-6.01530612245	1.63333333333	56.7502
905	0.4525	-0.584782608696	-4.59795918367	1.63333333333	55.3436
906	0.453	0.822826086957	2.4887755102	1.63333333333	53.937
907	0.4535	-13.2532608696	1.07142857143	4.5	52.5304
908	0.454	-10.4380434783	5.32346938776	3.06666666667	46.904
909	0.4545	13.4913043478	9.57551020408	5.93333333333	44.0908
910	0.455	2.23043478261	8.15816326531	4.5	41.2776
911	0.4555	-6.2152173913	9.57551020408	4.5	44.0908
912	0.456	-10.4380434783	8.15816326531	1.63333333333	31.4314
913	0.4565	-14.6608695652	2.4887755102	4.5	53.937
914	0.457	-18.8836956522	1.07142857143	-2.66666666667	37.0578
915	0.4575	-17.4760869565	-0.345918367347	-4.1	42.6842
916	0.458	-18.8836956522	-3.1806122449	-4.1	46.904
917	0.4585	-16.0684782609	-4.59795918367	0.2	48.3106
918	0.459	-20.2913043478	-18.7714285714	3.06666666667	45.4974
919	0.4595	-17.4760869565	-11.6846938776	3.06666666667	42.6842
920	0.46	-14.6608695652	-6.01530612245	1.63333333333	41.2776
921	0.4605	-9.03043478261	-1.76326530612	0.2	42.6842
922	0.461	-17.4760869565	-1.76326530612	3.06666666667	45.4974
923	0.4615	-9.03043478261	-4.59795918367	1.63333333333	37.0578
924	0.462	-17.4760869565	1.07142857143	-1.23333333333	45.4974
925	0.4625	-27.3293478261	3.90612244898	0.2	53.937
926	0.463	-80.8184782609	1.07142857143	1.63333333333	34.2446
927	0.4635	-131.492391304	1.07142857143	4.5	35.6512
928	0.464	-149.791304348	2.4887755102	-4.1	38.4644
929	0.4645	-116.008695652	1.07142857143	-6.96666666667	35.6512
930	0.465	-39.997826087	1.07142857143	-4.1	38.4644
931	0.4655	26.1597826087	10.9928571429	1.63333333333	38.4644
932	0.466	74.0184782609	16.662244898	0.2	38.4644
933	0.4665	103.57826087	-8.85	3.06666666667	39.871
934	0.467	88.0945652174	-7.43265306122	3.06666666667	38.4644
935	0.4675	64.1652173913	-0.345918367347	3.06666666667	39.871
936	0.468	47.2739130435	1.07142857143	3.06666666667	42.6842
937	0.4685	37.4206521739	1.07142857143	5.93333333333	39.871
938	0.469	7.86086956522	-0.345918367347	4.5	35.6512
939	0.4695	10.6760869565	-0.345918367347	4.5	25.805
940	0.47	10.6760869565	-1.76326530612	4.5	27.2116
941	0.4705	10.6760869565	-4.59795918367	7.36666666667	32.838
942	0.471	2.23043478261	-0.345918367347	7.36666666667	27.2116
943	0.4715	2.23043478261	-0.345918367347	3.06666666667	27.2116
944	0.472	-0.584782608696	-7.43265306122	3.06666666667	27.2116
945	0.4725	-0.584782608696	3.90612244898	3.06666666667	27.2116
946	0.473	0.822826086957	8.15816326531	-2.66666666667	25.805
947	0.4735	-4.80760869565	13.8275510204	0.2	21.5852
948	0.474	-9.03043478261	1.07142857143	0.2	18.772
949	0.4745	-16.0684782609	-3.1806122449	1.63333333333	20.1786
950	0.475	14.8989130435	-3.1806122449	-1.23333333333	24.3984
951	0.4755	-3.4	1.07142857143	-1.23333333333	14.5522
952	0.476	2.23043478261	-0.345918367347	1.63333333333	8.9258
953	0.4765	0.822826086957	-3.1806122449	-5.53333333333	10.3324
954	0.477	2.23043478261	-3.1806122449	-8.4	21.5852
955	0.4775	-1.99239130435	3.90612244898	20.2666666667	17.3654
956	0.478	-3.4	6.74081632653	18.8333333333	17.3654
957	0.4785	-4.80760869565	2.4887755102	3.06666666667	20.1786
958	0.479	-6.2152173913	-3.1806122449	0.2	17.3654
959	0.4795	-11.8456521739	-3.1806122449	0.2	17.3654
960	0.48	-10.4380434783	-10.2673469388	5.93333333333	18.772
961	0.4805	-4.80760869565	1.07142857143	7.36666666667	22.9918
962	0.481	-14.6608695652	-10.2673469388	3.06666666667	27.2116
963	0.4815	3.63804347826	-8.85	0.2	28.6182
964	0.482	-17.4760869565	-8.85	-5.53333333333	22.9918
965	0.4825	-10.4380434783	-6.01530612245	-2.66666666667	24.3984
966	0.483	-13.2532608696	-6.01530612245	-2.66666666667	32.838
967	0.4835	-11.8456521739	-4.59795918367	0.2	28.6182
968	0.484	-7.62282608696	1.07142857143	17.4	20.1786
969	0.4845	-6.2152173913	3.90612244898	-8.4	21.5852
970	0.485	-6.2152173913	5.32346938776	-1.23333333333	22.9918
971	0.4855	-1.99239130435	3.90612244898	-1.23333333333	20.1786
972	0.486	-1.99239130435	9.57551020408	1.63333333333	17.3654
973	0.4865	-4.80760869565	10.9928571429	3.06666666667	15.9588
974	0.487	-4.80760869565	-0.345918367347	7.36666666667	8.9258
975	0.4875	-17.4760869565	1.07142857143	7.36666666667	10.3324
976	0.488	-13.2532608696	2.4887755102	4.5	4.706
977	0.4885	-4.80760869565	2.4887755102	0.2	0.4862
978	0.489	7.86086956522	2.4887755102	-1.23333333333	-2.327
979	0.4895	-4.80760869565	-1.76326530612	0.2	-5.1402
980	0.49	-7.62282608696	-1.76326530612	7.36666666667	-9.36
981	0.4905	-7.62282608696	-1.76326530612	1.63333333333	-10.7666
982	0.491	-11.8456521739	-0.345918367347	20.2666666667	-17.7996
983	0.4915	-7.62282608696	-1.76326530612	17.4	-12.1732
984	0.492	-7.62282608696	-0.345918367347	8.8	-13.5798
985	0.4925	-1.99239130435	-15.9367346939	4.5	-16.393
986	0.493	-0.584782608696	-10.2673469388	3.06666666667	-16.393
987	0.4935	3.63804347826	-4.59795918367	0.2	-10.7666
988	0.494	5.04565217391	-4.59795918367	3.06666666667	-9.36
989	0.4945	-11.8456521739	-0.345918367347	1.63333333333	-5.1402
990	0.495	-9.03043478261	1.07142857143	3.06666666667	-7.9534
991	0.4955	14.8989130435	1.07142857143	1.63333333333	-5.1402
992	0.496	-7.62282608696	2.4887755102	1.63333333333	-9.36
993	0.4965	-4.80760869565	1.07142857143	-2.66666666667	6.1126
994	0.497	-1.99239130435	1.07142857143	3.06666666667	8.9258
995	0.4975	-7.62282608696	3.90612244898	-6.96666666667	-3.7336
996	0.498	-7.62282608696	3.90612244898	20.2666666667	-6.5468
997	0.4985	-9.03043478261	10.9928571429	20.2666666667	-6.5468
998	0.499	-7.62282608696	13.8275510204	17.4	-12.1732
999	0.4995	-3.4	9.57551020408	14.5333333333	-6.5468
1000	0.5	-1.99239130435	1.07142857143	4.5	-6.5468
1001	0.5005	-1.99239130435	-1.76326530612	-4.1	-9.36
1002	0.501	-4.80760869565	-6.01530612245	-2.66666666667	-7.9534
1003	0.5015	-6.2152173913	-7.43265306122	-1.23333333333	-6.5468
1004	0.502	0.822826086957	-4.59795918367	0.2	-16.393
1005	0.5025	3.63804347826	-4.59795918367	-1.23333333333	-16.393
1006	0.503	10.6760869565	-6.01530612245	-4.1	-17.7996
1007	0.5035	12.0836956522	-6.01530612245	0.2	-22.0194
1008	0.504	-0.584782608696	-6.01530612245	-1.23333333333	-29.0524
1009	0.5045	0.822826086957	1.07142857143	0.2	-29.0524
1010	0.505	2.23043478261	6.74081632653	-12.7	-26.2392
1011	0.5055	-0.584782608696	10.9928571429	-9.83333333333	-24.8326
1012	0.506	0.822826086957	9.57551020408	-1.23333333333	-24.8326
1013	0.5065	5.04565217391	13.8275510204	11.6666666667	-24.8326
1014	0.507	7.86086956522	-0.345918367347	0.2	-22.0194
1015	0.5075	5.04565217391	-1.76326530612	0.2	-19.2062
1016	0.508	-0.584782608696	1.07142857143	-2.66666666667	-14.9864
1017	0.5085	-3.4	-10.2673469388	-1.23333333333	-17.7996
1018	0.509	-10.4380434783	-15.9367346939	0.2	-16.393
1019	0.5095	-13.2532608696	-17.3540816327	1.63333333333	-16.393
1020	0.51	16.3065217391	-13.1020408163	3.06666666667	-16.393
1021	0.5105	-7.62282608696	-13.1020408163	0.2	-24.8326
1022	0.511	-7.62282608696	-10.2673469388	-2.66666666667	-20.6128
1023	0.5115	-3.4	-10.2673469388	0.2	-29.0524
1024	0.512	-3.4	-8.85	1.63333333333	-20.6128
1025	0.5125	-3.4	-7.43265306122	-4.1	-13.5798
1026	0.513	-3.4	-3.1806122449	7.36666666667	-12.1732
1027	0.5135	-3.4	-3.1806122449	0.2	-9.36
1028	0.514	-9.03043478261	-7.43265306122	-1.23333333333	-7.9534
1029	0.5145	-9.03043478261	-10.2673469388	0.2	-10.7666
1030	0.515	-10.4380434783	-0.345918367347	-4.1	-13.5798
1031	0.5155	-10.4380434783	18.0795918367	-1.23333333333	-10.7666
1032	0.516	-7.62282608696	-1.76326530612	-5.53333333333	-13.5798
1033	0.5165	-4.80760869565	3.90612244898	-5.53333333333	-14.9864
1034	0.517	14.8989130435	5.32346938776	-9.83333333333	-12.1732
1035	0.5175	21.9369565217	3.90612244898	-6.96666666667	-16.393
1036	0.518	33.197826087	1.07142857143	-4.1	-10.7666
1037	0.5185	51.4967391304	1.07142857143	0.2	-19.2062
1038	0.519	59.9423913043	3.90612244898	-2.66666666667	7.5192
1039	0.5195	58.5347826087	3.90612244898	-1.23333333333	0.4862
1040	0.52	52.9043478261	6.74081632653	0.2	-10.7666
1041	0.5205	40.2358695652	2.4887755102	11.6666666667	-14.9864
1042	0.521	27.5673913043	5.32346938776	-1.23333333333	-20.6128
1043	0.5215	20.5293478261	3.90612244898	-2.66666666667	-24.8326
1044	0.522	13.4913043478	20.9142857143	-1.23333333333	-27.6458
1045	0.5225	-0.584782608696	28.0010204082	-2.66666666667	-30.459
1046	0.523	-18.8836956522	22.3316326531	-5.53333333333	-27.6458
1047	0.5235	-38.5902173913	1.07142857143	-4.1	-29.0524
1048	0.524	-59.7043478261	1.07142857143	-1.23333333333	-31.8656
1049	0.5245	-68.15	1.07142857143	-1.23333333333	-29.0524
1050	0.525	-72.372826087	-0.345918367347	5.93333333333	-24.8326
1051	0.5255	-65.3347826087	-4.59795918367	14.5333333333	-10.7666
1052	0.526	-66.7423913043	-8.85	18.8333333333	-30.459
1053	0.5265	-61.1119565217	-10.2673469388	4.5	-19.2062
1054	0.527	-56.8891304348	-7.43265306122	-9.83333333333	-26.2392
1055	0.5275	-55.4815217391	-4.59795918367	-12.7	-26.2392
1056	0.528	-44.2206521739	-1.76326530612	-5.53333333333	-24.8326
1057	0.5285	-32.9597826087	2.4887755102	4.5	-22.0194
1058	0.529	-20.2913043478	16.662244898	-1.23333333333	-14.9864
1059	0.5295	-16.0684782609	1.07142857143	-1.23333333333	-13.5798
1060	0.53	-21.6989130435	1.07142857143	0.2	-16.393
1061	0.5305	-20.2913043478	-7.43265306122	0.2	-14.9864
1062	0.531	-16.0684782609	-3.1806122449	-1.23333333333	-19.2062
1063	0.5315	-0.584782608696	-6.01530612245	-6.96666666667	-16.393
1064	0.532	2.23043478261	-3.1806122449	-6.96666666667	-10.7666
1065	0.5325	14.8989130435	-4.59795918367	-11.2666666667	-3.7336
1066	0.533	19.1217391304	-6.01530612245	-6.96666666667	-27.6458
1067	0.5335	16.3065217391	-6.01530612245	-6.96666666667	-16.393
1068	0.534	12.0836956522	-6.01530612245	-17.0	-33.2722
1069	0.5345	3.63804347826	-3.1806122449	7.36666666667	-34.6788
1070	0.535	3.63804347826	-1.76326530612	3.06666666667	-38.8986
1071	0.5355	7.86086956522	-7.43265306122	-4.1	-37.492
1072	0.536	3.63804347826	-11.6846938776	-4.1	-31.8656
1073	0.5365	-0.584782608696	-11.6846938776	-9.83333333333	-34.6788
1074	0.537	-4.80760869565	-10.2673469388	-11.2666666667	-34.6788
1075	0.5375	-4.80760869565	-10.2673469388	-11.2666666667	-36.0854
1076	0.538	-7.62282608696	-14.5193877551	-8.4	-34.6788
1077	0.5385	-1.99239130435	-4.59795918367	-5.53333333333	-34.6788
1078	0.539	-4.80760869565	-3.1806122449	-5.53333333333	-29.0524
1079	0.5395	-16.0684782609	-4.59795918367	-6.96666666667	-29.0524
1080	0.54	-23.1065217391	-4.59795918367	-5.53333333333	-24.8326
1081	0.5405	-31.552173913	-3.1806122449	-9.83333333333	-13.5798
1082	0.541	-31.552173913	-1.76326530612	-14.1333333333	-27.6458
1083	0.5415	-27.3293478261	-4.59795918367	-17.0	-23.426
1084	0.542	-16.0684782609	-7.43265306122	-19.8666666667	-2.327
1085	0.5425	-9.03043478261	-0.345918367347	-17.0	-14.9864
1086	0.543	-4.80760869565	8.15816326531	-12.7	-16.393
1087	0.5435	0.822826086957	16.662244898	-4.1	-16.393
1088	0.544	5.04565217391	30.8357142857	-8.4	-23.426
1089	0.5445	2.23043478261	1.07142857143	-8.4	-23.426
1090	0.545	2.23043478261	-0.345918367347	-9.83333333333	-24.8326
1091	0.5455	0.822826086957	-4.59795918367	-8.4	-26.2392
1092	0.546	9.26847826087	-1.76326530612	-6.96666666667	-30.459
1093	0.5465	-3.4	1.07142857143	-8.4	-31.8656
1094	0.547	-16.0684782609	6.74081632653	-6.96666666667	-38.8986
1095	0.5475	-18.8836956522	5.32346938776	-8.4	-33.2722
1096	0.548	-27.3293478261	1.07142857143	-15.5666666667	-29.0524
1097	0.5485	-28.7369565217	-6.01530612245	7.36666666667	-27.6458
1098	0.549	-27.3293478261	-4.59795918367	-18.4333333333	-33.2722
1099	0.5495	-20.2913043478	-3.1806122449	-18.4333333333	-24.8326
1100	0.55	-10.4380434783	-14.5193877551	-18.4333333333	-26.2392
1101	0.5505	0.822826086957	-13.1020408163	-12.7	-27.6458
1102	0.551	10.6760869565	3.90612244898	-6.96666666667	-27.6458
1103	0.5515	13.4913043478	-11.6846938776	-6.96666666667	-26.2392
1104	0.552	16.3065217391	-8.85	-8.4	-22.0194
1105	0.5525	23.3445652174	-6.01530612245	-17.0	-17.7996
1106	0.553	9.26847826087	-6.01530612245	-19.8666666667	-10.7666
1107	0.5535	-13.2532608696	-1.76326530612	-14.1333333333	-6.5468
1108	0.554	-16.0684782609	2.4887755102	-14.1333333333	1.8928
1109	0.5545	-17.4760869565	12.4102040816	-24.1666666667	-13.5798
1110	0.555	-23.1065217391	20.9142857143	-14.1333333333	0.4862
1111	0.5555	-28.7369565217	22.3316326531	-15.5666666667	-16.393
1112	0.556	-32.9597826087	20.9142857143	-15.5666666667	-19.2062
1113	0.5565	-37.1826086957	10.9928571429	-14.1333333333	-22.0194
1114	0.557	-38.5902173913	-4.59795918367	-15.5666666667	-20.6128
1115	0.5575	-34.3673913043	2.4887755102	-6.96666666667	-24.8326
1116	0.558	-23.1065217391	-7.43265306122	-8.4	-27.6458
1117	0.5585	-18.8836956522	-3.1806122449	-8.4	-27.6458
1118	0.559	-27.3293478261	1.07142857143	-12.7	-30.459
1119	0.5595	-25.9217391304	-1.76326530612	-9.83333333333	-26.2392
1120	0.56	-28.7369565217	-4.59795918367	-12.7	-23.426
1121	0.5605	-18.8836956522	-6.01530612245	-15.5666666667	-16.393
1122	0.561	-20.2913043478	-6.01530612245	-12.7	-14.9864
1123	0.5615	-13.2532608696	-1.76326530612	-29.9	-20.6128
1124	0.562	-11.8456521739	2.4887755102	-18.4333333333	-7.9534
1125	0.5625	-7.62282608696	1.07142857143	-25.6	-19.2062
1126	0.563	-7.62282608696	6.74081632653	-24.1666666667	-14.9864
1127	0.5635	-3.4	8.15816326531	-29.9	-12.1732
1128	0.564	-1.99239130435	3.90612244898	-35.6333333333	-16.393
1129	0.5645	7.86086956522	-1.76326530612	-27.0333333333	-20.6128
1130	0.565	20.5293478261	-0.345918367347	-18.4333333333	-20.6128
1131	0.5655	21.9369565217	5.32346938776	-15.5666666667	-22.0194
1132	0.566	37.4206521739	5.32346938776	-9.83333333333	-17.7996
1133	0.5665	36.0130434783	5.32346938776	-5.53333333333	-26.2392
1134	0.567	33.197826087	2.4887755102	-4.1	-20.6128
1135	0.5675	43.0510869565	-1.76326530612	0.2	-23.426
1136	0.568	33.197826087	-6.01530612245	-12.7	-13.5798
1137	0.5685	21.9369565217	-4.59795918367	-1.23333333333	-20.6128
1138	0.569	9.26847826087	-4.59795918367	8.8	-20.6128
1139	0.5695	3.63804347826	-4.59795918367	-18.4333333333	-23.426
1140	0.57	7.86086956522	-8.85	-4.1	-26.2392
1141	0.5705	3.63804347826	-0.345918367347	-8.4	-22.0194
1142	0.571	0.822826086957	5.32346938776	-9.83333333333	-19.2062
1143	0.5715	-4.80760869565	2.4887755102	-8.4	-17.7996
1144	0.572	-21.6989130435	-6.01530612245	-8.4	-12.1732
1145	0.5725	-27.3293478261	-7.43265306122	-8.4	-14.9864
1146	0.573	-23.1065217391	-4.59795918367	-6.96666666667	-13.5798
1147	0.5735	-20.2913043478	-4.59795918367	-5.53333333333	-14.9864
1148	0.574	-20.2913043478	-0.345918367347	-9.83333333333	-13.5798
1149	0.5745	-16.0684782609	6.74081632653	-9.83333333333	-12.1732
1150	0.575	-7.62282608696	6.74081632653	-8.4	-31.8656
1151	0.5755	-0.584782608696	2.4887755102	-11.2666666667	-36.0854
1152	0.576	5.04565217391	2.4887755102	-4.1	-30.459
1153	0.5765	12.0836956522	1.07142857143	-12.7	-31.8656
1154	0.577	13.4913043478	16.662244898	-14.1333333333	-33.2722
1155	0.5775	5.04565217391	9.57551020408	-8.4	-36.0854
1156	0.578	-7.62282608696	-6.01530612245	-6.96666666667	-43.1184
1157	0.5785	-13.2532608696	-10.2673469388	-12.7	-40.3052
1158	0.579	-27.3293478261	1.07142857143	-12.7	-34.6788
1159	0.5795	-16.0684782609	-1.76326530612	-12.7	-29.0524
1160	0.58	-25.9217391304	-4.59795918367	-12.7	-17.7996
1161	0.5805	-18.8836956522	-7.43265306122	-9.83333333333	4.706
1162	0.581	-11.8456521739	-6.01530612245	-9.83333333333	-6.5468
1163	0.5815	-9.03043478261	-0.345918367347	-9.83333333333	1.8928
1164	0.582	-9.03043478261	5.32346938776	5.93333333333	0.4862
1165	0.5825	-7.62282608696	3.90612244898	-12.7	0.4862
1166	0.583	-6.2152173913	3.90612244898	-15.5666666667	3.2994
1167	0.5835	-9.03043478261	5.32346938776	-9.83333333333	6.1126
1168	0.584	-21.6989130435	-4.59795918367	-14.1333333333	8.9258
1169	0.5845	-24.5141304348	-4.59795918367	-11.2666666667	13.1456
1170	0.585	-28.7369565217	-0.345918367347	-9.83333333333	10.3324
1171	0.5855	-23.1065217391	3.90612244898	-11.2666666667	6.1126
1172	0.586	-23.1065217391	-10.2673469388	-6.96666666667	0.4862
1173	0.5865	-6.2152173913	-4.59795918367	-5.53333333333	-6.5468
1174	0.587	-1.99239130435	-3.1806122449	-1.23333333333	-7.9534
1175	0.5875	12.0836956522	-1.76326530612	-4.1	22.9918
1176	0.588	12.0836956522	-6.01530612245	-4.1	-0.9204
1177	0.5885	3.63804347826	-7.43265306122	8.8	-0.9204
1178	0.589	-6.2152173913	-11.6846938776	20.2666666667	-5.1402
1179	0.5895	-16.0684782609	-10.2673469388	-12.7	0.4862
1180	0.59	-27.3293478261	-8.85	-9.83333333333	3.2994
1181	0.5905	-32.9597826087	9.57551020408	-12.7	10.3324
1182	0.591	-34.3673913043	16.662244898	-14.1333333333	15.9588
1183	0.5915	-37.1826086957	16.662244898	-11.2666666667	17.3654
1184	0.592	-38.5902173913	2.4887755102	-8.4	17.3654
1185	0.5925	-18.8836956522	8.15816326531	-5.53333333333	21.5852
1186	0.593	-3.4	6.74081632653	-4.1	18.772
1187	0.5935	2.23043478261	9.57551020408	-5.53333333333	28.6182
1188	0.594	-14.6608695652	8.15816326531	-4.1	22.9918
1189	0.5945	-9.03043478261	10.9928571429	-1.23333333333	24.3984
1190	0.595	-7.62282608696	8.15816326531	1.63333333333	8.9258
1191	0.5955	-3.4	6.74081632653	-2.66666666667	14.5522
1192	0.596	-10.4380434783	-1.76326530612	-5.53333333333	21.5852
1193	0.5965	-21.6989130435	-6.01530612245	-11.2666666667	20.1786
1194	0.597	-32.9597826087	-1.76326530612	4.5	18.772
1195	0.5975	-47.0358695652	-0.345918367347	-6.96666666667	15.9588
1196	0.598	-66.7423913043	-10.2673469388	-2.66666666667	14.5522
1197	0.5985	-73.7804347826	-10.2673469388	-2.66666666667	8.9258
1198	0.599	-80.8184782609	6.74081632653	-1.23333333333	8.9258
1199	0.5995	-59.7043478261	9.57551020408	-2.66666666667	18.772
1200	0.6	-39.997826087	13.8275510204	-6.96666666667	17.3654
1201	0.6005	-44.2206521739	10.9928571429	-4.1	15.9588
1202	0.601	-34.3673913043	10.9928571429	-4.1	20.1786
1203	0.6015	-11.8456521739	13.8275510204	-12.7	17.3654
1204	0.602	9.26847826087	9.57551020408	-11.2666666667	22.9918
1205	0.6025	28.975	9.57551020408	8.8	27.2116
1206	0.603	45.8663043478	10.9928571429	-2.66666666667	27.2116
1207	0.6035	48.6815217391	6.74081632653	-11.2666666667	25.805
1208	0.604	45.8663043478	-1.76326530612	-6.96666666667	22.9918
1209	0.6045	12.0836956522	6.74081632653	-5.53333333333	27.2116
1210	0.605	-42.8130434783	9.57551020408	-2.66666666667	22.9918
1211	0.6055	-90.6717391304	-17.3540816327	-1.23333333333	28.6182
1212	0.606	-100.525	-11.6846938776	-1.23333333333	34.2446
1213	0.6065	-23.1065217391	-14.5193877551	1.63333333333	27.2116
1214	0.607	48.6815217391	-13.1020408163	0.2	27.2116
1215	0.6075	79.6489130435	-7.43265306122	-4.1	25.805
1216	0.608	95.1326086957	-1.76326530612	-6.96666666667	32.838
1217	0.6085	62.7576086957	5.32346938776	-1.23333333333	18.772
1218	0.609	17.7141304348	6.74081632653	1.63333333333	22.9918
1219	0.6095	-11.8456521739	8.15816326531	0.2	32.838
1220	0.61	-34.3673913043	5.32346938776	-4.1	28.6182
1221	0.6105	-62.5195652174	13.8275510204	8.8	21.5852
1222	0.611	-87.8565217391	8.15816326531	7.36666666667	28.6182
1223	0.6115	-101.932608696	-6.01530612245	1.63333333333	44.0908
1224	0.612	-106.155434783	-10.2673469388	-2.66666666667	48.3106
1225	0.6125	-99.1173913043	6.74081632653	-5.53333333333	45.4974
1226	0.613	-97.7097826087	-6.01530612245	-6.96666666667	39.871
1227	0.6135	-94.8945652174	-10.2673469388	-8.4	35.6512
1228	0.614	-83.6336956522	-10.2673469388	-4.1	41.2776
1229	0.6145	-68.15	-13.1020408163	-4.1	44.0908
1230	0.615	-66.7423913043	-4.59795918367	1.63333333333	34.2446
1231	0.6155	-65.3347826087	-0.345918367347	4.5	22.9918
1232	0.616	-65.3347826087	3.90612244898	20.2666666667	30.0248
1233	0.6165	-58.2967391304	1.07142857143	3.06666666667	28.6182
1234	0.617	-47.0358695652	-1.76326530612	-18.4333333333	27.2116
1235	0.6175	-39.997826087	-1.76326530612	-1.23333333333	28.6182
1236	0.618	-44.2206521739	-6.01530612245	-8.4	30.0248
1237	0.6185	-45.6282608696	1.07142857143	-6.96666666667	31.4314
1238	0.619	-52.6663043478	-4.59795918367	-9.83333333333	34.2446
1239	0.6195	-54.0739130435	-7.43265306122	-5.53333333333	35.6512
1240	0.62	-39.997826087	-3.1806122449	-4.1	32.838
1241	0.6205	-32.9597826087	-4.59795918367	-4.1	25.805
1242	0.621	-17.4760869565	-1.76326530612	-6.96666666667	22.9918
1243	0.6215	0.822826086957	1.07142857143	-1.23333333333	6.1126
1244	0.622	16.3065217391	3.90612244898	-1.23333333333	15.9588
1245	0.6225	17.7141304348	6.74081632653	-1.23333333333	27.2116
1246	0.623	12.0836956522	13.8275510204	-1.23333333333	21.5852
1247	0.6235	0.822826086957	10.9928571429	7.36666666667	15.9588
1248	0.624	-7.62282608696	13.8275510204	-6.96666666667	15.9588
1249	0.6245	-14.6608695652	16.662244898	-8.4	8.9258
1250	0.625	-27.3293478261	8.15816326531	-5.53333333333	7.5192
1251	0.6255	-38.5902173913	9.57551020408	-8.4	14.5522
1252	0.626	-39.997826087	-0.345918367347	-6.96666666667	15.9588
1253	0.6265	-32.9597826087	1.07142857143	-4.1	17.3654
1254	0.627	-32.9597826087	-7.43265306122	-4.1	27.2116
1255	0.6275	-32.9597826087	-10.2673469388	-6.96666666667	34.2446
1256	0.628	-21.6989130435	-7.43265306122	-4.1	38.4644
1257	0.6285	-14.6608695652	2.4887755102	-5.53333333333	37.0578
1258	0.629	-6.2152173913	8.15816326531	-8.4	66.5964
1259	0.6295	-6.2152173913	16.662244898	-4.1	62.3766
1260	0.63	-3.4	16.662244898	-5.53333333333	44.0908
1261	0.6305	-4.80760869565	25.1663265306	-6.96666666667	39.871
1262	0.631	-7.62282608696	26.5836734694	-17.0	48.3106
1263	0.6315	-7.62282608696	10.9928571429	-2.66666666667	49.7172
1264	0.632	-0.584782608696	5.32346938776	-5.53333333333	51.1238
1265	0.6325	5.04565217391	1.07142857143	-6.96666666667	49.7172
1266	0.633	10.6760869565	9.57551020408	-9.83333333333	46.904
1267	0.6335	0.822826086957	-4.59795918367	-8.4	44.0908
1268	0.634	-3.4	-13.1020408163	-9.83333333333	39.871
1269	0.6345	-23.1065217391	-13.1020408163	-6.96666666667	37.0578
1270	0.635	-25.9217391304	-10.2673469388	-6.96666666667	38.4644
1271	0.6355	-24.5141304348	-6.01530612245	-5.53333333333	45.4974
1272	0.636	-10.4380434783	-4.59795918367	-6.96666666667	38.4644
1273	0.6365	-6.2152173913	-1.76326530612	-2.66666666667	52.5304
1274	0.637	-0.584782608696	-1.76326530612	-5.53333333333	37.0578
1275	0.6375	12.0836956522	2.4887755102	5.93333333333	39.871
1276	0.638	21.9369565217	3.90612244898	-11.2666666667	32.838
1277	0.6385	26.1597826087	6.74081632653	-11.2666666667	32.838
1278	0.639	30.3826086957	-1.76326530612	-4.1	31.4314
1279	0.6395	33.197826087	1.07142857143	-4.1	31.4314
1280	0.64	31.7902173913	3.90612244898	-4.1	28.6182
1281	0.6405	27.5673913043	2.4887755102	-4.1	24.3984
1282	0.641	3.63804347826	5.32346938776	-1.23333333333	22.9918
1283	0.6415	-1.99239130435	9.57551020408	4.5	21.5852
1284	0.642	-6.2152173913	8.15816326531	-1.23333333333	20.1786
1285	0.6425	-4.80760869565	3.90612244898	-5.53333333333	21.5852
1286	0.643	12.0836956522	-1.76326530612	-1.23333333333	20.1786
1287	0.6435	12.0836956522	-3.1806122449	-4.1	35.6512
1288	0.644	14.8989130435	-4.59795918367	-14.1333333333	28.6182
1289	0.6445	17.7141304348	-4.59795918367	14.5333333333	35.6512
1290	0.645	20.5293478261	-0.345918367347	14.5333333333	37.0578
1291	0.6455	16.3065217391	1.07142857143	-11.2666666667	39.871
1292	0.646	12.0836956522	-4.59795918367	-4.1	38.4644
1293	0.6465	3.63804347826	-1.76326530612	-11.2666666667	35.6512
1294	0.647	-9.03043478261	16.662244898	-6.96666666667	37.0578
1295	0.6475	-17.4760869565	23.7489795918	-2.66666666667	38.4644
1296	0.648	-18.8836956522	-3.1806122449	-2.66666666667	34.2446
1297	0.6485	-16.0684782609	5.32346938776	-2.66666666667	30.0248
1298	0.649	21.9369565217	5.32346938776	-1.23333333333	28.6182
1299	0.6495	78.2413043478	10.9928571429	-4.1	30.0248
1300	0.65	96.5402173913	16.662244898	-6.96666666667	30.0248
1301	0.6505	127.507608696	22.3316326531	-1.23333333333	28.6182
1302	0.651	145.806521739	23.7489795918	-11.2666666667	25.805
1303	0.6515	152.844565217	16.662244898	-14.1333333333	44.0908
1304	0.652	142.991304348	10.9928571429	-11.2666666667	34.2446
1305	0.6525	120.469565217	9.57551020408	-5.53333333333	41.2776
1306	0.653	92.3173913043	8.15816326531	1.63333333333	38.4644
1307	0.6535	59.9423913043	-13.1020408163	5.93333333333	34.2446
1308	0.654	36.0130434783	-20.1887755102	1.63333333333	21.5852
1309	0.6545	12.0836956522	-7.43265306122	0.2	8.9258
1310	0.655	-6.2152173913	-0.345918367347	-1.23333333333	6.1126
1311	0.6555	-32.9597826087	-8.85	3.06666666667	3.2994
1312	0.656	-54.0739130435	-10.2673469388	-2.66666666667	0.4862
1313	0.6565	-79.4108695652	-4.59795918367	0.2	-6.5468
1314	0.657	-101.932608696	-0.345918367347	-1.23333333333	10.3324
1315	0.6575	-128.677173913	2.4887755102	0.2	24.3984
1316	0.658	-138.530434783	5.32346938776	0.2	24.3984
1317	0.6585	-141.345652174	1.07142857143	17.4	17.3654
1318	0.659	-134.307608696	-0.345918367347	13.1	8.9258
1319	0.6595	-120.231521739	-0.345918367347	11.6666666667	27.2116
1320	0.66	-110.37826087	-4.59795918367	4.5	34.2446
1321	0.6605	-96.302173913	-0.345918367347	1.63333333333	37.0578
1322	0.661	-73.7804347826	9.57551020408	-1.23333333333	38.4644
1323	0.6615	-49.8510869565	16.662244898	1.63333333333	38.4644
1324	0.662	-31.552173913	-6.01530612245	1.63333333333	42.6842
1325	0.6625	-16.0684782609	-8.85	0.2	35.6512
1326	0.663	20.5293478261	-10.2673469388	0.2	35.6512
1327	0.6635	27.5673913043	-14.5193877551	-4.1	37.0578
1328	0.664	-0.584782608696	-15.9367346939	-4.1	38.4644
1329	0.6645	-16.0684782609	-10.2673469388	-1.23333333333	25.805
1330	0.665	-31.552173913	-6.01530612245	-11.2666666667	22.9918
1331	0.6655	-49.8510869565	-3.1806122449	-1.23333333333	20.1786
1332	0.666	-65.3347826087	-4.59795918367	14.5333333333	14.5522
1333	0.6665	-69.5576086957	-11.6846938776	21.7	15.9588
1334	0.667	-72.372826087	-18.7714285714	-1.23333333333	20.1786
1335	0.6675	-66.7423913043	-25.8581632653	-14.1333333333	21.5852
1336	0.668	-59.7043478261	-23.0234693878	-11.2666666667	18.772
1337	0.6685	-62.5195652174	-11.6846938776	-4.1	24.3984
1338	0.669	-56.8891304348	9.57551020408	-2.66666666667	27.2116
1339	0.6695	-38.5902173913	20.9142857143	-4.1	38.4644
1340	0.67	-14.6608695652	26.5836734694	-5.53333333333	42.6842
1341	0.6705	-20.2913043478	25.1663265306	-2.66666666667	42.6842
1342	0.671	-6.2152173913	20.9142857143	-1.23333333333	56.7502
1343	0.6715	12.0836956522	18.0795918367	-12.7	53.937
1344	0.672	23.3445652174	19.4969387755	-6.96666666667	59.5634
1345	0.6725	30.3826086957	22.3316326531	7.36666666667	62.3766
1346	0.673	31.7902173913	29.4183673469	-5.53333333333	59.5634
1347	0.6735	34.6054347826	30.8357142857	-6.96666666667	63.7832
1348	0.674	31.7902173913	32.2530612245	1.63333333333	62.3766
1349	0.6745	23.3445652174	42.1744897959	-2.66666666667	58.1568
1350	0.675	16.3065217391	39.3397959184	1.63333333333	58.1568
1351	0.6755	10.6760869565	15.2448979592	1.63333333333	59.5634
1352	0.676	-7.62282608696	-3.1806122449	-1.23333333333	55.3436
1353	0.6765	-1.99239130435	-17.3540816327	-1.23333333333	53.937
1354	0.677	-30.1445652174	-23.0234693878	-1.23333333333	37.0578
1355	0.6775	-31.552173913	-25.8581632653	-1.23333333333	39.871
1356	0.678	10.6760869565	-13.1020408163	-1.23333333333	55.3436
1357	0.6785	51.4967391304	-4.59795918367	-6.96666666667	53.937
1358	0.679	83.8717391304	-6.01530612245	-2.66666666667	32.838
1359	0.6795	117.654347826	-4.59795918367	-1.23333333333	31.4314
1360	0.68	137.360869565	-1.76326530612	-15.5666666667	28.6182
1361	0.6805	157.067391304	-4.59795918367	-1.23333333333	34.2446
1362	0.681	165.513043478	2.4887755102	-4.1	37.0578
1363	0.6815	155.659782609	15.2448979592	-2.66666666667	41.2776
1364	0.682	131.730434783	-3.1806122449	-6.96666666667	48.3106
1365	0.6825	110.616304348	8.15816326531	-8.4	53.937
1366	0.683	107.801086957	3.90612244898	-6.96666666667	58.1568
1367	0.6835	85.2793478261	5.32346938776	-5.53333333333	59.5634
1368	0.684	74.0184782609	6.74081632653	-6.96666666667	58.1568
1369	0.6845	66.9804347826	9.57551020408	-2.66666666667	44.0908
1370	0.685	82.4641304348	16.662244898	0.2	39.871
1371	0.6855	86.6869565217	18.0795918367	5.93333333333	55.3436
1372	0.686	71.2032608696	3.90612244898	8.8	46.904
1373	0.6865	54.3119565217	-0.345918367347	5.93333333333	41.2776
1374	0.687	37.4206521739	-1.76326530612	7.36666666667	38.4644
1375	0.6875	9.26847826087	-7.43265306122	-5.53333333333	31.4314
1376	0.688	-20.2913043478	-10.2673469388	-4.1	21.5852
1377	0.6885	-49.8510869565	10.9928571429	-1.23333333333	22.9918
1378	0.689	-82.2260869565	8.15816326531	-1.23333333333	30.0248
1379	0.6895	-123.04673913	9.57551020408	3.06666666667	34.2446
1380	0.69	-159.644565217	6.74081632653	-2.66666666667	32.838
1381	0.6905	-168.090217391	8.15816326531	-4.1	39.871
1382	0.691	-173.720652174	10.9928571429	-8.4	35.6512
1383	0.6915	-169.497826087	9.57551020408	-5.53333333333	38.4644
1384	0.692	-152.606521739	9.57551020408	-6.96666666667	27.2116
1385	0.6925	-132.9	13.8275510204	0.2	35.6512
1386	0.693	-108.970652174	18.0795918367	-1.23333333333	13.1456
1387	0.6935	-93.4869565217	19.4969387755	-4.1	-0.9204
1388	0.694	-66.7423913043	20.9142857143	3.06666666667	-3.7336
1389	0.6945	-37.1826086957	9.57551020408	-6.96666666667	-16.393
1390	0.695	-9.03043478261	-3.1806122449	0.2	-13.5798
1391	0.6955	10.6760869565	1.07142857143	0.2	-14.9864
1392	0.696	28.975	2.4887755102	3.06666666667	-20.6128
1393	0.6965	38.8282608696	2.4887755102	4.5	-19.2062
1394	0.697	28.975	1.07142857143	4.5	-22.0194
1395	0.6975	40.2358695652	1.07142857143	0.2	-23.426
1396	0.698	41.6434782609	-1.76326530612	-1.23333333333	-19.2062
1397	0.6985	37.4206521739	-3.1806122449	-5.53333333333	-0.9204
1398	0.699	23.3445652174	3.90612244898	-4.1	-7.9534
1399	0.6995	13.4913043478	6.74081632653	-8.4	30.0248
1400	0.7	14.8989130435	9.57551020408	-4.1	14.5522
1401	0.7005	16.3065217391	9.57551020408	-11.2666666667	15.9588
1402	0.701	17.7141304348	13.8275510204	-9.83333333333	14.5522
1403	0.7015	24.752173913	1.07142857143	1.63333333333	17.3654
1404	0.702	21.9369565217	13.8275510204	4.5	15.9588
1405	0.7025	-0.584782608696	19.4969387755	-1.23333333333	14.5522
1406	0.703	-24.5141304348	1.07142857143	-1.23333333333	7.5192
1407	0.7035	-58.2967391304	1.07142857143	1.63333333333	6.1126
1408	0.704	-82.2260869565	8.15816326531	0.2	-0.9204
1409	0.7045	-97.7097826087	15.2448979592	4.5	-16.393
1410	0.705	-104.747826087	28.0010204082	11.6666666667	-14.9864
1411	0.7055	-99.1173913043	30.8357142857	4.5	-5.1402
1412	0.706	-76.5956521739	30.8357142857	-1.23333333333	-24.8326
1413	0.7065	-49.8510869565	28.0010204082	1.63333333333	-22.0194
1414	0.707	-27.3293478261	26.5836734694	13.1	-29.0524
1415	0.7075	-9.03043478261	22.3316326531	-11.2666666667	-27.6458
1416	0.708	12.0836956522	12.4102040816	-9.83333333333	-27.6458
1417	0.7085	21.9369565217	20.9142857143	-6.96666666667	-23.426
1418	0.709	30.3826086957	16.662244898	-4.1	-22.0194
1419	0.7095	26.1597826087	-11.6846938776	-2.66666666667	-23.426
1420	0.71	26.1597826087	-18.7714285714	-5.53333333333	-27.6458
1421	0.7105	31.7902173913	-15.9367346939	-1.23333333333	-33.2722
1422	0.711	26.1597826087	-13.1020408163	0.2	-31.8656
1423	0.7115	26.1597826087	-11.6846938776	1.63333333333	-31.8656
1424	0.712	23.3445652174	-14.5193877551	1.63333333333	-29.0524
1425	0.7125	26.1597826087	-13.1020408163	-1.23333333333	-16.393
1426	0.713	27.5673913043	-11.6846938776	3.06666666667	-29.0524
1427	0.7135	33.197826087	-10.2673469388	-4.1	-22.0194
1428	0.714	33.197826087	-10.2673469388	-2.66666666667	-16.393
1429	0.7145	45.8663043478	-6.01530612245	1.63333333333	-19.2062
1430	0.715	74.0184782609	-10.2673469388	-8.4	-19.2062
1431	0.7155	110.616304348	-3.1806122449	-8.4	-20.6128
1432	0.716	155.659782609	13.8275510204	-2.66666666667	-17.7996
1433	0.7165	179.589130435	-1.76326530612	-1.23333333333	-17.7996
1434	0.717	196.480434783	1.07142857143	0.2	-17.7996
1435	0.7175	203.518478261	-1.76326530612	4.5	-13.5798
1436	0.718	220.409782609	8.15816326531	0.2	-9.36
1437	0.7185	186.627173913	15.2448979592	0.2	-19.2062
1438	0.719	175.366304348	15.2448979592	1.63333333333	-13.5798
1439	0.7195	159.882608696	6.74081632653	1.63333333333	-5.1402
1440	0.72	130.322826087	5.32346938776	5.93333333333	-17.7996
1441	0.7205	97.947826087	-7.43265306122	18.8333333333	-24.8326
1442	0.721	75.4260869565	-13.1020408163	-11.2666666667	-22.0194
1443	0.7215	72.6108695652	-10.2673469388	-5.53333333333	-20.6128
1444	0.722	85.2793478261	2.4887755102	-2.66666666667	-29.0524
1445	0.7225	78.2413043478	9.57551020408	-1.23333333333	-29.0524
1446	0.723	51.4967391304	29.4183673469	0.2	-29.0524
1447	0.7235	-4.80760869565	15.2448979592	-4.1	-22.0194
1448	0.724	-62.5195652174	16.662244898	-4.1	-19.2062
1449	0.7245	-118.823913043	18.0795918367	-2.66666666667	-16.393
1450	0.725	-134.307608696	18.0795918367	3.06666666667	-17.7996
1451	0.7255	-192.019565217	15.2448979592	1.63333333333	-9.36
1452	0.726	-217.356521739	6.74081632653	3.06666666667	-14.9864
1453	0.7265	-201.872826087	1.07142857143	3.06666666667	-9.36
1454	0.727	-173.720652174	-8.85	-9.83333333333	-24.8326
1455	0.7275	-144.160869565	-11.6846938776	-11.2666666667	-27.6458
1456	0.728	-118.823913043	-8.85	-5.53333333333	-26.2392
1457	0.7285	-97.7097826087	3.90612244898	-4.1	-19.2062
1458	0.729	-85.0413043478	-4.59795918367	-6.96666666667	-14.9864
1459	0.7295	-75.1880434783	-7.43265306122	-8.4	-12.1732
1460	0.73	-76.5956521739	-10.2673469388	-5.53333333333	-13.5798
1461	0.7305	-63.927173913	-4.59795918367	-4.1	-14.9864
1462	0.731	-58.2967391304	-7.43265306122	-2.66666666667	-29.0524
1463	0.7315	-47.0358695652	-14.5193877551	-4.1	-33.2722
1464	0.732	-18.8836956522	-15.9367346939	-5.53333333333	-29.0524
1465	0.7325	-21.6989130435	-14.5193877551	-1.23333333333	-24.8326
1466	0.733	-11.8456521739	-10.2673469388	0.2	-12.1732
1467	0.7335	-20.2913043478	-10.2673469388	0.2	-12.1732
1468	0.734	-25.9217391304	-3.1806122449	-2.66666666667	-30.459
1469	0.7345	-24.5141304348	2.4887755102	-2.66666666667	-24.8326
1470	0.735	-28.7369565217	10.9928571429	-4.1	-23.426
1471	0.7355	-34.3673913043	13.8275510204	-2.66666666667	-20.6128
1472	0.736	-31.552173913	2.4887755102	3.06666666667	-19.2062
1473	0.7365	-25.9217391304	-1.76326530612	3.06666666667	-10.7666
1474	0.737	-27.3293478261	3.90612244898	1.63333333333	-3.7336
1475	0.7375	-44.2206521739	-1.76326530612	3.06666666667	-0.9204
1476	0.738	-48.4434782609	8.15816326531	4.5	-0.9204
1477	0.7385	-59.7043478261	9.57551020408	8.8	-12.1732
1478	0.739	-73.7804347826	9.57551020408	3.06666666667	7.5192
1479	0.7395	-92.0793478261	9.57551020408	-1.23333333333	-12.1732
1480	0.74	-106.155434783	8.15816326531	4.5	-20.6128
1481	0.7405	-114.601086957	1.07142857143	-11.2666666667	-34.6788
1482	0.741	-107.563043478	-13.1020408163	-17.0	-31.8656
1483	0.7415	-97.7097826087	-23.0234693878	-5.53333333333	-27.6458
1484	0.742	-75.1880434783	-27.2755102041	17.4	-30.459
1485	0.7425	-47.0358695652	-13.1020408163	3.06666666667	-33.2722
1486	0.743	-28.7369565217	-1.76326530612	1.63333333333	-40.3052
1487	0.7435	-20.2913043478	6.74081632653	-1.23333333333	-43.1184
1488	0.744	-20.2913043478	23.7489795918	0.2	-45.9316
1489	0.7445	-9.03043478261	29.4183673469	-2.66666666667	-47.3382
1490	0.745	-4.80760869565	23.7489795918	-2.66666666667	-45.9316
1491	0.7455	2.23043478261	18.0795918367	-5.53333333333	-40.3052
1492	0.746	-13.2532608696	15.2448979592	-9.83333333333	-23.426
1493	0.7465	-25.9217391304	16.662244898	-2.66666666667	-47.3382
1494	0.747	-47.0358695652	13.8275510204	-4.1	-43.1184
1495	0.7475	-62.5195652174	10.9928571429	-8.4	-37.492
1496	0.748	-69.5576086957	9.57551020408	-2.66666666667	-31.8656
1497	0.7485	-63.927173913	15.2448979592	-5.53333333333	-22.0194
1498	0.749	-55.4815217391	20.9142857143	-8.4	-10.7666
1499	0.7495	-35.775	29.4183673469	-1.23333333333	-3.7336
1500	0.75	-14.6608695652	42.1744897959	3.06666666667	-5.1402
1501	0.7505	5.04565217391	29.4183673469	4.5	-17.7996
1502	0.751	23.3445652174	23.7489795918	1.63333333333	-19.2062
1503	0.7515	36.0130434783	15.2448979592	3.06666666667	-16.393
1504	0.752	47.2739130435	-3.1806122449	-2.66666666667	-24.8326
1505	0.7525	41.6434782609	-20.1887755102	1.63333333333	-44.525
1506	0.753	55.7195652174	-24.4408163265	4.5	-20.6128
1507	0.7535	58.5347826087	-11.6846938776	1.63333333333	-34.6788
1508	0.754	54.3119565217	-10.2673469388	-4.1	-26.2392
1509	0.7545	43.0510869565	-15.9367346939	-1.23333333333	-38.8986
1510	0.755	30.3826086957	-15.9367346939	8.8	-47.3382
1511	0.7555	19.1217391304	-4.59795918367	-1.23333333333	-45.9316
1512	0.756	10.6760869565	2.4887755102	-6.96666666667	-54.3712
1513	0.7565	5.04565217391	-7.43265306122	3.06666666667	-54.3712
1514	0.757	12.0836956522	-3.1806122449	14.5333333333	-55.7778
1515	0.7575	20.5293478261	16.662244898	3.06666666667	-50.1514
1516	0.758	17.7141304348	15.2448979592	-17.0	-45.9316
1517	0.7585	14.8989130435	5.32346938776	-9.83333333333	-41.7118
1518	0.759	40.2358695652	1.07142857143	-2.66666666667	-40.3052
1519	0.7595	17.7141304348	5.32346938776	-1.23333333333	-47.3382
1520	0.76	17.7141304348	-0.345918367347	-1.23333333333	-24.8326
1521	0.7605	17.7141304348	-8.85	0.2	-30.459
1522	0.761	17.7141304348	-13.1020408163	-9.83333333333	-47.3382
1523	0.7615	13.4913043478	-7.43265306122	-6.96666666667	-54.3712
1524	0.762	12.0836956522	5.32346938776	4.5	-52.9646
1525	0.7625	21.9369565217	5.32346938776	-2.66666666667	-45.9316
1526	0.763	45.8663043478	5.32346938776	5.93333333333	-38.8986
1527	0.7635	75.4260869565	8.15816326531	0.2	-40.3052
1528	0.764	95.1326086957	23.7489795918	3.06666666667	-43.1184
1529	0.7645	99.3554347826	22.3316326531	1.63333333333	-47.3382
1530	0.765	95.1326086957	15.2448979592	3.06666666667	-51.558
1531	0.7655	78.2413043478	16.662244898	0.2	-48.7448
1532	0.766	88.0945652174	6.74081632653	-2.66666666667	-37.492
1533	0.7665	72.6108695652	-0.345918367347	0.2	-27.6458
1534	0.767	23.3445652174	-0.345918367347	-2.66666666667	-20.6128
1535	0.7675	-9.03043478261	3.90612244898	1.63333333333	-16.393
1536	0.768	-21.6989130435	1.07142857143	-4.1	-16.393
1537	0.7685	-23.1065217391	-1.76326530612	-4.1	-0.9204
1538	0.769	-13.2532608696	-14.5193877551	14.5333333333	-6.5468
1539	0.7695	-1.99239130435	-27.2755102041	5.93333333333	-16.393
1540	0.77	-1.99239130435	-25.8581632653	15.9666666667	-23.426
1541	0.7705	-11.8456521739	-21.606122449	4.5	-29.0524
1542	0.771	-20.2913043478	-10.2673469388	0.2	-30.459
1543	0.7715	-42.8130434783	9.57551020408	-1.23333333333	-29.0524
1544	0.772	-68.15	16.662244898	-1.23333333333	-33.2722
1545	0.7725	-86.4489130435	26.5836734694	-4.1	-36.0854
1546	0.773	-83.6336956522	13.8275510204	-2.66666666667	-40.3052
1547	0.7735	-87.8565217391	5.32346938776	4.5	-38.8986
1548	0.774	-27.3293478261	-3.1806122449	3.06666666667	-36.0854
1549	0.7745	0.822826086957	6.74081632653	4.5	-31.8656
1550	0.775	41.6434782609	20.9142857143	5.93333333333	-26.2392
1551	0.7755	65.572826087	22.3316326531	1.63333333333	-14.9864
1552	0.776	71.2032608696	22.3316326531	-9.83333333333	-26.2392
1553	0.7765	76.8336956522	20.9142857143	-9.83333333333	-33.2722
1554	0.777	89.502173913	13.8275510204	21.7	-34.6788
1555	0.7775	92.3173913043	10.9928571429	3.06666666667	-45.9316
1556	0.778	72.6108695652	16.662244898	3.06666666667	-52.9646
1557	0.7785	55.7195652174	22.3316326531	3.06666666667	-57.1844
1558	0.779	61.35	37.9224489796	0.2	-57.1844
1559	0.7795	82.4641304348	40.7571428571	1.63333333333	-43.1184
1560	0.78	113.431521739	16.662244898	3.06666666667	-38.8986
1561	0.7805	137.360869565	9.57551020408	-1.23333333333	-34.6788
1562	0.781	175.366304348	3.90612244898	1.63333333333	-41.7118
1563	0.7815	224.632608696	-4.59795918367	0.2	-58.591
1564	0.782	255.6	-10.2673469388	1.63333333333	-36.0854
1565	0.7825	242.931521739	-6.01530612245	11.6666666667	-45.9316
1566	0.783	203.518478261	3.90612244898	11.6666666667	-33.2722
1567	0.7835	168.32826087	5.32346938776	-4.1	-38.8986
1568	0.784	141.583695652	2.4887755102	-11.2666666667	-30.459
1569	0.7845	104.985869565	-4.59795918367	-8.4	-31.8656
1570	0.785	45.8663043478	-10.2673469388	-2.66666666667	-30.459
1571	0.7855	-14.6608695652	-13.1020408163	-1.23333333333	-27.6458
1572	0.786	-49.8510869565	-15.9367346939	5.93333333333	-26.2392
1573	0.7865	-68.15	-15.9367346939	7.36666666667	-24.8326
1574	0.787	-70.9652173913	-11.6846938776	7.36666666667	-23.426
1575	0.7875	-86.4489130435	22.3316326531	3.06666666667	-22.0194
1576	0.788	-114.601086957	2.4887755102	0.2	-13.5798
1577	0.7885	-93.4869565217	-7.43265306122	4.5	-9.36
1578	0.789	-65.3347826087	-11.6846938776	3.06666666667	-5.1402
1579	0.7895	-47.0358695652	-0.345918367347	1.63333333333	-14.9864
1580	0.79	-38.5902173913	10.9928571429	7.36666666667	-22.0194
1581	0.7905	-34.3673913043	19.4969387755	11.6666666667	-30.459
1582	0.791	-35.775	18.0795918367	7.36666666667	-26.2392
1583	0.7915	-44.2206521739	16.662244898	14.5333333333	-23.426
1584	0.792	-52.6663043478	18.0795918367	7.36666666667	-34.6788
1585	0.7925	-61.1119565217	16.662244898	7.36666666667	-45.9316
1586	0.793	-62.5195652174	1.07142857143	-2.66666666667	-52.9646
1587	0.7935	-63.927173913	25.1663265306	-4.1	-61.4042
1588	0.794	-63.927173913	32.2530612245	-1.23333333333	-61.4042
1589	0.7945	-52.6663043478	6.74081632653	-2.66666666667	-54.3712
1590	0.795	-18.8836956522	10.9928571429	-5.53333333333	-55.7778
1591	0.7955	10.6760869565	5.32346938776	-4.1	-50.1514
1592	0.796	34.6054347826	-3.1806122449	-1.23333333333	-50.1514
1593	0.7965	23.3445652174	-3.1806122449	4.5	-40.3052
1594	0.797	41.6434782609	1.07142857143	8.8	-31.8656
1595	0.7975	55.7195652174	-3.1806122449	-2.66666666667	-29.0524
1596	0.798	66.9804347826	-8.85	0.2	-3.7336
1597	0.7985	66.9804347826	-8.85	-2.66666666667	-5.1402
1598	0.799	66.9804347826	-3.1806122449	1.63333333333	-9.36
1599	0.7995	45.8663043478	-6.01530612245	5.93333333333	0.4862
1600	0.8	34.6054347826	-6.01530612245	5.93333333333	6.1126
1601	0.8005	30.3826086957	-3.1806122449	5.93333333333	1.8928
1602	0.801	27.5673913043	5.32346938776	4.5	-0.9204
1603	0.8015	24.752173913	5.32346938776	15.9666666667	-0.9204
1604	0.802	21.9369565217	6.74081632653	8.8	4.706
1605	0.8025	43.0510869565	-6.01530612245	-5.53333333333	10.3324
1606	0.803	64.1652173913	-13.1020408163	-4.1	15.9588
1607	0.8035	40.2358695652	-15.9367346939	-4.1	27.2116
1608	0.804	30.3826086957	-21.606122449	0.2	25.805
1609	0.8045	26.1597826087	-21.606122449	-8.4	20.1786
1610	0.805	12.0836956522	-10.2673469388	-14.1333333333	18.772
1611	0.8055	-13.2532608696	-0.345918367347	-14.1333333333	24.3984
1612	0.806	-28.7369565217	1.07142857143	-12.7	6.1126
1613	0.8065	-41.4054347826	-0.345918367347	1.63333333333	1.8928
1614	0.807	-38.5902173913	5.32346938776	0.2	1.8928
1615	0.8075	-34.3673913043	2.4887755102	-6.96666666667	4.706
1616	0.808	-23.1065217391	15.2448979592	-4.1	7.5192
1617	0.8085	-11.8456521739	-0.345918367347	0.2	13.1456
1618	0.809	9.26847826087	3.90612244898	0.2	8.9258
1619	0.8095	31.7902173913	2.4887755102	1.63333333333	4.706
1620	0.81	54.3119565217	5.32346938776	7.36666666667	0.4862
1621	0.8105	66.9804347826	-0.345918367347	3.06666666667	-2.327
1622	0.811	58.5347826087	-6.01530612245	-6.96666666667	0.4862
1623	0.8115	52.9043478261	-11.6846938776	-2.66666666667	0.4862
1624	0.812	36.0130434783	-10.2673469388	-2.66666666667	10.3324
1625	0.8125	19.1217391304	-6.01530612245	-11.2666666667	8.9258
1626	0.813	9.26847826087	-0.345918367347	-8.4	0.4862
1627	0.8135	13.4913043478	-1.76326530612	-8.4	-23.426
1628	0.814	16.3065217391	-17.3540816327	-5.53333333333	-26.2392
1629	0.8145	10.6760869565	-20.1887755102	0.2	-22.0194
1630	0.815	-0.584782608696	-24.4408163265	1.63333333333	-23.426
1631	0.8155	-7.62282608696	-20.1887755102	3.06666666667	-22.0194
1632	0.816	-4.80760869565	-25.8581632653	4.5	-9.36
1633	0.8165	5.04565217391	-24.4408163265	5.93333333333	-0.9204
1634	0.817	19.1217391304	-34.362244898	4.5	6.1126
1635	0.8175	21.9369565217	-35.7795918367	7.36666666667	6.1126
1636	0.818	52.9043478261	-44.2836734694	13.1	3.2994
1637	0.8185	44.4586956522	-41.4489795918	11.6666666667	-5.1402
1638	0.819	37.4206521739	-30.1102040816	3.06666666667	8.9258
1639	0.8195	12.0836956522	-20.1887755102	11.6666666667	10.3324
1640	0.82	-28.7369565217	-17.3540816327	14.5333333333	10.3324
1641	0.8205	-65.3347826087	-8.85	11.6666666667	17.3654
1642	0.821	-83.6336956522	-0.345918367347	1.63333333333	17.3654
1643	0.8215	-82.2260869565	10.9928571429	-1.23333333333	28.6182
1644	0.822	-73.7804347826	19.4969387755	1.63333333333	41.2776
1645	0.8225	-63.927173913	40.7571428571	7.36666666667	20.1786
1646	0.823	-25.9217391304	32.2530612245	11.6666666667	1.8928
1647	0.8235	13.4913043478	32.2530612245	7.36666666667	6.1126
1648	0.824	33.197826087	30.8357142857	5.93333333333	8.9258
1649	0.8245	27.5673913043	30.8357142857	-2.66666666667	10.3324
1650	0.825	41.6434782609	32.2530612245	-1.23333333333	4.706
1651	0.8255	51.4967391304	35.087755102	0.2	-12.1732
1652	0.826	54.3119565217	35.087755102	-4.1	13.1456
1653	0.8265	40.2358695652	22.3316326531	-4.1	4.706
1654	0.827	19.1217391304	3.90612244898	4.5	-3.7336
1655	0.8275	10.6760869565	-6.01530612245	18.8333333333	1.8928
1656	0.828	12.0836956522	-8.85	-4.1	4.706
1657	0.8285	23.3445652174	-1.76326530612	-2.66666666667	-3.7336
1658	0.829	43.0510869565	3.90612244898	4.5	-10.7666
1659	0.8295	62.7576086957	10.9928571429	1.63333333333	-3.7336
1660	0.83	78.2413043478	18.0795918367	4.5	13.1456
1661	0.8305	96.5402173913	22.3316326531	-1.23333333333	22.9918
1662	0.831	113.431521739	1.07142857143	-1.23333333333	35.6512
1663	0.8315	117.654347826	1.07142857143	-6.96666666667	41.2776
1664	0.832	124.692391304	-14.5193877551	-8.4	41.2776
1665	0.8325	120.469565217	-23.0234693878	-4.1	45.4974
1666	0.833	107.801086957	-25.8581632653	0.2	53.937
1667	0.8335	88.0945652174	-18.7714285714	3.06666666667	55.3436
1668	0.834	65.572826087	-15.9367346939	5.93333333333	56.7502
1669	0.8345	38.8282608696	-1.76326530612	26.0	46.904
1670	0.835	23.3445652174	1.07142857143	24.5666666667	31.4314
1671	0.8355	30.3826086957	-3.1806122449	5.93333333333	14.5522
1672	0.836	28.975	-1.76326530612	1.63333333333	13.1456
1673	0.8365	5.04565217391	9.57551020408	0.2	18.772
1674	0.837	-13.2532608696	23.7489795918	3.06666666667	20.1786
1675	0.8375	-25.9217391304	25.1663265306	0.2	15.9588
1676	0.838	-48.4434782609	29.4183673469	8.8	10.3324
1677	0.8385	-89.2641304348	29.4183673469	4.5	1.8928
1678	0.839	-107.563043478	13.8275510204	-2.66666666667	0.4862
1679	0.8395	-130.084782609	-13.1020408163	-2.66666666667	-7.9534
1680	0.84	-127.269565217	-21.606122449	0.2	-5.1402
1681	0.8405	-104.747826087	-11.6846938776	4.5	-12.1732
1682	0.841	-62.5195652174	3.90612244898	4.5	10.3324
1683	0.8415	-18.8836956522	6.74081632653	-8.4	-0.9204
1684	0.842	21.9369565217	-1.76326530612	-6.96666666667	8.9258
1685	0.8425	37.4206521739	-4.59795918367	3.06666666667	15.9588
1686	0.843	41.6434782609	-6.01530612245	1.63333333333	27.2116
1687	0.8435	45.8663043478	-11.6846938776	5.93333333333	39.871
1688	0.844	51.4967391304	-14.5193877551	5.93333333333	39.871
1689	0.8445	69.7956521739	-1.76326530612	7.36666666667	32.838
1690	0.845	93.725	15.2448979592	4.5	28.6182
1691	0.8455	114.839130435	2.4887755102	0.2	28.6182
1692	0.846	133.138043478	-6.01530612245	-2.66666666667	34.2446
1693	0.8465	138.768478261	-6.01530612245	5.93333333333	30.0248
1694	0.847	128.915217391	-1.76326530612	1.63333333333	56.7502
1695	0.8475	100.763043478	1.07142857143	-1.23333333333	45.4974
1696	0.848	86.6869565217	2.4887755102	11.6666666667	53.937
1697	0.8485	89.502173913	-8.85	20.2666666667	59.5634
1698	0.849	86.6869565217	-17.3540816327	-4.1	60.97
1699	0.8495	61.35	-17.3540816327	11.6666666667	56.7502
1700	0.85	57.127173913	-0.345918367347	-1.23333333333	52.5304
1701	0.8505	88.0945652174	-3.1806122449	-4.1	45.4974
1702	0.851	119.061956522	-14.5193877551	-2.66666666667	46.904
1703	0.8515	148.62173913	-3.1806122449	-1.23333333333	45.4974
1704	0.852	186.627173913	5.32346938776	4.5	32.838
1705	0.8525	224.632608696	6.74081632653	3.06666666667	14.5522
1706	0.853	235.893478261	9.57551020408	7.36666666667	-6.5468
1707	0.8535	220.409782609	8.15816326531	4.5	6.1126
1708	0.854	186.627173913	16.662244898	1.63333333333	20.1786
1709	0.8545	135.95326087	10.9928571429	4.5	14.5522
1710	0.855	61.35	9.57551020408	7.36666666667	13.1456
1711	0.8555	-10.4380434783	20.9142857143	21.7	8.9258
1712	0.856	-30.1445652174	29.4183673469	-5.53333333333	7.5192
1713	0.8565	-21.6989130435	40.7571428571	5.93333333333	4.706
1714	0.857	-10.4380434783	37.9224489796	-1.23333333333	1.8928
1715	0.8575	-10.4380434783	40.7571428571	4.5	3.2994
1716	0.858	-16.0684782609	16.662244898	5.93333333333	0.4862
1717	0.8585	-1.99239130435	-7.43265306122	8.8	-7.9534
1718	0.859	0.822826086957	-15.9367346939	3.06666666667	-9.36
1719	0.8595	55.7195652174	-8.85	-2.66666666667	3.2994
1720	0.86	62.7576086957	-11.6846938776	1.63333333333	4.706
1721	0.8605	58.5347826087	-13.1020408163	3.06666666667	10.3324
1722	0.861	31.7902173913	-15.9367346939	-1.23333333333	6.1126
1723	0.8615	-11.8456521739	-15.9367346939	-5.53333333333	4.706
1724	0.862	-39.997826087	-13.1020408163	-12.7	-0.9204
1725	0.8625	-45.6282608696	-21.606122449	-12.7	7.5192
1726	0.863	-47.0358695652	-23.0234693878	-5.53333333333	8.9258
1727	0.8635	-49.8510869565	-4.59795918367	0.2	7.5192
1728	0.864	-42.8130434783	10.9928571429	0.2	8.9258
1729	0.8645	-18.8836956522	1.07142857143	4.5	8.9258
1730	0.865	23.3445652174	5.32346938776	0.2	-0.9204
1731	0.8655	78.2413043478	22.3316326531	0.2	-14.9864
1732	0.866	128.915217391	23.7489795918	-2.66666666667	-23.426
1733	0.8665	159.882608696	22.3316326531	0.2	-31.8656
1734	0.867	151.436956522	15.2448979592	4.5	-33.2722
1735	0.8675	130.322826087	18.0795918367	4.5	-41.7118
1736	0.868	99.3554347826	20.9142857143	7.36666666667	-30.459
1737	0.8685	55.7195652174	22.3316326531	24.5666666667	-16.393
1738	0.869	-4.80760869565	19.4969387755	-4.1	-23.426
1739	0.8695	-70.9652173913	22.3316326531	-2.66666666667	-43.1184
1740	0.87	-114.601086957	20.9142857143	-6.96666666667	-54.3712
1741	0.8705	-130.084782609	26.5836734694	-5.53333333333	-61.4042
1742	0.871	-138.530434783	26.5836734694	0.2	-50.1514
1743	0.8715	-144.160869565	15.2448979592	4.5	-38.8986
1744	0.872	-128.677173913	-3.1806122449	5.93333333333	-26.2392
1745	0.8725	-117.416304348	-3.1806122449	3.06666666667	-9.36
1746	0.873	-108.970652174	-3.1806122449	-4.1	4.706
1747	0.8735	-101.932608696	-10.2673469388	-4.1	8.9258
1748	0.874	-96.302173913	-15.9367346939	1.63333333333	32.838
1749	0.8745	-83.6336956522	-14.5193877551	14.5333333333	30.0248
1750	0.875	-65.3347826087	-15.9367346939	15.9666666667	45.4974
1751	0.8755	-42.8130434783	-14.5193877551	8.8	24.3984
1752	0.876	-6.2152173913	-14.5193877551	-2.66666666667	15.9588
1753	0.8765	17.7141304348	-14.5193877551	-12.7	7.5192
1754	0.877	9.26847826087	-3.1806122449	-8.4	3.2994
1755	0.8775	3.63804347826	5.32346938776	3.06666666667	10.3324
1756	0.878	-4.80760869565	9.57551020408	7.36666666667	18.772
1757	0.8785	-11.8456521739	-23.0234693878	7.36666666667	15.9588
1758	0.879	-16.0684782609	-31.5275510204	8.8	-2.327
1759	0.8795	-7.62282608696	-18.7714285714	11.6666666667	-19.2062
1760	0.88	-9.03043478261	1.07142857143	5.93333333333	-22.0194
1761	0.8805	-25.9217391304	5.32346938776	-1.23333333333	-30.459
1762	0.881	-44.2206521739	15.2448979592	-1.23333333333	-38.8986
1763	0.8815	-51.2586956522	15.2448979592	-4.1	-36.0854
1764	0.882	-70.9652173913	16.662244898	3.06666666667	-30.459
1765	0.8825	-80.8184782609	15.2448979592	14.5333333333	-24.8326
1766	0.883	-96.302173913	9.57551020408	-5.53333333333	-22.0194
1767	0.8835	-104.747826087	10.9928571429	0.2	-17.7996
1768	0.884	-82.2260869565	16.662244898	3.06666666667	-6.5468
1769	0.8845	-42.8130434783	23.7489795918	4.5	1.8928
1770	0.885	-4.80760869565	16.662244898	7.36666666667	4.706
1771	0.8855	13.4913043478	-13.1020408163	5.93333333333	-0.9204
1772	0.886	36.0130434783	-17.3540816327	3.06666666667	4.706
1773	0.8865	89.502173913	-13.1020408163	-8.4	8.9258
1774	0.887	133.138043478	-23.0234693878	-4.1	8.9258
1775	0.8875	134.545652174	-27.2755102041	1.63333333333	-3.7336
1776	0.888	119.061956522	-30.1102040816	13.1	-16.393
1777	0.8885	106.393478261	-28.6928571429	3.06666666667	-19.2062
1778	0.889	90.9097826087	-28.6928571429	-9.83333333333	-14.9864
1779	0.8895	61.35	-28.6928571429	-4.1	-7.9534
1780	0.89	20.5293478261	-13.1020408163	17.4	-13.5798
1781	0.8905	-4.80760869565	2.4887755102	18.8333333333	-23.426
1782	0.891	-32.9597826087	18.0795918367	3.06666666667	-26.2392
1783	0.8915	-52.6663043478	33.6704081633	-1.23333333333	-24.8326
1784	0.892	-61.1119565217	25.1663265306	-1.23333333333	-16.393
1785	0.8925	-37.1826086957	28.0010204082	-1.23333333333	-9.36
1786	0.893	-16.0684782609	3.90612244898	3.06666666667	-12.1732
1787	0.8935	31.7902173913	3.90612244898	3.06666666667	-31.8656
1788	0.894	82.4641304348	1.07142857143	4.5	-45.9316
1789	0.8945	120.469565217	-10.2673469388	-2.66666666667	-57.1844
1790	0.895	135.95326087	-15.9367346939	-1.23333333333	-45.9316
1791	0.8955	138.768478261	-21.606122449	-2.66666666667	-57.1844
1792	0.896	135.95326087	-27.2755102041	11.6666666667	-45.9316
1793	0.8965	151.436956522	-32.9448979592	3.06666666667	-38.8986
1794	0.897	171.143478261	-32.9448979592	-2.66666666667	-43.1184
1795	0.8975	169.735869565	-15.9367346939	14.5333333333	-44.525
1796	0.898	161.290217391	-1.76326530612	8.8	-48.7448
1797	0.8985	138.768478261	20.9142857143	4.5	-48.7448
1798	0.899	92.3173913043	22.3316326531	-4.1	-47.3382
1799	0.8995	31.7902173913	46.4265306122	-1.23333333333	-47.3382
1800	0.9	-34.3673913043	43.5918367347	1.63333333333	-44.525
1801	0.9005	-55.4815217391	52.0959183673	4.5	-38.8986
1802	0.901	-116.008695652	45.0091836735	5.93333333333	-43.1184
1803	0.9015	-166.682608696	37.9224489796	7.36666666667	-29.0524
1804	0.902	-196.242391304	29.4183673469	4.5	-23.426
1805	0.9025	-196.242391304	16.662244898	7.36666666667	-9.36
1806	0.903	-183.573913043	9.57551020408	3.06666666667	6.1126
1807	0.9035	-163.867391304	6.74081632653	11.6666666667	28.6182
1808	0.904	-142.75326087	9.57551020408	13.1	28.6182
1809	0.9045	-110.37826087	15.2448979592	10.2333333333	32.838
1810	0.905	-99.1173913043	9.57551020408	11.6666666667	28.6182
1811	0.9055	-96.302173913	16.662244898	1.63333333333	20.1786
1812	0.906	-107.563043478	3.90612244898	-1.23333333333	8.9258
1813	0.9065	-117.416304348	6.74081632653	8.8	8.9258
1814	0.907	-106.155434783	1.07142857143	7.36666666667	14.5522
1815	0.9075	-66.7423913043	2.4887755102	-1.23333333333	15.9588
1816	0.908	-41.4054347826	-4.59795918367	0.2	7.5192
1817	0.9085	-24.5141304348	-10.2673469388	8.8	20.1786
1818	0.909	-0.584782608696	-8.85	15.9666666667	8.9258
1819	0.9095	14.8989130435	-11.6846938776	8.8	6.1126
1820	0.91	19.1217391304	-10.2673469388	1.63333333333	-0.9204
1821	0.9105	20.5293478261	-17.3540816327	7.36666666667	-5.1402
1822	0.911	16.3065217391	-18.7714285714	3.06666666667	-10.7666
1823	0.9115	17.7141304348	-18.7714285714	17.4	-6.5468
1824	0.912	33.197826087	-25.8581632653	-2.66666666667	-9.36
1825	0.9125	51.4967391304	-17.3540816327	0.2	-22.0194
1826	0.913	61.35	-25.8581632653	-2.66666666667	-22.0194
1827	0.9135	65.572826087	-0.345918367347	-4.1	-23.426
1828	0.914	48.6815217391	-1.76326530612	-5.53333333333	-31.8656
1829	0.9145	71.2032608696	3.90612244898	-2.66666666667	-45.9316
1830	0.915	64.1652173913	6.74081632653	-1.23333333333	-67.0306
1831	0.9155	65.572826087	6.74081632653	0.2	-61.4042
1832	0.916	76.8336956522	9.57551020408	11.6666666667	-67.0306
1833	0.9165	95.1326086957	9.57551020408	-4.1	-61.4042
1834	0.917	126.1	19.4969387755	1.63333333333	-41.7118
1835	0.9175	158.475	22.3316326531	-2.66666666667	-57.1844
1836	0.918	176.773913043	23.7489795918	0.2	-68.4372
1837	0.9185	168.32826087	23.7489795918	3.06666666667	-78.2834
1838	0.919	133.138043478	3.90612244898	0.2	-82.5032
1839	0.9195	103.57826087	1.07142857143	4.5	-82.5032
1840	0.92	62.7576086957	13.8275510204	7.36666666667	-76.8768
1841	0.9205	10.6760869565	26.5836734694	8.8	-67.0306
1842	0.921	-56.8891304348	23.7489795918	4.5	-52.9646
1843	0.9215	-85.0413043478	22.3316326531	4.5	-41.7118
1844	0.922	-61.1119565217	16.662244898	0.2	-24.8326
1845	0.9225	-69.5576086957	-0.345918367347	1.63333333333	-23.426
1846	0.923	-42.8130434783	-23.0234693878	4.5	-27.6458
1847	0.9235	-4.80760869565	-31.5275510204	1.63333333333	-2.327
1848	0.924	40.2358695652	-23.0234693878	8.8	-10.7666
1849	0.9245	85.2793478261	-14.5193877551	11.6666666667	-9.36
1850	0.925	124.692391304	-21.606122449	-11.2666666667	-9.36
1851	0.9255	152.844565217	-10.2673469388	-8.4	-6.5468
1852	0.926	161.290217391	1.07142857143	-4.1	-6.5468
1853	0.9265	141.583695652	9.57551020408	0.2	-12.1732
1854	0.927	120.469565217	26.5836734694	3.06666666667	-16.393
1855	0.9275	119.061956522	10.9928571429	-2.66666666667	-16.393
1856	0.928	107.801086957	2.4887755102	0.2	-22.0194
1857	0.9285	57.127173913	9.57551020408	7.36666666667	-26.2392
1858	0.929	26.1597826087	19.4969387755	14.5333333333	-12.1732
1859	0.9295	-30.1445652174	20.9142857143	11.6666666667	0.4862
1860	0.93	-18.8836956522	9.57551020408	-2.66666666667	-9.36
1861	0.9305	20.5293478261	-6.01530612245	-11.2666666667	-34.6788
1862	0.931	45.8663043478	-7.43265306122	-5.53333333333	-47.3382
1863	0.9315	59.9423913043	-1.76326530612	7.36666666667	-68.4372
1864	0.932	72.6108695652	-3.1806122449	5.93333333333	-54.3712
1865	0.9325	103.57826087	-17.3540816327	-1.23333333333	-31.8656
1866	0.933	124.692391304	-24.4408163265	-1.23333333333	-16.393
1867	0.9335	127.507608696	-28.6928571429	1.63333333333	-22.0194
1868	0.934	130.322826087	-27.2755102041	7.36666666667	-33.2722
1869	0.9345	138.768478261	-21.606122449	5.93333333333	-45.9316
1870	0.935	141.583695652	-23.0234693878	7.36666666667	-68.4372
1871	0.9355	135.95326087	-3.1806122449	11.6666666667	-72.657
1872	0.936	104.985869565	2.4887755102	5.93333333333	-68.4372
1873	0.9365	82.4641304348	-11.6846938776	3.06666666667	-41.7118
1874	0.937	51.4967391304	-17.3540816327	3.06666666667	-31.8656
1875	0.9375	24.752173913	-10.2673469388	5.93333333333	-50.1514
1876	0.938	-1.99239130435	-8.85	8.8	-45.9316
1877	0.9385	-48.4434782609	-4.59795918367	23.1333333333	-36.0854
1878	0.939	-121.639130435	-4.59795918367	18.8333333333	-27.6458
1879	0.9395	-204.688043478	-8.85	14.5333333333	-27.6458
1880	0.94	-252.54673913	18.0795918367	-6.96666666667	-27.6458
1881	0.9405	-263.807608696	10.9928571429	-12.7	-33.2722
1882	0.941	-249.731521739	1.07142857143	-4.1	-41.7118
1883	0.9415	-232.840217391	-3.1806122449	1.63333333333	-50.1514
1884	0.942	-197.65	-10.2673469388	8.8	-47.3382
1885	0.9425	-142.75326087	-15.9367346939	4.5	-36.0854
1886	0.943	-89.2641304348	-8.85	7.36666666667	-20.6128
1887	0.9435	-44.2206521739	22.3316326531	3.06666666667	-27.6458
1888	0.944	-7.62282608696	32.2530612245	-2.66666666667	-31.8656
1889	0.9445	20.5293478261	28.0010204082	-8.4	-31.8656
1890	0.945	47.2739130435	29.4183673469	-6.96666666667	-61.4042
1891	0.9455	64.1652173913	25.1663265306	-4.1	-68.4372
1892	0.946	72.6108695652	20.9142857143	-1.23333333333	-72.657
1893	0.9465	61.35	19.4969387755	-2.66666666667	-58.591
1894	0.947	48.6815217391	9.57551020408	-6.96666666667	-50.1514
1895	0.9475	37.4206521739	-10.2673469388	0.2	-52.9646
1896	0.948	23.3445652174	-15.9367346939	0.2	-71.2504
1897	0.9485	12.0836956522	-28.6928571429	0.2	-81.0966
1898	0.949	26.1597826087	-32.9448979592	0.2	-68.4372
1899	0.9495	2.23043478261	-30.1102040816	1.63333333333	-67.0306
1900	0.95	-37.1826086957	-20.1887755102	3.06666666667	-65.624
1901	0.9505	-52.6663043478	-18.7714285714	-2.66666666667	-62.8108
1902	0.951	-68.15	-14.5193877551	14.5333333333	-55.7778
1903	0.9515	-90.6717391304	-0.345918367347	15.9666666667	-51.558
1904	0.952	-116.008695652	10.9928571429	17.4	-30.459
1905	0.9525	-130.084782609	-4.59795918367	5.93333333333	-17.7996
1906	0.953	-145.568478261	-11.6846938776	3.06666666667	-19.2062
1907	0.9535	-148.383695652	-0.345918367347	3.06666666667	-22.0194
1908	0.954	-134.307608696	6.74081632653	3.06666666667	-26.2392
1909	0.9545	-127.269565217	10.9928571429	-2.66666666667	-33.2722
1910	0.955	-118.823913043	22.3316326531	-4.1	-44.525
1911	0.9555	-72.372826087	29.4183673469	-4.1	-38.8986
1912	0.956	-30.1445652174	43.5918367347	-1.23333333333	-33.2722
1913	0.9565	-10.4380434783	43.5918367347	0.2	-10.7666
1914	0.957	36.0130434783	49.2612244898	4.5	-30.459
1915	0.9575	82.4641304348	47.843877551	8.8	-29.0524
1916	0.958	130.322826087	35.087755102	15.9666666667	-38.8986
1917	0.9585	148.62173913	18.0795918367	-9.83333333333	-54.3712
1918	0.959	141.583695652	5.32346938776	-1.23333333333	-68.4372
1919	0.9595	116.24673913	9.57551020408	0.2	-58.591
1920	0.96	81.0565217391	22.3316326531	8.8	-50.1514
1921	0.9605	33.197826087	19.4969387755	4.5	-48.7448
1922	0.961	-0.584782608696	13.8275510204	3.06666666667	-50.1514
1923	0.9615	-34.3673913043	-1.76326530612	5.93333333333	-57.1844
1924	0.962	-61.1119565217	-4.59795918367	1.63333333333	-68.4372
1925	0.9625	-76.5956521739	-4.59795918367	-1.23333333333	-74.0636
1926	0.963	-66.7423913043	-6.01530612245	1.63333333333	-75.4702
1927	0.9635	-47.0358695652	-15.9367346939	4.5	-74.0636
1928	0.964	-25.9217391304	-20.1887755102	8.8	-64.2174
1929	0.9645	-24.5141304348	-14.5193877551	-4.1	-59.9976
1930	0.965	-28.7369565217	-20.1887755102	-4.1	-65.624
1931	0.9655	-42.8130434783	-27.2755102041	7.36666666667	-58.591
1932	0.966	-45.6282608696	-40.0316326531	-2.66666666667	-57.1844
1933	0.9665	-39.997826087	-45.7010204082	-9.83333333333	-52.9646
1934	0.967	-39.997826087	-44.2836734694	1.63333333333	-54.3712
1935	0.9675	-37.1826086957	-21.606122449	4.5	-41.7118
1936	0.968	-44.2206521739	-18.7714285714	3.06666666667	-27.6458
1937	0.9685	-75.1880434783	-13.1020408163	3.06666666667	-19.2062
1938	0.969	-97.7097826087	-13.1020408163	-2.66666666667	-6.5468
1939	0.9695	-114.601086957	-10.2673469388	-2.66666666667	10.3324
1940	0.97	-100.525	-6.01530612245	-1.23333333333	6.1126
1941	0.9705	-75.1880434783	-3.1806122449	-2.66666666667	10.3324
1942	0.971	-86.4489130435	-6.01530612245	-2.66666666667	21.5852
1943	0.9715	-89.2641304348	-7.43265306122	15.9666666667	-0.9204
1944	0.972	-52.6663043478	13.8275510204	30.3	-5.1402
1945	0.9725	-17.4760869565	16.662244898	-4.1	0.4862
1946	0.973	-4.80760869565	10.9928571429	-4.1	7.5192
1947	0.9735	6.45326086957	19.4969387755	-4.1	1.8928
1948	0.974	5.04565217391	43.5918367347	-1.23333333333	-7.9534
1949	0.9745	-11.8456521739	36.5051020408	0.2	-10.7666
1950	0.975	-38.5902173913	36.5051020408	3.06666666667	-17.7996
1951	0.9755	-56.8891304348	29.4183673469	3.06666666667	-31.8656
1952	0.976	-55.4815217391	16.662244898	5.93333333333	-43.1184
1953	0.9765	-54.0739130435	13.8275510204	5.93333333333	-50.1514
1954	0.977	-49.8510869565	8.15816326531	7.36666666667	-22.0194
1955	0.9775	-30.1445652174	5.32346938776	14.5333333333	-31.8656
1956	0.978	-11.8456521739	-8.85	1.63333333333	-41.7118
1957	0.9785	7.86086956522	-20.1887755102	21.7	-43.1184
1958	0.979	27.5673913043	-20.1887755102	15.9666666667	-50.1514
1959	0.9795	45.8663043478	-10.2673469388	4.5	-55.7778
1960	0.98	55.7195652174	19.4969387755	-2.66666666667	-59.9976
1961	0.9805	62.7576086957	22.3316326531	-9.83333333333	-50.1514
1962	0.981	78.2413043478	9.57551020408	-1.23333333333	-34.6788
1963	0.9815	113.431521739	-21.606122449	-2.66666666667	-24.8326
1964	0.982	151.436956522	-35.7795918367	-6.96666666667	-5.1402
1965	0.9825	148.62173913	-45.7010204082	-2.66666666667	20.1786
1966	0.983	185.219565217	-44.2836734694	5.93333333333	17.3654
1967	0.9835	173.958695652	-27.2755102041	4.5	-16.393
1968	0.984	155.659782609	-8.85	4.5	-24.8326
1969	0.9845	133.138043478	-1.76326530612	14.5333333333	-6.5468
1970	0.985	93.725	9.57551020408	-1.23333333333	20.1786
1971	0.9855	59.9423913043	23.7489795918	0.2	51.1238
1972	0.986	31.7902173913	39.3397959184	3.06666666667	49.7172
1973	0.9865	14.8989130435	47.843877551	-8.4	21.5852
1974	0.987	-9.03043478261	54.9306122449	-5.53333333333	3.2994
1975	0.9875	-24.5141304348	46.4265306122	-6.96666666667	-9.36
1976	0.988	-39.997826087	43.5918367347	-11.2666666667	-13.5798
1977	0.9885	-45.6282608696	42.1744897959	-6.96666666667	-19.2062
1978	0.989	-25.9217391304	30.8357142857	-1.23333333333	-24.8326
1979	0.9895	-16.0684782609	26.5836734694	3.06666666667	-17.7996
1980	0.99	-16.0684782609	25.1663265306	5.93333333333	-20.6128
1981	0.9905	-21.6989130435	16.662244898	7.36666666667	-34.6788
1982	0.991	-25.9217391304	10.9928571429	8.8	-30.459
1983	0.9915	-16.0684782609	8.15816326531	7.36666666667	-9.36
1984	0.992	10.6760869565	-4.59795918367	-6.96666666667	-3.7336
1985	0.9925	45.8663043478	-0.345918367347	14.5333333333	1.8928
1986	0.993	72.6108695652	-6.01530612245	3.06666666667	3.2994
1987	0.9935	81.0565217391	-17.3540816327	-8.4	0.4862
1988	0.994	107.801086957	-24.4408163265	-6.96666666667	1.8928
1989	0.9945	138.768478261	5.32346938776	-4.1	1.8928
1990	0.995	141.583695652	6.74081632653	-6.96666666667	6.1126
1991	0.9955	107.801086957	-11.6846938776	-4.1	0.4862
1992	0.996	69.7956521739	-11.6846938776	-1.23333333333	0.4862
1993	0.9965	47.2739130435	-0.345918367347	1.63333333333	-0.9204
1994	0.997	68.3880434783	5.32346938776	4.5	-2.327
1995	0.9975	44.4586956522	16.662244898	3.06666666667	-9.36
1996	0.998	62.7576086957	13.8275510204	4.5	-22.0194
1997	0.9985	61.35	8.15816326531	14.5333333333	-30.459
1998	0.999	44.4586956522	8.15816326531	-1.23333333333	-33.2722
1999	0.9995	37.4206521739	-8.85	17.4	-44.525
2000	1.0	43.0510869565	-13.1020408163	28.8666666667	-48.7448
2001	1.0005	47.2739130435	-30.1102040816	4.5	-37.492
2002	1.001	51.4967391304	-37.1969387755	0.2	-23.426
2003	1.0015	66.9804347826	-30.1102040816	0.2	-10.7666
2004	1.002	68.3880434783	-11.6846938776	-4.1	4.706
2005	1.0025	64.1652173913	-8.85	-5.53333333333	22.9918
2006	1.003	38.8282608696	13.8275510204	0.2	31.4314
2007	1.0035	21.9369565217	36.5051020408	11.6666666667	28.6182
2008	1.004	14.8989130435	35.087755102	8.8	28.6182
2009	1.0045	0.822826086957	32.2530612245	7.36666666667	22.9918
2010	1.005	-27.3293478261	18.0795918367	3.06666666667	51.1238
2011	1.0055	-24.5141304348	-0.345918367347	1.63333333333	41.2776
2012	1.006	-20.2913043478	-6.01530612245	-4.1	39.871
2013	1.0065	-18.8836956522	-4.59795918367	20.2666666667	31.4314
2014	1.007	-35.775	2.4887755102	13.1	14.5522
2015	1.0075	-27.3293478261	8.15816326531	20.2666666667	21.5852
2016	1.008	3.63804347826	-8.85	-1.23333333333	8.9258
2017	1.0085	51.4967391304	-18.7714285714	0.2	-13.5798
2018	1.009	86.6869565217	10.9928571429	4.5	-17.7996
2019	1.0095	99.3554347826	-6.01530612245	4.5	-14.9864
2020	1.01	116.24673913	-18.7714285714	11.6666666667	-17.7996
2021	1.0105	121.877173913	-10.2673469388	8.8	-10.7666
2022	1.011	90.9097826087	-10.2673469388	1.63333333333	0.4862
2023	1.0115	34.6054347826	-1.76326530612	4.5	8.9258
2024	1.012	-11.8456521739	-1.76326530612	4.5	-5.1402
2025	1.0125	-47.0358695652	-8.85	7.36666666667	-6.5468
2026	1.013	-75.1880434783	-4.59795918367	-8.4	4.706
2027	1.0135	-97.7097826087	9.57551020408	-1.23333333333	17.3654
2028	1.014	-116.008695652	10.9928571429	14.5333333333	42.6842
2029	1.0145	-142.75326087	5.32346938776	4.5	68.003
2030	1.015	-144.160869565	5.32346938776	5.93333333333	77.8492
2031	1.0155	-151.198913043	2.4887755102	5.93333333333	72.2228
2032	1.016	-162.459782609	-0.345918367347	0.2	77.8492
2033	1.0165	-155.42173913	-8.85	4.5	93.3218
2034	1.017	-156.829347826	-4.59795918367	-1.23333333333	93.3218
2035	1.0175	-144.160869565	-6.01530612245	-5.53333333333	70.8162
2036	1.018	-114.601086957	5.32346938776	0.2	55.3436
2037	1.0185	-69.5576086957	16.662244898	-1.23333333333	45.4974
2038	1.019	-51.2586956522	13.8275510204	-4.1	38.4644
2039	1.0195	-21.6989130435	3.90612244898	-1.23333333333	37.0578
2040	1.02	9.26847826087	5.32346938776	8.8	10.3324
2041	1.0205	40.2358695652	8.15816326531	15.9666666667	8.9258
2042	1.021	81.0565217391	2.4887755102	21.7	15.9588
2043	1.0215	117.654347826	-8.85	13.1	4.706
2044	1.022	130.322826087	-14.5193877551	4.5	1.8928
2045	1.0225	119.061956522	-23.0234693878	-2.66666666667	15.9588
2046	1.023	75.4260869565	1.07142857143	-9.83333333333	4.706
2047	1.0235	28.975	-6.01530612245	-12.7	-9.36
2048	1.024	-7.62282608696	-8.85	-2.66666666667	-0.9204
2049	1.0245	-51.2586956522	-3.1806122449	1.63333333333	32.838
2050	1.025	-79.4108695652	6.74081632653	4.5	59.5634
2051	1.0255	-108.970652174	5.32346938776	1.63333333333	59.5634
2052	1.026	-128.677173913	1.07142857143	-1.23333333333	28.6182
2053	1.0265	-120.231521739	1.07142857143	0.2	24.3984
2054	1.027	-106.155434783	-10.2673469388	14.5333333333	0.4862
2055	1.0275	-78.0032608696	-11.6846938776	14.5333333333	4.706
2056	1.028	-56.8891304348	-0.345918367347	18.8333333333	21.5852
2057	1.0285	-49.8510869565	5.32346938776	-5.53333333333	25.805
2058	1.029	-62.5195652174	2.4887755102	4.5	27.2116
2059	1.0295	-72.372826087	1.07142857143	0.2	32.838
2060	1.03	-79.4108695652	20.9142857143	3.06666666667	28.6182
2061	1.0305	-94.8945652174	5.32346938776	7.36666666667	25.805
2062	1.031	-96.302173913	-18.7714285714	7.36666666667	31.4314
2063	1.0315	-90.6717391304	-23.0234693878	1.63333333333	38.4644
