	Time	Channel 1	Channel 2	Channel 3	Channel 4
0	0.0	5.13673469388	11.1534883721	0.0468085106383	-1.20979020979
1	0.0005	3.7193877551	1.09302325581	0.0468085106383	-1.20979020979
2	0.001	0.884693877551	-0.344186046512	1.48085106383	-5.42867132867
3	0.0015	5.13673469388	-11.8418604651	-8.55744680851	1.6027972028
4	0.002	-11.8714285714	-0.344186046512	18.6893617021	0.196503496503
5	0.0025	16.4755102041	-0.344186046512	-4.25531914894	1.6027972028
6	0.003	-3.36734693878	1.09302325581	0.0468085106383	0.196503496503
7	0.0035	0.884693877551	-0.344186046512	-8.55744680851	4.41538461538
8	0.004	-3.36734693878	-1.78139534884	-4.25531914894	0.196503496503
9	0.0045	-7.6193877551	1.09302325581	-4.25531914894	8.63426573427
10	0.005	-4.78469387755	-0.344186046512	0.0468085106383	0.196503496503
11	0.0055	-7.6193877551	-4.65581395349	-2.82127659574	1.6027972028
12	0.006	-11.8714285714	-3.21860465116	2.91489361702	1.6027972028
13	0.0065	-16.1234693878	1.09302325581	-5.68936170213	1.6027972028
14	0.007	-17.5408163265	16.9023255814	-1.38723404255	-1.20979020979
15	0.0075	-16.1234693878	3.96744186047	1.48085106383	0.196503496503
16	0.008	-17.5408163265	-4.65581395349	1.48085106383	1.6027972028
17	0.0085	-13.2887755102	-10.4046511628	1.48085106383	1.6027972028
18	0.009	-6.20204081633	-8.96744186047	2.91489361702	0.196503496503
19	0.0095	-11.8714285714	-4.65581395349	2.91489361702	1.6027972028
20	0.01	-16.1234693878	1.09302325581	2.91489361702	-1.20979020979
21	0.0105	-4.78469387755	1.09302325581	1.48085106383	0.196503496503
22	0.011	-0.532653061224	1.09302325581	1.48085106383	12.8531468531
23	0.0115	13.6408163265	1.09302325581	2.91489361702	18.4783216783
24	0.012	19.3102040816	-0.344186046512	2.91489361702	14.2594405594
25	0.0125	22.1448979592	-1.78139534884	1.48085106383	-4.02237762238
26	0.013	16.4755102041	-1.78139534884	1.48085106383	-9.64755244755
27	0.0135	19.3102040816	-0.344186046512	0.0468085106383	0.196503496503
28	0.014	20.7275510204	3.96744186047	14.3872340426	0.196503496503
29	0.0145	15.0581632653	1.09302325581	17.2553191489	-11.0538461538
30	0.015	12.2234693878	-4.65581395349	2.91489361702	1.6027972028
31	0.0155	9.3887755102	-1.78139534884	-4.25531914894	1.6027972028
32	0.016	5.13673469388	-8.96744186047	-1.38723404255	3.00909090909
33	0.0165	5.13673469388	8.27906976744	-1.38723404255	0.196503496503
34	0.017	3.7193877551	18.3395348837	0.0468085106383	3.00909090909
35	0.0175	3.7193877551	-6.09302325581	-1.38723404255	1.6027972028
36	0.018	7.97142857143	-3.21860465116	0.0468085106383	3.00909090909
37	0.0185	5.13673469388	-0.344186046512	-1.38723404255	1.6027972028
38	0.019	-1.95	-0.344186046512	-1.38723404255	0.196503496503
39	0.0195	-4.78469387755	-0.344186046512	-1.38723404255	0.196503496503
40	0.02	-10.4540816327	2.53023255814	1.48085106383	0.196503496503
41	0.0205	-6.20204081633	-0.344186046512	1.48085106383	-4.02237762238
42	0.021	-3.36734693878	1.09302325581	2.91489361702	-6.83496503497
43	0.0215	-4.78469387755	-0.344186046512	-2.82127659574	-2.61608391608
44	0.022	-9.03673469388	-1.78139534884	-9.9914893617	3.00909090909
45	0.0225	-13.2887755102	-0.344186046512	-5.68936170213	1.6027972028
46	0.023	-17.5408163265	1.09302325581	4.34893617021	3.00909090909
47	0.0235	-20.3755102041	1.09302325581	12.9531914894	0.196503496503
48	0.024	-18.9581632653	2.53023255814	1.48085106383	5.82167832168
49	0.0245	-17.5408163265	1.09302325581	5.7829787234	8.63426573427
50	0.025	-14.706122449	-10.4046511628	2.91489361702	7.22797202797
51	0.0255	-9.03673469388	18.3395348837	2.91489361702	5.82167832168
52	0.026	-6.20204081633	14.0279069767	2.91489361702	7.22797202797
53	0.0265	-7.6193877551	-3.21860465116	0.0468085106383	5.82167832168
54	0.027	-4.78469387755	-6.09302325581	0.0468085106383	5.82167832168
55	0.0275	-1.95	1.09302325581	4.34893617021	7.22797202797
56	0.028	12.2234693878	2.53023255814	-1.38723404255	5.82167832168
57	0.0285	30.6489795918	1.09302325581	1.48085106383	3.00909090909
58	0.029	29.2316326531	1.09302325581	2.91489361702	5.82167832168
59	0.0295	12.2234693878	1.09302325581	0.0468085106383	17.072027972
60	0.03	13.6408163265	1.09302325581	1.48085106383	24.1034965035
61	0.0305	13.6408163265	1.09302325581	0.0468085106383	21.2909090909
62	0.031	12.2234693878	1.09302325581	2.91489361702	12.8531468531
63	0.0315	10.806122449	-1.78139534884	2.91489361702	0.196503496503
64	0.032	9.3887755102	1.09302325581	0.0468085106383	1.6027972028
65	0.0325	3.7193877551	1.09302325581	-4.25531914894	8.63426573427
66	0.033	3.7193877551	1.09302325581	-8.55744680851	7.22797202797
67	0.0335	2.30204081633	1.09302325581	-5.68936170213	7.22797202797
68	0.034	0.884693877551	1.09302325581	-1.38723404255	10.0405594406
69	0.0345	2.30204081633	18.3395348837	1.48085106383	7.22797202797
70	0.035	-0.532653061224	-4.65581395349	1.48085106383	10.0405594406
71	0.0355	2.30204081633	-6.09302325581	-1.38723404255	7.22797202797
72	0.036	-1.95	1.09302325581	1.48085106383	12.8531468531
73	0.0365	-13.2887755102	-0.344186046512	0.0468085106383	7.22797202797
74	0.037	-16.1234693878	-0.344186046512	1.48085106383	8.63426573427
75	0.0375	-11.8714285714	-0.344186046512	0.0468085106383	14.2594405594
76	0.038	3.7193877551	-1.78139534884	0.0468085106383	8.63426573427
77	0.0385	-6.20204081633	-0.344186046512	0.0468085106383	7.22797202797
78	0.039	-13.2887755102	-3.21860465116	-1.38723404255	19.8846153846
79	0.0395	-18.9581632653	1.09302325581	-1.38723404255	24.1034965035
80	0.04	-17.5408163265	1.09302325581	-2.82127659574	10.0405594406
81	0.0405	-18.9581632653	1.09302325581	12.9531914894	10.0405594406
82	0.041	-16.1234693878	1.09302325581	17.2553191489	12.8531468531
83	0.0415	-14.706122449	-0.344186046512	12.9531914894	3.00909090909
84	0.042	-7.6193877551	-10.4046511628	1.48085106383	12.8531468531
85	0.0425	-6.20204081633	-3.21860465116	-7.12340425532	10.0405594406
86	0.043	-3.36734693878	-6.09302325581	-1.38723404255	8.63426573427
87	0.0435	0.884693877551	-0.344186046512	-1.38723404255	8.63426573427
88	0.044	3.7193877551	-6.09302325581	1.48085106383	5.82167832168
89	0.0445	10.806122449	-7.53023255814	1.48085106383	7.22797202797
90	0.045	17.8928571429	-1.78139534884	1.48085106383	5.82167832168
91	0.0455	9.3887755102	-1.78139534884	0.0468085106383	3.00909090909
92	0.046	15.0581632653	2.53023255814	-1.38723404255	8.63426573427
93	0.0465	29.2316326531	-1.78139534884	0.0468085106383	12.8531468531
94	0.047	37.7357142857	-3.21860465116	2.91489361702	7.22797202797
95	0.0475	19.3102040816	-0.344186046512	0.0468085106383	11.4468531469
96	0.048	15.0581632653	1.09302325581	-1.38723404255	22.6972027972
97	0.0485	13.6408163265	-0.344186046512	-2.82127659574	28.3223776224
98	0.049	9.3887755102	1.09302325581	1.48085106383	19.8846153846
99	0.0495	7.97142857143	-3.21860465116	1.48085106383	7.22797202797
100	0.05	5.13673469388	1.09302325581	15.8212765957	7.22797202797
101	0.0505	3.7193877551	-0.344186046512	7.2170212766	7.22797202797
102	0.051	-0.532653061224	-1.78139534884	-5.68936170213	7.22797202797
103	0.0515	-0.532653061224	-4.65581395349	-8.55744680851	7.22797202797
104	0.052	0.884693877551	-0.344186046512	-4.25531914894	5.82167832168
105	0.0525	0.884693877551	-0.344186046512	-1.38723404255	5.82167832168
106	0.053	2.30204081633	-3.21860465116	1.48085106383	8.63426573427
107	0.0535	0.884693877551	8.27906976744	0.0468085106383	5.82167832168
108	0.054	3.7193877551	-3.21860465116	-1.38723404255	8.63426573427
109	0.0545	-7.6193877551	-0.344186046512	-1.38723404255	8.63426573427
110	0.055	-18.9581632653	-1.78139534884	-1.38723404255	10.0405594406
111	0.0555	-16.1234693878	-0.344186046512	-2.82127659574	8.63426573427
112	0.056	-4.78469387755	-0.344186046512	0.0468085106383	5.82167832168
113	0.0565	-1.95	-3.21860465116	0.0468085106383	3.00909090909
114	0.057	-21.7928571429	-3.21860465116	0.0468085106383	21.2909090909
115	0.0575	-20.3755102041	-0.344186046512	-1.38723404255	18.4783216783
116	0.058	-18.9581632653	1.09302325581	2.91489361702	12.8531468531
117	0.0585	-14.706122449	-0.344186046512	4.34893617021	-5.42867132867
118	0.059	-7.6193877551	-0.344186046512	2.91489361702	-1.20979020979
119	0.0595	-7.6193877551	-0.344186046512	8.65106382979	5.82167832168
120	0.06	-4.78469387755	-0.344186046512	-1.38723404255	4.41538461538
121	0.0605	-0.532653061224	-0.344186046512	-4.25531914894	5.82167832168
122	0.061	3.7193877551	1.09302325581	0.0468085106383	5.82167832168
123	0.0615	10.806122449	3.96744186047	0.0468085106383	3.00909090909
124	0.062	17.8928571429	-1.78139534884	0.0468085106383	4.41538461538
125	0.0625	17.8928571429	1.09302325581	0.0468085106383	3.00909090909
126	0.063	13.6408163265	-8.96744186047	4.34893617021	3.00909090909
127	0.0635	15.0581632653	-10.4046511628	1.48085106383	4.41538461538
128	0.064	20.7275510204	-6.09302325581	1.48085106383	0.196503496503
129	0.0645	19.3102040816	-1.78139534884	0.0468085106383	0.196503496503
130	0.065	-0.532653061224	-0.344186046512	0.0468085106383	1.6027972028
131	0.0655	12.2234693878	-3.21860465116	1.48085106383	3.00909090909
132	0.066	20.7275510204	-1.78139534884	2.91489361702	3.00909090909
133	0.0665	6.55408163265	-0.344186046512	1.48085106383	0.196503496503
134	0.067	5.13673469388	1.09302325581	-1.38723404255	14.2594405594
135	0.0675	5.13673469388	-1.78139534884	-2.82127659574	18.4783216783
136	0.068	3.7193877551	1.09302325581	-1.38723404255	15.6657342657
137	0.0685	0.884693877551	1.09302325581	14.3872340426	3.00909090909
138	0.069	0.884693877551	-1.78139534884	14.3872340426	4.41538461538
139	0.0695	-1.95	-3.21860465116	5.7829787234	5.82167832168
140	0.07	0.884693877551	-1.78139534884	-4.25531914894	8.63426573427
141	0.0705	-0.532653061224	-1.78139534884	-7.12340425532	5.82167832168
142	0.071	-1.95	2.53023255814	-1.38723404255	5.82167832168
143	0.0715	-1.95	16.9023255814	-1.38723404255	5.82167832168
144	0.072	-4.78469387755	11.1534883721	-2.82127659574	5.82167832168
145	0.0725	-13.2887755102	-1.78139534884	0.0468085106383	3.00909090909
146	0.073	-18.9581632653	-11.8418604651	1.48085106383	1.6027972028
147	0.0735	-16.1234693878	-6.09302325581	0.0468085106383	3.00909090909
148	0.074	-0.532653061224	-3.21860465116	0.0468085106383	0.196503496503
149	0.0745	-6.20204081633	1.09302325581	-1.38723404255	3.00909090909
150	0.075	-13.2887755102	-0.344186046512	0.0468085106383	8.63426573427
151	0.0755	-17.5408163265	1.09302325581	2.91489361702	3.00909090909
152	0.076	-11.8714285714	-0.344186046512	1.48085106383	-1.20979020979
153	0.0765	-3.36734693878	1.09302325581	2.91489361702	1.6027972028
154	0.077	2.30204081633	-1.78139534884	-8.55744680851	1.6027972028
155	0.0775	9.3887755102	-0.344186046512	-4.25531914894	5.82167832168
156	0.078	12.2234693878	2.53023255814	11.5191489362	1.6027972028
157	0.0785	17.8928571429	1.09302325581	14.3872340426	4.41538461538
158	0.079	17.8928571429	-1.78139534884	0.0468085106383	4.41538461538
159	0.0795	17.8928571429	-3.21860465116	-8.55744680851	8.63426573427
160	0.08	17.8928571429	2.53023255814	1.48085106383	5.82167832168
161	0.0805	22.1448979592	15.4651162791	0.0468085106383	4.41538461538
162	0.081	19.3102040816	11.1534883721	0.0468085106383	4.41538461538
163	0.0815	13.6408163265	-1.78139534884	1.48085106383	5.82167832168
164	0.082	7.97142857143	-10.4046511628	-1.38723404255	3.00909090909
165	0.0825	10.806122449	-4.65581395349	5.7829787234	4.41538461538
166	0.083	23.562244898	-1.78139534884	0.0468085106383	0.196503496503
167	0.0835	23.562244898	-4.65581395349	0.0468085106383	4.41538461538
168	0.084	7.97142857143	-0.344186046512	2.91489361702	4.41538461538
169	0.0845	-7.6193877551	-0.344186046512	1.48085106383	0.196503496503
170	0.085	-1.95	-0.344186046512	1.48085106383	-6.83496503497
171	0.0855	7.97142857143	-0.344186046512	-1.38723404255	-1.20979020979
172	0.086	3.7193877551	-1.78139534884	-8.55744680851	1.6027972028
173	0.0865	2.30204081633	1.09302325581	-9.9914893617	4.41538461538
174	0.087	3.7193877551	1.09302325581	-1.38723404255	1.6027972028
175	0.0875	-3.36734693878	2.53023255814	14.3872340426	4.41538461538
176	0.088	-4.78469387755	1.09302325581	14.3872340426	4.41538461538
177	0.0885	-7.6193877551	-6.09302325581	-1.38723404255	4.41538461538
178	0.089	-10.4540816327	-11.8418604651	-1.38723404255	5.82167832168
179	0.0895	-14.706122449	-6.09302325581	0.0468085106383	5.82167832168
180	0.09	-17.5408163265	5.40465116279	0.0468085106383	4.41538461538
181	0.0905	-16.1234693878	16.9023255814	0.0468085106383	4.41538461538
182	0.091	-18.9581632653	-0.344186046512	2.91489361702	3.00909090909
183	0.0915	-26.0448979592	1.09302325581	2.91489361702	5.82167832168
184	0.092	-23.2102040816	1.09302325581	1.48085106383	5.82167832168
185	0.0925	-1.95	1.09302325581	1.48085106383	1.6027972028
186	0.093	12.2234693878	1.09302325581	2.91489361702	4.41538461538
187	0.0935	12.2234693878	-0.344186046512	2.91489361702	5.82167832168
188	0.094	-0.532653061224	-0.344186046512	1.48085106383	19.8846153846
189	0.0945	7.97142857143	-0.344186046512	0.0468085106383	12.8531468531
190	0.095	15.0581632653	-0.344186046512	2.91489361702	1.6027972028
191	0.0955	17.8928571429	-1.78139534884	5.7829787234	-6.83496503497
192	0.096	17.8928571429	-0.344186046512	-2.82127659574	0.196503496503
193	0.0965	15.0581632653	-3.21860465116	-4.25531914894	4.41538461538
194	0.097	17.8928571429	1.09302325581	-5.68936170213	5.82167832168
195	0.0975	16.4755102041	1.09302325581	-2.82127659574	5.82167832168
196	0.098	15.0581632653	-1.78139534884	0.0468085106383	10.0405594406
197	0.0985	9.3887755102	-8.96744186047	-1.38723404255	8.63426573427
198	0.099	3.7193877551	-10.4046511628	-1.38723404255	10.0405594406
199	0.0995	2.30204081633	-7.53023255814	-4.25531914894	10.0405594406
200	0.1	9.3887755102	-3.21860465116	-2.82127659574	14.2594405594
201	0.1005	0.884693877551	-1.78139534884	0.0468085106383	17.072027972
202	0.101	-10.4540816327	-4.65581395349	-1.38723404255	19.8846153846
203	0.1015	-14.706122449	-3.21860465116	-1.38723404255	22.6972027972
204	0.102	0.884693877551	-1.78139534884	2.91489361702	24.1034965035
205	0.1025	-4.78469387755	-3.21860465116	1.48085106383	26.9160839161
206	0.103	-6.20204081633	1.09302325581	-4.25531914894	42.3853146853
207	0.1035	-4.78469387755	-3.21860465116	-1.38723404255	48.0104895105
208	0.104	-7.6193877551	1.09302325581	1.48085106383	36.7601398601
209	0.1045	-6.20204081633	1.09302325581	4.34893617021	28.3223776224
210	0.105	-10.4540816327	1.09302325581	-2.82127659574	40.979020979
211	0.1055	-11.8714285714	-1.78139534884	-12.8595744681	50.8230769231
212	0.106	-17.5408163265	1.09302325581	-7.12340425532	57.8545454545
213	0.1065	-20.3755102041	1.09302325581	-1.38723404255	60.6671328671
214	0.107	-20.3755102041	-7.53023255814	-2.82127659574	63.4797202797
215	0.1075	-20.3755102041	-10.4046511628	-1.38723404255	67.6986013986
216	0.108	-17.5408163265	2.53023255814	-2.82127659574	69.1048951049
217	0.1085	-11.8714285714	1.09302325581	-4.25531914894	71.9174825175
218	0.109	-10.4540816327	9.71627906977	-1.38723404255	66.2923076923
219	0.1095	-0.532653061224	-1.78139534884	-4.25531914894	66.2923076923
220	0.11	-4.78469387755	-0.344186046512	-1.38723404255	66.2923076923
221	0.1105	-4.78469387755	1.09302325581	-1.38723404255	64.886013986
222	0.111	-3.36734693878	1.09302325581	2.91489361702	55.041958042
223	0.1115	10.806122449	-0.344186046512	2.91489361702	46.6041958042
224	0.112	17.8928571429	2.53023255814	-1.38723404255	55.041958042
225	0.1125	22.1448979592	1.09302325581	-2.82127659574	67.6986013986
226	0.113	16.4755102041	1.09302325581	-2.82127659574	60.6671328671
227	0.1135	17.8928571429	-0.344186046512	0.0468085106383	60.6671328671
228	0.114	20.7275510204	-0.344186046512	4.34893617021	50.8230769231
229	0.1145	16.4755102041	-0.344186046512	0.0468085106383	57.8545454545
230	0.115	15.0581632653	-1.78139534884	18.6893617021	53.6356643357
231	0.1155	12.2234693878	1.09302325581	-7.12340425532	52.2293706294
232	0.116	12.2234693878	5.40465116279	-1.38723404255	53.6356643357
233	0.1165	12.2234693878	-4.65581395349	-1.38723404255	52.2293706294
234	0.117	15.0581632653	15.4651162791	-1.38723404255	52.2293706294
235	0.1175	13.6408163265	9.71627906977	-1.38723404255	45.1979020979
236	0.118	-3.36734693878	-3.21860465116	1.48085106383	36.7601398601
237	0.1185	-6.20204081633	-3.21860465116	1.48085106383	18.4783216783
238	0.119	9.3887755102	-3.21860465116	1.48085106383	1.6027972028
239	0.1195	23.562244898	-3.21860465116	4.34893617021	-18.0853146853
240	0.12	17.8928571429	-4.65581395349	2.91489361702	-32.1482517483
241	0.1205	2.30204081633	-7.53023255814	1.48085106383	-36.3671328671
242	0.121	0.884693877551	-6.09302325581	7.2170212766	-63.0867132867
243	0.1215	-1.95	-6.09302325581	5.7829787234	-89.8062937063
244	0.122	-4.78469387755	-7.53023255814	5.7829787234	-112.306993007
245	0.1225	-11.8714285714	-7.53023255814	0.0468085106383	-123.557342657
246	0.123	-11.8714285714	-10.4046511628	4.34893617021	-140.432867133
247	0.1235	-16.1234693878	-11.8418604651	0.0468085106383	-161.527272727
248	0.124	-16.1234693878	-10.4046511628	1.48085106383	-181.215384615
249	0.1245	-13.2887755102	-6.09302325581	5.7829787234	-200.903496503
250	0.125	-10.4540816327	-10.4046511628	11.5191489362	-220.591608392
251	0.1255	-4.78469387755	-14.7162790698	12.9531914894	-240.27972028
252	0.126	-1.95	-21.9023255814	11.5191489362	-261.374125874
253	0.1265	3.7193877551	-19.0279069767	11.5191489362	-282.468531469
254	0.127	12.2234693878	-14.7162790698	11.5191489362	-300.75034965
255	0.1275	15.0581632653	-11.8418604651	12.9531914894	-323.251048951
256	0.128	10.806122449	-13.2790697674	14.3872340426	-340.126573427
257	0.1285	15.0581632653	-13.2790697674	14.3872340426	-357.002097902
258	0.129	20.7275510204	-11.8418604651	12.9531914894	-380.909090909
259	0.1295	26.3969387755	-14.7162790698	11.5191489362	-392.159440559
260	0.13	26.3969387755	-11.8418604651	11.5191489362	-397.784615385
261	0.1305	27.8142857143	-16.1534883721	8.65106382979	-396.378321678
262	0.131	26.3969387755	-13.2790697674	5.7829787234	-424.504195804
263	0.1315	23.562244898	-16.1534883721	25.8595744681	-431.535664336
264	0.132	22.1448979592	-16.1534883721	24.4255319149	-438.567132867
265	0.1325	22.1448979592	-16.1534883721	5.7829787234	-441.37972028
266	0.133	17.8928571429	-17.5906976744	1.48085106383	-448.411188811
267	0.1335	17.8928571429	-17.5906976744	1.48085106383	-447.004895105
268	0.134	16.4755102041	-13.2790697674	10.085106383	-445.598601399
269	0.1345	13.6408163265	-21.9023255814	12.9531914894	-447.004895105
270	0.135	13.6408163265	-7.53023255814	11.5191489362	-449.817482517
271	0.1355	7.97142857143	1.09302325581	12.9531914894	-452.63006993
272	0.136	9.3887755102	-20.4651162791	8.65106382979	-449.817482517
273	0.1365	9.3887755102	-16.1534883721	11.5191489362	-449.817482517
274	0.137	19.3102040816	-14.7162790698	11.5191489362	-448.411188811
275	0.1375	3.7193877551	-14.7162790698	8.65106382979	-439.973426573
276	0.138	-10.4540816327	-13.2790697674	8.65106382979	-428.723076923
277	0.1385	-11.8714285714	-17.5906976744	14.3872340426	-425.91048951
278	0.139	-11.8714285714	-16.1534883721	11.5191489362	-410.441258741
279	0.1395	-13.2887755102	-11.8418604651	8.65106382979	-385.127972028
280	0.14	-17.5408163265	-14.7162790698	1.48085106383	-373.877622378
281	0.1405	-21.7928571429	-11.8418604651	18.6893617021	-361.220979021
282	0.141	-21.7928571429	-10.4046511628	28.7276595745	-347.158041958
283	0.1415	-17.5408163265	-10.4046511628	11.5191489362	-328.876223776
284	0.142	-14.706122449	-10.4046511628	2.91489361702	-310.594405594
285	0.1425	-11.8714285714	-7.53023255814	4.34893617021	-286.687412587
286	0.143	-4.78469387755	9.71627906977	8.65106382979	-264.186713287
287	0.1435	-7.6193877551	1.09302325581	8.65106382979	-241.686013986
288	0.144	-6.20204081633	-11.8418604651	5.7829787234	-220.591608392
289	0.1445	-0.532653061224	-10.4046511628	8.65106382979	-202.30979021
290	0.145	9.3887755102	-1.78139534884	8.65106382979	-186.840559441
291	0.1455	2.30204081633	-0.344186046512	8.65106382979	-171.371328671
292	0.146	19.3102040816	-3.21860465116	5.7829787234	-162.933566434
293	0.1465	17.8928571429	-3.21860465116	8.65106382979	-154.495804196
294	0.147	2.30204081633	-1.78139534884	5.7829787234	-140.432867133
295	0.1475	-6.20204081633	-4.65581395349	8.65106382979	-130.588811189
296	0.148	-4.78469387755	-1.78139534884	7.2170212766	-117.932167832
297	0.1485	-3.36734693878	-0.344186046512	7.2170212766	-109.494405594
298	0.149	-7.6193877551	-1.78139534884	2.91489361702	-85.5874125874
299	0.1495	-10.4540816327	-1.78139534884	5.7829787234	-95.4314685315
300	0.15	-14.706122449	-4.65581395349	0.0468085106383	-79.9622377622
301	0.1505	-16.1234693878	-3.21860465116	-4.25531914894	-75.7433566434
302	0.151	-20.3755102041	1.09302325581	2.91489361702	-70.1181818182
303	0.1515	-18.9581632653	-3.21860465116	2.91489361702	-68.7118881119
304	0.152	-20.3755102041	-16.1534883721	2.91489361702	-64.493006993
305	0.1525	-17.5408163265	-4.65581395349	2.91489361702	-57.4615384615
306	0.153	-17.5408163265	-4.65581395349	2.91489361702	-51.8363636364
307	0.1535	-20.3755102041	-0.344186046512	0.0468085106383	-40.586013986
308	0.154	-31.7142857143	-1.78139534884	0.0468085106383	-39.1797202797
309	0.1545	-27.462244898	-1.78139534884	-1.38723404255	-34.9608391608
310	0.155	-7.6193877551	-1.78139534884	-1.38723404255	-27.9293706294
311	0.1555	-17.5408163265	-0.344186046512	-1.38723404255	-19.4916083916
312	0.156	-30.2969387755	-1.78139534884	0.0468085106383	-8.24125874126
313	0.1565	-33.1316326531	-0.344186046512	1.48085106383	-13.8664335664
314	0.157	-33.1316326531	-0.344186046512	-2.82127659574	-9.64755244755
315	0.1575	-33.1316326531	-0.344186046512	-11.4255319149	-2.61608391608
316	0.158	-28.8795918367	-1.78139534884	7.2170212766	4.41538461538
317	0.1585	-27.462244898	-1.78139534884	2.91489361702	0.196503496503
318	0.159	-18.9581632653	1.09302325581	-2.82127659574	17.072027972
319	0.1595	-16.1234693878	3.96744186047	0.0468085106383	18.4783216783
320	0.16	-11.8714285714	-3.21860465116	0.0468085106383	24.1034965035
321	0.1605	-9.03673469388	-8.96744186047	1.48085106383	25.5097902098
322	0.161	0.884693877551	-1.78139534884	1.48085106383	28.3223776224
323	0.1615	5.13673469388	-0.344186046512	1.48085106383	28.3223776224
324	0.162	-1.95	-1.78139534884	0.0468085106383	33.9475524476
325	0.1625	-4.78469387755	1.09302325581	1.48085106383	32.5412587413
326	0.163	16.4755102041	-1.78139534884	2.91489361702	32.5412587413
327	0.1635	29.2316326531	-0.344186046512	2.91489361702	35.3538461538
328	0.164	2.30204081633	-0.344186046512	1.48085106383	42.3853146853
329	0.1645	5.13673469388	1.09302325581	0.0468085106383	56.4482517483
330	0.165	3.7193877551	1.09302325581	1.48085106383	38.1664335664
331	0.1655	-0.532653061224	1.09302325581	-2.82127659574	50.8230769231
332	0.166	0.884693877551	3.96744186047	1.48085106383	50.8230769231
333	0.1665	-1.95	-0.344186046512	14.3872340426	50.8230769231
334	0.167	-3.36734693878	1.09302325581	5.7829787234	56.4482517483
335	0.1675	-4.78469387755	-1.78139534884	-2.82127659574	57.8545454545
336	0.168	-6.20204081633	-0.344186046512	-8.55744680851	59.2608391608
337	0.1685	-3.36734693878	2.53023255814	-2.82127659574	57.8545454545
338	0.169	-0.532653061224	19.776744186	0.0468085106383	59.2608391608
339	0.1695	-4.78469387755	15.4651162791	-2.82127659574	60.6671328671
340	0.17	-4.78469387755	3.96744186047	-2.82127659574	63.4797202797
341	0.1705	-4.78469387755	-6.09302325581	-4.25531914894	63.4797202797
342	0.171	-7.6193877551	-3.21860465116	-4.25531914894	66.2923076923
343	0.1715	12.2234693878	-1.78139534884	-7.12340425532	69.1048951049
344	0.172	0.884693877551	1.09302325581	-7.12340425532	73.3237762238
345	0.1725	-14.706122449	1.09302325581	-2.82127659574	77.5426573427
346	0.173	-30.2969387755	-1.78139534884	-2.82127659574	77.5426573427
347	0.1735	-27.462244898	-0.344186046512	-2.82127659574	71.9174825175
348	0.174	-23.2102040816	-1.78139534884	1.48085106383	77.5426573427
349	0.1745	-20.3755102041	-1.78139534884	-1.38723404255	77.5426573427
350	0.175	-17.5408163265	-0.344186046512	-8.55744680851	88.793006993
351	0.1755	-10.4540816327	-0.344186046512	-12.8595744681	81.7615384615
352	0.176	-7.6193877551	1.09302325581	-4.25531914894	84.5741258741
353	0.1765	-3.36734693878	1.09302325581	-2.82127659574	84.5741258741
354	0.177	-1.95	3.96744186047	-1.38723404255	83.1678321678
355	0.1775	5.13673469388	1.09302325581	0.0468085106383	81.7615384615
356	0.178	12.2234693878	-8.96744186047	0.0468085106383	80.3552447552
357	0.1785	16.4755102041	-10.4046511628	1.48085106383	84.5741258741
358	0.179	17.8928571429	1.09302325581	0.0468085106383	81.7615384615
359	0.1795	13.6408163265	1.09302325581	-1.38723404255	81.7615384615
360	0.18	13.6408163265	16.9023255814	-1.38723404255	80.3552447552
361	0.1805	22.1448979592	-3.21860465116	-2.82127659574	84.5741258741
362	0.181	36.3183673469	1.09302325581	-1.38723404255	81.7615384615
363	0.1815	30.6489795918	1.09302325581	-1.38723404255	88.793006993
364	0.182	12.2234693878	1.09302325581	-2.82127659574	88.793006993
365	0.1825	2.30204081633	2.53023255814	-1.38723404255	78.948951049
366	0.183	10.806122449	1.09302325581	0.0468085106383	78.948951049
367	0.1835	9.3887755102	1.09302325581	-5.68936170213	80.3552447552
368	0.184	10.806122449	2.53023255814	-11.4255319149	83.1678321678
369	0.1845	7.97142857143	1.09302325581	-7.12340425532	85.9804195804
370	0.185	3.7193877551	5.40465116279	11.5191489362	84.5741258741
371	0.1855	2.30204081633	6.84186046512	14.3872340426	84.5741258741
372	0.186	0.884693877551	1.09302325581	2.91489361702	87.3867132867
373	0.1865	0.884693877551	6.84186046512	-1.38723404255	87.3867132867
374	0.187	-0.532653061224	14.0279069767	0.0468085106383	87.3867132867
375	0.1875	-4.78469387755	-1.78139534884	-1.38723404255	87.3867132867
376	0.188	-6.20204081633	-7.53023255814	-2.82127659574	88.793006993
377	0.1885	-4.78469387755	-3.21860465116	-2.82127659574	85.9804195804
378	0.189	-6.20204081633	1.09302325581	-1.38723404255	88.793006993
379	0.1895	-14.706122449	1.09302325581	-2.82127659574	88.793006993
380	0.19	-16.1234693878	1.09302325581	-1.38723404255	97.2307692308
381	0.1905	-27.462244898	-0.344186046512	-2.82127659574	90.1993006993
382	0.191	-24.6275510204	-0.344186046512	-1.38723404255	85.9804195804
383	0.1915	-18.9581632653	1.09302325581	-1.38723404255	81.7615384615
384	0.192	-10.4540816327	3.96744186047	-1.38723404255	84.5741258741
385	0.1925	-7.6193877551	1.09302325581	-1.38723404255	90.1993006993
386	0.193	-1.95	-0.344186046512	-1.38723404255	102.855944056
387	0.1935	2.30204081633	1.09302325581	0.0468085106383	80.3552447552
388	0.194	9.3887755102	2.53023255814	-7.12340425532	84.5741258741
389	0.1945	12.2234693878	3.96744186047	-2.82127659574	88.793006993
390	0.195	19.3102040816	3.96744186047	-8.55744680851	87.3867132867
391	0.1955	23.562244898	-4.65581395349	-1.38723404255	88.793006993
392	0.196	22.1448979592	-10.4046511628	0.0468085106383	90.1993006993
393	0.1965	20.7275510204	-1.78139534884	0.0468085106383	83.1678321678
394	0.197	23.562244898	16.9023255814	0.0468085106383	84.5741258741
395	0.1975	23.562244898	19.776744186	-1.38723404255	84.5741258741
396	0.198	13.6408163265	1.09302325581	-1.38723404255	90.1993006993
397	0.1985	0.884693877551	1.09302325581	0.0468085106383	87.3867132867
398	0.199	-0.532653061224	1.09302325581	-2.82127659574	87.3867132867
399	0.1995	16.4755102041	1.09302325581	-1.38723404255	84.5741258741
400	0.2	24.9795918367	2.53023255814	0.0468085106383	84.5741258741
401	0.2005	15.0581632653	-0.344186046512	0.0468085106383	87.3867132867
402	0.201	0.884693877551	2.53023255814	-2.82127659574	100.043356643
403	0.2015	0.884693877551	1.09302325581	-1.38723404255	93.0118881119
404	0.202	-0.532653061224	2.53023255814	1.48085106383	80.3552447552
405	0.2025	2.30204081633	1.09302325581	0.0468085106383	77.5426573427
406	0.203	0.884693877551	2.53023255814	-7.12340425532	80.3552447552
407	0.2035	-0.532653061224	-3.21860465116	-9.9914893617	85.9804195804
408	0.204	-4.78469387755	2.53023255814	-8.55744680851	85.9804195804
409	0.2045	-7.6193877551	1.09302325581	-7.12340425532	85.9804195804
410	0.205	-7.6193877551	3.96744186047	-1.38723404255	84.5741258741
411	0.2055	-10.4540816327	1.09302325581	-1.38723404255	87.3867132867
412	0.206	-14.706122449	5.40465116279	-1.38723404255	90.1993006993
413	0.2065	-17.5408163265	-6.09302325581	-2.82127659574	91.6055944056
414	0.207	-18.9581632653	-7.53023255814	-1.38723404255	93.0118881119
415	0.2075	-21.7928571429	-6.09302325581	-1.38723404255	90.1993006993
416	0.208	-27.462244898	2.53023255814	-1.38723404255	90.1993006993
417	0.2085	-28.8795918367	3.96744186047	1.48085106383	88.793006993
418	0.209	-16.1234693878	2.53023255814	-1.38723404255	93.0118881119
419	0.2095	3.7193877551	2.53023255814	-1.38723404255	90.1993006993
420	0.21	-4.78469387755	2.53023255814	0.0468085106383	83.1678321678
421	0.2105	-1.95	2.53023255814	-1.38723404255	95.8244755245
422	0.211	3.7193877551	2.53023255814	-1.38723404255	97.2307692308
423	0.2115	9.3887755102	6.84186046512	1.48085106383	84.5741258741
424	0.212	16.4755102041	3.96744186047	1.48085106383	73.3237762238
425	0.2125	19.3102040816	1.09302325581	-1.38723404255	73.3237762238
426	0.213	20.7275510204	2.53023255814	-1.38723404255	81.7615384615
427	0.2135	17.8928571429	8.27906976744	1.48085106383	74.7300699301
428	0.214	16.4755102041	5.40465116279	0.0468085106383	76.1363636364
429	0.2145	16.4755102041	5.40465116279	5.7829787234	73.3237762238
430	0.215	13.6408163265	6.84186046512	-4.25531914894	73.3237762238
431	0.2155	12.2234693878	21.2139534884	-1.38723404255	73.3237762238
432	0.216	10.806122449	11.1534883721	0.0468085106383	70.5111888112
433	0.2165	3.7193877551	-1.78139534884	0.0468085106383	71.9174825175
434	0.217	3.7193877551	-6.09302325581	2.91489361702	74.7300699301
435	0.2175	5.13673469388	-0.344186046512	0.0468085106383	71.9174825175
436	0.218	-7.6193877551	3.96744186047	-1.38723404255	73.3237762238
437	0.2185	5.13673469388	2.53023255814	0.0468085106383	73.3237762238
438	0.219	19.3102040816	1.09302325581	1.48085106383	71.9174825175
439	0.2195	9.3887755102	2.53023255814	1.48085106383	71.9174825175
440	0.22	-0.532653061224	2.53023255814	1.48085106383	81.7615384615
441	0.2205	-1.95	1.09302325581	4.34893617021	69.1048951049
442	0.221	-1.95	3.96744186047	2.91489361702	64.886013986
443	0.2215	-3.36734693878	1.09302325581	0.0468085106383	60.6671328671
444	0.222	-6.20204081633	1.09302325581	-8.55744680851	66.2923076923
445	0.2225	-13.2887755102	-0.344186046512	-9.9914893617	66.2923076923
446	0.223	-16.1234693878	-0.344186046512	-5.68936170213	69.1048951049
447	0.2235	-18.9581632653	2.53023255814	-2.82127659574	70.5111888112
448	0.224	-17.5408163265	-3.21860465116	0.0468085106383	70.5111888112
449	0.2245	-16.1234693878	-8.96744186047	-1.38723404255	71.9174825175
450	0.225	-13.2887755102	-4.65581395349	0.0468085106383	70.5111888112
451	0.2255	-9.03673469388	-0.344186046512	0.0468085106383	71.9174825175
452	0.226	-1.95	1.09302325581	-1.38723404255	73.3237762238
453	0.2265	-11.8714285714	1.09302325581	0.0468085106383	73.3237762238
454	0.227	-11.8714285714	5.40465116279	0.0468085106383	67.6986013986
455	0.2275	3.7193877551	5.40465116279	-2.82127659574	67.6986013986
456	0.228	30.6489795918	3.96744186047	-1.38723404255	67.6986013986
457	0.2285	12.2234693878	2.53023255814	2.91489361702	70.5111888112
458	0.229	20.7275510204	2.53023255814	-1.38723404255	81.7615384615
459	0.2295	19.3102040816	2.53023255814	2.91489361702	74.7300699301
460	0.23	20.7275510204	3.96744186047	2.91489361702	63.4797202797
461	0.2305	16.4755102041	3.96744186047	1.48085106383	64.886013986
462	0.231	16.4755102041	1.09302325581	8.65106382979	70.5111888112
463	0.2315	15.0581632653	1.09302325581	14.3872340426	62.0734265734
464	0.232	10.806122449	1.09302325581	15.8212765957	70.5111888112
465	0.2325	9.3887755102	-0.344186046512	-1.38723404255	70.5111888112
466	0.233	9.3887755102	-1.78139534884	-7.12340425532	67.6986013986
467	0.2335	5.13673469388	-1.78139534884	-5.68936170213	64.886013986
468	0.234	5.13673469388	-7.53023255814	-1.38723404255	67.6986013986
469	0.2345	0.884693877551	-10.4046511628	2.91489361702	64.886013986
470	0.235	0.884693877551	-4.65581395349	0.0468085106383	66.2923076923
471	0.2355	2.30204081633	1.09302325581	1.48085106383	64.886013986
472	0.236	0.884693877551	1.09302325581	0.0468085106383	69.1048951049
473	0.2365	-14.706122449	1.09302325581	-1.38723404255	64.886013986
474	0.237	-11.8714285714	-0.344186046512	-1.38723404255	62.0734265734
475	0.2375	-1.95	1.09302325581	-1.38723404255	60.6671328671
476	0.238	-16.1234693878	-1.78139534884	-1.38723404255	60.6671328671
477	0.2385	-14.706122449	-0.344186046512	1.48085106383	62.0734265734
478	0.239	-13.2887755102	-0.344186046512	2.91489361702	50.8230769231
479	0.2395	-18.9581632653	-0.344186046512	1.48085106383	56.4482517483
480	0.24	-17.5408163265	1.09302325581	2.91489361702	59.2608391608
481	0.2405	-21.7928571429	1.09302325581	15.8212765957	60.6671328671
482	0.241	-18.9581632653	1.09302325581	4.34893617021	62.0734265734
483	0.2415	-17.5408163265	-1.78139534884	-5.68936170213	62.0734265734
484	0.242	-13.2887755102	-1.78139534884	-5.68936170213	64.886013986
485	0.2425	-7.6193877551	1.09302325581	-4.25531914894	64.886013986
486	0.243	-4.78469387755	2.53023255814	0.0468085106383	64.886013986
487	0.2435	2.30204081633	22.6511627907	1.48085106383	60.6671328671
488	0.244	5.13673469388	16.9023255814	1.48085106383	63.4797202797
489	0.2445	7.97142857143	1.09302325581	4.34893617021	60.6671328671
490	0.245	13.6408163265	-6.09302325581	1.48085106383	62.0734265734
491	0.2455	16.4755102041	-4.65581395349	0.0468085106383	60.6671328671
492	0.246	26.3969387755	1.09302325581	0.0468085106383	60.6671328671
493	0.2465	32.0663265306	1.09302325581	-1.38723404255	57.8545454545
494	0.247	36.3183673469	2.53023255814	2.91489361702	60.6671328671
495	0.2475	24.9795918367	-0.344186046512	0.0468085106383	62.0734265734
496	0.248	10.806122449	1.09302325581	-4.25531914894	60.6671328671
497	0.2485	2.30204081633	2.53023255814	-2.82127659574	56.4482517483
498	0.249	9.3887755102	2.53023255814	0.0468085106383	59.2608391608
499	0.2495	7.97142857143	-0.344186046512	0.0468085106383	50.8230769231
500	0.25	3.7193877551	1.09302325581	-5.68936170213	55.041958042
501	0.2505	3.7193877551	-0.344186046512	-11.4255319149	60.6671328671
502	0.251	5.13673469388	1.09302325581	-7.12340425532	60.6671328671
503	0.2515	3.7193877551	1.09302325581	11.5191489362	59.2608391608
504	0.252	0.884693877551	1.09302325581	-1.38723404255	60.6671328671
505	0.2525	0.884693877551	-7.53023255814	2.91489361702	60.6671328671
506	0.253	-0.532653061224	-10.4046511628	1.48085106383	57.8545454545
507	0.2535	-0.532653061224	1.09302325581	0.0468085106383	60.6671328671
508	0.254	-0.532653061224	16.9023255814	-1.38723404255	60.6671328671
509	0.2545	-0.532653061224	14.0279069767	-1.38723404255	60.6671328671
510	0.255	-4.78469387755	-6.09302325581	0.0468085106383	59.2608391608
511	0.2555	-10.4540816327	1.09302325581	-2.82127659574	57.8545454545
512	0.256	-21.7928571429	-0.344186046512	0.0468085106383	59.2608391608
513	0.2565	-27.462244898	-6.09302325581	-2.82127659574	60.6671328671
514	0.257	-14.706122449	-4.65581395349	0.0468085106383	56.4482517483
515	0.2575	-26.0448979592	-1.78139534884	0.0468085106383	56.4482517483
516	0.258	-27.462244898	-1.78139534884	-1.38723404255	60.6671328671
517	0.2585	-14.706122449	1.09302325581	1.48085106383	57.8545454545
518	0.259	-11.8714285714	2.53023255814	4.34893617021	52.2293706294
519	0.2595	-6.20204081633	-0.344186046512	0.0468085106383	52.2293706294
520	0.26	-3.36734693878	-0.344186046512	-8.55744680851	55.041958042
521	0.2605	0.884693877551	-1.78139534884	-4.25531914894	55.041958042
522	0.261	2.30204081633	-0.344186046512	-5.68936170213	57.8545454545
523	0.2615	13.6408163265	5.40465116279	-1.38723404255	55.041958042
524	0.262	17.8928571429	5.40465116279	-2.82127659574	56.4482517483
525	0.2625	19.3102040816	-3.21860465116	0.0468085106383	56.4482517483
526	0.263	17.8928571429	-3.21860465116	0.0468085106383	55.041958042
527	0.2635	16.4755102041	-7.53023255814	1.48085106383	55.041958042
528	0.264	22.1448979592	-1.78139534884	0.0468085106383	53.6356643357
529	0.2645	22.1448979592	-0.344186046512	-1.38723404255	55.041958042
530	0.265	12.2234693878	-0.344186046512	0.0468085106383	53.6356643357
531	0.2655	-4.78469387755	-0.344186046512	0.0468085106383	56.4482517483
532	0.266	-3.36734693878	1.09302325581	-1.38723404255	46.6041958042
533	0.2665	3.7193877551	-1.78139534884	1.48085106383	39.5727272727
534	0.267	5.13673469388	-1.78139534884	-1.38723404255	49.4167832168
535	0.2675	-4.78469387755	2.53023255814	-2.82127659574	49.4167832168
536	0.268	2.30204081633	2.53023255814	-15.7276595745	49.4167832168
537	0.2685	2.30204081633	-0.344186046512	-5.68936170213	64.886013986
538	0.269	3.7193877551	1.09302325581	4.34893617021	50.8230769231
539	0.2695	0.884693877551	-3.21860465116	1.48085106383	40.979020979
540	0.27	-0.532653061224	-0.344186046512	-7.12340425532	50.8230769231
541	0.2705	-4.78469387755	3.96744186047	-4.25531914894	52.2293706294
542	0.271	-4.78469387755	2.53023255814	-4.25531914894	52.2293706294
543	0.2715	-4.78469387755	-7.53023255814	-5.68936170213	50.8230769231
544	0.272	-4.78469387755	-11.8418604651	-5.68936170213	53.6356643357
545	0.2725	-11.8714285714	-8.96744186047	-4.25531914894	55.041958042
546	0.273	-17.5408163265	-3.21860465116	-2.82127659574	53.6356643357
547	0.2735	-16.1234693878	-0.344186046512	-2.82127659574	53.6356643357
548	0.274	-21.7928571429	1.09302325581	-1.38723404255	53.6356643357
549	0.2745	2.30204081633	1.09302325581	-1.38723404255	52.2293706294
550	0.275	-0.532653061224	-0.344186046512	-1.38723404255	50.8230769231
551	0.2755	-7.6193877551	1.09302325581	0.0468085106383	39.5727272727
552	0.276	-11.8714285714	1.09302325581	0.0468085106383	40.979020979
553	0.2765	-3.36734693878	2.53023255814	-1.38723404255	53.6356643357
554	0.277	0.884693877551	2.53023255814	1.48085106383	39.5727272727
555	0.2775	3.7193877551	1.09302325581	-1.38723404255	39.5727272727
556	0.278	9.3887755102	2.53023255814	0.0468085106383	49.4167832168
557	0.2785	16.4755102041	3.96744186047	-11.4255319149	49.4167832168
558	0.279	17.8928571429	2.53023255814	2.91489361702	42.3853146853
559	0.2795	17.8928571429	-10.4046511628	-1.38723404255	46.6041958042
560	0.28	19.3102040816	-7.53023255814	-1.38723404255	48.0104895105
561	0.2805	22.1448979592	2.53023255814	-2.82127659574	46.6041958042
562	0.281	19.3102040816	14.0279069767	-2.82127659574	45.1979020979
563	0.2815	17.8928571429	21.2139534884	-5.68936170213	45.1979020979
564	0.282	10.806122449	1.09302325581	-1.38723404255	46.6041958042
565	0.2825	-0.532653061224	2.53023255814	-2.82127659574	48.0104895105
566	0.283	-3.36734693878	2.53023255814	-4.25531914894	49.4167832168
567	0.2835	5.13673469388	2.53023255814	-2.82127659574	48.0104895105
568	0.284	17.8928571429	1.09302325581	-2.82127659574	45.1979020979
569	0.2845	-4.78469387755	2.53023255814	-2.82127659574	45.1979020979
570	0.285	-4.78469387755	1.09302325581	-2.82127659574	50.8230769231
571	0.2855	-0.532653061224	2.53023255814	-1.38723404255	48.0104895105
572	0.286	-0.532653061224	2.53023255814	-4.25531914894	57.8545454545
573	0.2865	3.7193877551	2.53023255814	-8.55744680851	50.8230769231
574	0.287	-0.532653061224	-1.78139534884	-12.8595744681	43.7916083916
575	0.2875	-3.36734693878	2.53023255814	-4.25531914894	45.1979020979
576	0.288	-1.95	5.40465116279	5.7829787234	43.7916083916
577	0.2885	-4.78469387755	1.09302325581	12.9531914894	42.3853146853
578	0.289	-10.4540816327	-6.09302325581	-2.82127659574	45.1979020979
579	0.2895	-16.1234693878	-11.8418604651	-5.68936170213	43.7916083916
580	0.29	-16.1234693878	-7.53023255814	-4.25531914894	45.1979020979
581	0.2905	-18.9581632653	6.84186046512	-4.25531914894	43.7916083916
582	0.291	-16.1234693878	16.9023255814	-4.25531914894	43.7916083916
583	0.2915	-13.2887755102	18.3395348837	-2.82127659574	40.979020979
584	0.292	-11.8714285714	8.27906976744	-2.82127659574	42.3853146853
585	0.2925	-3.36734693878	2.53023255814	-2.82127659574	39.5727272727
586	0.293	-1.95	1.09302325581	-2.82127659574	39.5727272727
587	0.2935	3.7193877551	1.09302325581	-1.38723404255	38.1664335664
588	0.294	-4.78469387755	1.09302325581	0.0468085106383	40.979020979
589	0.2945	0.884693877551	1.09302325581	0.0468085106383	33.9475524476
590	0.295	10.806122449	2.53023255814	4.34893617021	28.3223776224
591	0.2955	19.3102040816	1.09302325581	1.48085106383	31.134965035
592	0.296	17.8928571429	1.09302325581	-1.38723404255	42.3853146853
593	0.2965	17.8928571429	1.09302325581	-2.82127659574	52.2293706294
594	0.297	17.8928571429	-1.78139534884	-1.38723404255	31.134965035
595	0.2975	16.4755102041	-0.344186046512	-8.55744680851	33.9475524476
596	0.298	13.6408163265	1.09302325581	-11.4255319149	35.3538461538
597	0.2985	9.3887755102	1.09302325581	5.7829787234	31.134965035
598	0.299	10.806122449	3.96744186047	-7.12340425532	33.9475524476
599	0.2995	7.97142857143	2.53023255814	-2.82127659574	32.5412587413
600	0.3	5.13673469388	2.53023255814	0.0468085106383	35.3538461538
601	0.3005	7.97142857143	-6.09302325581	-1.38723404255	35.3538461538
602	0.301	5.13673469388	-6.09302325581	0.0468085106383	35.3538461538
603	0.3015	0.884693877551	1.09302325581	-4.25531914894	36.7601398601
604	0.302	-10.4540816327	3.96744186047	1.48085106383	36.7601398601
605	0.3025	0.884693877551	1.09302325581	1.48085106383	36.7601398601
606	0.303	-11.8714285714	-0.344186046512	-1.38723404255	38.1664335664
607	0.3035	-10.4540816327	1.09302325581	1.48085106383	36.7601398601
608	0.304	-6.20204081633	1.09302325581	1.48085106383	43.7916083916
609	0.3045	-3.36734693878	-0.344186046512	1.48085106383	35.3538461538
610	0.305	-6.20204081633	-1.78139534884	-4.25531914894	49.4167832168
611	0.3055	-6.20204081633	1.09302325581	-1.38723404255	46.6041958042
612	0.306	-13.2887755102	-1.78139534884	14.3872340426	35.3538461538
613	0.3065	-17.5408163265	1.09302325581	11.5191489362	31.134965035
614	0.307	-18.9581632653	1.09302325581	-1.38723404255	35.3538461538
615	0.3075	-18.9581632653	-0.344186046512	-7.12340425532	36.7601398601
616	0.308	-17.5408163265	1.09302325581	-4.25531914894	38.1664335664
617	0.3085	-10.4540816327	3.96744186047	-1.38723404255	42.3853146853
618	0.309	-7.6193877551	8.27906976744	-1.38723404255	40.979020979
619	0.3095	-6.20204081633	-7.53023255814	0.0468085106383	40.979020979
620	0.31	-3.36734693878	-6.09302325581	0.0468085106383	40.979020979
621	0.3105	7.97142857143	-1.78139534884	-4.25531914894	39.5727272727
622	0.311	15.0581632653	1.09302325581	-4.25531914894	38.1664335664
623	0.3115	15.0581632653	1.09302325581	-1.38723404255	40.979020979
624	0.312	34.9010204082	-1.78139534884	0.0468085106383	40.979020979
625	0.3125	34.9010204082	1.09302325581	2.91489361702	39.5727272727
626	0.313	17.8928571429	-3.21860465116	-1.38723404255	50.8230769231
627	0.3135	17.8928571429	-0.344186046512	-1.38723404255	50.8230769231
628	0.314	22.1448979592	-0.344186046512	4.34893617021	35.3538461538
629	0.3145	17.8928571429	1.09302325581	4.34893617021	28.3223776224
630	0.315	12.2234693878	1.09302325581	-2.82127659574	29.7286713287
631	0.3155	13.6408163265	-1.78139534884	-8.55744680851	33.9475524476
632	0.316	9.3887755102	-3.21860465116	-8.55744680851	38.1664335664
633	0.3165	9.3887755102	-3.21860465116	-2.82127659574	33.9475524476
634	0.317	9.3887755102	-1.78139534884	0.0468085106383	36.7601398601
635	0.3175	7.97142857143	2.53023255814	-1.38723404255	36.7601398601
636	0.318	5.13673469388	2.53023255814	-7.12340425532	38.1664335664
637	0.3185	7.97142857143	6.84186046512	2.91489361702	38.1664335664
638	0.319	2.30204081633	-3.21860465116	1.48085106383	38.1664335664
639	0.3195	-0.532653061224	-8.96744186047	2.91489361702	33.9475524476
640	0.32	-0.532653061224	-4.65581395349	1.48085106383	35.3538461538
641	0.3205	9.3887755102	-0.344186046512	1.48085106383	33.9475524476
642	0.321	17.8928571429	1.09302325581	0.0468085106383	33.9475524476
643	0.3215	17.8928571429	1.09302325581	0.0468085106383	36.7601398601
644	0.322	-4.78469387755	1.09302325581	1.48085106383	40.979020979
645	0.3225	-16.1234693878	1.09302325581	0.0468085106383	42.3853146853
646	0.323	-14.706122449	1.09302325581	0.0468085106383	38.1664335664
647	0.3235	-18.9581632653	-0.344186046512	1.48085106383	33.9475524476
648	0.324	-18.9581632653	-0.344186046512	4.34893617021	32.5412587413
649	0.3245	-16.1234693878	1.09302325581	1.48085106383	32.5412587413
650	0.325	-11.8714285714	1.09302325581	5.7829787234	43.7916083916
651	0.3255	-7.6193877551	1.09302325581	17.2553191489	38.1664335664
652	0.326	-6.20204081633	3.96744186047	18.6893617021	36.7601398601
653	0.3265	-1.95	2.53023255814	12.9531914894	38.1664335664
654	0.327	3.7193877551	-0.344186046512	-1.38723404255	36.7601398601
655	0.3275	7.97142857143	-3.21860465116	2.91489361702	36.7601398601
656	0.328	13.6408163265	15.4651162791	4.34893617021	36.7601398601
657	0.3285	17.8928571429	21.2139534884	2.91489361702	36.7601398601
658	0.329	19.3102040816	2.53023255814	0.0468085106383	33.9475524476
659	0.3295	22.1448979592	-8.96744186047	-1.38723404255	35.3538461538
660	0.33	10.806122449	1.09302325581	2.91489361702	36.7601398601
661	0.3305	9.3887755102	1.09302325581	0.0468085106383	33.9475524476
662	0.331	16.4755102041	1.09302325581	1.48085106383	31.134965035
663	0.3315	30.6489795918	-1.78139534884	0.0468085106383	29.7286713287
664	0.332	23.562244898	-1.78139534884	0.0468085106383	33.9475524476
665	0.3325	3.7193877551	-1.78139534884	0.0468085106383	32.5412587413
666	0.333	10.806122449	1.09302325581	4.34893617021	31.134965035
667	0.3335	10.806122449	1.09302325581	4.34893617021	21.2909090909
668	0.334	5.13673469388	1.09302325581	2.91489361702	35.3538461538
669	0.3345	5.13673469388	-0.344186046512	-1.38723404255	46.6041958042
670	0.335	3.7193877551	1.09302325581	12.9531914894	29.7286713287
671	0.3355	2.30204081633	1.09302325581	-2.82127659574	26.9160839161
672	0.336	3.7193877551	-1.78139534884	-2.82127659574	26.9160839161
673	0.3365	2.30204081633	2.53023255814	1.48085106383	26.9160839161
674	0.337	0.884693877551	3.96744186047	4.34893617021	28.3223776224
675	0.3375	-3.36734693878	-1.78139534884	0.0468085106383	28.3223776224
676	0.338	-0.532653061224	-10.4046511628	2.91489361702	28.3223776224
677	0.3385	-4.78469387755	14.0279069767	0.0468085106383	26.9160839161
678	0.339	-10.4540816327	-3.21860465116	0.0468085106383	25.5097902098
679	0.3395	-14.706122449	-10.4046511628	0.0468085106383	28.3223776224
680	0.34	-14.706122449	-3.21860465116	0.0468085106383	29.7286713287
681	0.3405	-0.532653061224	1.09302325581	1.48085106383	31.134965035
682	0.341	-17.5408163265	-1.78139534884	0.0468085106383	33.9475524476
683	0.3415	-21.7928571429	2.53023255814	1.48085106383	29.7286713287
684	0.342	-16.1234693878	1.09302325581	2.91489361702	18.4783216783
685	0.3425	-4.78469387755	-1.78139534884	5.7829787234	25.5097902098
686	0.343	-4.78469387755	1.09302325581	-5.68936170213	28.3223776224
687	0.3435	0.884693877551	1.09302325581	-9.9914893617	31.134965035
688	0.344	6.55408163265	1.09302325581	7.2170212766	28.3223776224
689	0.3445	12.2234693878	1.09302325581	17.2553191489	26.9160839161
690	0.345	17.8928571429	-0.344186046512	0.0468085106383	28.3223776224
691	0.3455	19.3102040816	-1.78139534884	-7.12340425532	28.3223776224
692	0.346	19.3102040816	1.09302325581	-4.25531914894	29.7286713287
693	0.3465	17.8928571429	-11.8418604651	1.48085106383	28.3223776224
694	0.347	19.3102040816	1.09302325581	1.48085106383	26.9160839161
695	0.3475	22.1448979592	18.3395348837	1.48085106383	28.3223776224
696	0.348	17.8928571429	14.0279069767	2.91489361702	26.9160839161
697	0.3485	-0.532653061224	1.09302325581	0.0468085106383	28.3223776224
698	0.349	7.97142857143	1.09302325581	1.48085106383	26.9160839161
699	0.3495	26.3969387755	1.09302325581	1.48085106383	25.5097902098
700	0.35	20.7275510204	-0.344186046512	1.48085106383	31.134965035
701	0.3505	3.7193877551	1.09302325581	0.0468085106383	33.9475524476
702	0.351	0.884693877551	1.09302325581	4.34893617021	29.7286713287
703	0.3515	7.97142857143	-1.78139534884	4.34893617021	28.3223776224
704	0.352	3.7193877551	-0.344186046512	-1.38723404255	32.5412587413
705	0.3525	5.13673469388	1.09302325581	-9.9914893617	36.7601398601
706	0.353	3.7193877551	1.09302325581	-5.68936170213	39.5727272727
707	0.3535	-0.532653061224	1.09302325581	14.3872340426	38.1664335664
708	0.354	0.884693877551	2.53023255814	20.1234042553	39.5727272727
709	0.3545	-0.532653061224	-6.09302325581	-1.38723404255	45.1979020979
710	0.355	-0.532653061224	-10.4046511628	0.0468085106383	43.7916083916
711	0.3555	-4.78469387755	-4.65581395349	1.48085106383	45.1979020979
712	0.356	-7.6193877551	8.27906976744	0.0468085106383	45.1979020979
713	0.3565	-11.8714285714	16.9023255814	4.34893617021	46.6041958042
714	0.357	-16.1234693878	6.84186046512	0.0468085106383	48.0104895105
715	0.3575	-13.2887755102	-6.09302325581	-1.38723404255	48.0104895105
716	0.358	-11.8714285714	1.09302325581	0.0468085106383	48.0104895105
717	0.3585	-18.9581632653	2.53023255814	2.91489361702	48.0104895105
718	0.359	-16.1234693878	1.09302325581	4.34893617021	45.1979020979
719	0.3595	-9.03673469388	1.09302325581	7.2170212766	36.7601398601
720	0.36	-0.532653061224	-0.344186046512	2.91489361702	45.1979020979
721	0.3605	3.7193877551	1.09302325581	1.48085106383	53.6356643357
722	0.361	10.806122449	-1.78139534884	0.0468085106383	56.4482517483
723	0.3615	16.4755102041	1.09302325581	4.34893617021	48.0104895105
724	0.362	23.562244898	-0.344186046512	18.6893617021	38.1664335664
725	0.3625	22.1448979592	-1.78139534884	20.1234042553	38.1664335664
726	0.363	23.562244898	-0.344186046512	14.3872340426	42.3853146853
727	0.3635	22.1448979592	-0.344186046512	1.48085106383	39.5727272727
728	0.364	23.562244898	-1.78139534884	-4.25531914894	39.5727272727
729	0.3645	22.1448979592	8.27906976744	2.91489361702	42.3853146853
730	0.365	17.8928571429	16.9023255814	0.0468085106383	40.979020979
731	0.3655	15.0581632653	3.96744186047	-1.38723404255	42.3853146853
732	0.366	9.3887755102	-8.96744186047	1.48085106383	39.5727272727
733	0.3665	10.806122449	-8.96744186047	1.48085106383	40.979020979
734	0.367	9.3887755102	-3.21860465116	2.91489361702	40.979020979
735	0.3675	27.8142857143	-1.78139534884	0.0468085106383	38.1664335664
736	0.368	15.0581632653	1.09302325581	0.0468085106383	42.3853146853
737	0.3685	-0.532653061224	-0.344186046512	2.91489361702	46.6041958042
738	0.369	-6.20204081633	2.53023255814	0.0468085106383	42.3853146853
739	0.3695	-1.95	1.09302325581	1.48085106383	36.7601398601
740	0.37	5.13673469388	-1.78139534884	2.91489361702	31.134965035
741	0.3705	0.884693877551	1.09302325581	1.48085106383	32.5412587413
742	0.371	-0.532653061224	-3.21860465116	-9.9914893617	38.1664335664
743	0.3715	-1.95	-1.78139534884	-1.38723404255	56.4482517483
744	0.372	-1.95	-0.344186046512	7.2170212766	42.3853146853
745	0.3725	-10.4540816327	-1.78139534884	-5.68936170213	39.5727272727
746	0.373	-11.8714285714	-3.21860465116	-7.12340425532	42.3853146853
747	0.3735	-17.5408163265	-7.53023255814	-4.25531914894	45.1979020979
748	0.374	-16.1234693878	-11.8418604651	-2.82127659574	43.7916083916
749	0.3745	-14.706122449	-6.09302325581	0.0468085106383	43.7916083916
750	0.375	-11.8714285714	8.27906976744	0.0468085106383	40.979020979
751	0.3755	-10.4540816327	2.53023255814	2.91489361702	42.3853146853
752	0.376	-1.95	2.53023255814	2.91489361702	45.1979020979
753	0.3765	5.13673469388	-6.09302325581	1.48085106383	39.5727272727
754	0.377	16.4755102041	-0.344186046512	1.48085106383	42.3853146853
755	0.3775	16.4755102041	1.09302325581	2.91489361702	43.7916083916
756	0.378	27.8142857143	-1.78139534884	7.2170212766	42.3853146853
757	0.3785	16.4755102041	2.53023255814	5.7829787234	42.3853146853
758	0.379	20.7275510204	1.09302325581	5.7829787234	32.5412587413
759	0.3795	17.8928571429	-0.344186046512	1.48085106383	40.979020979
760	0.38	19.3102040816	-0.344186046512	2.91489361702	53.6356643357
761	0.3805	19.3102040816	2.53023255814	18.6893617021	42.3853146853
762	0.381	17.8928571429	-0.344186046512	7.2170212766	43.7916083916
763	0.3815	15.0581632653	-4.65581395349	-1.38723404255	45.1979020979
764	0.382	12.2234693878	-1.78139534884	-8.55744680851	45.1979020979
765	0.3825	7.97142857143	3.96744186047	1.48085106383	45.1979020979
766	0.383	7.97142857143	15.4651162791	2.91489361702	45.1979020979
767	0.3835	9.3887755102	18.3395348837	2.91489361702	43.7916083916
768	0.384	5.13673469388	2.53023255814	2.91489361702	46.6041958042
769	0.3845	0.884693877551	-7.53023255814	0.0468085106383	43.7916083916
770	0.385	2.30204081633	-7.53023255814	-1.38723404255	43.7916083916
771	0.3855	-10.4540816327	-1.78139534884	-1.38723404255	45.1979020979
772	0.386	-6.20204081633	-0.344186046512	0.0468085106383	46.6041958042
773	0.3865	12.2234693878	1.09302325581	-4.25531914894	45.1979020979
774	0.387	-6.20204081633	-1.78139534884	0.0468085106383	40.979020979
775	0.3875	-4.78469387755	1.09302325581	-2.82127659574	45.1979020979
776	0.388	-3.36734693878	1.09302325581	-1.38723404255	55.041958042
777	0.3885	-6.20204081633	-0.344186046512	-9.9914893617	50.8230769231
778	0.389	-7.6193877551	-1.78139534884	-1.38723404255	56.4482517483
779	0.3895	-14.706122449	-1.78139534884	-1.38723404255	49.4167832168
780	0.39	-16.1234693878	-3.21860465116	-4.25531914894	43.7916083916
781	0.3905	-17.5408163265	-3.21860465116	-4.25531914894	42.3853146853
782	0.391	-17.5408163265	1.09302325581	1.48085106383	40.979020979
783	0.3915	-11.8714285714	-0.344186046512	0.0468085106383	38.1664335664
784	0.392	-10.4540816327	-8.96744186047	1.48085106383	40.979020979
785	0.3925	-6.20204081633	-7.53023255814	2.91489361702	40.979020979
786	0.393	0.884693877551	-3.21860465116	1.48085106383	39.5727272727
787	0.3935	5.13673469388	1.09302325581	0.0468085106383	42.3853146853
788	0.394	0.884693877551	2.53023255814	-1.38723404255	39.5727272727
789	0.3945	0.884693877551	1.09302325581	1.48085106383	40.979020979
790	0.395	16.4755102041	-0.344186046512	4.34893617021	39.5727272727
791	0.3955	16.4755102041	-0.344186046512	0.0468085106383	40.979020979
792	0.396	13.6408163265	-1.78139534884	1.48085106383	42.3853146853
793	0.3965	16.4755102041	-3.21860465116	2.91489361702	39.5727272727
794	0.397	23.562244898	1.09302325581	4.34893617021	31.134965035
795	0.3975	22.1448979592	-1.78139534884	0.0468085106383	31.134965035
796	0.398	16.4755102041	-3.21860465116	0.0468085106383	31.134965035
797	0.3985	15.0581632653	1.09302325581	15.8212765957	36.7601398601
798	0.399	15.0581632653	-0.344186046512	-8.55744680851	33.9475524476
799	0.3995	10.806122449	-1.78139534884	15.8212765957	35.3538461538
800	0.4	9.3887755102	-10.4046511628	0.0468085106383	36.7601398601
801	0.4005	5.13673469388	-10.4046511628	0.0468085106383	35.3538461538
802	0.401	5.13673469388	5.40465116279	2.91489361702	36.7601398601
803	0.4015	3.7193877551	18.3395348837	1.48085106383	36.7601398601
804	0.402	2.30204081633	9.71627906977	0.0468085106383	35.3538461538
805	0.4025	0.884693877551	-3.21860465116	0.0468085106383	33.9475524476
806	0.403	-7.6193877551	-1.78139534884	0.0468085106383	35.3538461538
807	0.4035	12.2234693878	-3.21860465116	1.48085106383	33.9475524476
808	0.404	20.7275510204	1.09302325581	0.0468085106383	33.9475524476
809	0.4045	0.884693877551	-3.21860465116	-1.38723404255	33.9475524476
810	0.405	-13.2887755102	-1.78139534884	2.91489361702	32.5412587413
811	0.4055	-13.2887755102	-0.344186046512	1.48085106383	24.1034965035
812	0.406	-14.706122449	1.09302325581	0.0468085106383	22.6972027972
813	0.4065	-13.2887755102	1.09302325581	-7.12340425532	29.7286713287
814	0.407	-14.706122449	1.09302325581	-1.38723404255	45.1979020979
815	0.4075	-16.1234693878	1.09302325581	-2.82127659574	28.3223776224
816	0.408	-16.1234693878	1.09302325581	-8.55744680851	28.3223776224
817	0.4085	-11.8714285714	1.09302325581	2.91489361702	28.3223776224
818	0.409	-7.6193877551	-3.21860465116	-7.12340425532	31.134965035
819	0.4095	-3.36734693878	3.96744186047	2.91489361702	31.134965035
820	0.41	0.884693877551	19.776744186	4.34893617021	25.5097902098
821	0.4105	5.13673469388	-8.96744186047	0.0468085106383	28.3223776224
822	0.411	10.806122449	11.1534883721	1.48085106383	28.3223776224
823	0.4115	19.3102040816	-1.78139534884	0.0468085106383	28.3223776224
824	0.412	17.8928571429	1.09302325581	0.0468085106383	29.7286713287
825	0.4125	3.7193877551	2.53023255814	0.0468085106383	28.3223776224
826	0.413	16.4755102041	1.09302325581	-1.38723404255	26.9160839161
827	0.4135	19.3102040816	-0.344186046512	2.91489361702	17.072027972
828	0.414	20.7275510204	-0.344186046512	1.48085106383	28.3223776224
829	0.4145	16.4755102041	-1.78139534884	1.48085106383	40.979020979
830	0.415	16.4755102041	-1.78139534884	2.91489361702	18.4783216783
831	0.4155	12.2234693878	2.53023255814	-1.38723404255	26.9160839161
832	0.416	12.2234693878	-1.78139534884	2.91489361702	25.5097902098
833	0.4165	12.2234693878	-1.78139534884	20.1234042553	24.1034965035
834	0.417	7.97142857143	1.09302325581	4.34893617021	22.6972027972
835	0.4175	9.3887755102	1.09302325581	-5.68936170213	24.1034965035
836	0.418	7.97142857143	-6.09302325581	0.0468085106383	25.5097902098
837	0.4185	5.13673469388	-16.1534883721	0.0468085106383	24.1034965035
838	0.419	3.7193877551	-1.78139534884	1.48085106383	21.2909090909
839	0.4195	5.13673469388	18.3395348837	0.0468085106383	21.2909090909
840	0.42	2.30204081633	5.40465116279	0.0468085106383	19.8846153846
841	0.4205	-0.532653061224	-7.53023255814	1.48085106383	19.8846153846
842	0.421	-6.20204081633	-0.344186046512	-1.38723404255	21.2909090909
843	0.4215	9.3887755102	1.09302325581	-1.38723404255	18.4783216783
844	0.422	12.2234693878	1.09302325581	0.0468085106383	19.8846153846
845	0.4225	-0.532653061224	1.09302325581	-1.38723404255	21.2909090909
846	0.423	-18.9581632653	1.09302325581	2.91489361702	21.2909090909
847	0.4235	-26.0448979592	1.09302325581	0.0468085106383	17.072027972
848	0.424	-16.1234693878	-0.344186046512	1.48085106383	12.8531468531
849	0.4245	-14.706122449	2.53023255814	0.0468085106383	17.072027972
850	0.425	-13.2887755102	2.53023255814	4.34893617021	5.82167832168
851	0.4255	-7.6193877551	1.09302325581	-5.68936170213	18.4783216783
852	0.426	-6.20204081633	2.53023255814	17.2553191489	17.072027972
853	0.4265	-4.78469387755	1.09302325581	17.2553191489	19.8846153846
854	0.427	-0.532653061224	-0.344186046512	-2.82127659574	21.2909090909
855	0.4275	5.13673469388	2.53023255814	-9.9914893617	17.072027972
856	0.428	15.0581632653	3.96744186047	-1.38723404255	15.6657342657
857	0.4285	20.7275510204	-10.4046511628	2.91489361702	15.6657342657
858	0.429	23.562244898	1.09302325581	1.48085106383	14.2594405594
859	0.4295	19.3102040816	19.776744186	1.48085106383	8.63426573427
860	0.43	17.8928571429	9.71627906977	2.91489361702	8.63426573427
861	0.4305	3.7193877551	1.09302325581	0.0468085106383	14.2594405594
862	0.431	16.4755102041	-3.21860465116	0.0468085106383	8.63426573427
863	0.4315	29.2316326531	-0.344186046512	0.0468085106383	5.82167832168
864	0.432	29.2316326531	-0.344186046512	1.48085106383	4.41538461538
865	0.4325	10.806122449	1.09302325581	-1.38723404255	8.63426573427
866	0.433	-0.532653061224	1.09302325581	0.0468085106383	1.6027972028
867	0.4335	5.13673469388	-0.344186046512	4.34893617021	0.196503496503
868	0.434	2.30204081633	1.09302325581	-2.82127659574	1.6027972028
869	0.4345	5.13673469388	-0.344186046512	-12.8595744681	3.00909090909
870	0.435	5.13673469388	1.09302325581	-4.25531914894	3.00909090909
871	0.4355	7.97142857143	1.09302325581	14.3872340426	1.6027972028
872	0.436	0.884693877551	2.53023255814	18.6893617021	3.00909090909
873	0.4365	-0.532653061224	-10.4046511628	2.91489361702	5.82167832168
874	0.437	-0.532653061224	-8.96744186047	1.48085106383	5.82167832168
875	0.4375	0.884693877551	3.96744186047	0.0468085106383	5.82167832168
876	0.438	-3.36734693878	19.776744186	0.0468085106383	7.22797202797
877	0.4385	-4.78469387755	5.40465116279	0.0468085106383	4.41538461538
878	0.439	-11.8714285714	-4.65581395349	-1.38723404255	3.00909090909
879	0.4395	-10.4540816327	-13.2790697674	0.0468085106383	4.41538461538
880	0.44	-21.7928571429	-1.78139534884	2.91489361702	0.196503496503
881	0.4405	-26.0448979592	-1.78139534884	2.91489361702	-4.02237762238
882	0.441	-16.1234693878	2.53023255814	1.48085106383	0.196503496503
883	0.4415	-11.8714285714	1.09302325581	-1.38723404255	10.0405594406
884	0.442	-7.6193877551	1.09302325581	2.91489361702	-11.0538461538
885	0.4425	-6.20204081633	2.53023255814	-1.38723404255	-5.42867132867
886	0.443	-6.20204081633	1.09302325581	1.48085106383	0.196503496503
887	0.4435	-0.532653061224	1.09302325581	-7.12340425532	4.41538461538
888	0.444	2.30204081633	-1.78139534884	2.91489361702	5.82167832168
889	0.4445	5.13673469388	1.09302325581	2.91489361702	-11.0538461538
890	0.445	15.0581632653	-1.78139534884	-4.25531914894	-6.83496503497
891	0.4455	15.0581632653	-6.09302325581	2.91489361702	-11.0538461538
892	0.446	19.3102040816	-10.4046511628	5.7829787234	-11.0538461538
893	0.4465	17.8928571429	9.71627906977	1.48085106383	-9.64755244755
894	0.447	17.8928571429	18.3395348837	2.91489361702	-12.4601398601
895	0.4475	15.0581632653	-3.21860465116	0.0468085106383	-13.8664335664
896	0.448	12.2234693878	-10.4046511628	0.0468085106383	-12.4601398601
897	0.4485	-1.95	-4.65581395349	-1.38723404255	-11.0538461538
898	0.449	-4.78469387755	-3.21860465116	0.0468085106383	-11.0538461538
899	0.4495	12.2234693878	1.09302325581	-1.38723404255	-9.64755244755
900	0.45	22.1448979592	-1.78139534884	1.48085106383	-12.4601398601
901	0.4505	12.2234693878	-1.78139534884	-1.38723404255	-16.679020979
902	0.451	3.7193877551	-4.65581395349	-2.82127659574	0.196503496503
903	0.4515	0.884693877551	-1.78139534884	2.91489361702	-15.2727272727
904	0.452	0.884693877551	-1.78139534884	2.91489361702	-22.3041958042
905	0.4525	0.884693877551	-3.21860465116	-7.12340425532	-16.679020979
906	0.453	-0.532653061224	1.09302325581	-9.9914893617	-13.8664335664
907	0.4535	-1.95	-0.344186046512	-4.25531914894	-16.679020979
908	0.454	-3.36734693878	2.53023255814	-1.38723404255	-18.0853146853
909	0.4545	-3.36734693878	-6.09302325581	0.0468085106383	-16.679020979
910	0.455	-4.78469387755	-11.8418604651	1.48085106383	-19.4916083916
911	0.4555	-7.6193877551	1.09302325581	1.48085106383	-16.679020979
912	0.456	-11.8714285714	15.4651162791	0.0468085106383	-18.0853146853
913	0.4565	-21.7928571429	-1.78139534884	0.0468085106383	-16.679020979
914	0.457	-28.8795918367	-3.21860465116	1.48085106383	-20.8979020979
915	0.4575	-16.1234693878	-3.21860465116	1.48085106383	-23.7104895105
916	0.458	0.884693877551	-1.78139534884	0.0468085106383	-22.3041958042
917	0.4585	0.884693877551	-0.344186046512	4.34893617021	-19.4916083916
918	0.459	-11.8714285714	-1.78139534884	1.48085106383	-19.4916083916
919	0.4595	-3.36734693878	-1.78139534884	4.34893617021	-18.0853146853
920	0.46	-1.95	-0.344186046512	2.91489361702	-33.5545454545
921	0.4605	0.884693877551	-0.344186046512	-1.38723404255	-30.741958042
922	0.461	5.13673469388	-0.344186046512	-8.55744680851	-22.3041958042
923	0.4615	16.4755102041	-3.21860465116	0.0468085106383	-25.1167832168
924	0.462	19.3102040816	-1.78139534884	17.2553191489	-25.1167832168
925	0.4625	19.3102040816	-4.65581395349	2.91489361702	-27.9293706294
926	0.463	19.3102040816	-0.344186046512	-4.25531914894	-23.7104895105
927	0.4635	17.8928571429	-1.78139534884	4.34893617021	-27.9293706294
928	0.464	22.1448979592	-11.8418604651	1.48085106383	-27.9293706294
929	0.4645	22.1448979592	5.40465116279	0.0468085106383	-32.1482517483
930	0.465	15.0581632653	-10.4046511628	0.0468085106383	-32.1482517483
931	0.4655	10.806122449	-6.09302325581	-1.38723404255	-32.1482517483
932	0.466	15.0581632653	-0.344186046512	0.0468085106383	-34.9608391608
933	0.4665	16.4755102041	-0.344186046512	0.0468085106383	-32.1482517483
934	0.467	0.884693877551	1.09302325581	-1.38723404255	-30.741958042
935	0.4675	0.884693877551	-0.344186046512	2.91489361702	-40.586013986
936	0.468	3.7193877551	-0.344186046512	4.34893617021	-39.1797202797
937	0.4685	5.13673469388	-0.344186046512	1.48085106383	-26.5230769231
938	0.469	0.884693877551	-0.344186046512	0.0468085106383	-15.2727272727
939	0.4695	0.884693877551	1.09302325581	0.0468085106383	-16.679020979
940	0.47	-0.532653061224	1.09302325581	2.91489361702	-26.5230769231
941	0.4705	0.884693877551	-1.78139534884	-9.9914893617	-13.8664335664
942	0.471	-1.95	1.09302325581	-2.82127659574	-30.741958042
943	0.4715	-3.36734693878	-6.09302325581	0.0468085106383	-30.741958042
944	0.472	-6.20204081633	-1.78139534884	1.48085106383	-32.1482517483
945	0.4725	-11.8714285714	1.09302325581	0.0468085106383	-30.741958042
946	0.473	-13.2887755102	-3.21860465116	0.0468085106383	-32.1482517483
947	0.4735	-16.1234693878	-0.344186046512	1.48085106383	-34.9608391608
948	0.474	-16.1234693878	-8.96744186047	2.91489361702	-34.9608391608
949	0.4745	-14.706122449	-7.53023255814	1.48085106383	-36.3671328671
950	0.475	-10.4540816327	-3.21860465116	2.91489361702	-34.9608391608
951	0.4755	-6.20204081633	1.09302325581	2.91489361702	-37.7734265734
952	0.476	-3.36734693878	-1.78139534884	1.48085106383	-33.5545454545
953	0.4765	-11.8714285714	2.53023255814	0.0468085106383	-36.3671328671
954	0.477	-4.78469387755	1.09302325581	4.34893617021	-44.8048951049
955	0.4775	0.884693877551	-1.78139534884	2.91489361702	-43.3986013986
956	0.478	10.806122449	1.09302325581	4.34893617021	-29.3356643357
957	0.4785	15.0581632653	2.53023255814	0.0468085106383	-19.4916083916
958	0.479	22.1448979592	-1.78139534884	2.91489361702	-32.1482517483
959	0.4795	20.7275510204	-1.78139534884	18.6893617021	-39.1797202797
960	0.48	17.8928571429	1.09302325581	12.9531914894	-40.586013986
961	0.4805	22.1448979592	2.53023255814	-8.55744680851	-41.9923076923
962	0.481	17.8928571429	2.53023255814	0.0468085106383	-40.586013986
963	0.4815	12.2234693878	-6.09302325581	-1.38723404255	-37.7734265734
964	0.482	13.6408163265	-10.4046511628	-1.38723404255	-44.8048951049
965	0.4825	10.806122449	-4.65581395349	-2.82127659574	-44.8048951049
966	0.483	10.806122449	15.4651162791	-2.82127659574	-43.3986013986
967	0.4835	5.13673469388	18.3395348837	0.0468085106383	-40.586013986
968	0.484	5.13673469388	-1.78139534884	-2.82127659574	-39.1797202797
969	0.4845	5.13673469388	-1.78139534884	-2.82127659574	-36.3671328671
970	0.485	3.7193877551	-10.4046511628	-2.82127659574	-37.7734265734
971	0.4855	-3.36734693878	-1.78139534884	1.48085106383	-33.5545454545
972	0.486	-11.8714285714	-4.65581395349	0.0468085106383	-40.586013986
973	0.4865	-3.36734693878	-1.78139534884	4.34893617021	-44.8048951049
974	0.487	-1.95	-0.344186046512	1.48085106383	-37.7734265734
975	0.4875	-1.95	-1.78139534884	-1.38723404255	-26.5230769231
976	0.488	-3.36734693878	-1.78139534884	-7.12340425532	-37.7734265734
977	0.4885	-4.78469387755	-1.78139534884	8.65106382979	-39.1797202797
978	0.489	-11.8714285714	-1.78139534884	18.6893617021	-39.1797202797
979	0.4895	-16.1234693878	1.09302325581	5.7829787234	-37.7734265734
980	0.49	-17.5408163265	-4.65581395349	-2.82127659574	-37.7734265734
981	0.4905	-21.7928571429	-1.78139534884	-4.25531914894	-40.586013986
982	0.491	-18.9581632653	11.1534883721	1.48085106383	-40.586013986
983	0.4915	-16.1234693878	16.9023255814	-1.38723404255	-39.1797202797
984	0.492	-13.2887755102	3.96744186047	1.48085106383	-40.586013986
985	0.4925	-13.2887755102	-10.4046511628	2.91489361702	-39.1797202797
986	0.493	-10.4540816327	-6.09302325581	0.0468085106383	-36.3671328671
987	0.4935	-1.95	-1.78139534884	1.48085106383	-40.586013986
988	0.494	0.884693877551	-0.344186046512	0.0468085106383	-39.1797202797
989	0.4945	20.7275510204	1.09302325581	0.0468085106383	-40.586013986
990	0.495	16.4755102041	1.09302325581	2.91489361702	-49.0237762238
991	0.4955	3.7193877551	1.09302325581	2.91489361702	-49.0237762238
992	0.496	5.13673469388	-0.344186046512	1.48085106383	-37.7734265734
993	0.4965	12.2234693878	-0.344186046512	2.91489361702	-50.4300699301
994	0.497	16.4755102041	1.09302325581	-2.82127659574	-47.6174825175
995	0.4975	15.0581632653	1.09302325581	-11.4255319149	-41.9923076923
996	0.498	9.3887755102	-3.21860465116	-2.82127659574	-41.9923076923
997	0.4985	9.3887755102	-0.344186046512	11.5191489362	-40.586013986
998	0.499	3.7193877551	2.53023255814	0.0468085106383	-41.9923076923
999	0.4995	2.30204081633	-8.96744186047	0.0468085106383	-40.586013986
1000	0.5	0.884693877551	-10.4046511628	0.0468085106383	-43.3986013986
1001	0.5005	0.884693877551	1.09302325581	-1.38723404255	-43.3986013986
1002	0.501	0.884693877551	16.9023255814	-2.82127659574	-37.7734265734
1003	0.5015	0.884693877551	11.1534883721	2.91489361702	-39.1797202797
1004	0.502	2.30204081633	-1.78139534884	4.34893617021	-39.1797202797
1005	0.5025	0.884693877551	-1.78139534884	2.91489361702	-37.7734265734
1006	0.503	-9.03673469388	-0.344186046512	1.48085106383	-41.9923076923
1007	0.5035	-16.1234693878	1.09302325581	1.48085106383	-43.3986013986
1008	0.504	-10.4540816327	1.09302325581	2.91489361702	-39.1797202797
1009	0.5045	-10.4540816327	-0.344186046512	1.48085106383	-47.6174825175
1010	0.505	-10.4540816327	-1.78139534884	-1.38723404255	-36.3671328671
1011	0.5055	-10.4540816327	-3.21860465116	0.0468085106383	-23.7104895105
1012	0.506	-16.1234693878	1.09302325581	0.0468085106383	-25.1167832168
1013	0.5065	-18.9581632653	-1.78139534884	1.48085106383	-40.586013986
1014	0.507	-21.7928571429	-0.344186046512	15.8212765957	-39.1797202797
1015	0.5075	-23.2102040816	-1.78139534884	1.48085106383	-36.3671328671
1016	0.508	-18.9581632653	-3.21860465116	-4.25531914894	-34.9608391608
1017	0.5085	-17.5408163265	1.09302325581	-4.25531914894	-37.7734265734
1018	0.509	-14.706122449	1.09302325581	-1.38723404255	-37.7734265734
1019	0.5095	-9.03673469388	2.53023255814	0.0468085106383	-33.5545454545
1020	0.51	-6.20204081633	6.84186046512	0.0468085106383	-36.3671328671
1021	0.5105	-3.36734693878	-6.09302325581	0.0468085106383	-33.5545454545
1022	0.511	0.884693877551	-6.09302325581	2.91489361702	-36.3671328671
1023	0.5115	10.806122449	-6.09302325581	2.91489361702	-34.9608391608
1024	0.512	17.8928571429	-1.78139534884	4.34893617021	-36.3671328671
1025	0.5125	19.3102040816	-0.344186046512	2.91489361702	-32.1482517483
1026	0.513	15.0581632653	1.09302325581	1.48085106383	-29.3356643357
1027	0.5135	5.13673469388	1.09302325581	2.91489361702	-33.5545454545
1028	0.514	12.2234693878	-0.344186046512	4.34893617021	-43.3986013986
1029	0.5145	15.0581632653	-1.78139534884	4.34893617021	-43.3986013986
1030	0.515	13.6408163265	-0.344186046512	0.0468085106383	-32.1482517483
1031	0.5155	10.806122449	-0.344186046512	-1.38723404255	-20.8979020979
1032	0.516	7.97142857143	-0.344186046512	1.48085106383	-30.741958042
1033	0.5165	7.97142857143	-0.344186046512	17.2553191489	-34.9608391608
1034	0.517	5.13673469388	1.09302325581	7.2170212766	-34.9608391608
1035	0.5175	0.884693877551	1.09302325581	-8.55744680851	-33.5545454545
1036	0.518	0.884693877551	-1.78139534884	-4.25531914894	-32.1482517483
1037	0.5185	2.30204081633	-10.4046511628	1.48085106383	-33.5545454545
1038	0.519	0.884693877551	-0.344186046512	0.0468085106383	-33.5545454545
1039	0.5195	0.884693877551	18.3395348837	1.48085106383	-32.1482517483
1040	0.52	-1.95	5.40465116279	1.48085106383	-33.5545454545
1041	0.5205	-4.78469387755	-6.09302325581	0.0468085106383	-36.3671328671
1042	0.521	-9.03673469388	-6.09302325581	1.48085106383	-37.7734265734
1043	0.5215	-17.5408163265	-0.344186046512	0.0468085106383	-36.3671328671
1044	0.522	-13.2887755102	1.09302325581	0.0468085106383	-33.5545454545
1045	0.5225	-4.78469387755	-1.78139534884	2.91489361702	-33.5545454545
1046	0.523	-17.5408163265	-0.344186046512	1.48085106383	-33.5545454545
1047	0.5235	-20.3755102041	-0.344186046512	0.0468085106383	-18.0853146853
1048	0.524	-21.7928571429	1.09302325581	1.48085106383	-25.1167832168
1049	0.5245	-18.9581632653	1.09302325581	2.91489361702	-40.586013986
1050	0.525	-14.706122449	1.09302325581	-2.82127659574	-34.9608391608
1051	0.5255	-10.4540816327	-0.344186046512	-7.12340425532	-33.5545454545
1052	0.526	-7.6193877551	-0.344186046512	12.9531914894	-34.9608391608
1053	0.5265	-4.78469387755	1.09302325581	-5.68936170213	-34.9608391608
1054	0.527	-1.95	2.53023255814	1.48085106383	-33.5545454545
1055	0.5275	3.7193877551	-0.344186046512	2.91489361702	-34.9608391608
1056	0.528	7.97142857143	-7.53023255814	2.91489361702	-34.9608391608
1057	0.5285	10.806122449	-4.65581395349	4.34893617021	-34.9608391608
1058	0.529	17.8928571429	-1.78139534884	2.91489361702	-37.7734265734
1059	0.5295	16.4755102041	-1.78139534884	2.91489361702	-32.1482517483
1060	0.53	2.30204081633	-1.78139534884	1.48085106383	-32.1482517483
1061	0.5305	20.7275510204	-6.09302325581	1.48085106383	-33.5545454545
1062	0.531	15.0581632653	1.09302325581	2.91489361702	-30.741958042
1063	0.5315	5.13673469388	1.09302325581	4.34893617021	-37.7734265734
1064	0.532	10.806122449	1.09302325581	2.91489361702	-41.9923076923
1065	0.5325	9.3887755102	-0.344186046512	0.0468085106383	-29.3356643357
1066	0.533	7.97142857143	1.09302325581	0.0468085106383	-15.2727272727
1067	0.5335	2.30204081633	1.09302325581	-4.25531914894	-27.9293706294
1068	0.534	0.884693877551	2.53023255814	15.8212765957	-27.9293706294
1069	0.5345	-0.532653061224	2.53023255814	17.2553191489	-27.9293706294
1070	0.535	-3.36734693878	1.09302325581	-1.38723404255	-29.3356643357
1071	0.5355	-0.532653061224	-1.78139534884	-5.68936170213	-27.9293706294
1072	0.536	-3.36734693878	3.96744186047	-2.82127659574	-27.9293706294
1073	0.5365	-0.532653061224	21.2139534884	1.48085106383	-25.1167832168
1074	0.537	-1.95	6.84186046512	1.48085106383	-27.9293706294
1075	0.5375	-4.78469387755	-4.65581395349	2.91489361702	-25.1167832168
1076	0.538	-4.78469387755	-10.4046511628	1.48085106383	-27.9293706294
1077	0.5385	-7.6193877551	-4.65581395349	1.48085106383	-27.9293706294
1078	0.539	-7.6193877551	-1.78139534884	1.48085106383	-32.1482517483
1079	0.5395	2.30204081633	1.09302325581	1.48085106383	-27.9293706294
1080	0.54	-14.706122449	-3.21860465116	2.91489361702	-25.1167832168
1081	0.5405	-27.462244898	-0.344186046512	0.0468085106383	-29.3356643357
1082	0.541	-18.9581632653	1.09302325581	2.91489361702	-36.3671328671
1083	0.5415	-14.706122449	1.09302325581	4.34893617021	-23.7104895105
1084	0.542	-7.6193877551	1.09302325581	1.48085106383	-15.2727272727
1085	0.5425	-4.78469387755	-0.344186046512	-1.38723404255	-27.9293706294
1086	0.543	-1.95	1.09302325581	12.9531914894	-27.9293706294
1087	0.5435	0.884693877551	1.09302325581	21.5574468085	-27.9293706294
1088	0.544	5.13673469388	-0.344186046512	5.7829787234	-26.5230769231
1089	0.5445	10.806122449	-0.344186046512	-4.25531914894	-27.9293706294
1090	0.545	17.8928571429	-0.344186046512	-1.38723404255	-25.1167832168
1091	0.5455	23.562244898	-6.09302325581	1.48085106383	-25.1167832168
1092	0.546	23.562244898	-10.4046511628	0.0468085106383	-23.7104895105
1093	0.5465	22.1448979592	5.40465116279	2.91489361702	-27.9293706294
1094	0.547	24.9795918367	-0.344186046512	2.91489361702	-26.5230769231
1095	0.5475	17.8928571429	1.09302325581	4.34893617021	-25.1167832168
1096	0.548	5.13673469388	-0.344186046512	2.91489361702	-23.7104895105
1097	0.5485	6.55408163265	-0.344186046512	4.34893617021	-22.3041958042
1098	0.549	12.2234693878	-1.78139534884	4.34893617021	-22.3041958042
1099	0.5495	3.7193877551	-0.344186046512	2.91489361702	-23.7104895105
1100	0.55	-0.532653061224	-0.344186046512	2.91489361702	-23.7104895105
1101	0.5505	3.7193877551	-1.78139534884	7.2170212766	-33.5545454545
1102	0.551	3.7193877551	1.09302325581	4.34893617021	-25.1167832168
1103	0.5515	5.13673469388	-1.78139534884	-7.12340425532	-25.1167832168
1104	0.552	3.7193877551	1.09302325581	-1.38723404255	-6.83496503497
1105	0.5525	0.884693877551	1.09302325581	-4.25531914894	-26.5230769231
1106	0.553	-0.532653061224	1.09302325581	-5.68936170213	-22.3041958042
1107	0.5535	0.884693877551	-0.344186046512	-8.55744680851	-22.3041958042
1108	0.554	-1.95	-0.344186046512	11.5191489362	-23.7104895105
1109	0.5545	-3.36734693878	-8.96744186047	1.48085106383	-20.8979020979
1110	0.555	-4.78469387755	-4.65581395349	0.0468085106383	-19.4916083916
1111	0.5555	-7.6193877551	15.4651162791	-4.25531914894	-19.4916083916
1112	0.556	-11.8714285714	15.4651162791	-2.82127659574	-18.0853146853
1113	0.5565	-16.1234693878	-3.21860465116	-2.82127659574	-15.2727272727
1114	0.557	-17.5408163265	-8.96744186047	-2.82127659574	-13.8664335664
1115	0.5575	-10.4540816327	-0.344186046512	-1.38723404255	-18.0853146853
1116	0.558	5.13673469388	1.09302325581	1.48085106383	-18.0853146853
1117	0.5585	3.7193877551	1.09302325581	2.91489361702	-13.8664335664
1118	0.559	-6.20204081633	1.09302325581	0.0468085106383	-12.4601398601
1119	0.5595	-11.8714285714	-0.344186046512	1.48085106383	-16.679020979
1120	0.56	-3.36734693878	1.09302325581	4.34893617021	-25.1167832168
1121	0.5605	5.13673469388	3.96744186047	4.34893617021	-22.3041958042
1122	0.561	7.97142857143	2.53023255814	-2.82127659574	-20.8979020979
1123	0.5615	13.6408163265	2.53023255814	-5.68936170213	-16.679020979
1124	0.562	17.8928571429	1.09302325581	1.48085106383	-11.0538461538
1125	0.5625	19.3102040816	1.09302325581	-8.55744680851	-5.42867132867
1126	0.563	22.1448979592	-0.344186046512	-1.38723404255	-16.679020979
1127	0.5635	22.1448979592	-1.78139534884	0.0468085106383	-18.0853146853
1128	0.564	24.9795918367	-3.21860465116	2.91489361702	-16.679020979
1129	0.5645	17.8928571429	3.96744186047	5.7829787234	-13.8664335664
1130	0.565	15.0581632653	18.3395348837	0.0468085106383	-13.8664335664
1131	0.5655	9.3887755102	1.09302325581	1.48085106383	-13.8664335664
1132	0.566	6.55408163265	-10.4046511628	2.91489361702	-12.4601398601
1133	0.5665	7.97142857143	-8.96744186047	0.0468085106383	-12.4601398601
1134	0.567	13.6408163265	-3.21860465116	0.0468085106383	-12.4601398601
1135	0.5675	27.8142857143	1.09302325581	2.91489361702	-16.679020979
1136	0.568	12.2234693878	-1.78139534884	0.0468085106383	-12.4601398601
1137	0.5685	-4.78469387755	-1.78139534884	4.34893617021	-13.8664335664
1138	0.569	-6.20204081633	-1.78139534884	1.48085106383	-16.679020979
1139	0.5695	-1.95	-1.78139534884	1.48085106383	-25.1167832168
1140	0.57	-0.532653061224	1.09302325581	4.34893617021	-16.679020979
1141	0.5705	-3.36734693878	-1.78139534884	-7.12340425532	-13.8664335664
1142	0.571	-3.36734693878	-1.78139534884	-8.55744680851	-11.0538461538
1143	0.5715	-7.6193877551	1.09302325581	-1.38723404255	-11.0538461538
1144	0.572	-13.2887755102	-0.344186046512	15.8212765957	-11.0538461538
1145	0.5725	-16.1234693878	-1.78139534884	17.2553191489	-11.0538461538
1146	0.573	-17.5408163265	-3.21860465116	8.65106382979	-6.83496503497
1147	0.5735	-21.7928571429	-13.2790697674	2.91489361702	-11.0538461538
1148	0.574	-21.7928571429	-13.2790697674	4.34893617021	-9.64755244755
1149	0.5745	-18.9581632653	-6.09302325581	1.48085106383	-11.0538461538
1150	0.575	-13.2887755102	11.1534883721	2.91489361702	-9.64755244755
1151	0.5755	-11.8714285714	16.9023255814	4.34893617021	-6.83496503497
1152	0.576	-13.2887755102	-0.344186046512	4.34893617021	-9.64755244755
1153	0.5765	-17.5408163265	-0.344186046512	2.91489361702	-8.24125874126
1154	0.577	-11.8714285714	-1.78139534884	2.91489361702	-8.24125874126
1155	0.5775	2.30204081633	1.09302325581	4.34893617021	-11.0538461538
1156	0.578	2.30204081633	1.09302325581	4.34893617021	-9.64755244755
1157	0.5785	3.7193877551	1.09302325581	0.0468085106383	-11.0538461538
1158	0.579	13.6408163265	-0.344186046512	1.48085106383	-9.64755244755
1159	0.5795	15.0581632653	-0.344186046512	1.48085106383	-18.0853146853
1160	0.58	16.4755102041	-0.344186046512	2.91489361702	-12.4601398601
1161	0.5805	19.3102040816	-1.78139534884	4.34893617021	-12.4601398601
1162	0.581	16.4755102041	-0.344186046512	20.1234042553	-11.0538461538
1163	0.5815	13.6408163265	-0.344186046512	14.3872340426	-11.0538461538
1164	0.582	15.0581632653	-0.344186046512	0.0468085106383	-8.24125874126
1165	0.5825	5.13673469388	-3.21860465116	-5.68936170213	-11.0538461538
1166	0.583	7.97142857143	-3.21860465116	-4.25531914894	-11.0538461538
1167	0.5835	5.13673469388	1.09302325581	-1.38723404255	-9.64755244755
1168	0.584	3.7193877551	15.4651162791	1.48085106383	-6.83496503497
1169	0.5845	2.30204081633	9.71627906977	0.0468085106383	-8.24125874126
1170	0.585	0.884693877551	-0.344186046512	2.91489361702	-11.0538461538
1171	0.5855	-1.95	-10.4046511628	1.48085106383	-12.4601398601
1172	0.586	3.7193877551	-6.09302325581	2.91489361702	-11.0538461538
1173	0.5865	0.884693877551	-1.78139534884	-1.38723404255	-11.0538461538
1174	0.587	15.0581632653	-0.344186046512	1.48085106383	-9.64755244755
1175	0.5875	-4.78469387755	1.09302325581	-1.38723404255	-9.64755244755
1176	0.588	-17.5408163265	-0.344186046512	0.0468085106383	-9.64755244755
1177	0.5885	-16.1234693878	-0.344186046512	4.34893617021	-15.2727272727
1178	0.589	-11.8714285714	1.09302325581	0.0468085106383	-20.8979020979
1179	0.5895	-16.1234693878	2.53023255814	-1.38723404255	-11.0538461538
1180	0.59	-18.9581632653	1.09302325581	0.0468085106383	4.41538461538
1181	0.5905	-18.9581632653	1.09302325581	0.0468085106383	10.0405594406
1182	0.591	-17.5408163265	-1.78139534884	-1.38723404255	-11.0538461538
1183	0.5915	-14.706122449	2.53023255814	-7.12340425532	-8.24125874126
1184	0.592	-11.8714285714	2.53023255814	18.6893617021	-11.0538461538
1185	0.5925	-7.6193877551	1.09302325581	17.2553191489	-2.61608391608
1186	0.593	-4.78469387755	-8.96744186047	-1.38723404255	-4.02237762238
1187	0.5935	0.884693877551	-10.4046511628	-1.38723404255	-5.42867132867
1188	0.594	5.13673469388	-11.8418604651	1.48085106383	-4.02237762238
1189	0.5945	9.3887755102	-4.65581395349	0.0468085106383	-5.42867132867
1190	0.595	16.4755102041	12.5906976744	0.0468085106383	-4.02237762238
1191	0.5955	22.1448979592	18.3395348837	2.91489361702	-1.20979020979
1192	0.596	16.4755102041	-0.344186046512	-1.38723404255	-2.61608391608
1193	0.5965	7.97142857143	1.09302325581	0.0468085106383	0.196503496503
1194	0.597	2.30204081633	2.53023255814	1.48085106383	0.196503496503
1195	0.5975	12.2234693878	1.09302325581	2.91489361702	1.6027972028
1196	0.598	23.562244898	-3.21860465116	0.0468085106383	0.196503496503
1197	0.5985	29.2316326531	1.09302325581	0.0468085106383	1.6027972028
1198	0.599	12.2234693878	-1.78139534884	1.48085106383	8.63426573427
1199	0.5995	9.3887755102	1.09302325581	0.0468085106383	22.6972027972
1200	0.6	3.7193877551	1.09302325581	1.48085106383	18.4783216783
1201	0.6005	5.13673469388	1.09302325581	1.48085106383	4.41538461538
1202	0.601	0.884693877551	-1.78139534884	2.91489361702	0.196503496503
1203	0.6015	2.30204081633	-0.344186046512	-1.38723404255	4.41538461538
1204	0.602	-0.532653061224	-0.344186046512	-1.38723404255	8.63426573427
1205	0.6025	0.884693877551	-3.21860465116	-7.12340425532	5.82167832168
1206	0.603	-0.532653061224	1.09302325581	-8.55744680851	7.22797202797
1207	0.6035	0.884693877551	-1.78139534884	12.9531914894	7.22797202797
1208	0.604	-1.95	-0.344186046512	0.0468085106383	8.63426573427
1209	0.6045	-3.36734693878	-3.21860465116	0.0468085106383	5.82167832168
1210	0.605	-4.78469387755	8.27906976744	0.0468085106383	8.63426573427
1211	0.6055	-7.6193877551	18.3395348837	-1.38723404255	8.63426573427
1212	0.606	-11.8714285714	16.9023255814	-1.38723404255	7.22797202797
1213	0.6065	-16.1234693878	14.0279069767	-1.38723404255	7.22797202797
1214	0.607	-17.5408163265	1.09302325581	0.0468085106383	11.4468531469
1215	0.6075	-16.1234693878	-1.78139534884	1.48085106383	14.2594405594
1216	0.608	-13.2887755102	1.09302325581	0.0468085106383	14.2594405594
1217	0.6085	-7.6193877551	-0.344186046512	0.0468085106383	14.2594405594
1218	0.609	9.3887755102	2.53023255814	0.0468085106383	18.4783216783
1219	0.6095	13.6408163265	-0.344186046512	1.48085106383	17.072027972
1220	0.61	-0.532653061224	-0.344186046512	-1.38723404255	32.5412587413
1221	0.6105	2.30204081633	-0.344186046512	0.0468085106383	24.1034965035
1222	0.611	3.7193877551	2.53023255814	5.7829787234	8.63426573427
1223	0.6115	12.2234693878	-0.344186046512	2.91489361702	4.41538461538
1224	0.612	17.8928571429	1.09302325581	-2.82127659574	10.0405594406
1225	0.6125	17.8928571429	-3.21860465116	-1.38723404255	15.6657342657
1226	0.613	19.3102040816	-1.78139534884	-7.12340425532	15.6657342657
1227	0.6135	16.4755102041	1.09302325581	-7.12340425532	15.6657342657
1228	0.614	17.8928571429	1.09302325581	-2.82127659574	15.6657342657
1229	0.6145	16.4755102041	1.09302325581	0.0468085106383	12.8531468531
1230	0.615	16.4755102041	-1.78139534884	0.0468085106383	17.072027972
1231	0.6155	13.6408163265	14.0279069767	-1.38723404255	15.6657342657
1232	0.616	10.806122449	16.9023255814	2.91489361702	15.6657342657
1233	0.6165	5.13673469388	6.84186046512	1.48085106383	12.8531468531
1234	0.617	-6.20204081633	1.09302325581	0.0468085106383	14.2594405594
1235	0.6175	0.884693877551	1.09302325581	0.0468085106383	15.6657342657
1236	0.618	17.8928571429	1.09302325581	0.0468085106383	8.63426573427
1237	0.6185	20.7275510204	-1.78139534884	0.0468085106383	15.6657342657
1238	0.619	3.7193877551	-0.344186046512	-1.38723404255	18.4783216783
1239	0.6195	-7.6193877551	1.09302325581	0.0468085106383	17.072027972
1240	0.62	-1.95	1.09302325581	2.91489361702	15.6657342657
1241	0.6205	-3.36734693878	2.53023255814	4.34893617021	5.82167832168
1242	0.621	-1.95	1.09302325581	-4.25531914894	12.8531468531
1243	0.6215	-6.20204081633	-0.344186046512	-1.38723404255	26.9160839161
1244	0.622	-6.20204081633	-0.344186046512	-5.68936170213	17.072027972
1245	0.6225	-11.8714285714	-1.78139534884	-2.82127659574	17.072027972
1246	0.623	-16.1234693878	-3.21860465116	-9.9914893617	17.072027972
1247	0.6235	-16.1234693878	1.09302325581	-4.25531914894	15.6657342657
1248	0.624	-16.1234693878	2.53023255814	-1.38723404255	12.8531468531
1249	0.6245	-16.1234693878	-0.344186046512	1.48085106383	14.2594405594
1250	0.625	-11.8714285714	-11.8418604651	1.48085106383	14.2594405594
1251	0.6255	-11.8714285714	-4.65581395349	1.48085106383	10.0405594406
1252	0.626	-4.78469387755	-4.65581395349	1.48085106383	14.2594405594
1253	0.6265	-0.532653061224	1.09302325581	2.91489361702	10.0405594406
1254	0.627	-4.78469387755	-0.344186046512	2.91489361702	14.2594405594
1255	0.6275	-10.4540816327	1.09302325581	2.91489361702	14.2594405594
1256	0.628	-6.20204081633	3.96744186047	2.91489361702	12.8531468531
1257	0.6285	5.13673469388	2.53023255814	-1.38723404255	4.41538461538
1258	0.629	15.0581632653	3.96744186047	2.91489361702	0.196503496503
1259	0.6295	16.4755102041	2.53023255814	2.91489361702	3.00909090909
1260	0.63	13.6408163265	-0.344186046512	1.48085106383	10.0405594406
1261	0.6305	17.8928571429	-0.344186046512	-2.82127659574	19.8846153846
1262	0.631	16.4755102041	1.09302325581	-1.38723404255	31.134965035
1263	0.6315	12.2234693878	-0.344186046512	-1.38723404255	31.134965035
1264	0.632	10.806122449	-1.78139534884	-8.55744680851	24.1034965035
1265	0.6325	9.3887755102	1.09302325581	-11.4255319149	19.8846153846
1266	0.633	9.3887755102	-0.344186046512	8.65106382979	22.6972027972
1267	0.6335	3.7193877551	-0.344186046512	-2.82127659574	19.8846153846
1268	0.634	3.7193877551	1.09302325581	-8.55744680851	19.8846153846
1269	0.6345	0.884693877551	9.71627906977	0.0468085106383	18.4783216783
1270	0.635	3.7193877551	21.2139534884	-1.38723404255	24.1034965035
1271	0.6355	0.884693877551	11.1534883721	0.0468085106383	21.2909090909
1272	0.636	-3.36734693878	-4.65581395349	1.48085106383	22.6972027972
1273	0.6365	-3.36734693878	-7.53023255814	2.91489361702	21.2909090909
1274	0.637	0.884693877551	-7.53023255814	0.0468085106383	19.8846153846
1275	0.6375	-17.5408163265	-0.344186046512	0.0468085106383	19.8846153846
1276	0.638	-14.706122449	2.53023255814	1.48085106383	21.2909090909
1277	0.6385	-1.95	-0.344186046512	0.0468085106383	21.2909090909
1278	0.639	7.97142857143	-0.344186046512	-2.82127659574	21.2909090909
1279	0.6395	-21.7928571429	-0.344186046512	0.0468085106383	26.9160839161
1280	0.64	-20.3755102041	-0.344186046512	0.0468085106383	25.5097902098
1281	0.6405	-20.3755102041	-3.21860465116	1.48085106383	21.2909090909
1282	0.641	-18.9581632653	-1.78139534884	0.0468085106383	32.5412587413
1283	0.6415	-16.1234693878	-1.78139534884	-9.9914893617	22.6972027972
1284	0.642	-13.2887755102	1.09302325581	2.91489361702	25.5097902098
1285	0.6425	-9.03673469388	1.09302325581	15.8212765957	25.5097902098
1286	0.643	-6.20204081633	1.09302325581	14.3872340426	22.6972027972
1287	0.6435	-4.78469387755	-0.344186046512	-2.82127659574	25.5097902098
1288	0.644	2.30204081633	-0.344186046512	-7.12340425532	24.1034965035
1289	0.6445	5.13673469388	-0.344186046512	-2.82127659574	24.1034965035
1290	0.645	13.6408163265	-10.4046511628	2.91489361702	22.6972027972
1291	0.6455	15.0581632653	-8.96744186047	2.91489361702	21.2909090909
1292	0.646	15.0581632653	1.09302325581	0.0468085106383	19.8846153846
1293	0.6465	16.4755102041	16.9023255814	0.0468085106383	19.8846153846
1294	0.647	17.8928571429	2.53023255814	1.48085106383	22.6972027972
1295	0.6475	12.2234693878	2.53023255814	1.48085106383	29.7286713287
1296	0.648	2.30204081633	1.09302325581	-1.38723404255	31.134965035
1297	0.6485	-0.532653061224	1.09302325581	1.48085106383	29.7286713287
1298	0.649	7.97142857143	-0.344186046512	1.48085106383	28.3223776224
1299	0.6495	19.3102040816	-1.78139534884	1.48085106383	25.5097902098
1300	0.65	-4.78469387755	-0.344186046512	0.0468085106383	26.9160839161
1301	0.6505	-3.36734693878	-0.344186046512	2.91489361702	36.7601398601
1302	0.651	0.884693877551	1.09302325581	0.0468085106383	32.5412587413
1303	0.6515	0.884693877551	1.09302325581	0.0468085106383	21.2909090909
1304	0.652	2.30204081633	1.09302325581	-2.82127659574	28.3223776224
1305	0.6525	2.30204081633	-0.344186046512	-8.55744680851	43.7916083916
1306	0.653	-1.95	-1.78139534884	-7.12340425532	32.5412587413
1307	0.6535	-3.36734693878	1.09302325581	-1.38723404255	35.3538461538
1308	0.654	-3.36734693878	1.09302325581	-1.38723404255	35.3538461538
1309	0.6545	-4.78469387755	2.53023255814	0.0468085106383	36.7601398601
1310	0.655	-4.78469387755	-3.21860465116	0.0468085106383	38.1664335664
1311	0.6555	-6.20204081633	-8.96744186047	0.0468085106383	35.3538461538
1312	0.656	-11.8714285714	-11.8418604651	1.48085106383	38.1664335664
1313	0.6565	-16.1234693878	16.9023255814	1.48085106383	40.979020979
1314	0.657	-17.5408163265	6.84186046512	1.48085106383	42.3853146853
1315	0.6575	-16.1234693878	-3.21860465116	2.91489361702	40.979020979
1316	0.658	-26.0448979592	-0.344186046512	2.91489361702	40.979020979
1317	0.6585	-16.1234693878	-0.344186046512	2.91489361702	42.3853146853
1318	0.659	2.30204081633	-0.344186046512	2.91489361702	42.3853146853
1319	0.6595	12.2234693878	-1.78139534884	4.34893617021	43.7916083916
1320	0.66	-4.78469387755	-0.344186046512	2.91489361702	38.1664335664
1321	0.6605	0.884693877551	1.09302325581	1.48085106383	42.3853146853
1322	0.661	7.97142857143	-0.344186046512	0.0468085106383	53.6356643357
1323	0.6615	16.4755102041	1.09302325581	1.48085106383	49.4167832168
1324	0.662	17.8928571429	1.09302325581	15.8212765957	39.5727272727
1325	0.6625	20.7275510204	2.53023255814	21.5574468085	38.1664335664
1326	0.663	16.4755102041	-1.78139534884	11.5191489362	39.5727272727
1327	0.6635	17.8928571429	-4.65581395349	0.0468085106383	39.5727272727
1328	0.664	19.3102040816	-1.78139534884	-5.68936170213	38.1664335664
1329	0.6645	19.3102040816	-1.78139534884	-2.82127659574	36.7601398601
1330	0.665	13.6408163265	9.71627906977	0.0468085106383	38.1664335664
1331	0.6655	10.806122449	1.09302325581	2.91489361702	38.1664335664
1332	0.666	12.2234693878	5.40465116279	-1.38723404255	35.3538461538
1333	0.6665	15.0581632653	-1.78139534884	1.48085106383	35.3538461538
1334	0.667	6.55408163265	14.0279069767	1.48085106383	36.7601398601
1335	0.6675	10.806122449	-4.65581395349	2.91489361702	38.1664335664
1336	0.668	23.562244898	-1.78139534884	0.0468085106383	36.7601398601
1337	0.6685	16.4755102041	-1.78139534884	1.48085106383	35.3538461538
1338	0.669	3.7193877551	1.09302325581	1.48085106383	36.7601398601
1339	0.6695	-6.20204081633	-0.344186046512	4.34893617021	36.7601398601
1340	0.67	0.884693877551	-3.21860465116	2.91489361702	26.9160839161
1341	0.6705	-0.532653061224	-0.344186046512	5.7829787234	28.3223776224
1342	0.671	-1.95	-0.344186046512	1.48085106383	19.8846153846
1343	0.6715	-3.36734693878	-0.344186046512	-2.82127659574	21.2909090909
1344	0.672	-6.20204081633	-3.21860465116	1.48085106383	28.3223776224
1345	0.6725	-11.8714285714	-3.21860465116	-4.25531914894	25.5097902098
1346	0.673	-14.706122449	-1.78139534884	-9.9914893617	22.6972027972
1347	0.6735	-16.1234693878	-0.344186046512	-5.68936170213	19.8846153846
1348	0.674	-16.1234693878	3.96744186047	0.0468085106383	19.8846153846
1349	0.6745	-17.5408163265	1.09302325581	1.48085106383	14.2594405594
1350	0.675	-13.2887755102	6.84186046512	0.0468085106383	14.2594405594
1351	0.6755	-7.6193877551	21.2139534884	0.0468085106383	14.2594405594
1352	0.676	-9.03673469388	-8.96744186047	1.48085106383	10.0405594406
1353	0.6765	-1.95	1.09302325581	1.48085106383	10.0405594406
1354	0.677	-11.8714285714	1.09302325581	4.34893617021	12.8531468531
1355	0.6775	-3.36734693878	1.09302325581	2.91489361702	14.2594405594
1356	0.678	20.7275510204	2.53023255814	2.91489361702	7.22797202797
1357	0.6785	33.4836734694	-0.344186046512	1.48085106383	5.82167832168
1358	0.679	19.3102040816	1.09302325581	0.0468085106383	11.4468531469
1359	0.6795	17.8928571429	1.09302325581	-1.38723404255	25.5097902098
1360	0.68	16.4755102041	2.53023255814	1.48085106383	17.072027972
1361	0.6805	22.1448979592	3.96744186047	8.65106382979	1.6027972028
1362	0.681	17.8928571429	1.09302325581	2.91489361702	0.196503496503
1363	0.6815	15.0581632653	-1.78139534884	-1.38723404255	3.00909090909
1364	0.682	10.806122449	-6.09302325581	-2.82127659574	7.22797202797
1365	0.6825	9.3887755102	-1.78139534884	-1.38723404255	7.22797202797
1366	0.683	7.97142857143	1.09302325581	14.3872340426	7.22797202797
1367	0.6835	12.2234693878	-3.21860465116	0.0468085106383	4.41538461538
1368	0.684	7.97142857143	-1.78139534884	-1.38723404255	3.00909090909
1369	0.6845	10.806122449	11.1534883721	-2.82127659574	1.6027972028
1370	0.685	12.2234693878	16.9023255814	1.48085106383	0.196503496503
1371	0.6855	3.7193877551	6.84186046512	4.34893617021	1.6027972028
1372	0.686	-0.532653061224	-7.53023255814	4.34893617021	-1.20979020979
1373	0.6865	2.30204081633	-8.96744186047	0.0468085106383	-1.20979020979
1374	0.687	-6.20204081633	-3.21860465116	-1.38723404255	0.196503496503
1375	0.6875	-14.706122449	-3.21860465116	0.0468085106383	-4.02237762238
1376	0.688	-3.36734693878	-1.78139534884	0.0468085106383	-1.20979020979
1377	0.6885	7.97142857143	-4.65581395349	1.48085106383	-4.02237762238
1378	0.689	9.3887755102	-3.21860465116	0.0468085106383	-1.20979020979
1379	0.6895	-11.8714285714	-1.78139534884	-1.38723404255	1.6027972028
1380	0.69	-16.1234693878	-1.78139534884	0.0468085106383	7.22797202797
1381	0.6905	-16.1234693878	-1.78139534884	-1.38723404255	4.41538461538
1382	0.691	-13.2887755102	-1.78139534884	4.34893617021	-8.24125874126
1383	0.6915	-10.4540816327	1.09302325581	24.4255319149	-8.24125874126
1384	0.692	-7.6193877551	-0.344186046512	18.6893617021	-5.42867132867
1385	0.6925	-6.20204081633	1.09302325581	5.7829787234	-6.83496503497
1386	0.693	-1.95	-3.21860465116	0.0468085106383	-11.0538461538
1387	0.6935	2.30204081633	-1.78139534884	-5.68936170213	-13.8664335664
1388	0.694	3.7193877551	-0.344186046512	-1.38723404255	-13.8664335664
1389	0.6945	7.97142857143	11.1534883721	1.48085106383	-11.0538461538
1390	0.695	15.0581632653	5.40465116279	0.0468085106383	-11.0538461538
1391	0.6955	17.8928571429	15.4651162791	2.91489361702	-11.0538461538
1392	0.696	20.7275510204	-6.09302325581	4.34893617021	-6.83496503497
1393	0.6965	20.7275510204	-3.21860465116	4.34893617021	-8.24125874126
1394	0.697	24.9795918367	-3.21860465116	4.34893617021	-9.64755244755
1395	0.6975	10.806122449	1.09302325581	2.91489361702	-9.64755244755
1396	0.698	20.7275510204	-4.65581395349	4.34893617021	-9.64755244755
1397	0.6985	27.8142857143	-0.344186046512	0.0468085106383	-8.24125874126
1398	0.699	27.8142857143	-3.21860465116	0.0468085106383	-12.4601398601
1399	0.6995	12.2234693878	-0.344186046512	1.48085106383	-11.0538461538
1400	0.7	15.0581632653	-1.78139534884	2.91489361702	0.196503496503
1401	0.7005	12.2234693878	-1.78139534884	-1.38723404255	-6.83496503497
1402	0.701	9.3887755102	-0.344186046512	1.48085106383	-9.64755244755
1403	0.7015	6.55408163265	-3.21860465116	8.65106382979	-11.0538461538
1404	0.702	3.7193877551	-0.344186046512	15.8212765957	-12.4601398601
1405	0.7025	3.7193877551	1.09302325581	1.48085106383	-22.3041958042
1406	0.703	2.30204081633	2.53023255814	5.7829787234	-12.4601398601
1407	0.7035	0.884693877551	5.40465116279	0.0468085106383	-13.8664335664
1408	0.704	-0.532653061224	2.53023255814	1.48085106383	-11.0538461538
1409	0.7045	-1.95	-4.65581395349	1.48085106383	-13.8664335664
1410	0.705	-0.532653061224	-10.4046511628	1.48085106383	-11.0538461538
1411	0.7055	-9.03673469388	-11.8418604651	-1.38723404255	-11.0538461538
1412	0.706	-7.6193877551	-6.09302325581	-2.82127659574	-9.64755244755
1413	0.7065	-9.03673469388	-3.21860465116	-1.38723404255	-9.64755244755
1414	0.707	-11.8714285714	-1.78139534884	-1.38723404255	-5.42867132867
1415	0.7075	-24.6275510204	-1.78139534884	0.0468085106383	-1.20979020979
1416	0.708	-17.5408163265	-0.344186046512	2.91489361702	-1.20979020979
1417	0.7085	-3.36734693878	1.09302325581	1.48085106383	-5.42867132867
1418	0.709	-10.4540816327	-3.21860465116	2.91489361702	-5.42867132867
1419	0.7095	-9.03673469388	-3.21860465116	4.34893617021	-6.83496503497
1420	0.71	-4.78469387755	1.09302325581	2.91489361702	-2.61608391608
1421	0.7105	9.3887755102	-0.344186046512	7.2170212766	-11.0538461538
1422	0.711	12.2234693878	1.09302325581	1.48085106383	-12.4601398601
1423	0.7115	16.4755102041	1.09302325581	-1.38723404255	-2.61608391608
1424	0.712	22.1448979592	-0.344186046512	-5.68936170213	-16.679020979
1425	0.7125	23.562244898	-0.344186046512	-1.38723404255	-11.0538461538
1426	0.713	23.562244898	-1.78139534884	2.91489361702	-11.0538461538
1427	0.7135	23.562244898	-0.344186046512	5.7829787234	-9.64755244755
1428	0.714	22.1448979592	-4.65581395349	4.34893617021	-6.83496503497
1429	0.7145	20.7275510204	-13.2790697674	-1.38723404255	-9.64755244755
1430	0.715	13.6408163265	-11.8418604651	0.0468085106383	-16.679020979
1431	0.7155	13.6408163265	-4.65581395349	5.7829787234	-16.679020979
1432	0.716	16.4755102041	1.09302325581	1.48085106383	-16.679020979
1433	0.7165	3.7193877551	1.09302325581	2.91489361702	-11.0538461538
1434	0.717	-3.36734693878	1.09302325581	2.91489361702	-11.0538461538
1435	0.7175	0.884693877551	-1.78139534884	5.7829787234	-19.4916083916
1436	0.718	15.0581632653	-0.344186046512	0.0468085106383	-20.8979020979
1437	0.7185	2.30204081633	1.09302325581	2.91489361702	-27.9293706294
1438	0.719	3.7193877551	-0.344186046512	1.48085106383	-15.2727272727
1439	0.7195	2.30204081633	-1.78139534884	1.48085106383	-8.24125874126
1440	0.72	2.30204081633	-0.344186046512	2.91489361702	-15.2727272727
1441	0.7205	2.30204081633	-1.78139534884	5.7829787234	-27.9293706294
1442	0.721	-1.95	-1.78139534884	8.65106382979	-29.3356643357
1443	0.7215	-0.532653061224	1.09302325581	-2.82127659574	-26.5230769231
1444	0.722	-7.6193877551	1.09302325581	12.9531914894	-23.7104895105
1445	0.7225	-9.03673469388	-1.78139534884	-4.25531914894	-15.2727272727
1446	0.723	-11.8714285714	-10.4046511628	-1.38723404255	-18.0853146853
1447	0.7235	-14.706122449	-13.2790697674	2.91489361702	-22.3041958042
1448	0.724	-16.1234693878	-4.65581395349	1.48085106383	-20.8979020979
1449	0.7245	-16.1234693878	8.27906976744	2.91489361702	-20.8979020979
1450	0.725	-14.706122449	18.3395348837	4.34893617021	-22.3041958042
1451	0.7255	-9.03673469388	-4.65581395349	2.91489361702	-22.3041958042
1452	0.726	-1.95	-4.65581395349	2.91489361702	-19.4916083916
1453	0.7265	-9.03673469388	-1.78139534884	2.91489361702	-20.8979020979
1454	0.727	5.13673469388	-1.78139534884	1.48085106383	-18.0853146853
1455	0.7275	24.9795918367	-0.344186046512	-1.38723404255	-22.3041958042
1456	0.728	19.3102040816	1.09302325581	-1.38723404255	-27.9293706294
1457	0.7285	16.4755102041	1.09302325581	-1.38723404255	-5.42867132867
1458	0.729	20.7275510204	-1.78139534884	0.0468085106383	-27.9293706294
1459	0.7295	17.8928571429	-0.344186046512	-1.38723404255	-26.5230769231
1460	0.73	15.0581632653	-1.78139534884	-7.12340425532	-23.7104895105
1461	0.7305	19.3102040816	1.09302325581	-7.12340425532	-22.3041958042
1462	0.731	19.3102040816	-1.78139534884	0.0468085106383	-19.4916083916
1463	0.7315	16.4755102041	-1.78139534884	-1.38723404255	-16.679020979
1464	0.732	16.4755102041	-1.78139534884	0.0468085106383	-16.679020979
1465	0.7325	13.6408163265	-10.4046511628	-1.38723404255	-19.4916083916
1466	0.733	10.806122449	-11.8418604651	0.0468085106383	-18.0853146853
1467	0.7335	13.6408163265	5.40465116279	2.91489361702	-19.4916083916
1468	0.734	5.13673469388	16.9023255814	0.0468085106383	-18.0853146853
1469	0.7345	5.13673469388	-8.96744186047	1.48085106383	-16.679020979
1470	0.735	9.3887755102	-6.09302325581	0.0468085106383	-20.8979020979
1471	0.7355	5.13673469388	-0.344186046512	-1.38723404255	-22.3041958042
1472	0.736	-6.20204081633	-1.78139534884	-1.38723404255	-22.3041958042
1473	0.7365	-4.78469387755	-0.344186046512	1.48085106383	-18.0853146853
1474	0.737	-7.6193877551	-0.344186046512	4.34893617021	-19.4916083916
1475	0.7375	-3.36734693878	-3.21860465116	1.48085106383	-20.8979020979
1476	0.738	-3.36734693878	-1.78139534884	-1.38723404255	-23.7104895105
1477	0.7385	-4.78469387755	-3.21860465116	2.91489361702	-30.741958042
1478	0.739	-10.4540816327	-3.21860465116	4.34893617021	-27.9293706294
1479	0.7395	-13.2887755102	-1.78139534884	14.3872340426	-25.1167832168
1480	0.74	-18.9581632653	-1.78139534884	8.65106382979	-23.7104895105
1481	0.7405	-17.5408163265	-4.65581395349	-5.68936170213	-19.4916083916
1482	0.741	-16.1234693878	-1.78139534884	-8.55744680851	-16.679020979
1483	0.7415	-13.2887755102	-1.78139534884	-1.38723404255	-19.4916083916
1484	0.742	-9.03673469388	16.9023255814	-1.38723404255	-25.1167832168
1485	0.7425	-4.78469387755	2.53023255814	0.0468085106383	-22.3041958042
1486	0.743	-7.6193877551	-8.96744186047	0.0468085106383	-19.4916083916
1487	0.7435	-3.36734693878	-6.09302325581	4.34893617021	-15.2727272727
1488	0.744	9.3887755102	-0.344186046512	2.91489361702	-18.0853146853
1489	0.7445	3.7193877551	-1.78139534884	5.7829787234	-18.0853146853
1490	0.745	33.4836734694	2.53023255814	2.91489361702	-20.8979020979
1491	0.7455	22.1448979592	1.09302325581	4.34893617021	-30.741958042
1492	0.746	7.97142857143	-0.344186046512	2.91489361702	-18.0853146853
1493	0.7465	10.806122449	-1.78139534884	2.91489361702	-13.8664335664
1494	0.747	17.8928571429	-1.78139534884	0.0468085106383	-19.4916083916
1495	0.7475	17.8928571429	-1.78139534884	-2.82127659574	-4.02237762238
1496	0.748	12.2234693878	-1.78139534884	0.0468085106383	-25.1167832168
1497	0.7485	10.806122449	-1.78139534884	-4.25531914894	-22.3041958042
1498	0.749	3.7193877551	-6.09302325581	-8.55744680851	-20.8979020979
1499	0.7495	2.30204081633	-3.21860465116	-7.12340425532	-23.7104895105
1500	0.75	3.7193877551	2.53023255814	-1.38723404255	-19.4916083916
1501	0.7505	-0.532653061224	-0.344186046512	1.48085106383	-25.1167832168
1502	0.751	-1.95	-10.4046511628	2.91489361702	-25.1167832168
1503	0.7515	-3.36734693878	-13.2790697674	0.0468085106383	-27.9293706294
1504	0.752	-4.78469387755	-10.4046511628	2.91489361702	-30.741958042
1505	0.7525	-0.532653061224	-4.65581395349	2.91489361702	-30.741958042
1506	0.753	-4.78469387755	-1.78139534884	5.7829787234	-29.3356643357
1507	0.7535	-16.1234693878	-1.78139534884	1.48085106383	-27.9293706294
1508	0.754	-11.8714285714	-3.21860465116	2.91489361702	-25.1167832168
1509	0.7545	7.97142857143	-3.21860465116	0.0468085106383	-23.7104895105
1510	0.755	-16.1234693878	-1.78139534884	-1.38723404255	-20.8979020979
1511	0.7555	-14.706122449	-1.78139534884	0.0468085106383	-33.5545454545
1512	0.756	-16.1234693878	-1.78139534884	-1.38723404255	-18.0853146853
1513	0.7565	-16.1234693878	-1.78139534884	-1.38723404255	-8.24125874126
1514	0.757	-18.9581632653	-1.78139534884	-4.25531914894	-18.0853146853
1515	0.7575	-21.7928571429	-3.21860465116	5.7829787234	-18.0853146853
1516	0.758	-17.5408163265	-1.78139534884	17.2553191489	-12.4601398601
1517	0.7585	-14.706122449	-1.78139534884	-1.38723404255	-11.0538461538
1518	0.759	-10.4540816327	5.40465116279	0.0468085106383	-11.0538461538
1519	0.7595	-6.20204081633	1.09302325581	0.0468085106383	-8.24125874126
1520	0.76	-4.78469387755	-6.09302325581	0.0468085106383	-9.64755244755
1521	0.7605	-1.95	-11.8418604651	1.48085106383	-12.4601398601
1522	0.761	5.13673469388	-1.78139534884	1.48085106383	-11.0538461538
1523	0.7615	16.4755102041	-1.78139534884	1.48085106383	-11.0538461538
1524	0.762	16.4755102041	-0.344186046512	0.0468085106383	-15.2727272727
1525	0.7625	9.3887755102	1.09302325581	-1.38723404255	-16.679020979
1526	0.763	5.13673469388	-1.78139534884	2.91489361702	-16.679020979
1527	0.7635	20.7275510204	1.09302325581	4.34893617021	-19.4916083916
1528	0.764	34.9010204082	-3.21860465116	1.48085106383	-20.8979020979
1529	0.7645	16.4755102041	-1.78139534884	2.91489361702	-16.679020979
1530	0.765	13.6408163265	-0.344186046512	-1.38723404255	-5.42867132867
1531	0.7655	13.6408163265	-4.65581395349	-1.38723404255	-2.61608391608
1532	0.766	12.2234693878	-0.344186046512	1.48085106383	-11.0538461538
1533	0.7665	9.3887755102	-3.21860465116	4.34893617021	-23.7104895105
1534	0.767	9.3887755102	-3.21860465116	0.0468085106383	-25.1167832168
1535	0.7675	5.13673469388	1.09302325581	0.0468085106383	-18.0853146853
1536	0.768	5.13673469388	-4.65581395349	-9.9914893617	-16.679020979
1537	0.7685	0.884693877551	-0.344186046512	0.0468085106383	-18.0853146853
1538	0.769	0.884693877551	-0.344186046512	0.0468085106383	-18.0853146853
1539	0.7695	0.884693877551	-8.96744186047	-1.38723404255	-16.679020979
1540	0.77	-0.532653061224	-4.65581395349	-12.8595744681	-12.4601398601
1541	0.7705	-1.95	2.53023255814	-1.38723404255	-9.64755244755
1542	0.771	-3.36734693878	-6.09302325581	-1.38723404255	-11.0538461538
1543	0.7715	-4.78469387755	-7.53023255814	2.91489361702	-15.2727272727
1544	0.772	-4.78469387755	-1.78139534884	4.34893617021	-15.2727272727
1545	0.7725	-20.3755102041	-3.21860465116	7.2170212766	-13.8664335664
1546	0.773	-11.8714285714	-4.65581395349	2.91489361702	-13.8664335664
1547	0.7735	0.884693877551	-3.21860465116	1.48085106383	-15.2727272727
1548	0.774	-16.1234693878	-3.21860465116	1.48085106383	-12.4601398601
1549	0.7745	-18.9581632653	-3.21860465116	2.91489361702	-11.0538461538
1550	0.775	-14.706122449	-3.21860465116	-1.38723404255	-8.24125874126
1551	0.7755	-10.4540816327	1.09302325581	1.48085106383	-15.2727272727
1552	0.776	-9.03673469388	1.09302325581	7.2170212766	-29.3356643357
1553	0.7765	-6.20204081633	-1.78139534884	7.2170212766	-30.741958042
1554	0.777	-0.532653061224	-0.344186046512	8.65106382979	-26.5230769231
1555	0.7775	3.7193877551	1.09302325581	-2.82127659574	-26.5230769231
1556	0.778	7.97142857143	-1.78139534884	-8.55744680851	-27.9293706294
1557	0.7785	12.2234693878	-1.78139534884	-4.25531914894	-26.5230769231
1558	0.779	19.3102040816	1.09302325581	1.48085106383	-22.3041958042
1559	0.7795	17.8928571429	1.09302325581	4.34893617021	-16.679020979
1560	0.78	16.4755102041	-4.65581395349	-1.38723404255	-15.2727272727
1561	0.7805	20.7275510204	-6.09302325581	-1.38723404255	-12.4601398601
1562	0.781	17.8928571429	-10.4046511628	0.0468085106383	-12.4601398601
1563	0.7815	15.0581632653	-3.21860465116	0.0468085106383	-11.0538461538
1564	0.782	-3.36734693878	-0.344186046512	0.0468085106383	-6.83496503497
1565	0.7825	2.30204081633	-1.78139534884	4.34893617021	-6.83496503497
1566	0.783	16.4755102041	-1.78139534884	2.91489361702	-6.83496503497
1567	0.7835	22.1448979592	-1.78139534884	2.91489361702	-12.4601398601
1568	0.784	7.97142857143	-3.21860465116	1.48085106383	-8.24125874126
1569	0.7845	-4.78469387755	-0.344186046512	1.48085106383	-4.02237762238
1570	0.785	-4.78469387755	-1.78139534884	0.0468085106383	-1.20979020979
1571	0.7855	-6.20204081633	-0.344186046512	0.0468085106383	-2.61608391608
1572	0.786	-3.36734693878	-0.344186046512	0.0468085106383	5.82167832168
1573	0.7865	-4.78469387755	1.09302325581	-2.82127659574	-11.0538461538
1574	0.787	-4.78469387755	-0.344186046512	11.5191489362	-16.679020979
1575	0.7875	-6.20204081633	-1.78139534884	14.3872340426	-15.2727272727
1576	0.788	-7.6193877551	-1.78139534884	-1.38723404255	-18.0853146853
1577	0.7885	-6.20204081633	-3.21860465116	-11.4255319149	-13.8664335664
1578	0.789	-10.4540816327	2.53023255814	-4.25531914894	-16.679020979
1579	0.7895	-16.1234693878	-8.96744186047	-2.82127659574	-22.3041958042
1580	0.79	-16.1234693878	6.84186046512	-2.82127659574	-20.8979020979
1581	0.7905	-16.1234693878	15.4651162791	-1.38723404255	-22.3041958042
1582	0.791	-16.1234693878	1.09302325581	0.0468085106383	-18.0853146853
1583	0.7915	-14.706122449	-10.4046511628	5.7829787234	-18.0853146853
1584	0.792	-4.78469387755	-0.344186046512	5.7829787234	-19.4916083916
1585	0.7925	13.6408163265	1.09302325581	0.0468085106383	-20.8979020979
1586	0.793	16.4755102041	-0.344186046512	0.0468085106383	-18.0853146853
1587	0.7935	0.884693877551	-1.78139534884	1.48085106383	-12.4601398601
1588	0.794	-3.36734693878	1.09302325581	5.7829787234	-13.8664335664
1589	0.7945	0.884693877551	1.09302325581	4.34893617021	-22.3041958042
1590	0.795	12.2234693878	-0.344186046512	7.2170212766	-25.1167832168
1591	0.7955	16.4755102041	-1.78139534884	7.2170212766	-22.3041958042
1592	0.796	16.4755102041	-4.65581395349	5.7829787234	-25.1167832168
1593	0.7965	16.4755102041	-1.78139534884	4.34893617021	-12.4601398601
1594	0.797	16.4755102041	-0.344186046512	12.9531914894	-13.8664335664
1595	0.7975	16.4755102041	-4.65581395349	14.3872340426	-11.0538461538
1596	0.798	9.3887755102	-4.65581395349	0.0468085106383	-6.83496503497
1597	0.7985	9.3887755102	-10.4046511628	2.91489361702	-6.83496503497
1598	0.799	5.13673469388	2.53023255814	1.48085106383	-5.42867132867
1599	0.7995	9.3887755102	16.9023255814	-1.38723404255	-2.61608391608
1600	0.8	5.13673469388	8.27906976744	-4.25531914894	-2.61608391608
1601	0.8005	-0.532653061224	-6.09302325581	-2.82127659574	-6.83496503497
1602	0.801	0.884693877551	-6.09302325581	-1.38723404255	-6.83496503497
1603	0.8015	-7.6193877551	-1.78139534884	-2.82127659574	-9.64755244755
1604	0.802	-10.4540816327	-1.78139534884	0.0468085106383	-11.0538461538
1605	0.8025	9.3887755102	-0.344186046512	0.0468085106383	-13.8664335664
1606	0.803	20.7275510204	-1.78139534884	-1.38723404255	-15.2727272727
1607	0.8035	12.2234693878	-1.78139534884	1.48085106383	-15.2727272727
1608	0.804	-0.532653061224	-0.344186046512	-1.38723404255	0.196503496503
1609	0.8045	-3.36734693878	-1.78139534884	1.48085106383	-8.24125874126
1610	0.805	-6.20204081633	-3.21860465116	7.2170212766	-20.8979020979
1611	0.8055	-11.8714285714	-0.344186046512	1.48085106383	-23.7104895105
1612	0.806	-17.5408163265	-1.78139534884	-8.55744680851	-19.4916083916
1613	0.8065	-20.3755102041	-1.78139534884	-8.55744680851	-18.0853146853
1614	0.807	-21.7928571429	-1.78139534884	-4.25531914894	-12.4601398601
1615	0.8075	-18.9581632653	2.53023255814	5.7829787234	-12.4601398601
1616	0.808	-20.3755102041	-3.21860465116	2.91489361702	-12.4601398601
1617	0.8085	-16.1234693878	-6.09302325581	5.7829787234	-13.8664335664
1618	0.809	-11.8714285714	-13.2790697674	4.34893617021	-11.0538461538
1619	0.8095	-6.20204081633	-3.21860465116	2.91489361702	-15.2727272727
1620	0.81	-1.95	-1.78139534884	5.7829787234	-19.4916083916
1621	0.8105	0.884693877551	2.53023255814	2.91489361702	-20.8979020979
1622	0.811	-4.78469387755	-0.344186046512	0.0468085106383	-23.7104895105
1623	0.8115	-0.532653061224	-0.344186046512	1.48085106383	-25.1167832168
1624	0.812	15.0581632653	-1.78139534884	5.7829787234	-23.7104895105
1625	0.8125	16.4755102041	1.09302325581	4.34893617021	-27.9293706294
1626	0.813	15.0581632653	1.09302325581	-2.82127659574	-13.8664335664
1627	0.8135	13.6408163265	1.09302325581	-4.25531914894	-6.83496503497
1628	0.814	19.3102040816	-0.344186046512	-1.38723404255	-2.61608391608
1629	0.8145	17.8928571429	1.09302325581	2.91489361702	-2.61608391608
1630	0.815	12.2234693878	1.09302325581	2.91489361702	-11.0538461538
1631	0.8155	10.806122449	1.09302325581	5.7829787234	-9.64755244755
1632	0.816	5.13673469388	-3.21860465116	-8.55744680851	-13.8664335664
1633	0.8165	7.97142857143	-1.78139534884	-7.12340425532	-18.0853146853
1634	0.817	5.13673469388	1.09302325581	-2.82127659574	-16.679020979
1635	0.8175	3.7193877551	3.96744186047	0.0468085106383	-20.8979020979
1636	0.818	-0.532653061224	-6.09302325581	2.91489361702	-23.7104895105
1637	0.8185	-1.95	-7.53023255814	0.0468085106383	-20.8979020979
1638	0.819	-3.36734693878	-8.96744186047	2.91489361702	-20.8979020979
1639	0.8195	-1.95	-4.65581395349	4.34893617021	-18.0853146853
1640	0.82	-3.36734693878	-0.344186046512	4.34893617021	-22.3041958042
1641	0.8205	-10.4540816327	-3.21860465116	0.0468085106383	-26.5230769231
1642	0.821	-17.5408163265	-4.65581395349	-2.82127659574	-25.1167832168
1643	0.8215	-11.8714285714	-0.344186046512	-1.38723404255	-29.3356643357
1644	0.822	-10.4540816327	-0.344186046512	1.48085106383	-26.5230769231
1645	0.8225	-16.1234693878	-3.21860465116	0.0468085106383	-9.64755244755
1646	0.823	-18.9581632653	-0.344186046512	0.0468085106383	-1.20979020979
1647	0.8235	-18.9581632653	1.09302325581	4.34893617021	-12.4601398601
1648	0.824	-21.7928571429	1.09302325581	7.2170212766	-22.3041958042
1649	0.8245	-18.9581632653	2.53023255814	1.48085106383	-11.0538461538
1650	0.825	-16.1234693878	1.09302325581	-8.55744680851	-12.4601398601
1651	0.8255	-13.2887755102	1.09302325581	14.3872340426	-23.7104895105
1652	0.826	-9.03673469388	-1.78139534884	-1.38723404255	-20.8979020979
1653	0.8265	-4.78469387755	1.09302325581	-1.38723404255	-19.4916083916
1654	0.827	-1.95	-8.96744186047	-1.38723404255	-19.4916083916
1655	0.8275	6.55408163265	-10.4046511628	2.91489361702	-20.8979020979
1656	0.828	12.2234693878	-4.65581395349	1.48085106383	-20.8979020979
1657	0.8285	22.1448979592	1.09302325581	0.0468085106383	-22.3041958042
1658	0.829	12.2234693878	-0.344186046512	-4.25531914894	-22.3041958042
1659	0.8295	3.7193877551	-3.21860465116	-1.38723404255	-22.3041958042
1660	0.83	10.806122449	-0.344186046512	0.0468085106383	-20.8979020979
1661	0.8305	17.8928571429	-3.21860465116	4.34893617021	-20.8979020979
1662	0.831	10.806122449	1.09302325581	2.91489361702	-18.0853146853
1663	0.8315	10.806122449	-1.78139534884	-2.82127659574	-26.5230769231
1664	0.832	17.8928571429	-1.78139534884	-4.25531914894	-16.679020979
1665	0.8325	10.806122449	-0.344186046512	-1.38723404255	1.6027972028
1666	0.833	10.806122449	-0.344186046512	1.48085106383	-11.0538461538
1667	0.8335	7.97142857143	-1.78139534884	-2.82127659574	-2.61608391608
1668	0.834	3.7193877551	-1.78139534884	-11.4255319149	0.196503496503
1669	0.8345	3.7193877551	-3.21860465116	0.0468085106383	5.82167832168
1670	0.835	-0.532653061224	-4.65581395349	-12.8595744681	4.41538461538
1671	0.8355	0.884693877551	5.40465116279	0.0468085106383	1.6027972028
1672	0.836	2.30204081633	15.4651162791	-1.38723404255	1.6027972028
1673	0.8365	-3.36734693878	11.1534883721	4.34893617021	1.6027972028
1674	0.837	-6.20204081633	-3.21860465116	5.7829787234	-2.61608391608
1675	0.8375	-7.6193877551	-11.8418604651	4.34893617021	-2.61608391608
1676	0.838	-7.6193877551	-1.78139534884	1.48085106383	-4.02237762238
1677	0.8385	6.55408163265	-3.21860465116	1.48085106383	-6.83496503497
1678	0.839	5.13673469388	-1.78139534884	2.91489361702	-8.24125874126
1679	0.8395	-11.8714285714	-1.78139534884	4.34893617021	-5.42867132867
1680	0.84	-27.462244898	-3.21860465116	0.0468085106383	-6.83496503497
1681	0.8405	-30.2969387755	-3.21860465116	2.91489361702	-8.24125874126
1682	0.841	-26.0448979592	-1.78139534884	4.34893617021	-12.4601398601
1683	0.8415	-18.9581632653	-1.78139534884	2.91489361702	-11.0538461538
1684	0.842	-14.706122449	-0.344186046512	-4.25531914894	-6.83496503497
1685	0.8425	-10.4540816327	-0.344186046512	-9.9914893617	-6.83496503497
1686	0.843	-6.20204081633	-1.78139534884	2.91489361702	-9.64755244755
1687	0.8435	-4.78469387755	2.53023255814	1.48085106383	-13.8664335664
1688	0.844	-3.36734693878	-1.78139534884	7.2170212766	-11.0538461538
1689	0.8445	0.884693877551	-8.96744186047	5.7829787234	-12.4601398601
1690	0.845	10.806122449	-11.8418604651	4.34893617021	-11.0538461538
1691	0.8455	13.6408163265	-6.09302325581	2.91489361702	-11.0538461538
1692	0.846	12.2234693878	5.40465116279	4.34893617021	-6.83496503497
1693	0.8465	12.2234693878	-8.96744186047	4.34893617021	-6.83496503497
1694	0.847	16.4755102041	-4.65581395349	5.7829787234	-8.24125874126
1695	0.8475	5.13673469388	1.09302325581	0.0468085106383	-9.64755244755
1696	0.848	0.884693877551	-3.21860465116	0.0468085106383	-5.42867132867
1697	0.8485	19.3102040816	-0.344186046512	-2.82127659574	-6.83496503497
1698	0.849	-1.95	-0.344186046512	-2.82127659574	0.196503496503
1699	0.8495	0.884693877551	-0.344186046512	-4.25531914894	5.82167832168
1700	0.85	2.30204081633	-0.344186046512	-1.38723404255	8.63426573427
1701	0.8505	-1.95	-0.344186046512	2.91489361702	28.3223776224
1702	0.851	-4.78469387755	-1.78139534884	8.65106382979	19.8846153846
1703	0.8515	-3.36734693878	-0.344186046512	2.91489361702	3.00909090909
1704	0.852	-7.6193877551	1.09302325581	-8.55744680851	1.6027972028
1705	0.8525	-6.20204081633	-1.78139534884	-7.12340425532	-2.61608391608
1706	0.853	-6.20204081633	-0.344186046512	-9.9914893617	-1.20979020979
1707	0.8535	-4.78469387755	-4.65581395349	-17.1617021277	-5.42867132867
1708	0.854	-7.6193877551	-4.65581395349	-11.4255319149	-2.61608391608
1709	0.8545	-7.6193877551	-8.96744186047	-7.12340425532	-4.02237762238
1710	0.855	-7.6193877551	-11.8418604651	-4.25531914894	-4.02237762238
1711	0.8555	-9.03673469388	-10.4046511628	-2.82127659574	-2.61608391608
1712	0.856	-11.8714285714	-6.09302325581	-2.82127659574	-4.02237762238
1713	0.8565	-14.706122449	-3.21860465116	-2.82127659574	-2.61608391608
1714	0.857	-16.1234693878	-1.78139534884	-1.38723404255	-2.61608391608
1715	0.8575	-16.1234693878	-3.21860465116	-2.82127659574	1.6027972028
1716	0.858	-1.95	-3.21860465116	4.34893617021	7.22797202797
1717	0.8585	-0.532653061224	-1.78139534884	4.34893617021	12.8531468531
1718	0.859	-10.4540816327	-3.21860465116	2.91489361702	24.1034965035
1719	0.8595	-7.6193877551	-0.344186046512	0.0468085106383	24.1034965035
1720	0.86	-3.36734693878	-1.78139534884	4.34893617021	17.072027972
1721	0.8605	0.884693877551	-1.78139534884	7.2170212766	8.63426573427
1722	0.861	3.7193877551	-3.21860465116	5.7829787234	17.072027972
1723	0.8615	10.806122449	-0.344186046512	12.9531914894	18.4783216783
1724	0.862	17.8928571429	-1.78139534884	4.34893617021	10.0405594406
1725	0.8625	17.8928571429	-1.78139534884	4.34893617021	8.63426573427
1726	0.863	15.0581632653	-3.21860465116	-4.25531914894	15.6657342657
1727	0.8635	13.6408163265	-0.344186046512	-1.38723404255	12.8531468531
1728	0.864	16.4755102041	1.09302325581	-7.12340425532	1.6027972028
1729	0.8645	16.4755102041	-0.344186046512	-2.82127659574	10.0405594406
1730	0.865	13.6408163265	1.09302325581	-4.25531914894	18.4783216783
1731	0.8655	7.97142857143	-8.96744186047	-4.25531914894	17.072027972
1732	0.866	3.7193877551	-7.53023255814	-7.12340425532	12.8531468531
1733	0.8665	10.806122449	-6.09302325581	-2.82127659574	8.63426573427
1734	0.867	9.3887755102	-3.21860465116	-1.38723404255	15.6657342657
1735	0.8675	-0.532653061224	-3.21860465116	-1.38723404255	15.6657342657
1736	0.868	-4.78469387755	-0.344186046512	-1.38723404255	17.072027972
1737	0.8685	-11.8714285714	-1.78139534884	-1.38723404255	14.2594405594
1738	0.869	-9.03673469388	-0.344186046512	-2.82127659574	8.63426573427
1739	0.8695	-4.78469387755	-0.344186046512	-4.25531914894	11.4468531469
1740	0.87	-6.20204081633	-4.65581395349	-2.82127659574	21.2909090909
1741	0.8705	-9.03673469388	-0.344186046512	-11.4255319149	21.2909090909
1742	0.871	-6.20204081633	-3.21860465116	-5.68936170213	19.8846153846
1743	0.8715	-9.03673469388	-0.344186046512	5.7829787234	12.8531468531
1744	0.872	-11.8714285714	-1.78139534884	11.5191489362	8.63426573427
1745	0.8725	-17.5408163265	-1.78139534884	2.91489361702	5.82167832168
1746	0.873	-20.3755102041	-4.65581395349	-8.55744680851	1.6027972028
