Time,1,2,3,4
0.000000,953.313439,305.231720,1169.307795,1017.509131
0.000500,951.909548,306.635611,1167.903898,1020.316926
0.001000,951.909548,301.020045,1170.711693,1016.105233
0.001500,956.121222,294.000588,1174.923385,1016.105233
0.002000,950.505656,295.404480,1167.903898,1024.528619
0.002500,968.756245,306.635611,1169.307795,1024.528619
0.003000,957.525113,313.655068,1167.903898,1020.316926
0.003500,960.332896,306.635611,1179.135078,1018.913029
0.004000,961.736788,298.212263,1167.903898,1017.509131
0.004500,967.352353,294.000588,1167.903898,1010.489643
0.005000,970.160136,285.577240,1165.096102,1017.509131
0.005500,972.967919,270.134434,1165.096102,1009.085746
0.006000,971.564027,270.134434,1162.288307,1011.893541
0.006500,977.179593,278.557783,1163.692205,1011.893541
0.007000,975.775702,292.596697,1165.096102,1011.893541
0.007500,967.352353,317.866742,1163.692205,1011.893541
0.008000,977.179593,333.309548,1162.288307,1010.489643
0.008500,984.199050,340.329005,1163.692205,1027.336414
0.009000,987.006833,324.886199,1167.903898,1006.277951
0.009500,991.218507,282.769457,1160.884410,1011.893541
0.010000,995.430181,284.173348,1167.903898,1013.297438
0.010500,999.641856,288.385023,1167.903898,1016.105233
0.011000,1008.065204,308.039502,1169.307795,1013.297438
0.011500,1006.661313,302.423937,1166.500000,1017.509131
0.012000,1010.872987,281.365566,1169.307795,1004.874053
0.012500,1015.084661,270.134434,1177.731180,1014.701336
0.013000,1015.084661,295.404480,1165.096102,1014.701336
0.013500,1020.700227,329.097874,1166.500000,1011.893541
0.014000,1017.892444,315.058959,1166.500000,1010.489643
0.014500,1029.123575,295.404480,1166.500000,1010.489643
0.015000,1019.296335,284.173348,1170.711693,1031.548106
0.015500,1027.719684,285.577240,1170.711693,1013.297438
0.016000,1031.931358,315.058959,1172.115590,1016.105233
0.016500,1030.527467,322.078416,1162.288307,1013.297438
0.017000,1033.335249,316.462851,1169.307795,1013.297438
0.017500,1033.335249,286.981131,1167.903898,1017.509131
0.018000,1030.527467,323.482308,1170.711693,1017.509131
0.018500,1030.527467,340.329005,1170.711693,1020.316926
0.019000,1040.354706,329.097874,1172.115590,1021.720824
0.019500,1044.566381,312.251177,1166.500000,1016.105233
0.020000,1045.970272,305.231720,1169.307795,1016.105233
0.020500,1048.778055,308.039502,1177.731180,1016.105233
0.021000,1062.816969,289.788914,1173.519488,1016.105233
0.021500,1085.279232,303.827828,1172.115590,1016.105233
0.022000,1068.432535,308.039502,1177.731180,1013.297438
0.022500,1064.220860,309.443394,1174.923385,1004.874053
0.023000,1057.201403,306.635611,1163.692205,1010.489643
0.023500,1045.970272,306.635611,1167.903898,1011.893541
0.024000,1036.143032,296.808371,1163.692205,1011.893541
0.024500,1027.719684,313.655068,1167.903898,1010.489643
0.025000,1006.661313,294.000588,1166.500000,1016.105233
0.025500,1013.680770,295.404480,1166.500000,1014.701336
0.026000,1006.661313,296.808371,1170.711693,1009.085746
0.026500,1003.853530,301.020045,1166.500000,1013.297438
0.027000,1003.853530,302.423937,1172.115590,1017.509131
0.027500,1008.065204,292.596697,1172.115590,1018.913029
0.028000,1016.488553,292.596697,1172.115590,1016.105233
0.028500,1033.335249,315.058959,1173.519488,1016.105233
0.029000,1023.508010,327.693982,1173.519488,1020.316926
0.029500,1038.950815,322.078416,1173.519488,1010.489643
0.030000,1041.758598,308.039502,1174.923385,1016.105233
0.030500,1043.162489,292.596697,1173.519488,1016.105233
0.031000,1040.354706,312.251177,1173.519488,1014.701336
0.031500,1034.739141,294.000588,1172.115590,1013.297438
0.032000,1017.892444,292.596697,1169.307795,1013.297438
0.032500,1022.104118,291.192805,1172.115590,1025.932516
0.033000,1010.872987,298.212263,1160.884410,1010.489643
0.033500,1005.257421,308.039502,1163.692205,1011.893541
0.034000,-1242.372723,1846.704486,-4449.090146,-9131.266160
0.034500,-859.110369,6159.458892,-2652.101299,-9131.266160
0.035000,-3734.279973,768.515884,-3730.294607,12432.600000
0.035500,-499.714168,1846.704486,-3730.294607,11354.406692
0.036000,2734.851636,2117.655528,-3370.896838,12432.600000
0.036500,-859.110369,3284.289288,-5527.283454,11713.804461
0.037000,-1577.902770,4003.081689,-5167.885685,11354.406692
0.037500,-1577.902770,4721.874090,-2292.703530,11713.804461
0.038000,-4093.676174,4003.081689,-2652.101299,12073.202231
0.038500,-5890.657176,6159.458892,-3370.896838,-9490.663929
0.039000,-5890.657176,7237.647494,-4089.692377,-5896.686236
0.039500,-3015.487572,7237.647494,-3730.294607,-9131.266160
0.040000,-1937.298970,9753.420897,-855.112453,-8053.072852
0.040500,-1577.902770,9394.024697,-3370.896838,-8053.072852
0.041000,-1577.902770,7237.647494,-3011.499069,-8053.072852
0.041500,-859.110369,11191.005699,-2652.101299,-8412.470621
0.042000,-1937.298970,-11091.558733,-3011.499069,-8771.868391
0.042500,-1218.506569,11550.401900,-2652.101299,12432.600000
0.043000,-1577.902770,-11091.558733,-1933.305761,-9131.266160
0.043500,-1218.506569,-11091.558733,223.080855,-8053.072852
0.044000,-1218.506569,10831.609499,-1933.305761,-7693.675083
0.044500,-1577.902770,-10372.766332,-2652.101299,-7693.675083
0.045000,-1577.902770,-10013.370131,-2652.101299,-8053.072852
0.045500,-3734.279973,-9653.973931,-2652.101299,-6256.084005
0.046000,-1577.902770,-9294.577730,-2292.703530,-9131.266160
0.046500,-1937.298970,-9653.973931,-1933.305761,-8771.868391
0.047000,-1937.298970,-9653.973931,-5167.885685,-8053.072852
0.047500,-1937.298970,-8216.389129,-3370.896838,-9131.266160
0.048000,-1218.506569,-6060.011925,-2292.703530,-8771.868391
0.048500,-499.714168,-8575.785329,-1933.305761,-8771.868391
0.049000,-1577.902770,-7856.992928,-1933.305761,-7693.675083
0.049500,-2656.091371,-7138.200527,-1933.305761,-10209.459468
0.050000,-140.317968,-7138.200527,1660.671933,-7422.722858
0.050500,578.474433,-7138.200527,-2652.101299,-7693.675083
0.051000,-499.714168,-7497.596728,-1214.510222,-8053.072852
0.051500,-1577.902770,-7856.992928,-1573.907991,-9490.663929
0.052000,-3374.883773,-7497.596728,-2292.703530,12073.202231
0.052500,-1937.298970,-7497.596728,-1573.907991,-5896.686236
0.053000,-2296.695171,-7856.992928,-1573.907991,-9490.663929
0.053500,-3374.883773,-8935.181530,-2652.101299,-10209.459468
0.054000,-3734.279973,-8935.181530,582.478625,-9131.266160
0.054500,-1937.298970,11550.401900,-2652.101299,-8053.072852
0.055000,-1937.298970,-9294.577730,-2292.703530,-8412.470621
0.055500,-1577.902770,-8575.785329,-1933.305761,-8771.868391
0.056000,-3015.487572,-8575.785329,-2292.703530,-8771.868391
0.056500,-859.110369,-8216.389129,-3370.896838,-7334.277313
0.057000,578.474433,-8216.389129,131.827516,11893.503346
0.057500,-4361.819433,-6239.710026,-227.570254,10455.912269
0.058000,-408.461227,-5880.313825,131.827516,11893.503346
0.058500,1747.915976,-5968.758984,-4180.945716,11534.105577
0.059000,-49.065026,-5520.917625,-2024.559100,11893.503346
0.059500,-1486.649828,-5520.917625,-946.365792,11893.503346
0.060000,-2564.838430,-6239.710026,-1305.763562,11893.503346
0.060500,-4721.215633,-6239.710026,-2024.559100,12252.901115
0.061000,-2564.838430,-6958.502427,-2383.956870,10096.514499
0.061500,-2564.838430,-6239.710026,-4180.945716,11893.503346
0.062000,-1846.046029,-5880.313825,-5259.139024,11893.503346
0.062500,-2205.442229,-4083.332823,-2743.354639,11534.105577
0.063000,-1846.046029,-7677.294828,-2383.956870,11893.503346
0.063500,2107.312177,-6687.551385,-3102.752408,11174.707807
0.064000,-3643.027031,-5520.917625,-1305.763562,-10029.760583
0.064500,-2564.838430,-6239.710026,-2024.559100,11174.707807
0.065000,-2205.442229,-6239.710026,-3462.150178,11893.503346
0.065500,-1846.046029,-5161.521424,-4180.945716,11893.503346
0.066000,-1486.649828,-2645.748021,-2743.354639,11174.707807
0.066500,-408.461227,-6599.106226,-2383.956870,11174.707807
0.067000,3904.293179,-5968.758984,-2743.354639,9737.116730
0.067500,1388.519776,-6328.155184,-2383.956870,6861.934575
0.068000,669.727375,-5880.313825,-2383.956870,11893.503346
0.068500,-1846.046029,-4442.729023,-6337.332332,9018.321191
0.069000,-3283.630831,-4802.125224,-6337.332332,8299.525653
0.069500,-3643.027031,-4083.332823,-3821.547947,7940.127883
0.070000,-4361.819433,-5161.521424,-4180.945716,8299.525653
0.070500,-7955.781438,-4802.125224,-4180.945716,9018.321191
0.071000,-6518.196636,-5880.313825,-3821.547947,10815.310038
0.071500,-3643.027031,-5161.521424,-5259.139024,6143.139037
0.072000,-3643.027031,-5161.521424,131.827516,8658.923422
0.072500,-1127.253628,-3723.936622,-227.570254,9737.116730
0.073000,2107.312177,-4171.777981,-3462.150178,9737.116730
0.073500,669.727375,-4083.332823,-2383.956870,9737.116730
0.074000,-767.857427,-3723.936622,-1305.763562,9377.718961
0.074500,-1846.046029,-3723.936622,-2743.354639,10096.514499
0.075000,2826.104578,-4890.570382,-2743.354639,8658.923422
0.075500,1747.915976,-5249.966583,-3102.752408,9737.116730
0.076000,-3283.630831,-4442.729023,-2024.559100,9737.116730
0.076500,-4721.215633,-2286.351820,-3462.150178,9737.116730
0.077000,-3643.027031,-5161.521424,-3102.752408,9737.116730
0.077500,2466.708377,302.423937,1327.948217,1054.010467
0.078000,918.216154,302.423937,1329.352114,1075.068930
0.078500,919.620045,301.020045,1320.928729,1055.414365
0.079000,921.023937,305.231720,1326.544319,1027.336414
0.079500,922.427828,308.039502,1323.736524,1010.489643
0.080000,921.023937,313.655068,1330.756012,1002.066258
0.080500,916.812263,301.020045,1332.159909,1002.066258
0.081000,912.600588,308.039502,1333.563807,1007.681848
0.081500,918.216154,308.039502,1333.563807,1017.509131
0.082000,925.235611,310.847285,1327.948217,1009.085746
0.082500,925.235611,308.039502,1351.814475,1002.066258
0.083000,926.639502,309.443394,1330.756012,1000.662361
0.083500,928.043394,310.847285,1329.352114,1014.701336
0.084000,916.812263,309.443394,1327.948217,1021.720824
0.084500,922.427828,305.231720,1327.948217,1028.740311
0.085000,936.466742,301.020045,1325.140422,1004.874053
0.085500,923.831720,301.020045,1327.948217,1009.085746
0.086000,923.831720,303.827828,1325.140422,1011.893541
0.086500,922.427828,306.635611,1318.120934,1025.932516
0.087000,928.043394,298.212263,1327.948217,1028.740311
0.087500,923.831720,322.078416,1327.948217,1027.336414
0.088000,944.890091,305.231720,1329.352114,1014.701336
0.088500,926.639502,309.443394,1332.159909,1021.720824
0.089000,923.831720,308.039502,1330.756012,1025.932516
0.089500,919.620045,308.039502,1319.524831,1010.489643
0.090000,918.216154,306.635611,1330.756012,1004.874053
0.090500,916.812263,319.270634,1327.948217,997.854566
0.091000,916.812263,312.251177,1327.948217,982.411693
0.091500,919.620045,298.212263,1327.948217,988.027283
0.092000,923.831720,303.827828,1326.544319,1032.952004
0.092500,922.427828,303.827828,1322.332627,1039.971492
0.093000,922.427828,302.423937,1336.371602,1042.779287
0.093500,921.023937,302.423937,1316.717036,1044.183184
0.094000,918.216154,302.423937,1320.928729,1039.971492
0.094500,921.023937,292.596697,1322.332627,1025.932516
0.095000,937.870634,301.020045,1320.928729,1003.470156
0.095500,922.427828,302.423937,1322.332627,1021.720824
0.096000,921.023937,303.827828,1319.524831,1025.932516
0.096500,922.427828,305.231720,1315.313139,1016.105233
0.097000,922.427828,303.827828,1323.736524,1025.932516
0.097500,925.235611,296.808371,1323.736524,1020.316926
0.098000,916.812263,302.423937,1320.928729,1020.316926
0.098500,922.427828,298.212263,1319.524831,1004.874053
0.099000,925.235611,306.635611,1318.120934,1013.297438
0.099500,922.427828,303.827828,1320.928729,1027.336414
0.100000,922.427828,306.635611,1309.697549,1030.144209
0.100500,922.427828,302.423937,1313.909241,1027.336414
0.101000,919.620045,308.039502,1313.909241,1016.105233
0.101500,923.831720,315.058959,1312.505344,1011.893541
0.102000,925.235611,301.020045,1309.697549,1004.874053
0.102500,925.235611,298.212263,1311.101446,1031.548106
0.103000,922.427828,302.423937,1308.293651,1013.297438
0.103500,923.831720,303.827828,1305.485856,1020.316926
0.104000,925.235611,302.423937,1311.101446,1027.336414
0.104500,922.427828,319.270634,1312.505344,1027.336414
0.105000,919.620045,301.020045,1313.909241,1027.336414
0.105500,942.082308,306.635611,1311.101446,1017.509131
0.106000,926.639502,306.635611,1316.717036,1016.105233
0.106500,925.235611,306.635611,1318.120934,1014.701336
0.107000,921.023937,306.635611,1308.293651,1018.913029
0.107500,921.023937,305.231720,1309.697549,1017.509131
0.108000,921.023937,298.212263,1312.505344,1017.509131
0.108500,922.427828,322.078416,1311.101446,1018.913029
0.109000,936.466742,305.231720,1309.697549,1006.277951
0.109500,919.620045,302.423937,1309.697549,1000.662361
0.110000,919.620045,302.423937,1306.889754,983.815590
0.110500,919.620045,303.827828,1323.736524,1006.277951
0.111000,915.408371,295.404480,1301.274164,1024.528619
0.111500,914.004480,301.020045,1304.081959,1014.701336
0.112000,916.812263,291.192805,1304.081959,1004.874053
0.112500,909.792805,305.231720,1304.081959,997.854566
0.113000,915.408371,308.039502,1304.081959,1017.509131
0.113500,916.812263,309.443394,1301.274164,1011.893541
0.114000,915.408371,308.039502,1290.042983,1004.874053
0.114500,916.812263,310.847285,1297.062471,995.046770
0.115000,915.408371,313.655068,1301.274164,1017.509131
0.115500,918.216154,317.866742,1299.870266,1049.798774
0.116000,932.255068,305.231720,1299.870266,1039.971492
0.116500,929.447285,308.039502,1299.870266,1027.336414
0.117000,916.812263,308.039502,1301.274164,1010.489643
0.117500,915.408371,306.635611,1295.658573,1000.662361
0.118000,914.004480,303.827828,1292.850778,1013.297438
0.118500,911.196697,298.212263,1294.254676,1020.316926
0.119000,905.581131,306.635611,1292.850778,1016.105233
0.119500,926.639502,305.231720,1291.446881,1016.105233
0.120000,918.216154,303.827828,1290.042983,1018.913029
0.120500,921.023937,303.827828,1283.023496,1002.066258
0.121000,919.620045,306.635611,1281.619598,1002.066258
0.121500,919.620045,306.635611,1285.831291,1009.085746
0.122000,921.023937,309.443394,1291.446881,1025.932516
0.122500,915.408371,305.231720,1291.446881,1025.932516
0.123000,904.177240,305.231720,1288.639086,1011.893541
0.123500,914.004480,308.039502,1285.831291,1002.066258
0.124000,909.792805,308.039502,1283.023496,1032.952004
0.124500,916.812263,308.039502,1268.984520,1054.010467
0.125000,916.812263,309.443394,1285.831291,1056.818262
0.125500,914.004480,299.616154,1277.407905,1054.010467
0.126000,912.600588,299.616154,1277.407905,1049.798774
0.126500,916.812263,302.423937,1273.196213,1030.144209
0.127000,933.658959,301.020045,1271.792315,1010.489643
0.127500,918.216154,302.423937,1276.004008,1021.720824
0.128000,919.620045,302.423937,1270.388418,1018.913029
0.128500,918.216154,302.423937,1290.042983,1028.740311
0.129000,918.216154,303.827828,1266.176725,1017.509131
0.129500,916.812263,317.866742,1270.388418,1018.913029
0.130000,932.255068,308.039502,1270.388418,1031.548106
0.130500,933.658959,308.039502,1268.984520,1025.932516
0.131000,919.620045,308.039502,1267.580623,1035.759799
0.131500,916.812263,305.231720,1261.965032,1025.932516
0.132000,918.216154,305.231720,1283.023496,1021.720824
0.132500,918.216154,305.231720,1261.965032,1018.913029
0.133000,918.216154,309.443394,1263.368930,1020.316926
0.133500,919.620045,302.423937,1261.965032,1018.913029
0.134000,908.388914,303.827828,1260.561135,1013.297438
0.134500,915.408371,302.423937,1260.561135,1021.720824
0.135000,916.812263,306.635611,1263.368930,1028.740311
0.135500,918.216154,306.635611,1268.984520,1031.548106
0.136000,918.216154,305.231720,1256.349442,1030.144209
0.136500,919.620045,308.039502,1254.945545,1030.144209
0.137000,926.639502,305.231720,1252.137750,1028.740311
0.137500,911.196697,306.635611,1250.733852,1025.932516
0.138000,909.792805,305.231720,1250.733852,1024.528619
0.138500,918.216154,306.635611,1239.502672,1025.932516
0.139000,921.023937,303.827828,1256.349442,1025.932516
0.139500,922.427828,303.827828,1246.522160,1027.336414
0.140000,925.235611,319.270634,1245.118262,1032.952004
0.140500,926.639502,305.231720,1243.714365,1020.316926
0.141000,925.235611,303.827828,1246.522160,1038.567594
0.141500,922.427828,301.020045,1242.310467,1014.701336
0.142000,922.427828,302.423937,1254.945545,1024.528619
0.142500,921.023937,291.192805,1233.887082,1025.932516
0.143000,921.023937,294.000588,1233.887082,1027.336414
0.143500,923.831720,315.058959,1233.887082,1027.336414
0.144000,937.870634,302.423937,1231.079287,1017.509131
0.144500,925.235611,301.020045,1232.483184,1032.952004
0.145000,925.235611,298.212263,1228.271492,1021.720824
0.145500,923.831720,303.827828,1218.444209,1023.124721
0.146000,928.043394,292.596697,1219.848106,1020.316926
0.146500,925.235611,306.635611,1222.655901,1020.316926
0.147000,926.639502,316.462851,1218.444209,1020.316926
0.147500,936.466742,303.827828,1217.040311,-4728.643486
0.148000,-2206.846121,-1298.012269,-4270.795159,-5447.439024
0.148500,-1847.449920,-2735.597071,-3192.601851,-415.870254
0.149000,-1847.449920,-2735.597071,2557.762459,-3379.497953
0.149500,-2566.242321,-5251.370474,-1755.010773,-3650.450178
0.150000,-1847.449920,-2016.804670,-1395.613004,-2931.654639
0.150500,-2566.242321,139.572533,-1395.613004,-2572.256870
0.151000,-4722.619524,3733.534539,-1843.456318,-2931.654639
0.151500,-5082.015725,4092.930739,-1484.058549,-2212.859100
0.152000,-3285.034722,139.572533,760.773612,-2931.654639
0.152500,-2925.638522,-2735.597071,-2114.408543,-2212.859100
0.153000,-3285.034722,-1657.408469,-2114.408543,-2572.256870
0.153500,-3644.430923,-219.823667,-1755.010773,-2931.654639
0.154000,-2925.638522,2655.345937,-1843.456318,-2931.654639
0.154500,-5441.411925,1936.553536,-1843.456318,-2572.256870
0.155000,-4722.619524,-219.823667,-1036.215235,-1494.063562
0.155500,-5082.015725,-579.219868,-1755.010773,-6166.234563
0.156000,-5082.015725,-938.616068,-3192.601851,-5088.041255
0.156500,-5082.015725,-219.823667,-1755.010773,-4728.643486
0.157000,-5441.411925,-938.616068,-1395.613004,-3291.052408
0.157500,-5800.808126,498.968734,-1843.456318,-3291.052408
0.158000,-409.865118,1217.761135,-2202.854088,-2931.654639
0.158500,-4722.619524,1577.157335,-3999.842934,-2212.859100
0.159000,-5082.015725,1577.157335,-1484.058549,-2572.256870
0.159500,-5441.411925,858.364934,-2921.649626,-2212.859100
0.160000,-5800.808126,-219.823667,-2833.204081,-2931.654639
0.160500,-4722.619524,-2016.804670,-2833.204081,-2931.654639
0.161000,-6878.996728,-3454.389472,-2473.806312,-2212.859100
0.161500,-7597.789129,-4891.974274,-3192.601851,-1134.665792
0.162000,-5800.808126,-6329.559076,-3192.601851,-1494.063562
0.162500,-5441.411925,-5970.162875,-4270.795159,-2572.256870
0.163000,-6160.204327,-3454.389472,-5708.386236,-2931.654639
0.163500,-6878.996728,5889.911742,-3999.842934,-2931.654639
0.164000,-7597.789129,3014.742138,-4359.240704,-3291.052408
0.164500,-5441.411925,6249.307942,-3999.842934,-2572.256870
0.165000,-9394.770131,8046.288945,-3640.445165,-1134.665792
0.165500,-7597.789129,6608.704143,-3999.842934,-3291.052408
0.166000,-6519.600527,3374.138338,-2921.649626,-1134.665792
0.166500,-7597.789129,1577.157335,-3281.047396,-775.268023
0.167000,-7597.789129,-2735.597071,-3551.999620,-1134.665792
0.167500,-6519.600527,-5610.766675,-3911.397389,-2212.859100
0.168000,-7238.392928,-7767.143878,-3911.397389,-1494.063562
0.168500,-9754.166332,858.364934,-4359.240704,-1494.063562
0.169000,-7957.185329,315.058959,1180.538975,988.027283
0.169500,929.447285,302.423937,1186.154566,983.815590
0.170000,932.255068,298.212263,1187.558463,982.411693
0.170500,925.235611,299.616154,1194.577951,972.584410
0.171000,928.043394,298.212263,1193.174053,993.642873
0.171500,930.851177,301.020045,1188.962361,983.815590
0.172000,930.851177,292.596697,1183.346770,983.815590
0.172500,932.255068,286.981131,1186.154566,985.219488
0.173000,936.466742,294.000588,1188.962361,985.219488
0.173500,926.639502,296.808371,1191.770156,988.027283
0.174000,928.043394,295.404480,1191.770156,996.450668
0.174500,923.831720,295.404480,1188.962361,981.007795
0.175000,928.043394,292.596697,1179.135078,982.411693
0.175500,932.255068,291.192805,1198.789643,981.007795
0.176000,933.658959,305.231720,1180.538975,979.603898
0.176500,916.812263,291.192805,1183.346770,978.200000
0.177000,944.890091,291.192805,1183.346770,979.603898
0.177500,946.293982,289.788914,1187.558463,971.180512
0.178000,944.890091,294.000588,1188.962361,982.411693
0.178500,936.466742,292.596697,1186.154566,982.411693
0.179000,926.639502,284.173348,1194.577951,983.815590
0.179500,916.812263,303.827828,1194.577951,983.815590
0.180000,916.812263,294.000588,1191.770156,983.815590
0.180500,894.350000,292.596697,1193.174053,983.815590
0.181000,874.695520,292.596697,1188.962361,978.200000
0.181500,883.118869,291.192805,1188.962361,969.776615
0.182000,928.043394,289.788914,1208.616926,979.603898
0.182500,982.795159,289.788914,1204.405233,978.200000
0.183000,979.987376,284.173348,1198.789643,976.796102
0.183500,958.929005,292.596697,1193.174053,976.796102
0.184000,958.929005,295.404480,1190.366258,975.392205
0.184500,953.313439,289.788914,1188.962361,992.238975
0.185000,947.697874,289.788914,1187.558463,971.180512
0.185500,935.062851,291.192805,1187.558463,972.584410
0.186000,925.235611,284.173348,1183.346770,972.584410
0.186500,921.023937,279.961674,1191.770156,972.584410
0.187000,929.447285,291.192805,1194.577951,973.988307
0.187500,926.639502,294.000588,1193.174053,971.180512
0.188000,926.639502,291.192805,1191.770156,962.757127
0.188500,921.023937,292.596697,1193.174053,976.796102
0.189000,915.408371,295.404480,1190.366258,978.200000
0.189500,914.004480,296.808371,1204.405233,978.200000
0.190000,915.408371,299.616154,1188.962361,978.200000
0.190500,914.004480,298.212263,1187.558463,979.603898
0.191000,928.043394,299.616154,1187.558463,979.603898
0.191500,909.792805,296.808371,1191.770156,964.161025
0.192000,909.792805,295.404480,1190.366258,976.796102
0.192500,928.043394,292.596697,1181.942873,976.796102
0.193000,940.678416,282.769457,1188.962361,978.200000
0.193500,929.447285,286.981131,1191.770156,978.200000
0.194000,916.812263,285.577240,1188.962361,975.392205
0.194500,933.658959,285.577240,1193.174053,968.372717
0.195000,921.023937,291.192805,1193.174053,992.238975
0.195500,921.023937,295.404480,1197.385746,971.180512
0.196000,922.427828,296.808371,1211.424721,978.200000
0.196500,922.427828,295.404480,1187.558463,979.603898
0.197000,916.812263,295.404480,1186.154566,978.200000
0.197500,916.812263,303.827828,1188.962361,979.603898
0.198000,916.812263,296.808371,1194.577951,979.603898
0.198500,928.043394,294.000588,1193.174053,988.027283
0.199000,935.062851,292.596697,1194.577951,969.776615
0.199500,937.870634,294.000588,1201.597438,976.796102
0.200000,936.466742,308.039502,1197.385746,976.796102
0.200500,928.043394,289.788914,1195.981848,973.988307
0.201000,933.658959,286.981131,1197.385746,972.584410
0.201500,929.447285,294.000588,1197.385746,965.564922
0.202000,936.466742,296.808371,1194.577951,986.623385
0.202500,933.658959,292.596697,1186.154566,976.796102
0.203000,928.043394,292.596697,1191.770156,975.392205
0.203500,936.466742,288.385023,1184.750668,975.392205
0.204000,949.101765,281.365566,1195.981848,972.584410
0.204500,932.255068,291.192805,1198.789643,973.988307
0.205000,942.082308,292.596697,1197.385746,976.796102
0.205500,916.812263,289.788914,1198.789643,988.027283
0.206000,930.851177,292.596697,1193.174053,968.372717
0.206500,921.023937,286.981131,1207.213029,975.392205
0.207000,912.600588,281.365566,1186.154566,975.392205
0.207500,909.792805,281.365566,1191.770156,976.796102
0.208000,916.812263,289.788914,1191.770156,979.603898
0.208500,944.890091,288.385023,1188.962361,979.603898
0.209000,922.427828,285.577240,1190.366258,993.642873
0.209500,922.427828,286.981131,1188.962361,971.180512
0.210000,922.427828,286.981131,1207.213029,978.200000
0.210500,923.831720,291.192805,1195.981848,983.815590
0.211000,932.255068,279.961674,1193.174053,986.623385
0.211500,936.466742,288.385023,1195.981848,988.027283
0.212000,933.658959,288.385023,1203.001336,976.796102
0.212500,933.658959,291.192805,1204.405233,986.623385
0.213000,929.447285,289.788914,1205.809131,976.796102
0.213500,930.851177,289.788914,1203.001336,989.431180
0.214000,928.043394,295.404480,1195.981848,988.027283
0.214500,925.235611,288.385023,1190.366258,988.027283
0.215000,928.043394,285.577240,1190.366258,986.623385
0.215500,918.216154,284.173348,1188.962361,992.238975
0.216000,928.043394,285.577240,1188.962361,986.623385
0.216500,923.831720,284.173348,1191.770156,976.796102
0.217000,916.812263,282.769457,1201.597438,983.815590
0.217500,915.408371,291.192805,1183.346770,985.219488
0.218000,916.812263,279.961674,1190.366258,985.219488
0.218500,916.812263,285.577240,1193.174053,986.623385
0.219000,937.870634,286.981131,1197.385746,973.988307
0.219500,923.831720,286.981131,1195.981848,989.431180
0.220000,921.023937,289.788914,1198.789643,975.392205
0.220500,922.427828,292.596697,1201.597438,985.219488
0.221000,923.831720,303.827828,1201.597438,986.623385
0.221500,921.023937,299.616154,1200.193541,988.027283
0.222000,904.177240,289.788914,1201.597438,983.815590
0.222500,905.581131,286.981131,1200.193541,989.431180
0.223000,922.427828,286.981131,1194.577951,988.027283
0.223500,930.851177,289.788914,1193.174053,986.623385
0.224000,949.101765,294.000588,1184.750668,986.623385
0.224500,970.160136,289.788914,1191.770156,988.027283
0.225000,967.352353,310.847285,1193.174053,989.431180
0.225500,937.870634,292.596697,1195.981848,989.431180
0.226000,940.678416,294.000588,1194.577951,986.623385
0.226500,916.812263,292.596697,1197.385746,978.200000
0.227000,914.004480,294.000588,1198.789643,988.027283
0.227500,925.235611,294.000588,1187.558463,989.431180
0.228000,923.831720,282.769457,1194.577951,990.835078
0.228500,912.600588,278.557783,1200.193541,989.431180
0.229000,911.196697,286.981131,1197.385746,989.431180
0.229500,912.600588,291.192805,1198.789643,985.219488
0.230000,918.216154,294.000588,1197.385746,992.238975
0.230500,925.235611,289.788914,1198.789643,990.835078
0.231000,929.447285,292.596697,1194.577951,990.835078
0.231500,930.851177,302.423937,1200.193541,993.642873
0.232000,911.196697,292.596697,1201.597438,989.431180
0.232500,925.235611,302.423937,1200.193541,992.238975
0.233000,950.505656,286.981131,1203.001336,989.431180
0.233500,957.525113,286.981131,1200.193541,-7898.644123
0.234000,2555.153536,-8125.136187,-3462.150178,-7873.373967
0.234500,5070.926940,-8843.928588,-4540.343486,-8951.567275
0.235000,39.380132,-9114.879630,-4540.343486,-10029.760583
0.235500,-320.016068,-8755.483429,-6696.730102,-8232.771737
0.236000,398.776333,-7677.294828,-3102.752408,-8592.169506
0.236500,398.776333,-10193.068231,-586.968023,-8232.771737
0.237000,-1038.808469,-9474.275830,-3102.752408,-7873.373967
0.237500,-7507.940078,-9114.879630,-2383.956870,-7873.373967
0.238000,-6429.751477,-9114.879630,-1305.763562,-7154.578429
0.238500,-2116.997071,-8036.691028,2288.214132,-10118.206128
0.239000,-3195.185672,-7677.294828,3007.009670,-8680.615051
0.239500,-2116.997071,-6239.710026,2288.214132,-7602.421743
0.240000,-1398.204670,-4802.125224,3366.407440,-7602.421743
0.240500,1836.361135,-8484.532388,3366.407440,-7602.421743
0.241000,4352.134539,-6328.155184,1928.816362,-7961.819512
0.241500,2555.153536,-5609.362783,2647.611901,-9758.808359
0.242000,1476.964934,-6687.551385,3725.805209,-10118.206128
0.242500,-320.016068,-5520.917625,4444.600748,-7961.819512
0.243000,-1398.204670,-5880.313825,-946.365792,-7873.373967
0.243500,-1398.204670,-8755.483429,-3102.752408,-8232.771737
0.244000,-1757.600870,-6958.502427,-4180.945716,-7873.373967
0.244500,-1757.600870,-6958.502427,-5977.934563,-7873.373967
0.245000,-6429.751477,-7677.294828,-7056.127871,-7513.976198
0.245500,398.776333,-7677.294828,-7056.127871,-8592.169506
0.246000,5430.323140,-9562.720989,-7056.127871,-8951.567275
0.246500,5070.926940,-9922.117190,-4540.343486,-8232.771737
0.247000,3633.342138,-5249.966583,-4899.741255,-8951.567275
0.247500,2555.153536,-9203.324789,-5618.536794,-8232.771737
0.248000,2555.153536,-8125.136187,-5977.934563,-8232.771737
0.248500,2195.757335,-7765.739987,-5259.139024,11893.503346
0.249000,1836.361135,-8484.532388,-4180.945716,-9670.362814
0.249500,758.172533,-7677.294828,-2024.559100,-8232.771737
0.250000,-320.016068,-8396.087229,-5259.139024,-8232.771737
0.250500,-679.412269,-10193.068231,-3821.547947,-8592.169506
0.251000,-320.016068,-10193.068231,-3102.752408,-7873.373967
0.251500,2195.757335,-7406.343786,-3462.150178,-8951.567275
0.252000,-1038.808469,-8036.691028,-3462.150178,-6076.385121
0.252500,916.812263,279.961674,1203.001336,986.623385
0.253000,916.812263,278.557783,1205.809131,988.027283
0.253500,936.466742,285.577240,1205.809131,986.623385
0.254000,914.004480,288.385023,1205.809131,978.200000
0.254500,926.639502,289.788914,1203.001336,988.027283
0.255000,922.427828,289.788914,1198.789643,989.431180
0.255500,922.427828,291.192805,1191.770156,989.431180
0.256000,921.023937,294.000588,1203.001336,992.238975
0.256500,918.216154,295.404480,1201.597438,995.046770
0.257000,921.023937,291.192805,1200.193541,997.854566
0.257500,928.043394,289.788914,1198.789643,993.642873
0.258000,918.216154,292.596697,1204.405233,983.815590
0.258500,916.812263,288.385023,1203.001336,989.431180
0.259000,914.004480,286.981131,1224.059799,988.027283
0.259500,915.408371,284.173348,1201.597438,985.219488
0.260000,912.600588,303.827828,1193.174053,988.027283
0.260500,906.985023,284.173348,1191.770156,988.027283
0.261000,928.043394,289.788914,1191.770156,986.623385
0.261500,932.255068,289.788914,1187.558463,993.642873
0.262000,918.216154,289.788914,1201.597438,993.642873
0.262500,922.427828,289.788914,1235.290979,992.238975
0.263000,922.427828,291.192805,1260.561135,986.623385
0.263500,922.427828,309.443394,1242.310467,988.027283
0.264000,916.812263,292.596697,1221.252004,985.219488
0.264500,922.427828,291.192805,1210.020824,979.603898
0.265000,916.812263,292.596697,1204.405233,978.200000
0.265500,922.427828,294.000588,1217.040311,989.431180
0.266000,928.043394,294.000588,1197.385746,989.431180
0.266500,926.639502,295.404480,1197.385746,988.027283
0.267000,922.427828,292.596697,1207.213029,983.815590
0.267500,926.639502,294.000588,1208.616926,981.007795
0.268000,918.216154,292.596697,1212.828619,1000.662361
0.268500,916.812263,295.404480,1212.828619,992.238975
0.269000,912.600588,295.404480,1210.020824,985.219488
0.269500,916.812263,295.404480,1188.962361,986.623385
0.270000,918.216154,288.385023,1194.577951,985.219488
0.270500,921.023937,298.212263,1214.232516,985.219488
0.271000,928.043394,302.423937,1225.463697,983.815590
0.271500,928.043394,305.231720,1222.655901,1002.066258
0.272000,925.235611,303.827828,1205.809131,999.258463
0.272500,925.235611,308.039502,1210.020824,985.219488
0.273000,923.831720,303.827828,1225.463697,986.623385
0.273500,926.639502,295.404480,1224.059799,986.623385
0.274000,922.427828,303.827828,1217.040311,986.623385
0.274500,914.004480,302.423937,1215.636414,978.200000
0.275000,918.216154,301.020045,1208.616926,990.835078
0.275500,916.812263,299.616154,1208.616926,985.219488
0.276000,916.812263,296.808371,1201.597438,986.623385
0.276500,915.408371,299.616154,1212.828619,989.431180
0.277000,915.408371,295.404480,1214.232516,988.027283
0.277500,919.620045,298.212263,1215.636414,988.027283
0.278000,909.792805,296.808371,1215.636414,1002.066258
0.278500,915.408371,296.808371,1180.538975,1006.277951
0.279000,928.043394,315.058959,1181.942873,1003.470156
0.279500,929.447285,315.058959,1173.519488,999.258463
0.280000,930.851177,319.270634,1181.942873,999.258463
0.280500,932.255068,309.443394,1184.750668,997.854566
0.281000,936.466742,324.886199,1187.558463,1000.662361
0.281500,946.293982,317.866742,1187.558463,1000.662361
0.282000,932.255068,322.078416,1188.962361,1003.470156
0.282500,943.486199,319.270634,1193.174053,1006.277951
0.283000,944.890091,323.482308,1193.174053,1010.489643
0.283500,949.101765,322.078416,1188.962361,1011.893541
0.284000,950.505656,315.058959,1194.577951,1006.277951
0.284500,940.678416,320.674525,1193.174053,1004.874053
0.285000,965.948462,316.462851,1191.770156,1006.277951
0.285500,949.101765,317.866742,1183.346770,1009.085746
0.286000,947.697874,317.866742,1193.174053,1003.470156
0.286500,950.505656,317.866742,1200.193541,1002.066258
0.287000,951.909548,309.443394,1187.558463,999.258463
0.287500,953.313439,316.462851,1186.154566,996.450668
0.288000,947.697874,319.270634,1183.346770,1007.681848
0.288500,953.313439,323.482308,1186.154566,997.854566
0.289000,956.121222,323.482308,1180.538975,1007.681848
0.289500,956.121222,322.078416,1174.923385,1009.085746
0.290000,958.929005,310.847285,1181.942873,1009.085746
0.290500,961.736788,322.078416,1181.942873,1009.085746
0.291000,953.313439,313.655068,1179.135078,1009.085746
0.291500,972.967919,324.886199,1179.135078,1006.277951
0.292000,958.929005,324.886199,1177.731180,1017.509131
0.292500,960.332896,331.905656,1186.154566,1006.277951
0.293000,961.736788,329.097874,1174.923385,1007.681848
0.293500,963.140679,343.136788,1177.731180,1010.489643
0.294000,968.756245,326.290091,1176.327283,1010.489643
0.294500,954.717331,326.290091,1177.731180,1004.874053
0.295000,963.140679,323.482308,1173.519488,996.450668
0.295500,961.736788,319.270634,1165.096102,1004.874053
0.296000,965.948462,315.058959,1170.711693,1004.874053
0.296500,965.948462,324.886199,1177.731180,1004.874053
0.297000,967.352353,317.866742,1172.115590,1006.277951
0.297500,965.948462,329.097874,1173.519488,1006.277951
0.298000,984.199050,333.309548,1173.519488,996.450668
0.298500,965.948462,333.309548,1170.711693,1003.470156
0.299000,965.948462,336.117331,1166.500000,1004.874053
0.299500,970.160136,334.713439,1183.346770,1009.085746
0.300000,972.967919,324.886199,1173.519488,1007.681848
0.300500,975.775702,351.560136,1173.519488,1009.085746
0.301000,965.948462,330.501765,1172.115590,1013.297438
0.301500,988.410724,330.501765,1174.923385,1011.893541
0.302000,977.179593,324.886199,1172.115590,1006.277951
0.302500,977.179593,326.290091,1167.903898,1003.470156
0.303000,977.179593,329.097874,1173.519488,1009.085746
0.303500,979.987376,317.866742,1174.923385,1009.085746
0.304000,982.795159,323.482308,1174.923385,1010.489643
0.304500,975.775702,333.309548,1174.923385,1011.893541
0.305000,972.967919,337.521222,1173.519488,1011.893541
0.305500,978.583484,333.309548,1173.519488,1003.470156
0.306000,981.391267,334.713439,1166.500000,1016.105233
0.306500,978.583484,336.117331,1174.923385,1018.913029
0.307000,978.583484,336.117331,1174.923385,1024.528619
0.307500,978.583484,326.290091,1174.923385,1025.932516
0.308000,992.622399,336.117331,1174.923385,1021.720824
0.308500,984.199050,337.521222,1174.923385,1017.509131
0.309000,975.775702,341.732896,1177.731180,1017.509131
0.309500,975.775702,343.136788,1181.942873,1027.336414
0.310000,972.967919,337.521222,1173.519488,1028.740311
0.310500,972.967919,352.964027,1167.903898,1028.740311
0.311000,967.352353,330.501765,1170.711693,1027.336414
0.311500,963.140679,329.097874,1170.711693,1020.316926
0.312000,984.199050,323.482308,1169.307795,1009.085746
0.312500,968.756245,324.886199,1163.692205,1016.105233
0.313000,970.160136,317.866742,1172.115590,1009.085746
0.313500,967.352353,317.866742,1167.903898,997.854566
0.314000,968.756245,316.462851,1167.903898,989.431180
0.314500,974.371810,316.462851,1167.903898,982.411693
0.315000,961.736788,313.655068,1170.711693,983.815590
0.315500,964.544570,313.655068,1172.115590,981.007795
0.316000,972.967919,312.251177,1167.903898,1004.874053
0.316500,975.775702,313.655068,1172.115590,993.642873
0.317000,974.371810,313.655068,1177.731180,995.046770
0.317500,972.967919,322.078416,1170.711693,997.854566
0.318000,970.160136,308.039502,1169.307795,1000.662361
0.318500,972.967919,310.847285,1167.903898,1000.662361
0.319000,964.544570,313.655068,1170.711693,1009.085746
0.319500,964.544570,313.655068,1170.711693,1011.893541
0.320000,960.332896,316.462851,1181.942873,996.450668
0.320500,954.717331,317.866742,1160.884410,995.046770
0.321000,950.505656,329.097874,1165.096102,996.450668
0.321500,944.890091,310.847285,1165.096102,1000.662361
0.322000,940.678416,303.827828,1165.096102,995.046770
0.322500,970.160136,309.443394,1165.096102,996.450668
0.323000,956.121222,308.039502,1160.884410,997.854566
0.323500,958.929005,308.039502,1166.500000,995.046770
0.324000,961.736788,303.827828,1162.288307,1004.874053
0.324500,961.736788,312.251177,1163.692205,1006.277951
0.325000,961.736788,296.808371,1163.692205,1004.874053
0.325500,965.948462,306.635611,1166.500000,1003.470156
0.326000,960.332896,305.231720,1165.096102,1003.470156
0.326500,961.736788,302.423937,1165.096102,996.450668
0.327000,958.929005,306.635611,1181.942873,1004.874053
0.327500,956.121222,306.635611,1169.307795,1004.874053
0.328000,958.929005,306.635611,1169.307795,1006.277951
0.328500,961.736788,299.616154,1167.903898,1004.874053
0.329000,961.736788,305.231720,1167.903898,1002.066258
0.329500,972.967919,305.231720,1166.500000,996.450668
0.330000,958.929005,306.635611,1160.884410,1016.105233
0.330500,958.929005,305.231720,1170.711693,1000.662361
0.331000,960.332896,308.039502,1174.923385,1004.874053
0.331500,960.332896,309.443394,1167.903898,1004.874053
0.332000,958.929005,305.231720,1165.096102,1006.277951
0.332500,950.505656,309.443394,1165.096102,1007.681848
0.333000,953.313439,306.635611,1169.307795,1016.105233
0.333500,967.352353,306.635611,1172.115590,999.258463
0.334000,968.756245,305.231720,1160.884410,1004.874053
0.334500,970.160136,309.443394,1160.884410,1004.874053
0.335000,971.564027,317.866742,1162.288307,1004.874053
0.335500,972.967919,313.655068,1155.268820,1004.874053
0.336000,963.140679,305.231720,1152.461025,1006.277951
0.336500,960.332896,303.827828,1148.249332,1002.066258
0.337000,967.352353,302.423937,1145.441537,989.431180
0.337500,968.756245,303.827828,1137.018152,997.854566
0.338000,968.756245,306.635611,1145.441537,999.258463
0.338500,968.756245,305.231720,1145.441537,1000.662361
0.339000,970.160136,295.404480,1146.845434,1000.662361
0.339500,984.199050,301.020045,1149.653230,1009.085746
0.340000,963.140679,302.423937,1148.249332,1010.489643
0.340500,970.160136,301.020045,1148.249332,1000.662361
0.341000,970.160136,303.827828,1138.422049,1009.085746
0.341500,972.967919,303.827828,1148.249332,1009.085746
0.342000,977.179593,306.635611,1145.441537,1006.277951
0.342500,977.179593,295.404480,1149.653230,1006.277951
0.343000,992.622399,303.827828,1149.653230,996.450668
0.343500,972.967919,306.635611,1149.653230,1003.470156
0.344000,970.160136,306.635611,1151.057127,997.854566
0.344500,971.564027,303.827828,1144.037639,1004.874053
0.345000,968.756245,305.231720,1149.653230,1006.277951
0.345500,968.756245,305.231720,1146.845434,1004.874053
0.346000,965.948462,294.000588,1149.653230,1004.874053
0.346500,981.391267,303.827828,1149.653230,1004.874053
0.347000,961.736788,303.827828,1149.653230,1004.874053
0.347500,965.948462,305.231720,1149.653230,1000.662361
0.348000,970.160136,305.231720,1139.825947,1007.681848
0.348500,972.967919,309.443394,1149.653230,1006.277951
0.349000,972.967919,302.423937,1148.249332,1007.681848
0.349500,974.371810,308.039502,1148.249332,1003.470156
0.350000,995.430181,302.423937,1149.653230,996.450668
0.350500,977.179593,302.423937,1144.037639,1007.681848
0.351000,975.775702,299.616154,1149.653230,1016.105233
0.351500,974.371810,298.212263,1163.692205,10620.168280
0.352000,-3734.279973,-6060.011925,-4808.487915,7760.428999
0.352500,-4453.072374,-5700.615725,2379.467472,6953.187915
0.353000,-4453.072374,-6419.408126,223.080855,7760.428999
0.353500,-4093.676174,-5341.219524,-1573.907991,8119.826768
0.354000,-5531.260976,-6778.804327,-1573.907991,8119.826768
0.354500,-5890.657176,-7856.992928,-1214.510222,8838.622307
0.355000,-859.110369,-7497.596728,-1573.907991,-9490.663929
0.355500,-2656.091371,-7856.992928,-5167.885685,9198.020076
0.356000,-3015.487572,-6419.408126,-855.112453,9916.815615
0.356500,-3015.487572,-6778.804327,-2652.101299,9198.020076
0.357000,-1577.902770,-7856.992928,-1933.305761,10276.213384
0.357500,-3734.279973,-7856.992928,-2292.703530,9916.815615
0.358000,-140.317968,-6419.408126,-1573.907991,7401.031229
0.358500,-4453.072374,-6778.804327,-1573.907991,9198.020076
0.359000,-4812.468575,-7497.596728,-3011.499069,10995.008923
0.359500,-3734.279973,-7138.200527,-2652.101299,10995.008923
0.360000,-4093.676174,-6060.011925,-3370.896838,10276.213384
0.360500,-4453.072374,-2825.446121,-1573.907991,10276.213384
0.361000,-4453.072374,-8575.785329,-1933.305761,11354.406692
0.361500,-1937.298970,-8575.785329,-1573.907991,9198.020076
0.362000,-4093.676174,-7497.596728,-1573.907991,9557.417845
0.362500,-4453.072374,-7138.200527,-136.316914,12432.600000
0.363000,-3374.883773,-6419.408126,-3011.499069,12432.600000
0.363500,-3015.487572,-6419.408126,-855.112453,12432.600000
0.364000,-3015.487572,-6060.011925,-136.316914,12432.600000
0.364500,-2656.091371,-9294.577730,-855.112453,12073.202231
0.365000,-4093.676174,-9653.973931,-1573.907991,10276.213384
0.365500,-2296.695171,-8575.785329,-136.316914,-10209.459468
0.366000,-3015.487572,-7497.596728,-1214.510222,-9850.061699
0.366500,-4093.676174,-7497.596728,-1573.907991,-10209.459468
0.367000,-4453.072374,-8216.389129,2020.069702,-9938.507244
0.367500,-4093.676174,-10372.766332,-855.112453,-9131.266160
0.368000,-499.714168,-9653.973931,-1214.510222,-9131.266160
0.368500,-4812.468575,-7856.992928,-855.112453,-8412.470621
0.369000,-5890.657176,-6778.804327,-1214.510222,12073.202231
0.369500,-4453.072374,-6778.804327,223.080855,-8771.868391
0.370000,-4093.676174,-7856.992928,-1214.510222,-9131.266160
0.370500,-4093.676174,10831.609499,-855.112453,-7693.675083
0.371000,-2296.695171,8315.836095,-855.112453,-9131.266160
0.371500,3094.247837,10743.164340,-495.714683,12432.600000
0.372000,-2296.695171,10472.213298,-136.316914,-6974.879544
0.372500,-1937.298970,11191.005699,-495.714683,-6256.084005
0.373000,-2656.091371,11550.401900,-2292.703530,-6615.481775
0.373500,-3374.883773,-9653.973931,-3011.499069,-6256.084005
0.374000,-3374.883773,-3903.634722,-495.714683,-5896.686236
0.374500,-4453.072374,-8935.181530,-136.316914,-4818.492928
0.375000,-3374.883773,-9653.973931,-855.112453,-4818.492928
0.375500,-3374.883773,-8575.785329,-495.714683,-6256.084005
0.376000,-4093.676174,-7497.596728,-855.112453,-5896.686236
0.376500,-4093.676174,-7856.992928,3098.263010,-5985.131781
0.377000,-3734.279973,-8216.389129,-1933.305761,-5537.288467
0.377500,-3374.883773,-8935.181530,-1573.907991,-4818.492928
0.378000,-2656.091371,-9653.973931,-1573.907991,-4818.492928
0.378500,-5171.864775,-10372.766332,-1214.510222,-6974.879544
0.379000,-3374.883773,-10732.162532,-495.714683,-7334.277313
0.379500,-3734.279973,-10372.766332,1301.274164,-4188.142934
0.380000,-2656.091371,-10013.370131,-4089.692377,-3380.901851
0.380500,-2656.091371,-10013.370131,-1573.907991,-3740.299620
0.381000,-3374.883773,9034.628496,-1573.907991,-4099.697389
0.381500,-3015.487572,-9294.577730,-855.112453,-3740.299620
0.382000,-5890.657176,-9294.577730,-855.112453,-6615.481775
0.382500,-6609.449577,-9653.973931,-136.316914,-5896.686236
0.383000,-5531.260976,11550.401900,2020.069702,-4547.540704
0.383500,-4812.468575,10831.609499,-3011.499069,-3740.299620
0.384000,-5171.864775,9394.024697,-1214.510222,-3380.901851
0.384500,-5890.657176,5440.666491,-1214.510222,-3021.504081
0.385000,-6250.053377,8315.836095,-1573.907991,-3021.504081
0.385500,-7687.638179,7956.439895,-2292.703530,-5537.288467
0.386000,-5890.657176,8315.836095,-2652.101299,-4099.697389
0.386500,-6250.053377,10472.213298,-4449.090146,-1943.310773
0.387000,-5171.864775,-10732.162532,582.478625,-2302.708543
0.387500,937.870634,302.423937,1218.444209,1010.489643
0.388000,928.043394,302.423937,1205.809131,1011.893541
0.388500,928.043394,309.443394,1208.616926,1011.893541
0.389000,926.639502,302.423937,1207.213029,1011.893541
0.389500,926.639502,316.462851,1204.405233,1011.893541
0.390000,928.043394,299.616154,1201.597438,1025.932516
0.390500,932.255068,299.616154,1201.597438,1004.874053
0.391000,930.851177,296.808371,1215.636414,1007.681848
0.391500,930.851177,291.192805,1194.577951,1010.489643
0.392000,929.447285,292.596697,1201.597438,1010.489643
0.392500,936.466742,282.769457,1205.809131,1011.893541
0.393000,923.831720,295.404480,1208.616926,1014.701336
0.393500,932.255068,296.808371,1215.636414,1020.316926
0.394000,937.870634,295.404480,1214.232516,1004.874053
0.394500,936.466742,298.212263,1207.213029,1011.893541
0.395000,939.274525,295.404480,1225.463697,1007.681848
0.395500,933.658959,298.212263,1205.809131,1009.085746
0.396000,926.639502,295.404480,1205.809131,1013.297438
0.396500,943.486199,291.192805,1208.616926,1011.893541
0.397000,929.447285,294.000588,1215.636414,1025.932516
0.397500,933.658959,291.192805,1212.828619,1025.932516
0.398000,936.466742,292.596697,1197.385746,1006.277951
0.398500,933.658959,292.596697,1198.789643,1007.681848
0.399000,935.062851,292.596697,1200.193541,1009.085746
0.399500,936.466742,308.039502,1197.385746,1009.085746
0.400000,942.082308,292.596697,1193.174053,1004.874053
0.400500,936.466742,294.000588,1187.558463,1003.470156
0.401000,940.678416,298.212263,1187.558463,1007.681848
0.401500,942.082308,299.616154,1190.366258,1011.893541
0.402000,942.082308,296.808371,1179.135078,1013.297438
0.402500,940.678416,285.577240,1173.519488,1011.893541
0.403000,942.082308,281.365566,1174.923385,1014.701336
0.403500,940.678416,288.385023,1184.750668,1020.316926
0.404000,942.082308,292.596697,1193.174053,1006.277951
0.404500,943.486199,296.808371,1198.789643,1002.066258
0.405000,944.890091,296.808371,1219.848106,1013.297438
0.405500,944.890091,286.981131,1200.193541,1016.105233
0.406000,943.486199,296.808371,1200.193541,1017.509131
0.406500,937.870634,288.385023,1197.385746,1013.297438
0.407000,933.658959,296.808371,1198.789643,1000.662361
0.407500,944.890091,295.404480,1204.405233,1011.893541
0.408000,943.486199,296.808371,1184.750668,1009.085746
0.408500,943.486199,295.404480,1197.385746,1011.893541
0.409000,946.293982,286.981131,1177.731180,1010.489643
0.409500,933.658959,292.596697,1173.519488,1013.297438
0.410000,946.293982,295.404480,1177.731180,1014.701336
0.410500,958.929005,289.788914,1183.346770,1006.277951
0.411000,947.697874,289.788914,1190.366258,1013.297438
0.411500,950.505656,284.173348,1170.711693,1011.893541
0.412000,950.505656,282.769457,1181.942873,1013.297438
0.412500,950.505656,272.942217,1176.327283,1014.701336
0.413000,953.313439,277.153891,1186.154566,1010.489643
0.413500,942.082308,288.385023,1197.385746,1016.105233
0.414000,949.101765,289.788914,1205.809131,1011.893541
0.414500,949.101765,289.788914,1207.213029,1020.316926
0.415000,947.697874,289.788914,1194.577951,1006.277951
0.415500,946.293982,292.596697,1200.193541,1006.277951
0.416000,946.293982,295.404480,1194.577951,1007.681848
0.416500,949.101765,285.577240,1191.770156,1010.489643
0.417000,943.486199,295.404480,1191.770156,1014.701336
0.417500,953.313439,298.212263,1190.366258,1018.913029
0.418000,954.717331,302.423937,1181.942873,1002.066258
0.418500,949.101765,299.616154,1188.962361,1010.489643
0.419000,950.505656,288.385023,1163.692205,1009.085746
0.419500,950.505656,303.827828,1159.480512,1007.681848
0.420000,951.909548,298.212263,1155.268820,1013.297438
0.420500,967.352353,298.212263,1151.057127,1010.489643
0.421000,947.697874,296.808371,1145.441537,1006.277951
0.421500,950.505656,295.404480,1138.422049,1010.489643
0.422000,951.909548,294.000588,1110.344099,1010.489643
0.422500,950.505656,291.192805,1103.324611,1009.085746
0.423000,950.505656,292.596697,1100.516816,1004.874053
0.423500,943.486199,292.596697,1097.709021,1007.681848
0.424000,936.466742,289.788914,1097.709021,1006.277951
0.424500,950.505656,288.385023,1104.728508,1010.489643
0.425000,953.313439,286.981131,1114.555791,1021.720824
0.425500,953.313439,286.981131,1113.151894,1006.277951
0.426000,956.121222,292.596697,1122.979176,1007.681848
0.426500,954.717331,298.212263,1122.979176,1006.277951
0.427000,957.525113,294.000588,1121.575279,1006.277951
0.427500,949.101765,299.616154,1121.575279,1006.277951
0.428000,956.121222,299.616154,1127.190869,996.450668
0.428500,953.313439,298.212263,1135.614254,1006.277951
0.429000,954.717331,295.404480,1141.229844,1007.681848
0.429500,953.313439,296.808371,1125.786971,1009.085746
0.430000,953.313439,299.616154,1124.383074,1009.085746
0.430500,967.352353,298.212263,1120.171381,1006.277951
0.431000,963.140679,294.000588,1117.363586,1006.277951
0.431500,956.121222,295.404480,1124.383074,1000.662361
0.432000,951.909548,295.404480,1131.402562,1009.085746
0.432500,957.525113,294.000588,1121.575279,1007.681848
0.433000,951.909548,298.212263,1107.536303,1006.277951
0.433500,950.505656,305.231720,1115.959689,1009.085746
0.434000,946.293982,292.596697,1121.575279,1011.893541
0.434500,970.160136,298.212263,1121.575279,1011.893541
0.435000,964.544570,298.212263,1117.363586,1017.509131
0.435500,954.717331,299.616154,1111.747996,1014.701336
0.436000,953.313439,301.020045,1100.516816,1011.893541
0.436500,953.313439,296.808371,1108.940201,1010.489643
0.437000,954.717331,295.404480,1104.728508,1013.297438
0.437500,954.717331,291.192805,1104.728508,1011.893541
0.438000,944.890091,298.212263,1108.940201,1016.105233
0.438500,950.505656,299.616154,1110.344099,1009.085746
0.439000,947.697874,298.212263,1103.324611,1009.085746
0.439500,954.717331,296.808371,1086.477840,1011.893541
0.440000,956.121222,294.000588,1107.536303,1010.489643
0.440500,957.525113,295.404480,1092.093431,1011.893541
0.441000,957.525113,296.808371,1085.073943,1009.085746
0.441500,977.179593,295.404480,1080.862250,1013.297438
0.442000,957.525113,296.808371,1085.073943,1014.701336
0.442500,960.332896,296.808371,1090.689533,1000.662361
0.443000,961.736788,295.404480,1121.575279,1010.489643
0.443500,960.332896,298.212263,1113.151894,1011.893541
0.444000,958.929005,298.212263,1131.402562,1011.893541
0.444500,960.332896,291.192805,1135.614254,1011.893541
0.445000,953.313439,301.020045,1129.998664,1013.297438
0.445500,961.736788,301.020045,1127.190869,1009.085746
0.446000,964.544570,302.423937,1129.998664,1002.066258
0.446500,964.544570,301.020045,1134.210357,1011.893541
0.447000,965.948462,301.020045,1127.190869,1010.489643
0.447500,963.140679,292.596697,1139.825947,1013.297438
0.448000,964.544570,295.404480,1142.633742,1010.489643
0.448500,953.313439,306.635611,1145.441537,1011.893541
0.449000,960.332896,298.212263,1142.633742,1002.066258
0.449500,958.929005,296.808371,1125.786971,1009.085746
0.450000,956.121222,298.212263,1117.363586,1006.277951
0.450500,954.717331,298.212263,1100.516816,1011.893541
0.451000,956.121222,301.020045,1114.555791,1014.701336
0.451500,958.929005,298.212263,1122.979176,1011.893541
0.452000,-932.112722,10112.817098,-1485.462446,6322.837921
0.452500,-2744.536530,10472.213298,-1844.860216,7401.031229
0.453000,-3822.725132,11191.005699,-407.269138,6682.235691
0.453500,-4182.121332,11191.005699,-4001.246832,5604.042383
0.454000,-3103.932731,-11091.558733,-2204.257985,5244.644613
0.454500,-4182.121332,9034.628496,-2923.053524,5244.644613
0.455000,-4541.517533,8315.836095,-1844.860216,5963.440152
0.455500,490.029274,9034.628496,-2923.053524,8119.826768
0.456000,-3103.932731,10112.817098,-2923.053524,5604.042383
0.456500,-3103.932731,9753.420897,-5438.837909,5604.042383
0.457000,-3103.932731,8675.232296,1030.321939,5604.042383
0.457500,-2385.140330,6159.458892,-3641.849062,5963.440152
0.458000,-2385.140330,-10013.370131,-2923.053524,5244.644613
0.458500,-4900.913733,-7138.200527,-4001.246832,4166.451305
0.459000,-5979.102335,-7497.596728,-3282.451293,4525.849075
0.459500,-588.159327,-9294.577730,-2923.053524,9198.020076
0.460000,-4541.517533,-11091.558733,-5079.440140,4885.246844
0.460500,-4541.517533,-10732.162532,-2204.257985,5604.042383
0.461000,-4900.913733,-11091.558733,-3641.849062,4525.849075
0.461500,-4900.913733,-6060.011925,-3641.849062,5244.644613
0.462000,-7416.687137,-10372.766332,-3282.451293,5604.042383
0.462500,-2025.744129,-10372.766332,-4001.246832,3088.257997
0.463000,-3463.328931,11550.401900,-1844.860216,4166.451305
0.463500,-3103.932731,11191.005699,-1485.462446,5604.042383
0.464000,-2385.140330,10112.817098,-1126.064677,5244.644613
0.464500,-2385.140330,8675.232296,670.924170,4885.246844
0.465000,-3103.932731,11550.401900,2467.913016,4796.801299
0.465500,-5979.102335,7597.043694,2108.515247,4078.005761
0.466000,-4182.121332,9394.024697,1749.117478,2999.812453
0.466500,-228.763127,-11091.558733,-407.269138,7041.633460
0.467000,-3822.725132,-9653.973931,-1485.462446,3447.655767
0.467500,-3103.932731,-10013.370131,4264.901863,3718.607991
0.468000,-2744.536530,9034.628496,-766.666908,4525.849075
0.468500,759.576425,309.443394,1221.252004,1010.489643
0.469000,833.982669,309.443394,1226.867594,1007.681848
0.469500,833.982669,299.616154,1224.059799,1006.277951
0.470000,838.194344,310.847285,1224.059799,1003.470156
0.470500,846.617692,302.423937,1222.655901,1006.277951
0.471000,869.079955,305.231720,1222.655901,993.642873
0.471500,846.617692,315.058959,1225.463697,1003.470156
0.472000,843.809909,324.886199,1224.059799,993.642873
0.472500,838.194344,324.886199,1215.636414,999.258463
0.473000,841.002126,315.058959,1226.867594,999.258463
0.473500,845.213801,309.443394,1225.463697,999.258463
0.474000,850.829366,329.097874,1222.655901,999.258463
0.474500,843.809909,313.655068,1221.252004,1000.662361
0.475000,873.291629,315.058959,1224.059799,990.835078
0.475500,863.464389,310.847285,1222.655901,1003.470156
0.476000,870.483846,312.251177,1221.252004,1027.336414
0.476500,866.272172,309.443394,1222.655901,1013.297438
0.477000,859.252715,309.443394,1226.867594,1011.893541
0.477500,857.848823,330.501765,1221.252004,1009.085746
0.478000,859.252715,319.270634,1221.252004,1009.085746
0.478500,862.060498,319.270634,1221.252004,1000.662361
0.479000,866.272172,317.866742,1219.848106,996.450668
0.479500,864.868280,316.462851,1210.020824,1006.277951
0.480000,866.272172,316.462851,1222.655901,1002.066258
0.480500,867.676063,317.866742,1221.252004,1000.662361
0.481000,863.464389,324.886199,1222.655901,997.854566
0.481500,857.848823,315.058959,1221.252004,995.046770
0.482000,843.809909,316.462851,1222.655901,995.046770
0.482500,866.272172,317.866742,1222.655901,997.854566
0.483000,859.252715,317.866742,1221.252004,996.450668
0.483500,870.483846,316.462851,1214.232516,990.835078
0.484000,881.714977,315.058959,1214.232516,995.046770
0.484500,887.330543,316.462851,1224.059799,969.776615
0.485000,921.023937,331.905656,1200.193541,969.776615
0.485500,919.620045,329.097874,1194.577951,966.968820
0.486000,923.831720,330.501765,1191.770156,955.737639
0.486500,926.639502,327.693982,1194.577951,965.564922
0.487000,926.639502,329.097874,1188.962361,975.392205
0.487500,928.043394,319.270634,1187.558463,978.200000
0.488000,933.658959,315.058959,1186.154566,978.200000
0.488500,940.678416,324.886199,1184.750668,982.411693
0.489000,932.255068,326.290091,1184.750668,988.027283
0.489500,943.486199,326.290091,1186.154566,982.411693
0.490000,940.678416,330.501765,1188.962361,976.796102
0.490500,937.870634,334.713439,1177.731180,983.815590
0.491000,936.466742,331.905656,1201.597438,983.815590
0.491500,937.870634,336.117331,1184.750668,978.200000
0.492000,939.274525,330.501765,1187.558463,978.200000
0.492500,950.505656,334.713439,1183.346770,978.200000
0.493000,942.082308,334.713439,1183.346770,969.776615
0.493500,940.678416,333.309548,1186.154566,990.835078
0.494000,937.870634,331.905656,1184.750668,978.200000
0.494500,937.870634,330.501765,1181.942873,976.796102
0.495000,943.486199,341.732896,1180.538975,966.968820
0.495500,940.678416,317.866742,1181.942873,962.757127
0.496000,925.235611,324.886199,1181.942873,962.757127
0.496500,926.639502,329.097874,1184.750668,966.968820
0.497000,922.427828,329.097874,1186.154566,979.603898
0.497500,923.831720,329.097874,1187.558463,968.372717
0.498000,925.235611,329.097874,1181.942873,971.180512
0.498500,928.043394,334.713439,1190.366258,975.392205
0.499000,929.447285,344.540679,1187.558463,983.815590
0.499500,919.620045,330.501765,1187.558463,990.835078
0.500000,928.043394,330.501765,1186.154566,992.238975
0.500500,940.678416,330.501765,1187.558463,1007.681848
0.501000,944.890091,327.693982,1183.346770,988.027283
0.501500,944.890091,329.097874,1177.731180,982.411693
0.502000,940.678416,344.540679,1188.962361,978.200000
0.502500,933.658959,324.886199,1190.366258,978.200000
0.503000,935.062851,317.866742,1183.346770,969.776615
0.503500,932.255068,324.886199,1181.942873,961.353230
0.504000,936.466742,323.482308,1180.538975,981.007795
0.504500,942.082308,323.482308,1172.115590,972.584410
0.505000,936.466742,319.270634,1186.154566,990.835078
0.505500,933.658959,324.886199,1195.981848,1011.893541
0.506000,936.466742,324.886199,1177.731180,1021.720824
0.506500,940.678416,326.290091,1180.538975,1025.932516
0.507000,965.948462,329.097874,1180.538975,1024.528619
0.507500,946.293982,329.097874,1183.346770,1035.759799
0.508000,947.697874,326.290091,1183.346770,1021.720824
0.508500,937.870634,1762.471001,-4449.090146,572.473612
0.509000,-6609.449577,3284.289288,-3011.499069,213.075843
0.509500,-2296.695171,-1747.257519,-1126.064677,572.473612
0.510000,-4093.676174,-4263.030923,670.924170,213.075843
0.510500,-8047.034379,-3903.634722,1030.321939,572.473612
0.511000,-6609.449577,-4981.823324,3546.106324,1562.221375
0.511500,-7057.290936,-6060.011925,-47.871369,2010.064689
0.512000,-7057.290936,-5341.219524,1030.321939,2369.462459
0.512500,-6697.894736,-6778.804327,2467.913016,2281.016914
0.513000,-5260.309934,-4981.823324,1030.321939,2369.462459
0.513500,-8854.271939,-669.068918,311.526400,7041.633460
0.514000,-6338.498535,1846.704486,-1214.510222,1650.666920
0.514500,-6338.498535,1487.308285,582.478625,3088.257997
0.515000,-6697.894736,49.723483,-3641.849062,3447.655767
0.515500,-7416.687137,-5341.219524,-1844.860216,3088.257997
0.516000,-7776.083337,-8216.389129,-2563.655754,3447.655767
0.516500,-7057.290936,-7856.992928,-2204.257985,3447.655767
0.517000,-8494.875738,-6778.804327,-2923.053524,3088.257997
0.517500,-7416.687137,-3184.842321,-3282.451293,572.473612
0.518000,-6250.053377,768.515884,-6605.476762,2728.860228
0.518500,-5979.102335,4003.081689,-4449.090146,2728.860228
0.519000,-5979.102335,1846.704486,-4449.090146,2728.860228
0.519500,-5260.309934,5800.062692,-2292.703530,3447.655767
0.520000,-8135.479538,49.723483,-1485.462446,3807.053536
0.520500,-4182.121332,1846.704486,-1573.907991,2010.064689
0.521000,-5619.706134,4003.081689,-1573.907991,3807.053536
0.521500,-6338.498535,5440.666491,-2292.703530,3447.655767
0.522000,-7416.687137,7597.043694,-5527.283454,3447.655767
0.522500,-7057.290936,9394.024697,-4808.487915,3807.053536
0.523000,-5979.102335,6878.251293,-5886.681223,4166.451305
0.523500,-2385.140330,9753.420897,-5886.681223,4525.849075
0.524000,-5979.102335,-10372.766332,-6246.078993,6682.235691
0.524500,-5619.706134,-10013.370131,-6964.874531,2369.462459
0.525000,-5260.309934,11191.005699,-9121.261147,4166.451305
0.525500,-6338.498535,10112.817098,-8043.067839,3447.655767
0.526000,-7057.290936,8315.836095,-6246.078993,3447.655767
0.526500,-7416.687137,9034.628496,-5527.283454,4166.451305
0.527000,-9573.064340,2206.100686,-6605.476762,4166.451305
0.527500,-4541.517533,2565.496887,-6964.874531,7401.031229
0.528000,-6338.498535,5800.062692,-5886.681223,3447.655767
0.528500,-6697.894736,6878.251293,-5527.283454,4166.451305
0.529000,-5979.102335,7597.043694,-6964.874531,4166.451305
0.529500,-5979.102335,-11091.558733,-4449.090146,4885.246844
0.530000,-4900.913733,7597.043694,-3730.294607,3807.053536
0.530500,-6697.894736,7237.647494,-2652.101299,3088.257997
0.531000,-8494.875738,7956.439895,-136.316914,4885.246844
0.531500,-6697.894736,9753.420897,2379.467472,3718.607991
0.532000,-6697.894736,-10013.370131,582.478625,3447.655767
0.532500,-6697.894736,-7497.596728,4895.251857,3359.210222
0.533000,-5979.102335,-8216.389129,941.876394,3088.257997
0.533500,-5619.706134,11550.401900,-1573.907991,3088.257997
0.534000,-5979.102335,-10013.370131,-495.714683,2369.462459
0.534500,-8135.479538,-10372.766332,-136.316914,-146.321927
0.535000,-6250.053377,-10732.162532,-136.316914,2728.860228
0.535500,-5979.102335,-9653.973931,-1214.510222,1650.666920
0.536000,-6697.894736,-10013.370131,2738.865241,1921.619145
0.536500,-5979.102335,-10013.370131,941.876394,2369.462459
0.537000,-5260.309934,-11091.558733,2379.467472,1562.221375
0.537500,-6338.498535,-8935.181530,941.876394,1650.666920
0.538000,-8494.875738,-11091.558733,-2652.101299,1650.666920
0.538500,-4541.517533,8315.836095,-3730.294607,3088.257997
0.539000,-4182.121332,6878.251293,-6246.078993,1291.269151
0.539500,-4541.517533,8315.836095,-855.112453,572.473612
0.540000,-4812.468575,9394.024697,-6246.078993,931.871381
0.540500,-4812.468575,-9294.577730,-4449.090146,2010.064689
0.541000,-5260.309934,7237.647494,-3730.294607,2369.462459
0.541500,-1306.951728,9394.024697,-3370.896838,2369.462459
0.542000,-7416.687137,-9653.973931,-2292.703530,-505.719696
0.542500,-6968.845778,-7138.200527,-4089.692377,2010.064689
0.543000,-7057.290936,-6778.804327,-4449.090146,931.871381
0.543500,-7328.241978,-6419.408126,-4808.487915,213.075843
0.544000,-7687.638179,-6778.804327,-4089.692377,572.473612
0.544500,-6609.449577,-9653.973931,-3011.499069,213.075843
0.545000,-5890.657176,-10732.162532,-1573.907991,1650.666920
0.545500,-7057.290936,7597.043694,-1214.510222,4885.246844
0.546000,-6338.498535,5081.270290,-1573.907991,-505.719696
0.546500,-6609.449577,4362.477889,-1573.907991,572.473612
0.547000,-6968.845778,4721.874090,941.876394,572.473612
0.547500,-6250.053377,5800.062692,-4089.692377,931.871381
0.548000,-6609.449577,9753.420897,-2652.101299,931.871381
0.548500,-6250.053377,5081.270290,-3011.499069,-146.321927
0.549000,-6609.449577,3643.685488,-3730.294607,572.473612
0.549500,-8406.430580,3284.289288,-4449.090146,-146.321927
0.550000,-7687.638179,4721.874090,-5167.885685,-146.321927
0.550500,-7687.638179,6518.855093,-136.316914,213.075843
0.551000,-8047.034379,6878.251293,-4449.090146,-146.321927
0.551500,-6968.845778,5800.062692,-3370.896838,-146.321927
0.552000,-7328.241978,-10732.162532,-3370.896838,-146.321927
0.552500,-9125.222981,-10372.766332,-2652.101299,-146.321927
0.553000,-3734.279973,-7138.200527,-3370.896838,2728.860228
0.553500,-7416.687137,-6419.408126,-3011.499069,-1583.913004
0.554000,-6250.053377,-8935.181530,3098.263010,124.630298
0.554500,-5890.657176,9394.024697,-1573.907991,-146.321927
0.555000,-5171.864775,5800.062692,-136.316914,-146.321927
0.555500,-6250.053377,5081.270290,223.080855,572.473612
0.556000,-5171.864775,8315.836095,223.080855,572.473612
0.556500,-6250.053377,9034.628496,-1573.907991,-1583.913004
0.557000,-6968.845778,10112.817098,-495.714683,-1583.913004
0.557500,-6968.845778,10112.817098,1660.671933,-234.767472
0.558000,-7328.241978,10112.817098,2020.069702,124.630298
0.558500,-6968.845778,5440.666491,-3370.896838,-146.321927
0.559000,-7687.638179,10831.609499,-4089.692377,213.075843
0.559500,-8047.034379,7597.043694,-3370.896838,-146.321927
0.560000,-7687.638179,8315.836095,-3011.499069,-1224.515235
0.560500,-9125.222981,9034.628496,-3011.499069,-7244.427871
0.561000,11450.209499,-3542.834630,41.978073,-3650.450178
0.561500,-9035.373931,-2464.646029,-317.419696,-7963.223410
0.562000,-7957.185329,-2464.646029,-3192.601851,-6166.234563
0.562500,-7238.392928,-1745.853628,-1036.215235,-6525.632332
0.563000,-6160.204327,-3183.438430,-1395.613004,-6166.234563
0.563500,-5800.808126,-2824.042229,-2473.806312,-7603.825640
0.564000,-4722.619524,-2464.646029,-1395.613004,-8682.018948
0.564500,11090.813298,-2824.042229,-1755.010773,-4728.643486
0.565000,9653.228496,-2464.646029,-2833.204081,-5806.836794
0.565500,9293.832296,-2105.249828,-3551.999620,-8322.621179
0.566000,9653.228496,-3902.230831,-4630.192928,-9041.416718
0.566500,10731.417098,1848.108377,-3281.047396,-9041.416718
0.567000,8215.643694,-2105.249828,-2833.204081,-7963.223410
0.567500,-9394.770131,-2464.646029,-2473.806312,-9760.212256
0.568000,8934.436095,-2824.042229,-2114.408543,-7603.825640
0.568500,10731.417098,-2824.042229,-1395.613004,-2931.654639
0.569000,11090.813298,-3542.834630,-3192.601851,-6885.030102
0.569500,11450.209499,-2464.646029,-4630.192928,-6525.632332
0.570000,-10472.958733,2926.296979,-3281.047396,-7244.427871
0.570500,10012.624697,-2464.646029,-3551.999620,-7244.427871
0.571000,10012.624697,-1745.853628,-3192.601851,-7244.427871
0.571500,5340.474090,-1745.853628,-3192.601851,-4728.643486
0.572000,3902.889288,-1027.061227,-4270.795159,-8682.018948
0.572500,5699.870290,-1386.457427,-5348.988467,-7244.427871
0.573000,8934.436095,-3902.230831,-3911.397389,-6885.030102
0.573500,11090.813298,1129.315976,-3999.842934,-6885.030102
0.574000,12169.001900,-2105.249828,-3911.397389,-6525.632332
0.574500,8934.436095,-1745.853628,-4630.192928,-6885.030102
0.575000,11809.605699,-1745.853628,-4989.590697,-4009.847947
0.575500,10731.417098,-2824.042229,-4989.590697,-5088.041255
0.576000,10012.624697,-2105.249828,-1755.010773,-9041.416718
0.576500,11090.813298,-3902.230831,-4989.590697,-6885.030102
0.577000,11450.209499,1848.108377,-4359.240704,-6525.632332
0.577500,11450.209499,-3183.438430,-4630.192928,-5447.439024
0.578000,-10472.958733,-3183.438430,-5708.386236,-6166.234563
0.578500,-6519.600527,-2824.042229,-9482.062814,-2840.401299
0.579000,-7777.487229,-6509.257176,8487.825653,-2840.401299
0.579500,-8136.883429,-7946.841978,9566.018961,-3199.799069
0.580000,11629.907599,-7946.841978,10284.814499,-3199.799069
0.580500,-7418.091028,-8306.238179,11722.405577,-2121.605761
0.581000,-8136.883429,-7946.841978,-10200.858353,-4996.787915
0.581500,-8855.675830,-7587.445778,-8763.267275,-2121.605761
0.582000,-8136.883429,-6868.653377,-10200.858353,-2121.605761
0.582500,-8496.279630,-5790.464775,-7685.073967,-2121.605761
0.583000,-8496.279630,-7228.049577,-8044.471737,-1762.207991
0.583500,-8136.883429,-9743.822981,-9482.062814,-1762.207991
0.584000,12348.700000,-5431.068575,-10200.858353,-2481.003530
0.584500,-8855.675830,-6868.653377,11722.405577,-4637.390146
0.585000,-9215.072031,-7228.049577,-9841.460583,-4277.992377
0.585500,-8855.675830,-7228.049577,-8403.869506,-2121.605761
0.586000,-9574.468231,-7228.049577,12441.201115,-1402.810222
0.586500,-9574.468231,-10822.011582,-8763.267275,-2481.003530
0.587000,12348.700000,-5790.464775,-9482.062814,-2481.003530
0.587500,10192.322797,-8306.238179,-10200.858353,-2481.003530
0.588000,11989.303799,-8665.634379,-9482.062814,-4996.787915
0.588500,10192.322797,-8306.238179,-9482.062814,753.576394
0.589000,11989.303799,-7946.841978,9925.416730,-2481.003530
0.589500,12348.700000,-7228.049577,-8044.471737,-2481.003530
0.590000,11629.907599,-8306.238179,12441.201115,-1043.412453
0.590500,12348.700000,-5431.068575,-7325.676198,-1402.810222
0.591000,-9933.864432,-6509.257176,-5888.085121,-1762.207991
0.591500,9473.530396,-6509.257176,-6247.482890,-324.616914
0.592000,10911.115198,-6868.653377,-5888.085121,-2481.003530
0.592500,11989.303799,-6868.653377,-5528.687351,34.780855
0.593000,11629.907599,-6868.653377,-1215.914119,-1402.810222
0.593500,11270.511398,-8665.634379,-5169.289582,-684.014683
0.594000,11629.907599,-2915.295171,-2653.505197,-1762.207991
0.594500,-10293.260632,-4712.276174,-3012.902966,-1762.207991
0.595000,11270.511398,-6509.257176,-4091.096274,-1402.810222
0.595500,11629.907599,-6509.257176,-4091.096274,1831.769702
0.596000,10822.670039,-7587.445778,-4450.494043,-324.616914
0.596500,10911.115198,-6868.653377,-6966.278429,-2840.401299
0.597000,11270.511398,-7228.049577,-5528.687351,-2121.605761
0.597500,11270.511398,-7587.445778,-5888.085121,-2121.605761
0.598000,10551.718997,-10103.219181,-5528.687351,-1762.207991
0.598500,9114.134195,-6868.653377,-4809.891813,-1402.810222
0.599000,-10293.260632,-6149.860976,-5888.085121,-3559.196838
0.599500,9832.926596,-4712.276174,-6606.880659,-2121.605761
0.600000,9473.530396,-3993.483773,-7685.073967,-1762.207991
0.600500,9473.530396,-4352.879973,581.074727,-2121.605761
0.601000,9832.926596,-5071.672374,-1575.311889,-1402.810222
0.601500,9832.926596,-6509.257176,-497.118581,-1762.207991
0.602000,11270.511398,-5431.068575,221.676958,-1402.810222
0.602500,8754.737995,-5071.672374,2018.665805,-3199.799069
0.603000,994.026290,305.231720,1149.653230,999.258463
0.603500,998.237964,309.443394,1146.845434,996.450668
0.604000,1029.123575,310.847285,1148.249332,990.835078
0.604500,1016.488553,312.251177,1145.441537,1009.085746
0.605000,1020.700227,316.462851,1146.845434,997.854566
0.605500,1022.104118,316.462851,1148.249332,992.238975
0.606000,1022.104118,313.655068,1145.441537,999.258463
0.606500,1022.104118,329.097874,1144.037639,999.258463
0.607000,1024.911901,309.443394,1142.633742,1002.066258
0.607500,1034.739141,315.058959,1148.249332,996.450668
0.608000,1031.931358,310.847285,1142.633742,992.238975
0.608500,1031.931358,306.635611,1145.441537,993.642873
0.609000,1034.739141,309.443394,1155.268820,995.046770
0.609500,1038.950815,305.231720,1137.018152,997.854566
0.610000,1041.758598,322.078416,1144.037639,995.046770
0.610500,1047.374164,301.020045,1144.037639,995.046770
0.611000,1052.989729,309.443394,1145.441537,996.450668
0.611500,1069.836426,309.443394,1148.249332,999.258463
0.612000,1052.989729,309.443394,1146.845434,1018.913029
0.612500,1065.624752,312.251177,1159.480512,999.258463
0.613000,1064.220860,306.635611,1153.864922,1000.662361
0.613500,1067.028643,303.827828,1145.441537,1000.662361
0.614000,1064.220860,302.423937,1145.441537,1000.662361
0.614500,1065.624752,313.655068,1148.249332,1002.066258
0.615000,1051.585838,308.039502,1148.249332,1003.470156
0.615500,1058.605295,308.039502,1149.653230,1000.662361
0.616000,1057.201403,308.039502,1146.845434,1014.701336
0.616500,1060.009186,306.635611,1163.692205,999.258463
0.617000,1055.797512,291.192805,1141.229844,996.450668
0.617500,1060.009186,309.443394,1144.037639,997.854566
0.618000,1058.605295,303.827828,1145.441537,999.258463
0.618500,1058.605295,303.827828,1148.249332,997.854566
0.619000,1058.605295,302.423937,1146.845434,1000.662361
0.619500,1062.816969,305.231720,1151.057127,985.219488
0.620000,1067.028643,302.423937,1144.037639,999.258463
0.620500,1068.432535,298.212263,1151.057127,996.450668
0.621000,1075.451992,316.462851,1149.653230,999.258463
0.621500,1079.663666,302.423937,1149.653230,999.258463
0.622000,1093.702580,301.020045,1151.057127,995.046770
0.622500,1100.722037,305.231720,1149.653230,1013.297438
0.623000,1114.760951,303.827828,1142.633742,996.450668
0.623500,1117.568734,305.231720,1160.884410,1000.662361
0.624000,1118.972625,298.212263,1152.461025,1002.066258
0.624500,1125.992082,298.212263,1151.057127,999.258463
0.625000,1135.819322,302.423937,1152.461025,997.854566
0.625500,1137.223214,299.616154,1153.864922,1000.662361
0.626000,1131.607648,299.616154,1155.268820,1013.297438
0.626500,1141.434888,299.616154,1160.884410,1002.066258
0.627000,1135.819322,299.616154,1163.692205,1000.662361
0.627500,1130.203757,298.212263,1176.327283,1002.066258
0.628000,1116.164843,289.788914,1160.884410,1004.874053
0.628500,1102.125928,302.423937,1160.884410,1009.085746
0.629000,1069.836426,301.020045,1160.884410,1011.893541
0.629500,1071.240317,302.423937,1165.096102,1002.066258
0.630000,1081.067557,301.020045,1166.500000,1021.720824
0.630500,1093.702580,302.423937,1177.731180,1004.874053
0.631000,1107.741494,292.596697,1162.288307,1002.066258
0.631500,1120.376517,315.058959,1165.096102,1002.066258
0.632000,1120.376517,296.808371,1163.692205,1000.662361
0.632500,1130.203757,298.212263,1163.692205,1002.066258
0.633000,1118.972625,298.212263,1163.692205,1007.681848
0.633500,1125.992082,296.808371,1166.500000,990.835078
0.634000,1128.799865,296.808371,1184.750668,997.854566
0.634500,1134.415431,294.000588,1166.500000,1002.066258
0.635000,1137.223214,298.212263,1170.711693,1003.470156
0.635500,1138.627105,298.212263,1169.307795,1004.874053
0.636000,1130.203757,299.616154,1169.307795,1009.085746
0.636500,1144.242671,296.808371,1169.307795,1004.874053
0.637000,1151.262128,296.808371,1170.711693,1006.277951
0.637500,1162.493259,298.212263,1186.154566,1004.874053
0.638000,1159.685476,298.212263,1179.135078,999.258463
0.638500,1180.743847,296.808371,1179.135078,999.258463
0.639000,1180.743847,298.212263,1179.135078,996.450668
0.639500,1189.167196,298.212263,1179.135078,988.027283
0.640000,1187.763304,299.616154,1181.942873,1006.277951
0.640500,1193.378870,302.423937,1193.174053,999.258463
0.641000,1191.974979,292.596697,1184.750668,1000.662361
0.641500,1191.974979,308.039502,1184.750668,1000.662361
0.642000,1190.571087,295.404480,1186.154566,1003.470156
0.642500,1211.629458,298.212263,1186.154566,1003.470156
0.643000,1194.782761,296.808371,1188.962361,1003.470156
0.643500,1183.551630,294.000588,1186.154566,995.046770
0.644000,1177.936064,298.212263,1183.346770,996.450668
0.644500,1173.724390,298.212263,1181.942873,1003.470156
0.645000,1172.320499,315.058959,1190.366258,1004.874053
0.645500,1168.108825,295.404480,1190.366258,1003.470156
0.646000,1176.532173,295.404480,1191.770156,1000.662361
0.646500,1191.974979,298.212263,1191.770156,1002.066258
0.647000,1186.359413,298.212263,1193.174053,1010.489643
0.647500,1193.378870,299.616154,1195.981848,999.258463
0.648000,1190.571087,302.423937,1186.154566,997.854566
0.648500,1193.378870,302.423937,1200.193541,999.258463
0.649000,1197.590544,298.212263,1194.577951,999.258463
0.649500,1206.013893,302.423937,1194.577951,1000.662361
0.650000,1208.821675,299.616154,1195.981848,1003.470156
0.650500,1211.629458,298.212263,1195.981848,1010.489643
0.651000,1229.880047,298.212263,1190.366258,997.854566
0.651500,1231.283938,299.616154,1183.346770,1004.874053
0.652000,1231.283938,303.827828,1190.366258,1006.277951
0.652500,1222.860590,299.616154,1186.154566,1007.681848
0.653000,1221.456698,320.674525,1193.174053,1007.681848
0.653500,1210.225567,299.616154,1191.770156,1006.277951
0.654000,1229.880047,299.616154,1193.174053,1003.470156
0.654500,1228.476155,302.423937,1186.154566,1004.874053
0.655000,1232.687829,305.231720,1183.346770,1000.662361
0.655500,1235.495612,305.231720,1188.962361,1003.470156
0.656000,1241.111178,315.058959,1193.174053,1003.470156
0.656500,1238.303395,316.462851,1194.577951,1003.470156
0.657000,1236.899504,303.827828,1195.981848,1004.874053
0.657500,1260.765658,305.231720,1195.981848,1007.681848
0.658000,1236.899504,303.827828,1197.385746,1025.932516
0.658500,1235.495612,308.039502,1198.789643,1003.470156
0.659000,1236.899504,309.443394,1188.962361,1006.277951
0.659500,1239.707286,-11091.558733,-5167.885685,-3021.504081
0.660000,-3374.883773,-10372.766332,-3730.294607,-2662.106312
0.660500,-1937.298970,-8216.389129,-4089.692377,-1583.913004
0.661000,2016.059235,-6507.853285,-4449.090146,-865.117465
0.661500,-1577.902770,-6778.804327,-4449.090146,-1583.913004
0.662000,-2656.091371,-6778.804327,941.876394,-865.117465
0.662500,-2656.091371,-8216.389129,-3730.294607,-1583.913004
0.663000,-2296.695171,-8575.785329,-2652.101299,-1943.310773
0.663500,-3374.883773,-4622.427123,-2652.101299,-2302.708543
0.664000,-2296.695171,-8575.785329,-2652.101299,-1943.310773
0.664500,-5531.260976,-7856.992928,-2652.101299,-505.719696
0.665000,-2656.091371,-6419.408126,-2292.703530,-4818.492928
0.665500,-3015.487572,-4622.427123,-5886.681223,-2302.708543
0.666000,-3734.279973,-2466.049920,-1573.907991,-2302.708543
0.666500,-3374.883773,-1747.257519,-495.714683,-2302.708543
0.667000,-3734.279973,-4981.823324,582.478625,-2302.708543
0.667500,-3734.279973,-2825.446121,-136.316914,-2302.708543
0.668000,-5531.260976,-5341.219524,-136.316914,-1943.310773
0.668500,-1218.506569,-6060.011925,223.080855,-865.117465
0.669000,-4453.072374,-6060.011925,1660.671933,-1672.358549
0.669500,-2656.091371,-5700.615725,6692.240704,-2391.154088
0.670000,-2296.695171,-6778.804327,582.478625,-2302.708543
0.670500,-2296.695171,-6778.804327,582.478625,-1943.310773
0.671000,-3015.487572,-5700.615725,-136.316914,-3021.504081
0.671500,-3015.487572,-5700.615725,-495.714683,-3380.901851
0.672000,-1937.298970,-5341.219524,-136.316914,-1583.913004
0.672500,-1577.902770,-3184.842321,223.080855,2369.462459
0.673000,-2385.140330,-1387.861319,941.876394,-1583.913004
0.673500,-1937.298970,-1028.465118,-495.714683,-1943.310773
0.674000,-2656.091371,-4622.427123,-855.112453,-1583.913004
0.674500,-2656.091371,-2106.653720,-495.714683,-1224.515235
0.675000,-4093.676174,-2106.653720,-1214.510222,-865.117465
0.675500,-5890.657176,-1387.861319,223.080855,-3380.901851
0.676000,-2296.695171,-1028.465118,2020.069702,-2750.551857
0.676500,-2656.091371,-669.068918,-1214.510222,-1943.310773
0.677000,-2296.695171,-309.672717,3817.058549,-1672.358549
0.677500,-1218.506569,-3544.238522,-1214.510222,-1583.913004
0.678000,-1577.902770,1846.704486,-1213.106324,-1583.913004
0.678500,-3015.487572,-669.068918,-1933.305761,-1224.515235
0.679000,-2296.695171,-309.672717,-1573.907991,213.075843
0.679500,-1577.902770,49.723483,-1573.907991,-3021.504081
0.680000,-2656.091371,768.515884,-494.310786,-1943.310773
0.680500,-2656.091371,768.515884,-1931.901863,-1583.913004
0.681000,-3015.487572,1127.912085,-494.310786,-1583.913004
0.681500,-2656.091371,4362.477889,-134.913016,-1583.913004
0.682000,-4812.468575,-1747.257519,-495.714683,-1583.913004
0.682500,-2296.695171,-669.068918,582.478625,-865.117465
0.683000,-4093.676174,-669.068918,-1214.510222,-1943.310773
0.683500,-3015.487572,-1028.465118,-495.714683,-865.117465
0.684000,-2656.091371,-2825.446121,3457.660780,-1672.358549
0.684500,-2656.091371,-6419.408126,-1933.305761,-505.719696
0.685000,-1937.298970,-2466.049920,-1573.907991,-865.117465
0.685500,-1577.902770,-4981.823324,-855.112453,-505.719696
0.686000,-1577.902770,-669.068918,-136.316914,-2302.708543
0.686500,-1577.902770,-1747.257519,-495.714683,2010.064689
0.687000,-947.555528,-2106.653720,-495.714683,-146.321927
0.687500,-1218.506569,-1747.257519,-3370.896838,-865.117465
0.688000,-859.110369,-1387.861319,941.876394,-1224.515235
0.688500,-1577.902770,-1747.257519,2379.467472,-953.563010
0.689000,-1577.902770,-4622.427123,3098.263010,-1312.960780
0.689500,-499.714168,-2825.446121,2738.865241,-234.767472
0.690000,-4453.072374,-3184.842321,582.478625,-3021.504081
0.690500,-3015.487572,-2825.446121,223.080855,-505.719696
0.691000,-3015.487572,-2466.049920,-1573.907991,-1583.913004
0.691500,-3015.487572,-2106.653720,762.177509,-4998.191813
0.692000,-1486.649828,-2286.351820,-3102.752408,-6795.180659
0.692500,-1846.046029,-3364.540422,-2024.559100,-7154.578429
0.693000,-1486.649828,-1926.955620,-1665.161331,-7873.373967
0.693500,-2205.442229,-1926.955620,-2743.354639,-7873.373967
0.694000,-5440.008034,-2286.351820,-1665.161331,-6435.782890
0.694500,-3643.027031,-1567.559419,-1305.763562,-3919.998505
0.695000,-3283.630831,-1567.559419,-946.365792,-6435.782890
0.695500,-2564.838430,-1926.955620,3725.805209,-8321.217282
0.696000,-3283.630831,-1567.559419,-1305.763562,-8232.771737
0.696500,-3643.027031,229.421584,-946.365792,-8951.567275
0.697000,-4721.215633,-1926.955620,-227.570254,-8951.567275
0.697500,-6158.800435,-1926.955620,-946.365792,-9670.362814
0.698000,-3643.027031,-1567.559419,-946.365792,-10389.158353
0.698500,-2924.234630,-1208.163219,-586.968023,9018.321191
0.699000,-3643.027031,-2286.351820,-2383.956870,7221.332345
0.699500,-3283.630831,-489.370818,-2024.559100,6143.139037
0.700000,-4361.819433,-3005.144221,131.827516,4346.150190
0.700500,-3283.630831,-2286.351820,850.623054,5424.343498
0.701000,-4002.423232,-129.974617,-227.570254,6502.536806
0.701500,-3643.027031,-848.767018,-227.570254,8658.923422
0.702000,-4002.423232,-848.767018,-586.968023,4705.547959
0.702500,-5080.611834,-1208.163219,-2024.559100,6502.536806
0.703000,-4721.215633,-848.767018,-227.570254,7221.332345
0.703500,-4721.215633,-1208.163219,-586.968023,9377.718961
0.704000,-3643.027031,-848.767018,-1305.763562,7940.127883
0.704500,-5440.008034,-848.767018,-1665.161331,7580.730114
0.705000,-3283.630831,-848.767018,-1665.161331,5064.945729
0.705500,-4361.819433,-129.974617,-2024.559100,1111.570266
0.706000,-4361.819433,-489.370818,-1665.161331,1470.968035
0.706500,-4361.819433,-2645.748021,-946.365792,1830.365805
0.707000,-3643.027031,-129.974617,-586.968023,1830.365805
0.707500,-3283.630831,2385.798787,402.779740,1470.968035
0.708000,-5799.404235,-848.767018,491.225285,1470.968035
0.708500,-2924.234630,-1208.163219,491.225285,3267.956882
0.709000,-2564.838430,-1208.163219,491.225285,-1404.214119
0.709500,-4361.819433,-1567.559419,-2383.956870,-4279.396274
0.710000,-4361.819433,-2645.748021,-586.968023,-8232.771737
0.710500,-4002.423232,2745.194987,-316.015799,-9670.362814
0.711000,-3283.630831,-489.370818,131.827516,12252.901115
0.711500,-767.857427,-129.974617,491.225285,9737.116730
0.712000,-5440.008034,-129.974617,-586.968023,-9310.965045
0.712500,-4721.215633,-848.767018,131.827516,9018.321191
0.713000,-4002.423232,-489.370818,491.225285,-9670.362814
0.713500,-4361.819433,-1208.163219,-946.365792,-7513.976198
0.714000,-3283.630831,2385.798787,-1394.209107,-6076.385121
0.714500,-2924.234630,2026.402586,-316.015799,-6795.180659
0.715000,-2924.234630,-2645.748021,131.827516,-8592.169506
0.715500,-1846.046029,-2286.351820,850.623054,10096.514499
0.716000,-2924.234630,-2286.351820,1210.020824,10096.514499
0.716500,-767.857427,-2645.748021,491.225285,5424.343498
0.717000,-408.461227,-4083.332823,1210.020824,5064.945729
0.717500,-408.461227,1307.610185,762.177509,5064.945729
0.718000,-1846.046029,1667.006386,762.177509,4705.547959
0.718500,-1846.046029,-3364.540422,1210.020824,4705.547959
0.719000,-2205.442229,-2286.351820,850.623054,1470.968035
0.719500,-1846.046029,-2645.748021,1928.816362,-773.864126
0.720000,-767.857427,-2286.351820,491.225285,752.172497
0.720500,-408.461227,-2286.351820,1928.816362,-414.466356
0.721000,-408.461227,-4083.332823,-2024.559100,-685.418581
0.721500,310.331174,-2286.351820,-2743.354639,1111.570266
0.722000,1388.519776,-2374.796979,-2743.354639,2189.763574
0.722500,-1127.253628,-1926.955620,-2383.956870,2549.161343
0.723000,1747.915976,-2374.796979,-2024.559100,392.774727
0.723500,1747.915976,-2374.796979,-586.968023,-685.418581
0.724000,1747.915976,-2374.796979,-3102.752408,-2482.407427
0.724500,669.727375,-129.974617,850.623054,-3919.998505
0.725000,2466.708377,-4890.570382,1210.020824,-4279.396274
0.725500,7498.255184,-2374.796979,850.623054,-5716.987351
0.726000,2107.312177,-2374.796979,491.225285,-5357.589582
0.726500,2826.104578,-3812.381781,131.827516,1201.419708
0.727000,928.043394,306.635611,1204.405233,1167.726167
0.727500,953.313439,305.231720,1204.405233,1152.283295
0.728000,932.255068,308.039502,1203.001336,1163.514475
0.728500,935.062851,308.039502,1205.809131,1134.032627
0.729000,940.678416,301.020045,1221.252004,1129.820934
0.729500,942.082308,305.231720,1214.232516,1122.801446
0.730000,940.678416,299.616154,1205.809131,1121.397549
0.730500,944.890091,303.827828,1212.828619,1128.417036
0.731000,950.505656,302.423937,1214.232516,1128.417036
0.731500,929.447285,305.231720,1217.040311,1139.648217
0.732000,937.870634,302.423937,1217.040311,1118.589754
0.732500,933.658959,301.020045,1212.828619,1115.781959
0.733000,940.678416,299.616154,1198.789643,1110.166368
0.733500,943.486199,302.423937,1208.616926,1105.954676
0.734000,946.293982,322.078416,1203.001336,1110.166368
0.734500,933.658959,305.231720,1204.405233,1107.358573
0.735000,930.851177,305.231720,1205.809131,1107.358573
0.735500,937.870634,301.020045,1204.405233,1100.339086
0.736000,942.082308,299.616154,1208.616926,1100.339086
0.736500,943.486199,301.020045,1210.020824,1096.127393
0.737000,936.466742,292.596697,1204.405233,1093.319598
0.737500,936.466742,292.596697,1198.789643,1094.723496
0.738000,942.082308,291.192805,1207.213029,1091.915700
0.738500,958.929005,302.423937,1212.828619,1084.896213
0.739000,935.062851,301.020045,1210.020824,1084.896213
0.739500,937.870634,303.827828,1205.809131,1073.665032
0.740000,936.466742,306.635611,1214.232516,1072.261135
0.740500,935.062851,303.827828,1219.848106,1072.261135
0.741000,929.447285,299.616154,1208.616926,1069.453340
0.741500,932.255068,301.020045,1210.020824,1068.049442
0.742000,925.235611,295.404480,1207.213029,1068.049442
0.742500,944.890091,303.827828,1208.616926,1054.010467
0.743000,926.639502,302.423937,1204.405233,1075.068930
0.743500,928.043394,301.020045,1204.405233,1056.818262
0.744000,928.043394,302.423937,1201.597438,1059.626057
0.744500,926.639502,301.020045,1218.444209,1058.222160
0.745000,926.639502,315.058959,1194.577951,1055.414365
0.745500,915.408371,303.827828,1197.385746,1051.202672
0.746000,940.678416,303.827828,1201.597438,1051.202672
0.746500,926.639502,303.827828,1204.405233,1042.779287
0.747000,928.043394,303.827828,1203.001336,1068.049442
0.747500,926.639502,305.231720,1197.385746,1051.202672
0.748000,928.043394,296.808371,1218.444209,1051.202672
0.748500,925.235611,306.635611,1201.597438,1045.587082
0.749000,925.235611,299.616154,1207.213029,1039.971492
0.749500,926.639502,302.423937,1205.809131,1010.489643
0.750000,921.023937,315.058959,1212.828619,1014.701336
0.750500,921.023937,313.655068,1200.193541,1016.105233
0.751000,908.388914,315.058959,1193.174053,1024.528619
0.751500,922.427828,316.462851,1187.558463,1017.509131
0.752000,918.216154,316.462851,1183.346770,1006.277951
0.752500,916.812263,315.058959,1187.558463,1010.489643
0.753000,921.023937,315.058959,1176.327283,1009.085746
0.753500,919.620045,316.462851,1200.193541,1016.105233
0.754000,919.620045,317.866742,1193.174053,1021.720824
0.754500,922.427828,313.655068,1188.962361,1020.316926
0.755000,932.255068,317.866742,1184.750668,1013.297438
0.755500,930.851177,316.462851,1179.135078,999.258463
0.756000,918.216154,316.462851,1177.731180,1007.681848
0.756500,919.620045,315.058959,1170.711693,1006.277951
0.757000,918.216154,323.482308,1153.864922,1006.277951
0.757500,916.812263,323.482308,1173.519488,1009.085746
0.758000,918.216154,306.635611,1160.884410,1017.509131
0.758500,905.581131,326.290091,1160.884410,1020.316926
0.759000,912.600588,312.251177,1156.672717,1017.509131
0.759500,909.792805,326.290091,1159.480512,1032.952004
0.760000,915.408371,326.290091,1162.288307,1014.701336
0.760500,915.408371,327.693982,1166.500000,1017.509131
0.761000,914.004480,324.886199,1172.115590,1018.913029
0.761500,915.408371,309.443394,1156.672717,1014.701336
0.762000,914.004480,324.886199,1155.268820,1014.701336
0.762500,912.600588,322.078416,1149.653230,1011.893541
0.763000,928.043394,319.270634,1148.249332,1000.662361
0.763500,908.388914,319.270634,1145.441537,1024.528619
0.764000,911.196697,322.078416,1139.825947,1009.085746
0.764500,914.004480,313.655068,1138.422049,1017.509131
0.765000,914.004480,316.462851,1121.575279,1010.489643
0.765500,911.196697,331.905656,1127.190869,1003.470156
0.766000,912.600588,312.251177,1129.998664,1002.066258
0.766500,905.581131,319.270634,1129.998664,1007.681848
0.767000,912.600588,323.482308,1131.402562,1024.528619
0.767500,915.408371,323.482308,1128.594767,1021.720824
0.768000,914.004480,322.078416,1127.190869,1038.567594
0.768500,912.600588,322.078416,1115.959689,1039.971492
0.769000,915.408371,317.866742,1117.363586,1025.932516
0.769500,914.004480,309.443394,1114.555791,1007.681848
0.770000,916.812263,323.482308,1111.747996,997.854566
0.770500,914.004480,316.462851,1110.344099,1000.662361
0.771000,918.216154,317.866742,1107.536303,1010.489643
0.771500,915.408371,319.270634,1099.112918,1016.105233
0.772000,916.812263,317.866742,1103.324611,1017.509131
0.772500,916.812263,323.482308,1099.112918,1011.893541
0.773000,919.620045,320.674525,1090.689533,1010.489643
0.773500,916.812263,319.270634,1082.266148,1017.509131
0.774000,906.985023,316.462851,1085.073943,1025.932516
0.774500,918.216154,323.482308,1087.881738,1017.509131
0.775000,921.023937,322.078416,2647.611901,-1852.057434
0.775500,-2476.393271,-5520.917625,3007.009670,-6524.228435
0.776000,-1398.204670,-5520.917625,5882.191825,-6883.626204
0.776500,-679.412269,-5161.521424,850.623054,-8232.771737
0.777000,-1038.808469,-5520.917625,1210.020824,-9310.965045
0.777500,-2116.997071,-8396.087229,1210.020824,-10389.158353
0.778000,39.380132,-6958.502427,850.623054,11174.707807
0.778500,-2476.393271,-6599.106226,1210.020824,11174.707807
0.779000,-4632.770474,-6599.106226,3007.009670,9289.273416
0.779500,-2116.997071,-6599.106226,4444.600748,12164.455571
0.780000,1836.361135,-6328.155184,850.623054,12252.901115
0.780500,5070.926940,-6687.551385,1928.816362,11805.057801
0.781000,6508.511742,-5968.758984,4085.202978,11445.660032
0.781500,3992.738338,-5609.362783,2647.611901,12164.455571
0.782000,-1757.600870,-5161.521424,2647.611901,12164.455571
0.782500,-320.016068,-5880.313825,850.623054,10455.912269
0.783000,-320.016068,-6239.710026,2288.214132,8929.875647
0.783500,-1398.204670,-5880.313825,-586.968023,9018.321191
0.784000,-3554.581873,-8396.087229,131.827516,9018.321191
0.784500,-4992.166675,-8396.087229,131.827516,8658.923422
0.785000,-4632.770474,-6239.710026,131.827516,9737.116730
0.785500,-9304.921081,-6599.106226,850.623054,9737.116730
0.786000,-6429.751477,-6599.106226,850.623054,6143.139037
0.786500,-6070.355276,-6599.106226,4444.600748,7132.886800
0.787000,-7148.543878,-5880.313825,2647.611901,4617.102415
0.787500,-5351.562875,-6599.106226,4803.998517,2101.318029
0.788000,398.776333,-5880.313825,850.623054,1830.365805
0.788500,7227.304143,-5968.758984,1928.816362,2460.715799
0.789000,3273.945937,-5968.758984,2288.214132,2820.113568
0.789500,5789.719341,-6687.551385,2288.214132,663.726952
0.790000,7946.096544,-6328.155184,2647.611901,2460.715799
0.790500,6867.907942,-6328.155184,1210.020824,1830.365805
0.791000,758.172533,-6239.710026,5882.191825,1382.522491
0.791500,-3195.185672,-2286.351820,850.623054,2189.763574
0.792000,-4632.770474,-8036.691028,1569.418593,2820.113568
0.792500,-679.412269,-7317.898627,1210.020824,3986.752421
0.793000,-2835.789472,-6599.106226,2288.214132,9648.671185
0.793500,2195.757335,-7765.739987,850.623054,3986.752421
0.794000,2555.153536,-7406.343786,1210.020824,3267.956882
0.794500,1476.964934,-7765.739987,4085.202978,3898.306876
0.795000,-679.412269,-3364.540422,491.225285,2908.559113
0.795500,-1757.600870,-5161.521424,850.623054,2189.763574
0.796000,-679.412269,-7677.294828,1928.816362,663.726952
0.796500,39.380132,-7677.294828,3007.009670,-1852.057434
0.797000,-320.016068,-8036.691028,2647.611901,-1852.057434
0.797500,-1757.600870,-7317.898627,2647.611901,-1492.659664
0.798000,-1038.808469,-8755.483429,2288.214132,-773.864126
0.798500,-1038.808469,-4083.332823,2288.214132,-1133.261895
0.799000,-320.016068,-8036.691028,1928.816362,-1133.261895
0.799500,-3195.185672,-8755.483429,1928.816362,-2930.250742
0.800000,-1038.808469,-6599.106226,1210.020824,-6435.782890
0.800500,39.380132,-6599.106226,1210.020824,-5357.589582
0.801000,758.172533,-6239.710026,850.623054,-1763.611889
0.801500,758.172533,-5520.917625,-227.570254,-685.418581
0.802000,758.172533,-9114.879630,131.827516,-1404.214119
0.802500,-320.016068,-7677.294828,-227.570254,-1763.611889
0.803000,-1398.204670,-6958.502427,131.827516,-2482.407427
0.803500,39.380132,-7317.898627,131.827516,-4998.191813
0.804000,-2835.789472,-6958.502427,1210.020824,-2482.407427
0.804500,-1757.600870,-6958.502427,1569.418593,-1852.057434
0.805000,39.380132,-6958.502427,-1305.763562,-1763.611889
0.805500,758.172533,-9114.879630,2288.214132,-1852.057434
0.806000,2195.757335,-5968.758984,3007.009670,-1133.261895
0.806500,758.172533,-6599.106226,2647.611901,-1133.261895
0.807000,39.380132,-5880.313825,1928.816362,-1852.057434
0.807500,398.776333,-6599.106226,1210.020824,-5357.589582
0.808000,398.776333,-6599.106226,491.225285,-4279.396274
0.808500,398.776333,-8036.691028,491.225285,-4638.794043
0.809000,1476.964934,-3812.381781,850.623054,-3560.600735
0.809500,-320.016068,-6958.502427,1210.020824,-2123.009658
0.810000,1836.361135,-6687.551385,1928.816362,-2211.455203
0.810500,398.776333,-5880.313825,2647.611901,1023.124721
0.811000,2195.757335,-5609.362783,-586.968023,-3201.202966
0.811500,1476.964934,-5968.758984,3725.805209,-4367.841819
0.812000,2914.549736,-5249.966583,2288.214132,-5086.637358
0.812500,3633.342138,-4531.174182,131.827516,-5716.987351
0.813000,-679.412269,-5161.521424,850.623054,-3919.998505
0.813500,398.776333,-5520.917625,850.623054,-3919.998505
0.814000,1117.568734,-5249.966583,131.827516,-6795.180659
0.814500,1836.361135,-5249.966583,-227.570254,-4998.191813
0.815000,1476.964934,-5249.966583,-227.570254,-6795.180659
0.815500,39.380132,-6599.106226,-2024.559100,-10029.760583
0.816000,398.776333,-7677.294828,-1665.161331,-9670.362814
0.816500,758.172533,-6599.106226,-586.968023,-7873.373967
0.817000,3992.738338,-5249.966583,-227.570254,-6076.385121
0.817500,5430.323140,-5249.966583,850.623054,-5357.589582
0.818000,2195.757335,-5249.966583,1210.020824,33.376958
0.818500,2555.153536,-5609.362783,5882.191825,-414.466356
0.819000,2555.153536,-7765.739987,131.827516,-2482.407427
0.819500,2555.153536,-2015.400778,2647.611901,-4367.841819
0.820000,2914.549736,-2015.400778,2288.214132,-4727.239588
0.820500,4711.530739,-5609.362783,1928.816362,-5805.432896
0.821000,-320.016068,-5161.521424,2288.214132,-7243.023974
0.821500,2195.757335,-5609.362783,1928.816362,-9399.410590
0.822000,398.776333,-5161.521424,1210.020824,11534.105577
0.822500,398.776333,-4802.125224,4803.998517,11086.262263
0.823000,398.776333,-2286.351820,1210.020824,11174.707807
0.823500,1836.361135,-8125.136187,2288.214132,-10477.603898
0.824000,2195.757335,-5968.758984,1928.816362,-9399.410590
0.824500,398.776333,-5520.917625,491.225285,-7154.578429
0.825000,-320.016068,-5520.917625,491.225285,-326.020811
0.825500,-679.412269,-5880.313825,850.623054,-4638.794043
0.826000,398.776333,-5161.521424,491.225285,-4998.191813
0.826500,1476.964934,-5968.758984,5163.396286,-5446.035127
0.827000,2195.757335,-3812.381781,850.623054,-4638.794043
0.827500,39.380132,-4802.125224,2288.214132,-4727.239588
0.828000,4711.530739,-5249.966583,2647.611901,-5446.035127
0.828500,1836.361135,-4531.174182,2288.214132,-2211.455203
0.829000,2555.153536,-4890.570382,-586.968023,-6076.385121
0.829500,5430.323140,-4890.570382,850.623054,-6435.782890
0.830000,3633.342138,-5609.362783,491.225285,-7873.373967
0.830500,1476.964934,-5249.966583,850.623054,-8951.567275
0.831000,-2835.789472,-6239.710026,131.827516,-9310.965045
0.831500,-2116.997071,-5880.313825,131.827516,-10389.158353
0.832000,-2835.789472,-6599.106226,850.623054,-7154.578429
0.832500,-320.016068,-6958.502427,-586.968023,10815.310038
0.833000,-679.412269,-6599.106226,4085.202978,-9758.808359
0.833500,-1398.204670,-6239.710026,4803.998517,-9399.410590
0.834000,-2835.789472,-5161.521424,1210.020824,-7513.976198
0.834500,-3195.185672,-5880.313825,1210.020824,-6795.180659
0.835000,2555.153536,-6328.155184,2647.611901,-9040.012820
0.835500,-1757.600870,-5880.313825,2288.214132,12164.455571
0.836000,-1038.808469,-6239.710026,2288.214132,-4367.841819
0.836500,-1757.600870,-6599.106226,4085.202978,-7243.023974
0.837000,-1757.600870,-5880.313825,491.225285,-7513.976198
0.837500,-1398.204670,-5880.313825,1928.816362,-7602.421743
0.838000,-1757.600870,-8396.087229,1210.020824,-8951.567275
0.838500,-3913.978073,-6239.710026,1210.020824,-8951.567275
0.839000,-679.412269,-6239.710026,1210.020824,-9310.965045
0.839500,-1757.600870,-6599.106226,131.827516,-4998.191813
0.840000,-2116.997071,-6958.502427,491.225285,-10389.158353
0.840500,-1038.808469,-7677.294828,491.225285,-8232.771737
0.841000,-1038.808469,-2645.748021,850.623054,-7873.373967
0.841500,-1398.204670,-6958.502427,131.827516,-8232.771737
0.842000,-2835.789472,-6239.710026,1210.020824,-7873.373967
0.842500,1836.361135,-6687.551385,2647.611901,-8321.217282
0.843000,-1757.600870,-6239.710026,2288.214132,-9040.012820
0.843500,-679.412269,-5880.313825,3366.407440,-8680.615051
0.844000,398.776333,-6599.106226,5882.191825,-7961.819512
0.844500,-320.016068,-8755.483429,1210.020824,-8232.771737
0.845000,-1398.204670,-5161.521424,1569.418593,-8321.217282
0.845500,-4632.770474,-5880.313825,1210.020824,-8592.169506
0.846000,-4632.770474,-5161.521424,850.623054,-8592.169506
0.846500,-2835.789472,-5880.313825,1210.020824,-9310.965045
0.847000,-3554.581873,-5520.917625,1210.020824,11893.503346
0.847500,-3195.185672,-5880.313825,-1665.161331,-10029.760583
0.848000,-3913.978073,-8396.087229,2647.611901,-10477.603898
0.848500,-3554.581873,-7317.898627,-1665.161331,-10389.158353
0.849000,-4273.374274,-8755.483429,-227.570254,-9670.362814
0.849500,-320.016068,-5880.313825,-586.968023,12252.901115
0.850000,-1398.204670,-5161.521424,491.225285,11534.105577
0.850500,-679.412269,-4802.125224,131.827516,11174.707807
0.851000,758.172533,-5161.521424,2647.611901,-10118.206128
0.851500,-679.412269,-4442.729023,4803.998517,-9758.808359
0.852000,-2116.997071,-5161.521424,4444.600748,-5177.890697
0.852500,937.870634,9753.420897,-4360.644601,-5537.288467
0.853000,219.078233,9753.420897,-2204.257985,-5177.890697
0.853500,219.078233,6878.251293,-2204.257985,-4818.492928
0.854000,578.474433,8675.232296,-2563.655754,-4459.095159
0.854500,219.078233,9394.024697,-2563.655754,-5537.288467
0.855000,-2656.091371,9394.024697,-2563.655754,-7693.675083
0.855500,-499.714168,9394.024697,-3641.849062,-7693.675083
0.856000,-499.714168,8315.836095,-1485.462446,-4818.492928
0.856500,-499.714168,8315.836095,-3282.451293,-5537.288467
0.857000,-140.317968,9034.628496,-3641.849062,-4818.492928
0.857500,219.078233,-8216.389129,-2563.655754,-5177.890697
0.858000,-140.317968,10112.817098,-2923.053524,-5177.890697
0.858500,-499.714168,9394.024697,-2923.053524,-4818.492928
0.859000,-1577.902770,9394.024697,-3641.849062,-6615.481775
0.859500,937.870634,9394.024697,-2204.257985,-5177.890697
0.860000,578.474433,7956.439895,-2204.257985,-4818.492928
0.860500,219.078233,5440.666491,-3282.451293,-4459.095159
0.861000,-859.110369,10472.213298,-3282.451293,-5177.890697
0.861500,-140.317968,5440.666491,-4001.246832,-4459.095159
0.862000,219.078233,8315.836095,-4001.246832,-4099.697389
0.862500,578.474433,7597.043694,-4360.644601,-3380.901851
0.863000,219.078233,5800.062692,-4001.246832,-146.321927
0.863500,578.474433,5081.270290,1030.321939,-4459.095159
0.864000,1656.663035,3195.844129,-4001.246832,-3740.299620
0.864500,1656.663035,4992.825132,-3282.451293,-4459.095159
0.865000,937.870634,1846.704486,-4001.246832,-4099.697389
0.865500,2016.059235,4633.428931,-4001.246832,-3380.901851
0.866000,2734.851636,3914.636530,-4001.246832,-3380.901851
0.866500,-140.317968,2924.893087,-4360.644601,-3740.299620
0.867000,937.870634,4721.874090,-6876.428986,-4099.697389
0.867500,219.078233,9034.628496,-4001.246832,-4099.697389
0.868000,219.078233,10472.213298,-2923.053524,-5177.890697
0.868500,-499.714168,-10013.370131,-407.269138,-5177.890697
0.869000,-2296.695171,9034.628496,2827.310786,-8141.518397
0.869500,-1577.902770,7597.043694,2108.515247,-1672.358549
0.870000,-1577.902770,5440.666491,-1844.860216,-3380.901851
0.870500,-1218.506569,4721.874090,-766.666908,-5537.288467
0.871000,-499.714168,2206.100686,-4360.644601,-5896.686236
0.871500,-499.714168,49.723483,-2923.053524,-5537.288467
0.872000,578.474433,-309.672717,-2923.053524,-4459.095159
0.872500,5250.625040,1758.259327,-3282.451293,-4818.492928
0.873000,3453.644037,1398.863127,-3282.451293,-4818.492928
0.873500,3453.644037,2117.655528,-3282.451293,-4459.095159
0.874000,578.474433,2565.496887,-6157.633448,-5896.686236
0.874500,937.870634,3643.685488,-4360.644601,-5177.890697
0.875000,578.474433,1487.308285,-5079.440140,-5177.890697
0.875500,937.870634,5800.062692,-4001.246832,-5177.890697
0.876000,-1577.902770,2565.496887,-4360.644601,-4818.492928
0.876500,3094.247837,1039.466926,-3641.849062,-2302.708543
0.877000,937.870634,409.119684,-5798.235678,-4818.492928
0.877500,-140.317968,1127.912085,-6157.633448,-6615.481775
0.878000,219.078233,1487.308285,-7235.826756,-6615.481775
0.878500,-140.317968,1846.704486,-5438.837909,-6615.481775
0.879000,-140.317968,2565.496887,-3641.849062,-6256.084005
0.879500,578.474433,49.723483,-2923.053524,-5896.686236
0.880000,-1577.902770,768.515884,-766.666908,-5537.288467
0.880500,578.474433,409.119684,-1485.462446,-5896.686236
0.881000,1656.663035,680.070726,-2923.053524,-2302.708543
0.881500,2016.059235,680.070726,-7595.224525,-5537.288467
0.882000,2016.059235,1039.466926,-4360.644601,-5896.686236
0.882500,2016.059235,-398.117876,-2204.257985,-5896.686236
0.883000,1656.663035,320.674525,-1485.462446,-6256.084005
0.883500,578.474433,1127.912085,-1485.462446,-6974.879544
0.884000,2016.059235,-38.721675,-2204.257985,-3021.504081
0.884500,2016.059235,-398.117876,-2204.257985,-6974.879544
0.885000,1656.663035,-757.514076,-3641.849062,-6256.084005
0.885500,937.870634,-1028.465118,-4720.042370,-6615.481775
0.886000,937.870634,-2825.446121,-4360.644601,-6256.084005
0.886500,937.870634,-2106.653720,-5079.440140,-6974.879544
0.887000,-140.317968,49.723483,-4720.042370,-6256.084005
0.887500,3813.040238,-38.721675,-2204.257985,-5896.686236
0.888000,-1577.902770,49.723483,-2563.655754,-6974.879544
0.888500,219.078233,1127.912085,7140.084018,-6703.927320
0.889000,1656.663035,320.674525,2467.913016,-5985.131781
0.889500,2375.455436,-1835.702678,670.924170,-5896.686236
0.890000,1656.663035,-1116.910277,-2923.053524,-4818.492928
0.890500,3094.247837,680.070726,-2923.053524,-5896.686236
0.891000,-1577.902770,49.723483,-2923.053524,-5537.288467
0.891500,-1577.902770,-1747.257519,-3282.451293,-4818.492928
0.892000,219.078233,-2106.653720,-3282.451293,-4818.492928
0.892500,578.474433,-2466.049920,-1485.462446,-4818.492928
0.893000,937.870634,-3184.842321,-2923.053524,-4818.492928
0.893500,937.870634,1846.704486,-3282.451293,-5177.890697
0.894000,219.078233,-3184.842321,-3282.451293,-4459.095159
0.894500,-499.714168,-1747.257519,-3282.451293,-6974.879544
0.895000,219.078233,-2466.049920,-3282.451293,-6615.481775
0.895500,-140.317968,-4981.823324,-1844.860216,-1583.913004
0.896000,578.474433,-5341.219524,-2923.053524,-4459.095159
0.896500,-140.317968,-4981.823324,-1126.064677,-4459.095159
0.897000,-140.317968,-7856.992928,-1485.462446,-4099.697389
0.897500,1297.266834,-3992.079881,-1844.860216,-4459.095159
0.898000,6688.209842,-4710.872282,-1485.462446,-6974.879544
0.898500,1656.663035,-3273.287480,-1485.462446,-865.117465
0.899000,2375.455436,-2913.891280,-2204.257985,-3380.901851
0.899500,2016.059235,-1476.306478,-4360.644601,-3740.299620
0.900000,1656.663035,-1116.910277,-4720.042370,-3380.901851
0.900500,1656.663035,-4351.476082,-4720.042370,-3380.901851
0.901000,2734.851636,-1835.702678,-1844.860216,-3380.901851
0.901500,1656.663035,-398.117876,-1844.860216,-4099.697389
0.902000,-1577.902770,-309.672717,-2204.257985,-6615.481775
0.902500,-499.714168,-2106.653720,-3282.451293,-5177.890697
0.903000,-140.317968,-2466.049920,-4720.042370,-6615.481775
0.903500,-140.317968,-3544.238522,-4360.644601,-4099.697389
0.904000,578.474433,-6419.408126,-4001.246832,-4818.492928
0.904500,-140.317968,-5341.219524,-407.269138,-4459.095159
0.905000,4172.436438,-3632.683681,1749.117478,-3469.347396
0.905500,1656.663035,-4351.476082,-47.871369,-3380.901851
0.906000,2375.455436,-4710.872282,-1844.860216,-7334.277313
0.906500,2734.851636,-4351.476082,311.526400,-4459.095159
0.907000,2734.851636,-4351.476082,670.924170,-4818.492928
0.907500,2734.851636,-4351.476082,2827.310786,-4906.938473
0.908000,2016.059235,-7226.645686,-47.871369,-5537.288467
0.908500,937.870634,-3184.842321,-2923.053524,-5177.890697
0.909000,-859.110369,-3544.238522,-2563.655754,-5177.890697
0.909500,5969.417441,-3992.079881,-1844.860216,-505.719696
0.910000,578.474433,-3903.634722,-5798.235678,-4818.492928
0.910500,219.078233,-3903.634722,-3282.451293,-5896.686236
0.911000,-499.714168,-4622.427123,-5079.440140,-5177.890697
0.911500,-859.110369,-1387.861319,-4360.644601,-5177.890697
0.912000,-4093.676174,-3903.634722,-4360.644601,-4459.095159
0.912500,-1577.902770,-2466.049920,-4360.644601,-3740.299620
0.913000,-140.317968,-2466.049920,-3282.451293,-6256.084005
0.913500,219.078233,-2106.653720,-1844.860216,-4818.492928
0.914000,1297.266834,-3273.287480,-2923.053524,-4459.095159
0.914500,2375.455436,-2554.495079,311.526400,-5537.288467
0.915000,2016.059235,-3992.079881,-2204.257985,-5177.890697
0.915500,2016.059235,-4351.476082,-2204.257985,-5537.288467
0.916000,219.078233,-2466.049920,-1485.462446,-7693.675083
0.916500,937.870634,-3903.634722,-1485.462446,-5177.890697
0.917000,-140.317968,-4263.030923,-1485.462446,-1224.515235
0.917500,578.474433,-3903.634722,2827.310786,-5985.131781
0.918000,937.870634,-4263.030923,-47.871369,-5896.686236
0.918500,1656.663035,-5070.268483,-2923.053524,-5896.686236
0.919000,219.078233,-4981.823324,-2923.053524,-5896.686236
0.919500,578.474433,-3184.842321,-2204.257985,-4459.095159
0.920000,2016.059235,-4351.476082,-2563.655754,-4818.492928
0.920500,578.474433,-4622.427123,-7235.826756,-4818.492928
0.921000,-1218.506569,-3544.238522,-6157.633448,-5177.890697
0.921500,-859.110369,-3903.634722,-5798.235678,-4818.492928
0.922000,-140.317968,-309.672717,-407.269138,-4459.095159
0.922500,-1218.506569,-5700.615725,-766.666908,-4099.697389
0.923000,4172.436438,-5070.268483,-1844.860216,-4099.697389
0.923500,-859.110369,-4263.030923,-2204.257985,-5177.890697
0.924000,-499.714168,-3184.842321,-4001.246832,-6974.879544
0.924500,219.078233,-2466.049920,-1126.064677,-4459.095159
0.925000,-140.317968,-3903.634722,-5079.440140,-4459.095159
0.925500,-140.317968,-3544.238522,-5798.235678,-3740.299620
0.926000,578.474433,49.723483,-6517.031217,-3740.299620
0.926500,219.078233,-4263.030923,-5798.235678,-3740.299620
0.927000,4531.832639,-5070.268483,-2204.257985,-4459.095159
0.927500,-2656.091371,-3903.634722,-407.269138,-6256.084005
0.928000,-1577.902770,-2106.653720,4264.901863,-4906.938473
0.928500,-1577.902770,-2466.049920,1030.321939,-4818.492928
0.929000,-1577.902770,-1028.465118,1030.321939,-4818.492928
0.929500,-859.110369,-4263.030923,-47.871369,-4099.697389
0.930000,-2656.091371,-4622.427123,-1485.462446,-4099.697389
0.930500,3813.040238,-3992.079881,-3641.849062,-6256.084005
0.931000,937.870634,-4263.030923,-4360.644601,-3380.901851
0.931500,937.870634,-4622.427123,-5079.440140,-4459.095159
0.932000,1656.663035,-3992.079881,2108.515247,-4547.540704
0.932500,2016.059235,-4351.476082,-2923.053524,-3380.901851
0.933000,1656.663035,-1116.910277,-407.269138,-3740.299620
0.933500,578.474433,-5341.219524,1749.117478,-3469.347396
0.934000,578.474433,-4981.823324,3186.708555,-2750.551857
0.934500,-1577.902770,-5700.615725,670.924170,-2302.708543
0.935000,-140.317968,-5700.615725,-1126.064677,-4099.697389
0.935500,-499.714168,-6778.804327,311.526400,-3740.299620
0.936000,-859.110369,-7138.200527,-7235.826756,-4099.697389
0.936500,-1218.506569,-7138.200527,-9751.611141,-4459.095159
0.937000,-499.714168,-9294.577730,-8673.417833,-3380.901851
0.937500,-1577.902770,-7856.992928,-4360.644601,-3740.299620
0.938000,-3374.883773,-7497.596728,-766.666908,213.075843
0.938500,-1218.506569,-6778.804327,-1485.462446,-5177.890697
0.939000,-859.110369,-5700.615725,2467.913016,-4547.540704
0.939500,-140.317968,-5341.219524,-2563.655754,-4818.492928
0.940000,-140.317968,-6419.408126,-2204.257985,-4099.697389
0.940500,-1937.298970,-1387.861319,-3282.451293,-4099.697389
0.941000,-2296.695171,-6060.011925,-4360.644601,-4459.095159
0.941500,-1577.902770,-6778.804327,-4720.042370,-5537.288467
0.942000,-2296.695171,-7497.596728,-5438.837909,-6974.879544
0.942500,-140.317968,-8216.389129,-2923.053524,-3740.299620
0.943000,937.870634,-8216.389129,-7235.826756,-3740.299620
0.943500,937.870634,-8935.181530,-4720.042370,-3740.299620
0.944000,219.078233,-10732.162532,-2923.053524,-3380.901851
0.944500,3813.040238,-8664.230488,-766.666908,-3740.299620
0.945000,-3015.487572,-8216.389129,670.924170,-5177.890697
0.945500,1656.663035,-8664.230488,2827.310786,-4547.540704
0.946000,-499.714168,-8575.785329,1749.117478,-4188.142934
0.946500,-5082.015725,-579.219868,-3911.397389,-1134.665792
0.947000,-6160.204327,-4173.181873,-3192.601851,302.925285
0.947500,-7597.789129,-3813.785672,-3551.999620,1021.720824
0.948000,-2206.846121,-3813.785672,-3551.999620,-56.472484
0.948500,-4722.619524,-3454.389472,-6067.784005,662.323054
0.949000,-2925.638522,-2376.200870,-3192.601851,-56.472484
0.949500,-2206.846121,-3094.993271,-3551.999620,-1134.665792
0.950000,-2206.846121,-6329.559076,-2833.204081,-1134.665792
0.950500,-2925.638522,-5251.370474,-3192.601851,-415.870254
0.951000,-2566.242321,-3454.389472,-3192.601851,-1134.665792
0.951500,-4722.619524,-3813.785672,-3192.601851,-775.268023
0.952000,-2566.242321,-4173.181873,-3192.601851,-4369.245716
0.952500,-1128.657519,-3813.785672,-4630.192928,662.323054
0.953000,308.927283,-3813.785672,-2114.408543,-775.268023
0.953500,668.323483,-3813.785672,-2473.806312,-56.472484
0.954000,-409.865118,-6329.559076,-2114.408543,-56.472484
0.954500,3902.889288,-3454.389472,-2833.204081,662.323054
0.955000,-409.865118,-3813.785672,-1755.010773,-56.472484
0.955500,-769.261319,-3094.993271,-3192.601851,-2931.654639
0.956000,-769.261319,-2735.597071,-4270.795159,-415.870254
0.956500,-769.261319,-2376.200870,-3192.601851,-56.472484
0.957000,-409.865118,-4532.578073,-3911.397389,-415.870254
0.957500,668.323483,-5610.766675,-1395.613004,-1134.665792
0.958000,-2206.846121,-4173.181873,-2473.806312,-1853.461331
0.958500,4981.077889,-4173.181873,-2833.204081,-1853.461331
0.959000,308.927283,-3813.785672,-2114.408543,-1853.461331
0.959500,1027.719684,-2735.597071,1120.171381,-1494.063562
0.960000,668.323483,-3454.389472,-3192.601851,-1853.461331
0.960500,668.323483,-3454.389472,-3911.397389,-2572.256870
0.961000,668.323483,2295.949736,-2562.251857,-1853.461331
0.961500,-2566.242321,-2376.200870,-2833.204081,-1494.063562
0.962000,3543.493087,-2016.804670,-2833.204081,-415.870254
0.962500,308.927283,-1657.408469,-2473.806312,662.323054
0.963000,1746.512085,-1657.408469,1838.966920,-1582.509107
0.963500,1387.115884,-2016.804670,-1755.010773,-2212.859100
0.964000,1746.512085,-1657.408469,760.773612,-1494.063562
0.964500,2824.700686,-3454.389472,-3192.601851,-775.268023
0.965000,4981.077889,-2016.804670,-2114.408543,-56.472484
0.965500,9653.228496,-2376.200870,-2833.204081,-775.268023
0.966000,10731.417098,-1298.012269,-2833.204081,-1853.461331
0.966500,7137.455093,-2016.804670,-3192.601851,-56.472484
0.967000,6059.266491,-2376.200870,-2114.408543,-3291.052408
0.967500,4262.285488,-2376.200870,-3192.601851,-1134.665792
0.968000,3543.493087,2655.345937,-3281.047396,-415.870254
0.968500,1746.512085,-2016.804670,-3192.601851,-775.268023
0.969000,-769.261319,-219.823667,-3192.601851,-1134.665792
0.969500,4262.285488,-938.616068,-1755.010773,-3291.052408
0.970000,1746.512085,-1298.012269,-5348.988467,1740.516362
0.970500,1658.066926,-938.616068,-3551.999620,-1134.665792
0.971000,3902.889288,-2376.200870,-4630.192928,-56.472484
0.971500,6418.662692,-1298.012269,-2114.408543,-415.870254
0.972000,6418.662692,-2376.200870,-2473.806312,-56.472484
0.972500,3902.889288,-2376.200870,-2473.806312,-1134.665792
0.973000,8215.643694,-2376.200870,-1755.010773,-3291.052408
0.973500,7496.851293,-2016.804670,-3192.601851,2818.709670
0.974000,6689.613733,-2016.804670,401.375843,-2212.859100
0.974500,7856.247494,-2376.200870,-4270.795159,-1494.063562
0.975000,7137.455093,1936.553536,-3281.047396,-1494.063562
0.975500,5340.474090,-4532.578073,-2114.408543,-1134.665792
0.976000,8575.039895,-2735.597071,-1755.010773,-2212.859100
0.976500,4262.285488,-2016.804670,-2114.408543,-415.870254
0.977000,929.447285,62.358506,1195.981848,1013.297438
0.977500,932.255068,83.416877,1198.789643,1013.297438
0.978000,929.447285,80.609094,1197.385746,1010.489643
0.978500,932.255068,82.012986,1200.193541,1024.528619
0.979000,929.447285,82.012986,1198.789643,1009.085746
0.979500,930.851177,84.820768,1191.770156,1013.297438
0.980000,929.447285,86.224660,1215.636414,1011.893541
0.980500,928.043394,73.589637,1197.385746,1011.893541
0.981000,928.043394,86.224660,1195.981848,1010.489643
0.981500,929.447285,84.820768,1190.366258,1009.085746
0.982000,925.235611,83.416877,1188.962361,1024.528619
0.982500,928.043394,84.820768,1193.174053,1027.336414
0.983000,928.043394,87.628551,1190.366258,1010.489643
0.983500,925.235611,89.032443,1217.040311,1011.893541
0.984000,928.043394,86.224660,1204.405233,1011.893541
0.984500,930.851177,108.686922,1200.193541,1011.893541
0.985000,930.851177,97.455791,1195.981848,1011.893541
0.985500,932.255068,94.648008,1203.001336,1014.701336
0.986000,926.639502,94.648008,1214.232516,1007.681848
0.986500,930.851177,93.244117,1233.887082,1009.085746
0.987000,933.658959,90.436334,1219.848106,1009.085746
0.987500,929.447285,79.205203,1208.616926,1006.277951
0.988000,932.255068,96.051900,1201.597438,1006.277951
0.988500,930.851177,94.648008,1198.789643,1006.277951
0.989000,921.023937,93.244117,1195.981848,1003.470156
0.989500,922.427828,93.244117,1198.789643,1002.066258
0.990000,928.043394,94.648008,1187.558463,1000.662361
0.990500,929.447285,96.051900,1210.020824,1006.277951
0.991000,929.447285,86.224660,1191.770156,1006.277951
0.991500,929.447285,104.475248,1190.366258,1009.085746
0.992000,922.427828,97.455791,1191.770156,1009.085746
0.992500,926.639502,104.475248,1193.174053,1011.893541
0.993000,937.870634,103.071357,1198.789643,1020.316926
0.993500,930.851177,101.667465,1200.193541,1014.701336
0.994000,929.447285,104.475248,1195.981848,1011.893541
0.994500,930.851177,118.514162,1210.020824,1009.085746
0.995000,930.851177,108.686922,1224.059799,1010.489643
0.995500,928.043394,111.494705,1222.655901,1007.681848
0.996000,919.620045,114.302488,1217.040311,1000.662361
0.996500,932.255068,117.110271,1205.809131,1016.105233
0.997000,928.043394,117.110271,1190.366258,1006.277951
0.997500,928.043394,114.302488,1193.174053,1004.874053
0.998000,925.235611,94.648008,1183.346770,1004.874053
0.998500,922.427828,110.090814,1183.346770,1006.277951
0.999000,912.600588,90.436334,1194.577951,1011.893541
0.999500,923.831720,90.436334,1201.597438,1009.085746
1.000000,921.023937,89.032443,1194.577951,1006.277951
1.000500,925.235611,93.244117,1186.154566,1006.277951
1.001000,928.043394,94.648008,1188.962361,1006.277951
1.001500,930.851177,107.283031,1200.193541,1004.874053
1.002000,932.255068,91.840226,1197.385746,1003.470156
1.002500,928.043394,90.436334,1193.174053,1006.277951
1.003000,919.620045,90.436334,1191.770156,1020.316926
1.003500,929.447285,96.051900,1191.770156,1000.662361
1.004000,930.851177,97.455791,1205.809131,1006.277951
1.004500,930.851177,97.455791,1190.366258,1006.277951
1.005000,930.851177,108.686922,1198.789643,1004.874053
1.005500,929.447285,101.667465,1208.616926,1004.874053
1.006000,915.408371,110.090814,1219.848106,1006.277951
1.006500,916.812263,108.686922,1217.040311,1014.701336
1.007000,916.812263,110.090814,1208.616926,999.258463
1.007500,915.408371,108.686922,1217.040311,1006.277951
1.008000,919.620045,101.667465,1191.770156,1003.470156
1.008500,925.235611,105.879140,1207.213029,1006.277951
1.009000,929.447285,98.859683,1194.577951,1007.681848
1.009500,947.697874,105.879140,1197.385746,1010.489643
1.010000,929.447285,105.879140,1200.193541,1006.277951
1.010500,936.466742,101.667465,1205.809131,1014.701336
1.011000,926.639502,98.859683,1221.252004,1003.470156
1.011500,930.851177,97.455791,1229.675389,1002.066258
1.012000,932.255068,98.859683,1238.098774,1000.662361
1.012500,933.658959,93.244117,1222.655901,999.258463
1.013000,930.851177,98.859683,1205.809131,1004.874053
1.013500,922.427828,96.051900,1208.616926,1018.913029
1.014000,925.235611,96.051900,1224.059799,997.854566
1.014500,926.639502,94.648008,1226.867594,1002.066258
1.015000,923.831720,91.840226,1208.616926,1004.874053
1.015500,923.831720,97.455791,1207.213029,1004.874053
1.016000,926.639502,103.071357,1203.001336,1003.470156
1.016500,928.043394,94.648008,1200.193541,1004.874053
1.017000,921.023937,97.455791,1198.789643,1024.528619
1.017500,928.043394,100.263574,1198.789643,1006.277951
1.018000,929.447285,97.455791,1190.366258,1007.681848
1.018500,926.639502,96.051900,1208.616926,1007.681848
1.019000,922.427828,86.224660,1200.193541,1007.681848
1.019500,923.831720,87.628551,1200.193541,1009.085746
1.020000,930.851177,94.648008,1200.193541,1009.085746
1.020500,926.639502,91.840226,1200.193541,1009.085746
1.021000,929.447285,91.840226,1203.001336,1007.681848
1.021500,930.851177,93.244117,1221.252004,1007.681848
1.022000,933.658959,89.032443,1208.616926,1009.085746
1.022500,932.255068,77.801311,1201.597438,1007.681848
1.023000,933.658959,94.648008,1208.616926,1010.489643
1.023500,925.235611,96.051900,1218.444209,1000.662361
1.024000,925.235611,97.455791,1224.059799,1000.662361
1.024500,925.235611,97.455791,1214.232516,1004.874053
1.025000,923.831720,94.648008,1193.174053,1003.470156
1.025500,922.427828,93.244117,1201.597438,1010.489643
1.026000,926.639502,89.032443,1204.405233,1009.085746
1.026500,932.255068,82.012986,1201.597438,1009.085746
1.027000,933.658959,84.820768,1200.193541,1007.681848
1.027500,954.717331,84.820768,1203.001336,1024.528619
1.028000,935.062851,84.820768,1204.405233,1006.277951
1.028500,936.466742,82.012986,1201.597438,1006.277951
1.029000,936.466742,84.820768,1210.020824,1006.277951
1.029500,933.658959,77.801311,1191.770156,1006.277951
1.030000,935.062851,76.397420,1194.577951,1007.681848
1.030500,942.082308,83.416877,1193.174053,1013.297438
1.031000,928.043394,83.416877,1188.962361,1000.662361
1.031500,925.235611,83.416877,1193.174053,1004.874053
1.032000,923.831720,83.416877,1221.252004,1006.277951
1.032500,926.639502,87.628551,1208.616926,1006.277951
1.033000,922.427828,90.436334,1217.040311,1004.874053
1.033500,923.831720,73.589637,1219.848106,1002.066258
1.034000,942.082308,83.416877,1218.444209,996.450668
1.034500,926.639502,83.416877,1217.040311,1013.297438
1.035000,933.658959,77.801311,1205.809131,1004.874053
1.035500,936.466742,74.993529,1226.867594,1004.874053
1.036000,933.658959,73.589637,1205.809131,1004.874053
1.036500,933.658959,79.205203,1212.828619,1004.874053
1.037000,935.062851,65.166289,1208.616926,1002.066258
1.037500,951.909548,72.185746,1204.405233,1004.874053
1.038000,954.717331,73.589637,1203.001336,1003.470156
1.038500,937.870634,72.185746,1191.770156,1002.066258
1.039000,933.658959,74.993529,1201.597438,1000.662361
1.039500,932.255068,73.589637,1195.981848,1002.066258
1.040000,929.447285,67.974072,1205.809131,1003.470156
1.040500,921.023937,70.781854,1210.020824,1006.277951
1.041000,937.870634,73.589637,1205.809131,999.258463
1.041500,930.851177,74.993529,1205.809131,1020.316926
1.042000,928.043394,76.397420,1200.193541,1004.874053
1.042500,932.255068,77.801311,1203.001336,1009.085746
1.043000,936.466742,77.801311,1200.193541,1009.085746
1.043500,937.870634,77.801311,1201.597438,1010.489643
1.044000,930.851177,73.589637,1203.001336,1009.085746
1.044500,929.447285,73.589637,1207.213029,1000.662361
1.045000,929.447285,77.801311,1221.252004,996.450668
1.045500,936.466742,77.801311,1210.020824,1003.470156
1.046000,936.466742,79.205203,1207.213029,1007.681848
1.046500,936.466742,91.840226,1204.405233,1004.874053
1.047000,936.466742,77.801311,1195.981848,1006.277951
1.047500,928.043394,66.570180,1197.385746,1003.470156
1.048000,921.023937,66.570180,1195.981848,1002.066258
1.048500,950.505656,66.570180,1200.193541,1006.277951
1.049000,933.658959,66.570180,1187.558463,1000.662361
1.049500,930.851177,72.185746,1207.213029,1003.470156
1.050000,930.851177,69.377963,1204.405233,1003.470156
1.050500,932.255068,80.609094,1207.213029,1006.277951
1.051000,930.851177,62.358506,1212.828619,1007.681848
1.051500,925.235611,65.166289,1212.828619,1010.489643
1.052000,936.466742,59.550723,1201.597438,1006.277951
1.052500,690.785746,341.732896,1195.981848,1025.932516
