Time,1,2,3,4
0.000000,947.699458,298.214878,1197.338262,1010.492408
0.000500,930.852693,298.214878,1198.742159,1007.684625
0.001000,930.852693,299.618776,1197.338262,1010.492408
0.001500,932.256590,301.022673,1194.530468,1010.492408
0.002000,930.852693,298.214878,1197.338262,1000.665169
0.002500,933.660487,301.022673,1195.934365,1002.069061
0.003000,929.448795,317.869441,1195.934365,1004.876843
0.003500,929.448795,317.869441,1200.146057,1007.684625
0.004000,936.468281,299.618776,1201.549954,1007.684625
0.004500,933.660487,292.599289,1204.357749,1007.684625
0.005000,919.621515,298.214878,1205.761646,1009.088516
0.005500,925.237104,299.618776,1205.761646,1009.088516
0.006000,932.256590,295.407084,1202.953851,1007.684625
0.006500,929.448795,301.022673,1200.146057,1004.876843
0.007000,947.699458,305.234365,1201.549954,1000.665169
0.007500,935.064384,303.830468,1214.185030,1006.280734
0.008000,930.852693,302.426570,1215.588927,1009.088516
0.008500,929.448795,295.407084,1201.549954,1011.896299
0.009000,928.044898,291.195392,1201.549954,1016.107972
0.009500,944.891664,296.810981,1204.357749,1010.492408
0.010000,933.660487,298.214878,1204.357749,1010.492408
0.010500,930.852693,298.214878,1201.549954,1020.319646
0.011000,932.256590,296.810981,1201.549954,1020.319646
0.011500,933.660487,299.618776,1200.146057,1016.107972
0.012000,953.315047,298.214878,1202.953851,1018.915755
0.012500,929.448795,298.214878,1201.549954,1013.300190
0.013000,930.852693,296.810981,1198.742159,1020.319646
0.013500,932.256590,298.214878,1195.934365,1020.319646
0.014000,933.660487,295.407084,1197.338262,1018.915755
0.014500,949.103356,298.214878,1198.742159,1010.492408
0.015000,928.044898,295.407084,1195.934365,1009.088516
0.015500,933.660487,295.407084,1198.742159,1017.511863
0.016000,933.660487,286.983700,1195.934365,1014.704081
0.016500,932.256590,295.407084,1200.146057,1017.511863
0.017000,919.621515,298.214878,1200.146057,1017.511863
0.017500,930.852693,298.214878,1201.549954,1025.935210
0.018000,933.660487,301.022673,1200.146057,1016.107972
0.018500,932.256590,302.426570,1205.761646,1011.896299
0.019000,940.679973,294.003186,1198.742159,1013.300190
0.019500,937.872178,298.214878,1200.146057,1014.704081
0.020000,928.044898,298.214878,1200.146057,1027.339102
0.020500,933.660487,298.214878,1197.338262,1006.280734
0.021000,932.256590,299.618776,1188.914878,1011.896299
0.021500,933.660487,288.387597,1201.549954,1016.107972
0.022000,936.468281,298.214878,1200.146057,1013.300190
0.022500,933.660487,301.022673,1198.742159,1003.472952
0.023000,933.660487,301.022673,1212.781132,1011.896299
0.023500,933.660487,298.214878,1212.781132,1007.684625
0.024000,932.256590,294.003186,1198.742159,1011.896299
0.024500,929.448795,295.407084,1197.338262,1013.300190
0.025000,923.833207,296.810981,1197.338262,1014.704081
0.025500,935.064384,296.810981,1200.146057,1014.704081
0.026000,933.660487,301.022673,1197.338262,1011.896299
0.026500,935.064384,316.465543,1200.146057,1011.896299
0.027000,933.660487,301.022673,1201.549954,1011.896299
0.027500,923.833207,302.426570,1202.953851,1000.665169
0.028000,932.256590,302.426570,1198.742159,1007.684625
0.028500,932.256590,299.618776,1195.934365,1013.300190
0.029000,935.064384,295.407084,1200.146057,1011.896299
0.029500,936.468281,301.022673,1200.146057,1010.492408
0.030000,949.103356,298.214878,1198.742159,1016.107972
0.030500,935.064384,302.426570,1200.146057,1027.339102
0.031000,930.852693,298.214878,1198.742159,1011.896299
0.031500,932.256590,317.869441,1200.146057,1013.300190
0.032000,930.852693,299.618776,1200.146057,1011.896299
0.032500,923.833207,299.618776,1204.357749,1016.107972
0.033000,930.852693,298.214878,1205.761646,1031.550775
0.033500,933.660487,299.618776,1216.992824,1016.107972
0.034000,933.660487,310.849954,1201.549954,1016.107972
0.034500,930.852693,296.810981,1202.953851,1017.511863
0.035000,929.448795,294.003186,1205.761646,1017.511863
0.035500,925.237104,295.407084,1202.953851,1014.704081
0.036000,932.256590,296.810981,1208.569441,1017.511863
0.036500,930.852693,296.810981,1194.530468,1014.704081
0.037000,935.064384,313.657749,1193.126570,1014.704081
0.037500,950.507253,298.214878,1191.722673,1011.896299
0.038000,932.256590,295.407084,1191.722673,1000.665169
0.038500,932.256590,298.214878,1180.491495,1003.472952
0.039000,932.256590,296.810981,1181.895392,1010.492408
0.039500,933.660487,310.849954,1193.126570,1010.492408
0.040000,932.256590,296.810981,1195.934365,1010.492408
0.040500,943.487767,296.810981,1197.338262,1004.876843
0.041000,930.852693,296.810981,1194.530468,1002.069061
0.041500,930.852693,302.426570,1200.146057,1010.492408
0.042000,933.660487,309.446057,1198.742159,1010.492408
0.042500,943.487767,303.830468,1200.146057,1000.665169
0.043000,930.852693,299.618776,1200.146057,1002.069061
0.043500,933.660487,301.022673,1212.781132,1009.088516
0.044000,933.660487,299.618776,1205.761646,1009.088516
0.044500,935.064384,296.810981,1195.934365,1007.684625
0.045000,921.025412,296.810981,1194.530468,1010.492408
0.045500,925.237104,295.407084,1195.934365,1007.684625
0.046000,932.256590,296.810981,1208.569441,1002.069061
0.046500,932.256590,299.618776,1195.934365,1004.876843
0.047000,933.660487,313.657749,1195.934365,1006.280734
0.047500,932.256590,310.849954,1197.338262,1004.876843
0.048000,925.237104,298.214878,1194.530468,1014.704081
0.048500,936.468281,298.214878,1194.530468,996.453496
0.049000,932.256590,298.214878,1195.934365,1004.876843
0.049500,932.256590,298.214878,1194.530468,1003.472952
0.050000,926.641001,295.407084,1193.126570,1003.472952
0.050500,942.083870,292.599289,1191.722673,1000.665169
0.051000,932.256590,292.599289,1187.510981,996.453496
0.051500,930.852693,295.407084,1193.126570,1002.069061
0.052000,936.468281,294.003186,1193.126570,997.857387
0.052500,929.448795,295.407084,1190.318776,999.261278
0.053000,928.044898,296.810981,1194.530468,1004.876843
0.053500,932.256590,295.407084,1197.338262,993.645714
0.054000,933.660487,291.195392,1194.530468,995.049605
0.054500,932.256590,298.214878,1194.530468,996.453496
0.055000,929.448795,289.791495,1197.338262,996.453496
0.055500,946.295561,286.983700,1197.338262,988.030149
0.056000,933.660487,291.195392,1207.165543,996.453496
0.056500,932.256590,292.599289,1195.934365,997.857387
0.057000,929.448795,306.638262,1194.530468,1000.665169
0.057500,933.660487,292.599289,1194.530468,1002.069061
0.058000,950.507253,294.003186,1191.722673,1004.876843
0.058500,932.256590,294.003186,1190.318776,999.261278
0.059000,932.256590,292.599289,1186.107084,1006.280734
0.059500,932.256590,291.195392,1194.530468,1007.684625
0.060000,926.641001,295.407084,1194.530468,1011.896299
0.060500,939.276075,295.407084,1194.530468,1017.511863
0.061000,930.852693,292.599289,1198.742159,1024.531319
0.061500,930.852693,299.618776,1201.549954,1020.319646
0.062000,930.852693,302.426570,1200.146057,1018.915755
0.062500,933.660487,298.214878,1198.742159,1020.319646
0.063000,937.872178,299.618776,1200.146057,1013.300190
0.063500,930.852693,299.618776,1208.569441,1020.319646
0.064000,933.660487,298.214878,1200.146057,1018.915755
0.064500,933.660487,289.791495,1200.146057,1018.915755
0.065000,933.660487,298.214878,1195.934365,1024.531319
0.065500,935.064384,296.810981,1198.742159,1027.339102
0.066000,932.256590,298.214878,1197.338262,1017.511863
0.066500,936.468281,302.426570,1193.126570,1020.319646
0.067000,935.064384,308.042159,1194.530468,1017.511863
0.067500,933.660487,303.830468,1197.338262,1020.319646
0.068000,943.487767,302.426570,1200.146057,1011.896299
0.068500,932.256590,302.426570,1201.549954,1034.358558
0.069000,935.064384,301.022673,1212.781132,1017.511863
0.069500,933.660487,303.830468,1195.934365,1017.511863
0.070000,930.852693,302.426570,1198.742159,1018.915755
0.070500,921.025412,299.618776,1194.530468,-413.053239
0.071000,758.173342,-3723.950879,-1665.208328,-3201.181102
0.071500,-3913.996389,-3005.155463,-1305.810620,-685.408125
0.072000,-3554.598718,-4442.746296,-1665.208328,33.384153
0.072500,-3913.996389,-5161.541712,-1665.208328,-326.011986
0.073000,758.173342,-4442.746296,-2024.606036,-326.011986
0.073500,-3913.996389,-3723.950879,-2024.606036,4705.533967
0.074000,-2924.248895,-4083.348588,-1665.208328,33.384153
0.074500,-3554.598718,-3723.950879,-2384.003744,-1044.804265
0.075000,-2835.803374,-5520.939420,-2024.606036,-326.011986
0.075500,-4992.189404,-3723.950879,-1665.208328,1470.968711
0.076000,-2205.453552,-3723.950879,-2384.003744,-2482.388823
0.076500,-1757.610359,-3364.553171,2288.166462,-414.457130
0.077000,-2835.803374,-2645.757755,850.575630,-1404.200404
0.077500,-2835.803374,-489.371506,-2024.606036,-326.011986
0.078000,398.775671,-3005.155463,-1305.810620,-685.408125
0.078500,-4632.791733,-4083.348588,-1305.810620,-3560.577241
0.079000,-4273.394061,-4083.348588,-1305.810620,-326.011986
0.079500,-4273.394061,-2286.360047,491.177921,-326.011986
0.080000,-3554.598718,-489.371506,-2024.606036,-326.011986
0.080500,-2476.405703,-4083.348588,-2024.606036,-685.408125
0.081000,-4632.791733,-3723.950879,-1665.208328,-3201.181102
0.081500,-3913.996389,-3005.155463,-1305.810620,-326.011986
0.082000,-3554.598718,-3005.155463,-2024.606036,-326.011986
0.082500,-4273.394061,-1567.564630,-2024.606036,-326.011986
0.083000,-3554.598718,-3364.553171,-1305.810620,-326.011986
0.083500,-3195.201046,-3723.950879,-946.412911,-1044.804265
0.084000,-4632.791733,-4083.348588,-946.412911,-685.408125
0.084500,-3913.996389,-3723.950879,-1305.810620,-326.011986
0.085000,-3913.996389,-4442.746296,850.575630,-326.011986
0.085500,-4273.394061,-6239.734837,-2384.003744,33.384153
0.086000,-320.019673,-3005.155463,-1665.208328,-1763.596544
0.086500,-4632.791733,-3723.950879,-2024.606036,-4279.369520
0.087000,-4632.791733,-3364.553171,-1305.810620,-1044.804265
0.087500,-3913.996389,-5520.939420,-2743.401452,-1044.804265
0.088000,-3554.598718,-5880.337129,-1665.208328,-685.408125
0.088500,-3554.598718,-4442.746296,-2024.606036,392.780293
0.089000,-6070.382419,-3723.950879,-2384.003744,4346.137827
0.089500,-4721.237253,-3005.155463,-3102.799160,-1044.804265
0.090000,-4273.394061,-4083.348588,-4180.992285,-685.408125
0.090500,-4632.791733,-5161.541712,-1305.810620,392.780293
0.091000,-6789.177763,-3364.553171,-2743.401452,392.780293
0.091500,-5710.984748,-3005.155463,-2743.401452,-326.011986
0.092000,-5351.587076,-3723.950879,-2743.401452,-1404.200404
0.092500,-6070.382419,-3723.950879,-3821.594577,-326.011986
0.093000,-6070.382419,-5520.939420,131.780213,-1044.804265
0.093500,-6070.382419,-2286.360047,-2024.606036,-326.011986
0.094000,-3913.996389,-3364.553171,-1665.208328,-1404.200404
0.094500,-4992.189404,-2286.360047,-2384.003744,-1763.596544
0.095000,-4632.791733,-2286.360047,-1305.810620,33.384153
0.095500,-4632.791733,-4083.348588,-2024.606036,-685.408125
0.096000,-5351.587076,-4442.746296,-1665.208328,-326.011986
0.096500,-4273.394061,-2286.360047,-1305.810620,-326.011986
0.097000,-5351.587076,-3005.155463,-946.412911,3986.741688
0.097500,-4721.237253,-3364.553171,-1665.208328,33.384153
0.098000,-6070.382419,-4083.348588,-4180.992285,-326.011986
0.098500,-5710.984748,-7317.927961,-1305.810620,-1044.804265
0.099000,-4992.189404,-4442.746296,-1665.208328,752.176432
0.099500,-4632.791733,-4442.746296,-2024.606036,33.384153
0.100000,-5351.587076,-4083.348588,-2024.606036,-2122.992683
0.100500,-6429.780091,-3364.553171,2288.166462,-414.457130
0.101000,-6789.177763,-3723.950879,1928.768754,-55.060990
0.101500,-7148.575434,-6599.132545,-2743.401452,-326.011986
0.102000,-3554.598718,-4802.144004,-1665.208328,-1404.200404
0.102500,-7867.370778,-5161.541712,-2743.401452,3627.345548
0.103000,-7237.020955,-4802.144004,-2743.401452,-685.408125
0.103500,-6789.177763,-5161.541712,-946.412911,-685.408125
0.104000,-6070.382419,-6599.132545,-2384.003744,-326.011986
0.104500,-6429.780091,-5161.541712,-3102.799160,-326.011986
0.105000,-6070.382419,-5161.541712,-2743.401452,-3201.181102
0.105500,-5710.984748,-4802.144004,-3102.799160,-2122.992683
0.106000,-6070.382419,-5520.939420,131.780213,-326.011986
0.106500,-6789.177763,-7677.325669,-4180.992285,-685.408125
0.107000,-5710.984748,-4442.746296,-4180.992285,33.384153
0.107500,-2476.405703,-4442.746296,-5618.583118,3986.741688
0.108000,-5440.032597,-4442.746296,-4540.389993,-1404.200404
0.108500,-4632.791733,-4083.348588,-6337.378534,-326.011986
0.109000,-5351.587076,-5161.541712,-2743.401452,-685.408125
0.109500,-6789.177763,-3723.950879,-4899.787701,-326.011986
0.110000,-3913.996389,-4442.746296,-4540.389993,-3201.181102
0.110500,-4992.189404,-4802.144004,-4180.992285,3627.345548
0.111000,-5440.032597,-4442.746296,-4899.787701,392.780293
0.111500,-4632.791733,-6239.734837,-3821.594577,-326.011986
0.112000,-4992.189404,-6958.530253,-3102.799160,33.384153
0.112500,-7867.370778,-5161.541712,-3102.799160,-326.011986
0.113000,-7867.370778,-5520.939420,-3102.799160,3986.741688
0.113500,-5440.032597,-4442.746296,-4899.787701,-326.011986
0.114000,-5351.587076,-4802.144004,-5618.583118,-326.011986
0.114500,-4992.189404,-1926.962338,-2384.003744,33.384153
0.115000,-7148.575434,-4442.746296,-1305.810620,-1404.200404
0.115500,-6789.177763,-4802.144004,-946.412911,-3201.181102
0.116000,-4992.189404,-4802.144004,-227.617495,-2482.388823
0.116500,-4273.394061,-4802.144004,1209.973338,995.049605
0.117000,925.237104,313.657749,1205.761646,1000.665169
0.117500,923.833207,315.061646,1205.761646,1000.665169
0.118000,923.833207,303.830468,1191.722673,1003.472952
0.118500,928.044898,316.465543,1193.126570,990.837931
0.119000,921.025412,315.061646,1201.549954,995.049605
0.119500,926.641001,315.061646,1194.530468,1003.472952
0.120000,925.237104,319.273338,1204.357749,1002.069061
0.120500,926.641001,327.696722,1205.761646,1002.069061
0.121000,926.641001,315.061646,1204.357749,1000.665169
0.121500,921.025412,315.061646,1204.357749,995.049605
0.122000,928.044898,315.061646,1191.722673,1003.472952
0.122500,928.044898,319.273338,1205.761646,1000.665169
0.123000,928.044898,317.869441,1198.742159,1002.069061
0.123500,930.852693,308.042159,1195.934365,1002.069061
0.124000,928.044898,316.465543,1191.722673,1000.665169
0.124500,929.448795,316.465543,1191.722673,999.261278
0.125000,929.448795,317.869441,1205.761646,1000.665169
0.125500,930.852693,315.061646,1193.126570,1000.665169
0.126000,929.448795,308.042159,1191.722673,999.261278
0.126500,925.237104,316.465543,1190.318776,999.261278
0.127000,937.872178,316.465543,1191.722673,999.261278
0.127500,928.044898,317.869441,1191.722673,1004.876843
0.128000,925.237104,315.061646,1200.146057,1004.876843
0.128500,925.237104,306.638262,1187.510981,1006.280734
0.129000,928.044898,316.465543,1188.914878,1004.876843
0.129500,926.641001,317.869441,1188.914878,1004.876843
0.130000,926.641001,316.465543,1187.510981,1004.876843
0.130500,923.833207,316.465543,1188.914878,1003.472952
0.131000,925.237104,327.696722,1188.914878,1004.876843
0.131500,926.641001,309.446057,1186.107084,1006.280734
0.132000,933.660487,310.849954,1188.914878,1002.069061
0.132500,926.641001,310.849954,1184.703186,1002.069061
0.133000,926.641001,313.657749,1169.260316,1002.069061
0.133500,926.641001,319.273338,1169.260316,1002.069061
0.134000,926.641001,309.446057,1180.491495,1000.665169
0.134500,930.852693,323.485030,1181.895392,1004.876843
0.135000,943.487767,327.696722,1179.087597,1018.915755
0.135500,929.448795,326.292824,1197.338262,1002.069061
0.136000,926.641001,323.485030,1177.683700,1003.472952
0.136500,925.237104,322.081132,1181.895392,1006.280734
0.137000,929.448795,326.292824,1180.491495,1009.088516
0.137500,922.429310,322.081132,1184.703186,1016.107972
0.138000,926.641001,316.465543,1183.299289,1006.280734
0.138500,925.237104,319.273338,1179.087597,1007.684625
0.139000,926.641001,322.081132,1186.107084,1006.280734
0.139500,922.429310,317.869441,1183.299289,1007.684625
0.140000,918.217618,316.465543,1183.299289,1009.088516
0.140500,923.833207,313.657749,1183.299289,1013.300190
0.141000,925.237104,316.465543,1183.299289,1004.876843
0.141500,922.429310,315.061646,1183.299289,1004.876843
0.142000,926.641001,324.888927,1186.107084,1007.684625
0.142500,918.217618,313.657749,1187.510981,1010.492408
0.143000,925.237104,313.657749,1181.895392,1010.492408
0.143500,923.833207,310.849954,1179.087597,1002.069061
0.144000,925.237104,315.061646,1188.914878,1004.876843
0.144500,925.237104,326.292824,1187.510981,1006.280734
0.145000,926.641001,324.888927,1187.510981,1009.088516
0.145500,922.429310,326.292824,1188.914878,1004.876843
0.146000,921.025412,326.292824,1180.491495,1000.665169
0.146500,928.044898,326.292824,1193.126570,1006.280734
0.147000,926.641001,315.061646,1188.914878,1003.472952
0.147500,926.641001,329.100619,1187.510981,1003.472952
0.148000,930.852693,322.081132,1188.914878,1003.472952
0.148500,925.237104,322.081132,1184.703186,1009.088516
0.149000,928.044898,317.869441,1191.722673,1004.876843
0.149500,926.641001,308.042159,1186.107084,1007.684625
0.150000,929.448795,312.253851,1187.510981,1003.472952
0.150500,928.044898,313.657749,1186.107084,1000.665169
0.151000,926.641001,315.061646,1188.914878,1003.472952
0.151500,926.641001,316.465543,1184.703186,1007.684625
0.152000,923.833207,315.061646,1177.683700,1004.876843
0.152500,926.641001,330.504516,1184.703186,1009.088516
0.153000,918.217618,312.253851,1187.510981,1006.280734
0.153500,926.641001,331.908414,1188.914878,1002.069061
0.154000,922.429310,323.485030,1187.510981,1000.665169
0.154500,922.429310,326.292824,1190.318776,1007.684625
0.155000,926.641001,324.888927,1187.510981,1006.280734
0.155500,925.237104,327.696722,1183.299289,1000.665169
0.156000,929.448795,331.908414,1191.722673,1002.069061
0.156500,928.044898,310.849954,1191.722673,1003.472952
0.157000,933.660487,316.465543,1190.318776,1004.876843
0.157500,923.833207,315.061646,1190.318776,996.453496
0.158000,926.641001,315.061646,1188.914878,1002.069061
0.158500,928.044898,315.061646,1190.318776,1002.069061
0.159000,929.448795,308.042159,1188.914878,1003.472952
0.159500,936.468281,313.657749,1190.318776,1003.472952
0.160000,937.872178,315.061646,1186.107084,1003.472952
0.160500,928.044898,316.465543,1184.703186,1007.684625
0.161000,929.448795,315.061646,1187.510981,1003.472952
0.161500,928.044898,308.042159,1190.318776,1004.876843
0.162000,943.487767,312.253851,1190.318776,1007.684625
0.162500,947.699458,308.042159,1190.318776,1010.492408
0.163000,926.641001,305.234365,1204.357749,1011.896299
0.163500,926.641001,306.638262,1191.722673,1013.300190
0.164000,928.044898,303.830468,1191.722673,1009.088516
0.164500,923.833207,309.446057,1191.722673,1011.896299
0.165000,923.833207,312.253851,1191.722673,1011.896299
0.165500,925.237104,315.061646,1194.530468,1010.492408
0.166000,925.237104,315.061646,1190.318776,1009.088516
0.166500,926.641001,319.273338,1188.914878,1007.684625
0.167000,925.237104,313.657749,1188.914878,1004.876843
0.167500,936.468281,315.061646,1188.914878,1006.280734
0.168000,922.429310,316.465543,1191.722673,1004.876843
0.168500,925.237104,316.465543,1187.510981,1011.896299
0.169000,922.429310,313.657749,1188.914878,1010.492408
0.169500,926.641001,310.849954,1188.914878,1010.492408
0.170000,926.641001,317.869441,1193.126570,1014.704081
0.170500,925.237104,315.061646,1188.914878,1004.876843
0.171000,923.833207,316.465543,1198.742159,1004.876843
0.171500,925.237104,326.292824,1193.126570,1006.280734
0.172000,923.833207,313.657749,1195.934365,1006.280734
0.172500,915.409824,315.061646,1194.530468,1003.472952
0.173000,921.025412,315.061646,1197.338262,995.049605
0.173500,926.641001,315.061646,1214.185030,1002.069061
0.174000,928.044898,319.273338,1195.934365,1004.876843
0.174500,921.025412,337.524003,1195.934365,1004.876843
0.175000,918.217618,319.273338,1194.530468,1000.665169
0.175500,918.217618,317.869441,1193.126570,1014.704081
0.176000,928.044898,315.061646,1197.338262,1003.472952
0.176500,929.448795,306.638262,1198.742159,1003.472952
0.177000,930.852693,312.253851,1200.146057,1004.876843
0.177500,922.429310,316.465543,1200.146057,995.049605
0.178000,921.025412,315.061646,1198.742159,997.857387
0.178500,926.641001,315.061646,1218.396722,1007.684625
0.179000,928.044898,313.657749,1200.146057,1004.876843
0.179500,928.044898,330.504516,1198.742159,1006.280734
0.180000,919.621515,315.061646,1197.338262,1000.665169
0.180500,919.621515,317.869441,1195.934365,1004.876843
0.181000,925.237104,316.465543,1194.530468,1003.472952
0.181500,925.237104,315.061646,1188.914878,1006.280734
0.182000,926.641001,313.657749,1194.530468,1004.876843
0.182500,933.660487,315.061646,1197.338262,1004.876843
0.183000,929.448795,313.657749,1194.530468,996.453496
0.183500,919.621515,319.273338,1201.549954,1006.280734
0.184000,926.641001,333.312311,1193.126570,1006.280734
0.184500,928.044898,340.331797,1193.126570,1009.088516
0.185000,930.852693,355.774668,1194.530468,997.857387
0.185500,926.641001,352.966873,1194.530468,999.261278
0.186000,926.641001,343.139592,1195.934365,1010.492408
0.186500,928.044898,334.716208,1209.973338,1010.492408
0.187000,926.641001,316.465543,1194.530468,1010.492408
0.187500,930.852693,317.869441,1193.126570,1010.492408
0.188000,918.217618,310.849954,1190.318776,1003.472952
0.188500,926.641001,306.638262,1194.530468,1011.896299
0.189000,929.448795,309.446057,1195.934365,1011.896299
0.189500,928.044898,295.407084,1194.530468,1009.088516
0.190000,933.660487,309.446057,1195.934365,1006.280734
0.190500,918.217618,310.849954,1197.338262,1004.876843
0.191000,933.660487,313.657749,1197.338262,1006.280734
0.191500,928.044898,312.253851,1198.742159,1004.876843
0.192000,929.448795,309.446057,1194.530468,1003.472952
0.192500,929.448795,302.426570,1194.530468,1000.665169
0.193000,940.679973,305.234365,1194.530468,1002.069061
0.193500,921.025412,306.638262,1194.530468,999.261278
0.194000,926.641001,306.638262,1195.934365,1006.280734
0.194500,929.448795,310.849954,1197.338262,1006.280734
0.195000,925.237104,330.504516,1195.934365,1010.492408
0.195500,923.833207,312.253851,1197.338262,1004.876843
0.196000,918.217618,310.849954,1198.742159,997.857387
0.196500,925.237104,313.657749,1198.742159,996.453496
0.197000,925.237104,317.869441,1195.934365,1003.472952
0.197500,923.833207,338.927900,1195.934365,1000.665169
0.198000,919.621515,327.696722,1193.126570,1004.876843
0.198500,921.025412,330.504516,1197.338262,1016.107972
0.199000,925.237104,327.696722,1184.703186,1006.280734
0.199500,925.237104,317.869441,1190.318776,1006.280734
0.200000,923.833207,308.042159,1193.126570,1004.876843
0.200500,925.237104,319.273338,1195.934365,1004.876843
0.201000,930.852693,319.273338,1195.934365,1004.876843
0.201500,919.621515,317.869441,1197.338262,1002.069061
0.202000,925.237104,319.273338,1204.357749,1004.876843
0.202500,925.237104,305.234365,1188.914878,1004.876843
0.203000,926.641001,313.657749,1191.722673,1003.472952
0.203500,933.660487,313.657749,1193.126570,1002.069061
0.204000,925.237104,309.446057,1194.530468,1003.472952
0.204500,926.641001,309.446057,1194.530468,1002.069061
0.205000,926.641001,302.426570,1193.126570,1003.472952
0.205500,928.044898,309.446057,1193.126570,1003.472952
0.206000,928.044898,309.446057,1193.126570,995.049605
0.206500,925.237104,308.042159,1198.742159,1004.876843
0.207000,928.044898,308.042159,1198.742159,1000.665169
0.207500,926.641001,306.638262,1191.722673,1002.069061
0.208000,929.448795,298.214878,1193.126570,1000.665169
0.208500,946.295561,309.446057,1195.934365,999.261278
0.209000,943.487767,313.657749,1195.934365,988.030149
0.209500,929.448795,315.061646,1209.973338,999.261278
0.210000,935.064384,306.638262,1190.318776,1009.088516
0.210500,928.044898,305.234365,1188.914878,1021.723537
0.211000,937.872178,302.426570,1186.107084,1011.896299
0.211500,935.064384,306.638262,1184.703186,1010.492408
0.212000,935.064384,299.618776,1191.722673,1010.492408
0.212500,936.468281,306.638262,1191.722673,1010.492408
0.213000,956.122841,303.830468,1193.126570,1004.876843
0.213500,953.315047,306.638262,1194.530468,1025.935210
0.214000,953.315047,305.234365,1208.569441,1010.492408
0.214500,951.911150,295.407084,1194.530468,1010.492408
0.215000,953.315047,303.830468,1197.338262,1009.088516
0.215500,967.354019,305.234365,1197.338262,1006.280734
0.216000,949.103356,308.042159,1200.146057,1000.665169
0.216500,947.699458,305.234365,1214.185030,1009.088516
0.217000,947.699458,294.003186,1195.934365,1010.492408
0.217500,942.083870,298.214878,1193.126570,1009.088516
0.218000,936.468281,306.638262,1193.126570,1011.896299
0.218500,942.083870,306.638262,1191.722673,1018.915755
0.219000,947.699458,305.234365,1200.146057,1010.492408
0.219500,965.950121,295.407084,1194.530468,1010.492408
0.220000,985.604682,306.638262,1193.126570,1009.088516
0.220500,992.624167,305.234365,1194.530468,1000.665169
0.221000,964.546224,308.042159,1193.126570,1002.069061
0.221500,950.507253,301.022673,1190.318776,1009.088516
0.222000,935.064384,296.810981,1193.126570,1007.684625
0.222500,922.429310,299.618776,1193.126570,1009.088516
0.223000,906.986441,306.638262,1193.126570,1009.088516
0.223500,906.986441,305.234365,1193.126570,1006.280734
0.224000,911.198132,306.638262,1197.338262,1013.300190
0.224500,912.602030,298.214878,1193.126570,1011.896299
0.225000,919.621515,299.618776,1194.530468,1010.492408
0.225500,922.429310,305.234365,1195.934365,1011.896299
0.226000,921.025412,301.022673,1194.530468,1018.915755
0.226500,926.641001,298.214878,1191.722673,1024.531319
0.227000,926.641001,296.810981,1188.914878,1013.300190
0.227500,919.621515,286.983700,1186.107084,1013.300190
0.228000,923.833207,301.022673,1193.126570,1010.492408
0.228500,932.256590,299.618776,1195.934365,1003.472952
0.229000,925.237104,299.618776,1200.146057,1011.896299
0.229500,930.852693,302.426570,1193.126570,1011.896299
0.230000,940.679973,305.234365,1193.126570,1011.896299
0.230500,937.872178,295.407084,1195.934365,1009.088516
0.231000,944.891664,302.426570,1194.530468,1009.088516
0.231500,944.891664,302.426570,1191.722673,1004.876843
0.232000,949.103356,302.426570,1193.126570,1003.472952
0.232500,960.334533,305.234365,7036.147123,-4637.361768
0.233000,-3464.749300,-2196.510620,9206.572345,-2480.984932
0.233500,-3464.749300,-3634.101452,6331.390680,-3199.777211
0.234000,-4183.544643,-4352.896869,5253.197555,-2480.984932
0.234500,-5261.737658,-399.522079,4534.402139,-2480.984932
0.235000,-1667.760941,-2555.908328,3096.811306,-2480.984932
0.235500,-3105.351628,-2915.306036,581.027348,-3111.332067
0.236000,-3105.351628,-3634.101452,1659.220473,-2480.984932
0.236500,-2745.953956,-5071.692285,-2653.552025,-3470.728206
0.237000,488.625089,-2915.306036,-3731.745150,-2392.539788
0.237500,-230.170255,-1837.112911,-4450.540566,-5267.708904
0.238000,-3824.146971,-2555.908328,-2653.552025,-2392.539788
0.238500,-3105.351628,-2555.908328,-4809.938274,-2392.539788
0.239000,-3105.351628,-1477.715203,-1575.358901,-1673.747509
0.239500,-3824.146971,1397.466462,-3101.395263,-2392.539788
0.240000,-2027.158613,-2555.908328,-4809.938274,-4908.312764
0.240500,-3824.146971,-2555.908328,-5888.131399,-2392.539788
0.241000,-3105.351628,-2555.908328,-8763.313065,-3111.332067
0.241500,-2745.953956,-1837.112911,-4091.142858,-2033.143649
0.242000,-1667.760941,-2915.306036,-2294.154317,-2033.143649
0.242500,-4542.942315,-3274.703744,-1215.961192,-2033.143649
0.243000,-4902.339986,-2915.306036,-1215.961192,842.025467
0.243500,-3464.749300,-2915.306036,-497.165776,-2392.539788
0.244000,-3105.351628,-2915.306036,-497.165776,-1673.747509
0.244500,-3464.749300,-3274.703744,2378.015889,-2840.381071
0.245000,-3464.749300,-2915.306036,2378.015889,-2121.588792
0.245500,-4542.942315,-2915.306036,940.425057,-236.162951
0.246000,-3824.146971,-2915.306036,-497.165776,-2392.539788
0.246500,-3824.146971,-2196.510620,4175.004430,-2840.381071
0.247000,-3105.351628,-4712.294577,-137.768068,-2033.143649
0.247500,-2386.556285,-5071.692285,-137.768068,-2392.539788
0.248000,1926.215775,-2644.353857,581.027348,-5986.501183
0.248500,-2386.556285,-2555.908328,-137.768068,-4189.520485
0.249000,-2386.556285,-2555.908328,-3012.949733,-2392.539788
0.249500,-2027.158613,-1837.112911,-856.563484,-2392.539788
0.250000,-2027.158613,1397.466462,133.184111,-3470.728206
0.250500,-1308.363270,-3274.703744,940.425057,-5627.105043
0.251000,-2027.158613,-2915.306036,221.629640,-4189.520485
0.251500,-2027.158613,-2915.306036,-1575.358901,-2392.539788
0.252000,-1667.760941,-2555.908328,-137.768068,-2033.143649
0.252500,-1667.760941,-399.522079,1659.220473,-2480.984932
0.253000,-3824.146971,-3993.499160,221.629640,-1314.351370
0.253500,-1308.363270,-3274.703744,940.425057,-595.559091
0.254000,-1667.760941,-3274.703744,-1934.756609,-4189.520485
0.254500,-2386.556285,-3274.703744,2378.015889,-2480.984932
0.255000,-1667.760941,-2555.908328,-497.165776,-2392.539788
0.255500,-1667.760941,-758.919787,-856.563484,-2033.143649
0.256000,-230.170255,-2555.908328,-497.165776,-3111.332067
0.256500,-2386.556285,-2555.908328,-137.768068,-4189.520485
0.257000,-2027.158613,-2196.510620,-137.768068,-3470.728206
0.257500,-1667.760941,-2555.908328,-856.563484,-3111.332067
0.258000,-2027.158613,-1118.317495,-856.563484,-4189.520485
0.258500,-1667.760941,-2196.510620,-497.165776,-4908.312764
0.259000,-2027.158613,-2555.908328,-856.563484,-3111.332067
0.259500,-3105.351628,-2196.510620,2378.015889,-4637.361768
0.260000,-3464.749300,-1837.112911,-2294.154317,-5627.105043
0.260500,-2745.953956,-2196.510620,-1215.961192,-6705.293462
0.261000,-2386.556285,-2196.510620,-1575.358901,-9221.066438
0.261500,-2745.953956,-1477.715203,-1215.961192,-8142.878019
0.262000,-3105.351628,-2196.510620,3815.606722,-5356.154047
0.262500,-3464.749300,-2915.306036,-497.165776,-4548.916625
0.263000,-3464.749300,-4352.896869,581.027348,-4189.520485
0.263500,488.625089,-3274.703744,581.027348,-3830.124346
0.264000,129.227417,-2555.908328,940.425057,-4908.312764
0.264500,-2745.953956,-2555.908328,940.425057,-4189.520485
0.265000,-3824.146971,-2555.908328,-137.768068,-3470.728206
0.265500,-2386.556285,-3634.101452,-137.768068,-3111.332067
0.266000,-3464.749300,-2555.908328,221.629640,-4189.520485
0.266500,-4542.942315,-2196.510620,581.027348,-5627.105043
0.267000,-3824.146971,-2555.908328,2018.618181,-4637.361768
0.267500,-4183.544643,-2555.908328,4893.799847,-3918.569490
0.268000,-3464.749300,-4712.294577,3096.811306,-3559.173350
0.268500,-589.567926,-2555.908328,3456.209014,-3918.569490
0.269000,-1667.760941,-2915.306036,3815.606722,-4996.757908
0.269500,-4902.339986,-1837.112911,4175.004430,-4637.361768
0.270000,-3824.146971,-2196.510620,4175.004430,-4277.965629
0.270500,-3464.749300,49.725057,-2563.702598,-1583.898474
0.271000,-1937.309195,-309.672652,-2563.702598,-3740.275311
0.271500,-1577.911523,768.520473,-1573.955003,-3380.879172
0.272000,-1937.309195,2206.111306,-4449.136669,-3021.483032
0.272500,-1937.309195,2206.111306,-3011.545836,-2662.086893
0.273000,-3015.502210,2924.906722,-3370.943544,-3380.879172
0.273500,937.872178,3643.702139,-3370.943544,-1583.898474
0.274000,-1218.513852,7597.076929,-1573.955003,-3021.483032
0.274500,-1577.911523,-10013.410773,-3011.545836,-3380.879172
0.275000,-499.718508,-10732.206189,-3370.943544,-4099.671450
0.275500,-499.718508,-10013.410773,-3011.545836,-6256.048287
0.276000,-1218.513852,10831.656302,-3730.341253,-6615.444427
0.276500,-1937.309195,7597.076929,-2652.148128,-4099.671450
0.277000,-2296.706867,3284.304430,-1933.352712,-3021.483032
0.277500,-2296.706867,-5700.638274,-2923.100306,-3380.879172
0.278000,-1218.513852,-9294.615356,-2563.702598,-3740.275311
0.278500,-4453.092897,-8935.217648,-4001.293431,-3380.879172
0.279000,-2656.104538,-11091.603897,-3641.895723,-3021.483032
0.279500,-1577.911523,-10732.206189,-6876.475097,-3380.879172
0.280000,-1937.309195,-9294.615356,-6157.679680,-3380.879172
0.280500,-1937.309195,-9654.013065,-5798.281972,-3380.879172
0.281000,-3015.502210,-8575.819940,-5798.281972,-3380.879172
0.281500,2375.462865,-8304.867762,-5079.486556,-5537.256008
0.282000,-1577.911523,-5341.240566,-407.316349,-3021.483032
0.282500,-1577.911523,-3903.649733,-4720.088847,-1943.294614
0.283000,-3015.502210,1846.713598,-4808.534377,-2302.690753
0.283500,-3015.502210,-2466.058901,-4360.691139,-3021.483032
0.284000,-4812.490568,-2466.058901,-4001.293431,-5896.652148
0.284500,-2296.706867,-2466.058901,-7235.872805,-3380.879172
0.285000,-2296.706867,-1747.263484,-5438.884264,-3380.879172
0.285500,-2296.706867,3284.304430,-3370.943544,-3380.879172
0.286000,-3374.899882,-1387.865776,-2923.100306,-3380.879172
0.286500,-4453.092897,-1747.263484,-3282.498015,931.874502
0.287000,-1577.911523,-2466.058901,-6157.679680,-2302.690753
0.287500,-1937.309195,-4263.047442,-5079.486556,-1583.898474
0.288000,-859.116180,-8216.422232,-2923.100306,-2302.690753
0.288500,-1218.513852,-10013.410773,-2204.304890,-4099.671450
0.289000,3094.258208,-7586.072345,-2204.304890,-3740.275311
0.289500,2375.462865,-5789.083804,-1485.509474,-3380.879172
0.290000,-2296.706867,-2466.058901,-1844.907182,-3021.483032
0.290500,-1577.911523,-3184.854317,-2563.702598,-3021.483032
0.291000,-1937.309195,-3903.649733,-3282.498015,-3380.879172
0.291500,-1218.513852,-2106.661192,-2563.702598,-5537.256008
0.292000,-1218.513852,-1387.865776,-1844.907182,-5896.652148
0.292500,-1937.309195,49.725057,2108.467608,-3828.720455
0.293000,-1577.911523,1846.713598,-3011.545836,-3021.483032
0.293500,-1218.513852,4003.099847,-3370.943544,-3021.483032
0.294000,-1937.309195,768.520473,-3730.341253,-2662.086893
0.294500,-1218.513852,2565.509014,-3011.545836,-3740.275311
0.295000,-1937.309195,2565.509014,-3370.943544,213.082223
0.295500,-1937.309195,2206.111306,-4449.136669,-3021.483032
0.296000,-2296.706867,768.520473,-2292.750420,-3021.483032
0.296500,-2296.706867,-1747.263484,-2204.304890,-4099.671450
0.297000,1656.667522,1039.472652,-1933.352712,-4818.463729
0.297500,-2656.104538,49.725057,-2204.304890,-4459.067590
0.298000,-2656.104538,768.520473,-2292.750420,-2662.086893
0.298500,-2296.706867,-2825.456609,-2204.304890,-3021.483032
0.299000,-1937.309195,1487.315889,-2652.148128,-2302.690753
0.299500,-1577.911523,-1387.865776,-1485.509474,-865.106195
0.300000,-859.116180,-1387.865776,-1485.509474,213.082223
0.300500,-1218.513852,-1747.263484,-4360.691139,-3740.275311
0.301000,-859.116180,-3184.854317,-2204.304890,-4099.671450
0.301500,-859.116180,-6419.433691,-2204.304890,-3021.483032
0.302000,-140.320837,-5341.240566,-2563.702598,-3021.483032
0.302500,219.076835,-6060.035983,-1844.907182,-3380.879172
0.303000,-859.116180,-4981.842858,-2204.304890,-4459.067590
0.303500,-499.718508,-3903.649733,-3282.498015,-3380.879172
0.304000,-499.718508,768.520473,-1933.352712,-3021.483032
0.304500,922.429310,303.830468,1188.914878,1017.511863
0.305000,926.641001,316.465543,1200.146057,1018.915755
0.305500,921.025412,312.253851,1198.742159,1020.319646
0.306000,930.852693,301.022673,1197.338262,1017.511863
0.306500,923.833207,302.426570,1197.338262,1042.781905
0.307000,922.429310,298.214878,1195.934365,1035.762449
0.307500,918.217618,298.214878,1188.914878,1035.762449
0.308000,916.813721,301.022673,1198.742159,1037.166340
0.308500,912.602030,298.214878,1200.146057,1037.166340
0.309000,901.370852,298.214878,1197.338262,1037.166340
0.309500,911.198132,299.618776,1193.126570,1011.896299
0.310000,914.005927,298.214878,1194.530468,1014.704081
0.310500,916.813721,298.214878,1186.107084,1013.300190
0.311000,915.409824,288.387597,1197.338262,1014.704081
0.311500,932.256590,296.810981,1193.126570,1017.511863
0.312000,918.217618,296.810981,1194.530468,1014.704081
0.312500,918.217618,294.003186,1186.107084,1007.684625
0.313000,919.621515,286.983700,1200.146057,1002.069061
0.313500,921.025412,291.195392,1195.934365,1000.665169
0.314000,919.621515,288.387597,1197.338262,997.857387
0.314500,918.217618,296.810981,1197.338262,992.241822
0.315000,916.813721,299.618776,1195.934365,1000.665169
0.315500,919.621515,302.426570,1190.318776,1007.684625
0.316000,922.429310,295.407084,1197.338262,1013.300190
0.316500,921.025412,313.657749,1198.742159,1014.704081
0.317000,933.660487,303.830468,1197.338262,1013.300190
0.317500,921.025412,302.426570,1200.146057,1007.684625
0.318000,923.833207,301.022673,1198.742159,1014.704081
0.318500,922.429310,303.830468,1197.338262,1016.107972
0.319000,922.429310,301.022673,1195.934365,1016.107972
0.319500,942.083870,299.618776,1198.742159,1013.300190
0.320000,922.429310,301.022673,1200.146057,1004.876843
0.320500,926.641001,301.022673,1198.742159,1014.704081
0.321000,922.429310,299.618776,1215.588927,1014.704081
0.321500,925.237104,289.791495,1200.146057,1011.896299
0.322000,928.044898,292.599289,1200.146057,1011.896299
0.322500,926.641001,299.618776,1200.146057,1004.876843
0.323000,922.429310,299.618776,1200.146057,1017.511863
0.323500,923.833207,289.791495,1197.338262,1013.300190
0.324000,926.641001,291.195392,1197.338262,1017.511863
0.324500,929.448795,303.830468,1200.146057,1013.300190
0.325000,925.237104,301.022673,1201.549954,1021.723537
0.325500,928.044898,301.022673,1201.549954,1010.492408
0.326000,928.044898,301.022673,1201.549954,1016.107972
0.326500,929.448795,298.214878,1215.588927,1018.915755
0.327000,925.237104,313.657749,1201.549954,1016.107972
0.327500,942.083870,298.214878,1198.742159,1017.511863
0.328000,925.237104,298.214878,1200.146057,1007.684625
0.328500,922.429310,299.618776,1201.549954,1016.107972
0.329000,919.621515,292.599289,1201.549954,1017.511863
0.329500,916.813721,292.599289,1197.338262,1017.511863
0.330000,916.813721,302.426570,1200.146057,1014.704081
0.330500,928.044898,301.022673,1198.742159,1014.704081
0.331000,916.813721,302.426570,1200.146057,1017.511863
0.331500,916.813721,296.810981,1195.934365,1018.915755
0.332000,916.813721,298.214878,1202.953851,1018.915755
0.332500,919.621515,313.657749,1205.761646,1020.319646
0.333000,914.005927,-2196.510620,-2294.154317,-2751.935927
0.333500,-2386.556285,-40.124370,-1934.756609,-3111.332067
0.334000,-3105.351628,-3634.101452,-3012.949733,-2392.539788
0.334500,-4183.544643,-1837.112911,-2294.154317,-2392.539788
0.335000,-2386.556285,-2196.510620,-4091.142858,-2033.143649
0.335500,-3464.749300,-1837.112911,-3372.347442,-2392.539788
0.336000,-2745.953956,-1837.112911,221.629640,-2392.539788
0.336500,-5980.533001,-2196.510620,940.425057,-1673.747509
0.337000,-2027.158613,-1837.112911,940.425057,2279.610025
0.337500,-2475.001805,-2196.510620,1659.220473,-2480.984932
0.338000,-2386.556285,-2196.510620,5253.197555,-3199.777211
0.338500,-2386.556285,-2555.908328,1659.220473,-3199.777211
0.339000,-5261.737658,-2555.908328,1659.220473,-4277.965629
0.339500,-3105.351628,-1477.715203,1659.220473,-6434.342466
0.340000,-3105.351628,-2196.510620,940.425057,-5627.105043
0.340500,-3464.749300,-2196.510620,-856.563484,-3830.124346
0.341000,-3105.351628,-2196.510620,-137.768068,-3470.728206
0.341500,-2745.953956,-1837.112911,581.027348,-4189.520485
0.342000,-3824.146971,-4352.896869,940.425057,-4189.520485
0.342500,-5980.533001,-2555.908328,581.027348,-236.162951
0.343000,-3464.749300,-2196.510620,1659.220473,-3918.569490
0.343500,-3464.749300,-2915.306036,5612.595263,-3559.173350
0.344000,-3464.749300,-5071.692285,581.027348,-3470.728206
0.344500,-948.965598,-2196.510620,1659.220473,-4996.757908
0.345000,-3464.749300,-2196.510620,-137.768068,-5986.501183
0.345500,-4183.544643,-2196.510620,1659.220473,-5715.550187
0.346000,-3105.351628,-1477.715203,5253.197555,-6074.946326
0.346500,-2745.953956,-1477.715203,-6606.926815,-5356.154047
0.347000,-4542.942315,-2915.306036,-3372.347442,-4996.757908
0.347500,-3105.351628,-1477.715203,-7685.119940,-4277.965629
0.348000,-230.170255,-1477.715203,8487.776929,-2480.984932
0.348500,-2745.953956,-1837.112911,581.027348,-4548.916625
0.349000,-2745.953956,-2196.510620,-3372.347442,-4189.520485
0.349500,-2745.953956,-758.919787,-4450.540566,-4189.520485
0.350000,-4902.339986,-2196.510620,-5888.131399,-3111.332067
0.350500,-3105.351628,-2555.908328,-5888.131399,-3111.332067
0.351000,-2745.953956,-2196.510620,-4450.540566,-4189.520485
0.351500,-3464.749300,-1837.112911,-137.768068,-3111.332067
0.352000,-3105.351628,-3993.499160,-3012.949733,-2392.539788
0.352500,-3105.351628,-2555.908328,-4091.142858,-954.955230
0.353000,2285.613447,-3003.751566,-4450.540566,123.233188
0.353500,-2745.953956,-2555.908328,-5888.131399,-954.955230
0.354000,-3105.351628,-1837.112911,-1575.358901,-1314.351370
0.354500,-3105.351628,-2555.908328,-4091.142858,-1673.747509
0.355000,-2745.953956,-5071.692285,-1215.961192,-1673.747509
0.355500,-3464.749300,-3993.499160,1299.822765,-1762.192653
0.356000,-3105.351628,-2555.908328,2378.015889,-324.608095
0.356500,-2386.556285,-2196.510620,2378.015889,-3199.777211
0.357000,-2386.556285,-2196.510620,-137.768068,-3830.124346
0.357500,-3105.351628,-3274.703744,581.027348,-4189.520485
0.358000,-4542.942315,-399.522079,221.629640,-4908.312764
0.358500,-948.965598,-1837.112911,940.425057,-4548.916625
0.359000,-3824.146971,-2555.908328,-137.768068,-6345.897322
0.359500,-3464.749300,-2196.510620,-1215.961192,-5986.501183
0.360000,-3105.351628,-2196.510620,940.425057,-5267.708904
0.360500,-5261.737658,-2555.908328,581.027348,-4548.916625
0.361000,-5261.737658,-2555.908328,221.629640,-3830.124346
0.361500,-1667.760941,-2196.510620,581.027348,-2033.143649
0.362000,-1667.760941,-2196.510620,-1934.756609,-4189.520485
0.362500,-1667.760941,-1477.715203,-497.165776,-4189.520485
0.363000,-1667.760941,-758.919787,-137.768068,-4548.916625
0.363500,-1667.760941,1756.864171,133.184111,-4189.520485
0.364000,-589.567926,-1837.112911,-137.768068,123.233188
0.364500,-1308.363270,-2555.908328,221.629640,-236.162951
0.365000,-1308.363270,-2196.510620,-856.563484,-4189.520485
0.365500,-1667.760941,-4352.896869,1659.220473,-4277.965629
0.366000,-2027.158613,-2196.510620,1659.220473,-4637.361768
0.366500,-2027.158613,-2196.510620,940.425057,-5986.501183
0.367000,-1667.760941,-2196.510620,2378.015889,-3559.173350
0.367500,-2027.158613,-2196.510620,3456.209014,-4637.361768
0.368000,-2027.158613,-3274.703744,2378.015889,-4637.361768
0.368500,-2386.556285,-3993.499160,3815.606722,-4637.361768
0.369000,937.872178,309.446057,1200.146057,1017.511863
0.369500,918.217618,309.446057,1193.126570,1003.472952
0.370000,922.429310,310.849954,1198.742159,1003.472952
0.370500,914.005927,306.638262,1197.338262,1002.069061
0.371000,914.005927,308.042159,1200.146057,1003.472952
0.371500,912.602030,310.849954,1207.165543,1002.069061
0.372000,921.025412,310.849954,1224.012311,1000.665169
0.372500,922.429310,309.446057,1205.761646,1006.280734
0.373000,923.833207,303.830468,1207.165543,1004.876843
0.373500,921.025412,309.446057,1207.165543,997.857387
0.374000,926.641001,308.042159,1204.357749,1016.107972
0.374500,923.833207,308.042159,1205.761646,1004.876843
0.375000,923.833207,312.253851,1194.530468,1009.088516
0.375500,922.429310,310.849954,1205.761646,1004.876843
0.376000,911.198132,310.849954,1205.761646,1003.472952
0.376500,915.409824,306.638262,1205.761646,1017.511863
0.377000,926.641001,312.253851,1204.357749,1003.472952
0.377500,923.833207,312.253851,1197.338262,1002.069061
0.378000,926.641001,312.253851,1208.569441,1004.876843
0.378500,922.429310,305.234365,1208.569441,1004.876843
0.379000,936.468281,309.446057,1208.569441,1000.665169
0.379500,925.237104,310.849954,1214.185030,997.857387
0.380000,926.641001,312.253851,1218.396722,1006.280734
0.380500,930.852693,310.849954,1214.185030,1002.069061
0.381000,936.468281,313.657749,1212.781132,1002.069061
0.381500,928.044898,305.234365,1209.973338,1002.069061
0.382000,929.448795,310.849954,1209.973338,1006.280734
0.382500,928.044898,312.253851,1204.357749,1002.069061
0.383000,925.237104,313.657749,1219.800619,1000.665169
0.383500,922.429310,309.446057,1208.569441,1002.069061
0.384000,919.621515,303.830468,1207.165543,1002.069061
0.384500,915.409824,310.849954,1207.165543,992.241822
0.385000,923.833207,312.253851,1209.973338,988.030149
0.385500,926.641001,312.253851,1224.012311,999.261278
0.386000,928.044898,312.253851,1209.973338,999.261278
0.386500,928.044898,315.061646,1208.569441,1000.665169
0.387000,928.044898,303.830468,1212.781132,992.241822
0.387500,925.237104,303.830468,1205.761646,997.857387
0.388000,926.641001,301.022673,1201.549954,1000.665169
0.388500,930.852693,302.426570,1207.165543,1000.665169
0.389000,923.833207,316.465543,1191.722673,1014.704081
0.389500,940.679973,316.465543,1194.530468,1030.146884
0.390000,926.641001,317.869441,1209.973338,1011.896299
0.390500,935.064384,315.061646,1191.722673,1009.088516
0.391000,937.872178,331.908414,1191.722673,1004.876843
0.391500,933.660487,316.465543,1191.722673,1004.876843
0.392000,925.237104,317.869441,1194.530468,999.261278
0.392500,936.468281,316.465543,1183.299289,1009.088516
0.393000,937.872178,319.273338,1191.722673,1010.492408
0.393500,943.487767,323.485030,1187.510981,1007.684625
0.394000,944.891664,309.446057,1190.318776,1009.088516
0.394500,946.295561,315.061646,1190.318776,1002.069061
0.395000,937.872178,317.869441,1193.126570,1009.088516
0.395500,926.641001,323.485030,1209.973338,1009.088516
0.396000,919.621515,320.677235,1190.318776,1010.492408
0.396500,909.794235,337.524003,1194.530468,1009.088516
0.397000,902.774749,323.485030,1190.318776,996.453496
0.397500,898.563058,319.273338,1190.318776,1004.876843
0.398000,899.966955,316.465543,1180.491495,1006.280734
0.398500,899.966955,327.696722,1193.126570,1007.684625
0.399000,899.966955,334.716208,1190.318776,1009.088516
0.399500,899.966955,324.888927,1191.722673,1006.280734
0.400000,904.178647,331.908414,1193.126570,999.261278
0.400500,912.602030,330.504516,1188.914878,997.857387
0.401000,926.641001,324.888927,1188.914878,1004.876843
0.401500,936.468281,309.446057,1186.107084,1006.280734
0.402000,944.891664,316.465543,1188.914878,1009.088516
0.402500,942.083870,322.081132,1186.107084,1010.492408
0.403000,947.699458,315.061646,1190.318776,1013.300190
0.403500,943.487767,317.869441,1202.953851,1006.280734
0.404000,950.507253,315.061646,1187.510981,1004.876843
0.404500,956.122841,308.042159,1188.914878,1006.280734
0.405000,951.911150,313.657749,1190.318776,1007.684625
0.405500,961.738430,306.638262,1193.126570,1004.876843
0.406000,942.083870,305.234365,1204.357749,1014.704081
0.406500,929.448795,305.234365,1187.510981,1014.704081
0.407000,925.237104,309.446057,1190.318776,1010.492408
0.407500,922.429310,301.022673,1188.914878,1007.684625
0.408000,922.429310,313.657749,-1058.724695,-1853.445579
0.408500,-1488.062105,-5970.186556,-1755.057755,-2212.841718
0.409000,-1128.664434,-7407.777388,-1395.660047,302.931258
0.409500,668.323925,-7407.777388,-1395.660047,-2212.841718
0.410000,1746.516940,-7496.222918,-1395.660047,-56.464881
0.410500,668.323925,-8845.368221,-676.864630,2099.911955
0.411000,-498.314611,-7048.379680,-317.466922,-415.861021
0.411500,-1847.459777,-6688.981972,41.930786,-415.861021
0.412000,668.323925,-6329.584264,760.726203,662.327398
0.412500,668.323925,-5251.391139,-1755.057755,-4009.822416
0.413000,308.926253,-1657.414057,-317.466922,-4369.218555
0.413500,308.926253,-4173.198015,-676.864630,-5088.010834
0.414000,-1847.459777,-5251.391139,-1036.262338,-6525.595392
0.414500,-1128.664434,-5970.186556,-2833.250879,-8322.576089
0.415000,-769.266762,-5610.788847,-1036.262338,-10119.556787
0.415500,-1488.062105,-5970.186556,-676.864630,-7603.783810
0.416000,-1847.459777,-6688.981972,-676.864630,-7244.387671
0.416500,-4363.243479,-4173.198015,-317.466922,-6884.991531
0.417000,-1128.664434,-4173.198015,41.930786,-8322.576089
0.417500,-769.266762,-4173.198015,-317.466922,-4009.822416
0.418000,-769.266762,-4532.595723,2198.317035,-5176.455978
0.418500,-769.266762,-2735.607182,-676.864630,-4728.614695
0.419000,-769.266762,-5251.391139,-1036.262338,-2212.841718
0.419500,-2925.652792,-4891.993431,-1036.262338,2459.308095
0.420000,-498.314611,-4891.993431,-3911.444004,3537.496513
0.420500,-857.712283,-4891.993431,-317.466922,3178.100374
0.421000,-138.916940,-7048.379680,-317.466922,302.931258
0.421500,1746.516940,-4980.438961,-1036.262338,-775.257160
0.422000,2465.312283,-3902.245836,-1395.660047,-775.257160
0.422500,308.926253,-4173.198015,-676.864630,-1853.445579
0.423000,1387.119268,-4261.643544,-1395.660047,-1494.049439
0.423500,-409.869090,-4532.595723,2198.317035,-1941.890722
0.424000,-409.869090,-2016.811765,-1395.660047,-2931.633997
0.424500,-50.471419,-4173.198015,-1395.660047,-4369.218555
0.425000,-1847.459777,-4173.198015,1191.722673,1028.742993
0.425500,918.217618,305.234365,1193.126570,1032.954666
0.426000,921.025412,299.618776,1194.530468,1034.358558
0.426500,922.429310,296.810981,1194.530468,1041.378013
0.427000,918.217618,308.042159,1197.338262,1037.166340
0.427500,921.025412,308.042159,1202.953851,1044.185796
0.428000,921.025412,305.234365,1195.934365,1035.762449
0.428500,922.429310,292.599289,1208.569441,1044.185796
0.429000,923.833207,295.407084,1208.569441,1061.032490
0.429500,911.198132,306.638262,1211.377235,1080.686966
0.430000,921.025412,309.446057,1205.761646,1059.628599
0.430500,921.025412,308.042159,1212.781132,1045.589687
0.431000,921.025412,319.273338,1221.204516,1031.550775
0.431500,922.429310,306.638262,1214.185030,1017.511863
0.432000,914.005927,302.426570,1208.569441,996.453496
0.432500,921.025412,306.638262,1207.165543,989.434040
0.433000,922.429310,305.234365,1218.396722,989.434040
0.433500,922.429310,303.830468,1215.588927,982.414584
0.434000,923.833207,303.830468,1205.761646,989.434040
0.434500,935.064384,306.638262,1208.569441,995.049605
0.435000,926.641001,309.446057,1205.761646,1007.684625
0.435500,921.025412,309.446057,1201.549954,1003.472952
0.436000,921.025412,310.849954,1222.608414,997.857387
0.436500,921.025412,316.465543,1204.357749,993.645714
0.437000,911.198132,310.849954,1204.357749,989.434040
0.437500,919.621515,310.849954,1205.761646,989.434040
0.438000,919.621515,312.253851,1214.185030,1011.896299
0.438500,921.025412,310.849954,1209.973338,1017.511863
0.439000,921.025412,303.830468,1205.761646,1016.107972
0.439500,922.429310,316.465543,1197.338262,1016.107972
0.440000,928.044898,313.657749,1191.722673,1011.896299
0.440500,916.813721,309.446057,1194.530468,1007.684625
0.441000,918.217618,303.830468,1214.185030,1016.107972
0.441500,918.217618,306.638262,1194.530468,1021.723537
0.442000,923.833207,302.426570,1198.742159,1027.339102
0.442500,936.468281,309.446057,1201.549954,997.857387
0.443000,928.044898,309.446057,1198.742159,1002.069061
0.443500,932.256590,306.638262,1218.396722,1002.069061
0.444000,933.660487,308.042159,1202.953851,1004.876843
0.444500,944.891664,306.638262,1204.357749,1002.069061
0.445000,947.699458,305.234365,1207.165543,995.049605
0.445500,928.044898,306.638262,1205.761646,1002.069061
0.446000,928.044898,303.830468,1221.204516,1002.069061
0.446500,928.044898,306.638262,1205.761646,1000.665169
0.447000,921.025412,299.618776,1205.761646,995.049605
0.447500,921.025412,308.042159,1207.165543,983.818475
0.448000,929.448795,305.234365,1204.357749,988.030149
0.448500,929.448795,305.234365,1201.549954,997.857387
0.449000,930.852693,317.869441,1207.165543,1000.665169
0.449500,921.025412,303.830468,1205.761646,1003.472952
0.450000,933.660487,308.042159,1209.973338,1000.665169
0.450500,932.256590,305.234365,1209.973338,1014.704081
0.451000,932.256590,305.234365,1205.761646,1007.684625
0.451500,932.256590,309.446057,1200.146057,1006.280734
0.452000,930.852693,308.042159,1207.165543,1009.088516
0.452500,922.429310,305.234365,1207.165543,1007.684625
0.453000,922.429310,305.234365,1205.761646,1025.935210
0.453500,930.852693,305.234365,1208.569441,1006.280734
0.454000,933.660487,308.042159,1194.530468,1009.088516
0.454500,932.256590,309.446057,1207.165543,1006.280734
0.455000,916.813721,308.042159,1204.357749,1011.896299
0.455500,918.217618,308.042159,1205.761646,1010.492408
0.456000,928.044898,306.638262,1207.165543,1007.684625
0.456500,926.641001,309.446057,1194.530468,1003.472952
0.457000,929.448795,309.446057,1205.761646,1006.280734
0.457500,918.217618,306.638262,1204.357749,1006.280734
0.458000,918.217618,302.426570,1205.761646,1017.511863
0.458500,926.641001,306.638262,1221.204516,1011.896299
0.459000,928.044898,306.638262,1225.416208,1006.280734
0.459500,929.448795,308.042159,1238.051284,1004.876843
0.460000,922.429310,301.022673,1229.627900,1006.280734
0.460500,928.044898,309.446057,1214.185030,1003.472952
0.461000,944.891664,305.234365,1201.549954,1024.531319
0.461500,928.044898,306.638262,1186.107084,1007.684625
0.462000,929.448795,306.638262,1180.491495,1006.280734
0.462500,928.044898,309.446057,1191.722673,1004.876843
0.463000,932.256590,324.888927,1188.914878,1004.876843
0.463500,944.891664,306.638262,1195.934365,997.857387
0.464000,928.044898,308.042159,1197.338262,1006.280734
0.464500,929.448795,306.638262,1194.530468,1007.684625
0.465000,930.852693,309.446057,1202.953851,1006.280734
0.465500,932.256590,323.485030,1198.742159,1009.088516
0.466000,953.315047,306.638262,1200.146057,996.453496
0.466500,935.064384,308.042159,1200.146057,1004.876843
0.467000,936.468281,308.042159,1193.126570,1009.088516
0.467500,933.660487,309.446057,1214.185030,1004.876843
0.468000,937.872178,316.465543,1215.588927,1009.088516
0.468500,947.699458,302.426570,1219.800619,1010.492408
0.469000,936.468281,306.638262,1222.608414,1002.069061
0.469500,940.679973,308.042159,1212.781132,1009.088516
0.470000,940.679973,308.042159,1222.608414,1004.876843
0.470500,928.044898,312.253851,1218.396722,1006.280734
0.471000,912.602030,305.234365,1219.800619,1010.492408
0.471500,916.813721,310.849954,1219.800619,1009.088516
0.472000,923.833207,308.042159,1218.396722,1007.684625
0.472500,930.852693,310.849954,1233.839592,1006.280734
0.473000,930.852693,310.849954,1226.820105,1006.280734
0.473500,926.641001,301.022673,1225.416208,1010.492408
0.474000,937.872178,302.426570,1197.338262,1009.088516
0.474500,925.237104,295.407084,1212.781132,1010.492408
0.475000,923.833207,295.407084,1194.530468,1013.300190
0.475500,923.833207,292.599289,1197.338262,1014.704081
0.476000,923.833207,312.253851,1195.934365,1016.107972
0.476500,937.872178,313.657749,1195.934365,1006.280734
0.477000,922.429310,310.849954,1197.338262,1009.088516
0.477500,922.429310,306.638262,1191.722673,1014.704081
0.478000,922.429310,302.426570,1195.934365,1014.704081
0.478500,918.217618,294.003186,1194.530468,1013.300190
0.479000,925.237104,299.618776,1197.338262,1021.723537
0.479500,928.044898,303.830468,1193.126570,1016.107972
0.480000,929.448795,312.253851,1194.530468,1013.300190
0.480500,932.256590,313.657749,1197.338262,1014.704081
0.481000,925.237104,305.234365,1194.530468,1013.300190
0.481500,916.813721,309.446057,1197.338262,1011.896299
0.482000,914.005927,306.638262,1197.338262,1004.876843
0.482500,921.025412,305.234365,1209.973338,1013.300190
0.483000,922.429310,301.022673,1195.934365,1011.896299
0.483500,925.237104,302.426570,1197.338262,1011.896299
0.484000,916.813721,302.426570,1197.338262,1006.280734
0.484500,915.409824,303.830468,1197.338262,1011.896299
0.485000,923.833207,306.638262,1187.510981,1011.896299
0.485500,925.237104,312.253851,1188.914878,1011.896299
0.486000,925.237104,333.312311,1197.338262,1013.300190
0.486500,914.005927,316.465543,1198.742159,1030.146884
0.487000,925.237104,319.273338,1195.934365,1028.742993
0.487500,926.641001,324.888927,1187.510981,1014.704081
0.488000,926.641001,329.100619,1194.530468,1013.300190
0.488500,926.641001,319.273338,1200.146057,1010.492408
0.489000,933.660487,322.081132,1197.338262,1011.896299
0.489500,943.487767,320.677235,1193.126570,1020.319646
0.490000,929.448795,324.888927,1201.549954,1014.704081
0.490500,928.044898,326.292824,1190.318776,1010.492408
0.491000,925.237104,327.696722,1195.934365,1011.896299
0.491500,929.448795,320.677235,1194.530468,1003.472952
0.492000,926.641001,323.485030,1195.934365,1016.107972
0.492500,928.044898,322.081132,1188.914878,1011.896299
0.493000,928.044898,324.888927,1191.722673,1009.088516
0.493500,928.044898,326.292824,1198.742159,1011.896299
0.494000,918.217618,309.446057,1200.146057,1009.088516
0.494500,923.833207,317.869441,1200.146057,1002.069061
0.495000,922.429310,317.869441,1198.742159,999.261278
0.495500,928.044898,319.273338,1215.588927,1009.088516
0.496000,926.641001,319.273338,1198.742159,1007.684625
0.496500,926.641001,302.426570,1197.338262,1007.684625
0.497000,928.044898,303.830468,1197.338262,999.261278
0.497500,925.237104,298.214878,1198.742159,997.857387
0.498000,921.025412,302.426570,1209.973338,1006.280734
0.498500,921.025412,312.253851,1200.146057,1009.088516
0.499000,915.409824,316.465543,1200.146057,1009.088516
0.499500,909.794235,322.081132,1200.146057,1007.684625
0.500000,899.966955,341.735695,1197.338262,1002.069061
0.500500,906.986441,358.582462,1188.914878,1009.088516
0.501000,909.794235,361.390257,1190.318776,1009.088516
0.501500,909.794235,345.947386,1200.146057,1006.280734
0.502000,908.390338,361.390257,1200.146057,1004.876843
0.502500,897.159161,358.582462,1197.338262,1017.511863
0.503000,905.582544,338.927900,1197.338262,1011.896299
0.503500,906.986441,316.465543,1191.722673,1006.280734
0.504000,909.794235,295.407084,1198.742159,1006.280734
0.504500,912.602030,275.752522,1197.338262,1010.492408
0.505000,918.217618,275.752522,1198.742159,1016.107972
0.505500,919.621515,270.136932,1201.549954,1002.069061
0.506000,928.044898,270.136932,1205.761646,1011.896299
0.506500,937.872178,271.540830,1200.146057,1016.107972
0.507000,942.083870,285.579803,1197.338262,1020.319646
0.507500,937.872178,289.791495,1198.742159,1014.704081
0.508000,930.852693,299.618776,1197.338262,1016.107972
0.508500,940.679973,316.465543,1197.338262,1014.704081
0.509000,932.256590,336.120105,1190.318776,1010.492408
0.509500,928.044898,354.370770,1200.146057,1014.704081
0.510000,916.813721,336.120105,1200.146057,1014.704081
0.510500,937.872178,337.524003,1201.549954,1017.511863
0.511000,925.237104,338.927900,1193.126570,1009.088516
0.511500,933.660487,329.100619,1195.934365,1013.300190
0.512000,935.064384,313.657749,1198.742159,1010.492408
0.512500,935.064384,322.081132,1200.146057,1010.492408
0.513000,936.468281,308.042159,1200.146057,1024.531319
0.513500,933.660487,305.234365,1198.742159,1030.146884
0.514000,933.660487,305.234365,1193.126570,1011.896299
0.514500,928.044898,286.983700,1200.146057,1011.896299
0.515000,929.448795,292.599289,1198.742159,1011.896299
0.515500,929.448795,289.791495,1200.146057,1014.704081
0.516000,935.064384,286.983700,1202.953851,1006.280734
0.516500,929.448795,294.003186,1209.973338,1011.896299
0.517000,930.852693,308.042159,1195.934365,1013.300190
0.517500,932.256590,331.908414,1202.953851,1013.300190
0.518000,932.256590,340.331797,1202.953851,1016.107972
0.518500,921.025412,329.100619,1201.549954,1006.280734
0.519000,947.699458,312.253851,1201.549954,1004.876843
0.519500,923.833207,309.446057,1191.722673,1010.492408
0.520000,919.621515,310.849954,1197.338262,1009.088516
0.520500,921.025412,306.638262,1198.742159,1009.088516
0.521000,930.852693,306.638262,1200.146057,1006.280734
0.521500,954.718944,313.657749,1198.742159,1004.876843
0.522000,946.295561,312.253851,1204.357749,996.453496
0.522500,942.083870,310.849954,1201.549954,999.261278
0.523000,937.872178,299.618776,1200.146057,1002.069061
0.523500,932.256590,310.849954,1200.146057,1006.280734
0.524000,925.237104,310.849954,1200.146057,1009.088516
0.524500,947.699458,310.849954,1200.146057,1009.088516
0.525000,928.044898,312.253851,1190.318776,1009.088516
0.525500,929.448795,309.446057,1194.530468,1014.704081
0.526000,933.660487,306.638262,1193.126570,1016.107972
0.526500,936.468281,312.253851,1200.146057,1017.511863
0.527000,960.334533,312.253851,1197.338262,1013.300190
0.527500,935.064384,312.253851,1204.357749,1010.492408
0.528000,932.256590,313.657749,1205.761646,1016.107972
0.528500,932.256590,305.234365,1201.549954,1004.876843
0.529000,933.660487,324.888927,1198.742159,1006.280734
0.529500,936.468281,315.061646,1193.126570,1004.876843
0.530000,940.679973,313.657749,1190.318776,995.049605
0.530500,937.872178,315.061646,1194.530468,1002.069061
0.531000,940.679973,312.253851,1193.126570,1007.684625
0.531500,942.083870,327.696722,1198.742159,1007.684625
0.532000,940.679973,313.657749,1197.338262,1010.492408
0.532500,944.891664,315.061646,1197.338262,1006.280734
0.533000,935.064384,312.253851,1200.146057,1007.684625
0.533500,937.872178,312.253851,1191.722673,1013.300190
0.534000,937.872178,312.253851,1191.722673,1013.300190
0.534500,942.083870,309.446057,1197.338262,1016.107972
0.535000,953.315047,313.657749,1197.338262,1010.492408
0.535500,940.679973,312.253851,1198.742159,1006.280734
0.536000,937.872178,313.657749,1191.722673,1020.319646
0.536500,943.487767,306.638262,1201.549954,1013.300190
0.537000,943.487767,324.888927,1200.146057,1016.107972
0.537500,936.468281,330.504516,1198.742159,1017.511863
0.538000,922.429310,315.061646,1197.338262,1004.876843
0.538500,926.641001,315.061646,1193.126570,1011.896299
0.539000,922.429310,315.061646,1193.126570,1017.511863
0.539500,923.833207,317.869441,1190.318776,1014.704081
0.540000,922.429310,331.908414,1195.934365,1014.704081
0.540500,906.986441,315.061646,1195.934365,1017.511863
0.541000,914.005927,315.061646,1187.510981,1011.896299
0.541500,915.409824,315.061646,1193.126570,1016.107972
0.542000,925.237104,316.465543,1205.761646,1016.107972
0.542500,940.679973,395.083792,1207.165543,1013.300190
0.543000,929.448795,323.485030,1205.761646,1013.300190
0.543500,930.852693,310.849954,1204.357749,1011.896299
0.544000,929.448795,310.849954,1205.761646,1011.896299
0.544500,947.699458,306.638262,1207.165543,1025.935210
0.545000,932.256590,312.253851,1224.012311,1009.088516
0.545500,932.256590,306.638262,1202.953851,1009.088516
0.546000,935.064384,298.214878,1205.761646,1007.684625
0.546500,935.064384,303.830468,1205.761646,997.857387
0.547000,933.660487,299.618776,1205.761646,999.261278
0.547500,930.852693,299.618776,1209.973338,1007.684625
0.548000,936.468281,295.407084,1208.569441,1010.492408
0.548500,933.660487,303.830468,1207.165543,1009.088516
0.549000,935.064384,299.618776,1208.569441,1010.492408
0.549500,933.660487,310.849954,1205.761646,1007.684625
0.550000,932.256590,319.273338,1208.569441,1013.300190
0.550500,929.448795,315.061646,1209.973338,1011.896299
0.551000,930.852693,308.042159,1205.761646,1009.088516
0.551500,928.044898,298.214878,1207.165543,1009.088516
0.552000,942.083870,301.022673,1209.973338,1010.492408
0.552500,923.833207,294.003186,1208.569441,1011.896299
0.553000,925.237104,298.214878,1208.569441,1011.896299
0.553500,922.429310,306.638262,1208.569441,1010.492408
0.554000,923.833207,306.638262,1205.761646,1013.300190
0.554500,923.833207,313.657749,1207.165543,1007.684625
0.555000,925.237104,312.253851,1205.761646,1004.876843
0.555500,923.833207,313.657749,1207.165543,1003.472952
0.556000,925.237104,309.446057,1205.761646,1011.896299
0.556500,925.237104,329.100619,1205.761646,1014.704081
0.557000,916.813721,310.849954,1204.357749,1017.511863
0.557500,935.064384,316.465543,1205.761646,1016.107972
0.558000,936.468281,319.273338,1202.953851,1014.704081
0.558500,925.237104,323.485030,1221.204516,1016.107972
0.559000,925.237104,322.081132,1208.569441,1017.511863
0.559500,922.429310,333.312311,1204.357749,1013.300190
0.560000,923.833207,317.869441,1209.973338,1031.550775
0.560500,925.237104,317.869441,1205.761646,1025.935210
0.561000,923.833207,316.465543,1194.530468,1010.492408
0.561500,928.044898,319.273338,1204.357749,1010.492408
0.562000,928.044898,308.042159,1204.357749,1013.300190
0.562500,928.044898,312.253851,1207.165543,1013.300190
0.563000,930.852693,310.849954,1207.165543,1009.088516
0.563500,930.852693,309.446057,1201.549954,1017.511863
0.564000,930.852693,305.234365,1198.742159,1013.300190
0.564500,930.852693,313.657749,1208.569441,1013.300190
0.565000,932.256590,302.426570,1205.761646,1014.704081
0.565500,922.429310,296.810981,1205.761646,1017.511863
0.566000,929.448795,298.214878,1205.761646,1034.358558
0.566500,929.448795,302.426570,1198.742159,1014.704081
0.567000,929.448795,299.618776,1204.357749,1014.704081
0.567500,932.256590,301.022673,1202.953851,1016.107972
0.568000,933.660487,312.253851,1204.357749,1016.107972
0.568500,928.044898,309.446057,1202.953851,1016.107972
0.569000,943.487767,309.446057,1200.146057,1014.704081
0.569500,942.083870,306.638262,1197.338262,1017.511863
0.570000,947.699458,324.888927,1205.761646,1016.107972
0.570500,936.468281,306.638262,1208.569441,1016.107972
0.571000,958.930636,309.446057,1205.761646,1031.550775
0.571500,936.468281,310.849954,1198.742159,1013.300190
0.572000,932.256590,309.446057,1200.146057,1014.704081
0.572500,932.256590,329.100619,1205.761646,1013.300190
0.573000,929.448795,309.446057,1204.357749,1017.511863
0.573500,942.083870,308.042159,1207.165543,1018.915755
0.574000,925.237104,308.042159,1194.530468,1010.492408
0.574500,926.641001,306.638262,1204.357749,1009.088516
0.575000,925.237104,299.618776,1205.761646,1009.088516
0.575500,929.448795,306.638262,1209.973338,1010.492408
0.576000,916.813721,309.446057,1205.761646,1000.665169
0.576500,925.237104,309.446057,1209.973338,1009.088516
0.577000,926.641001,310.849954,1214.185030,1006.280734
0.577500,929.448795,317.869441,1207.165543,1006.280734
0.578000,929.448795,302.426570,1209.973338,1009.088516
0.578500,926.641001,312.253851,1208.569441,1006.280734
0.579000,943.487767,312.253851,1212.781132,1025.935210
0.579500,928.044898,315.061646,1222.608414,1009.088516
0.580000,929.448795,313.657749,1205.761646,1010.492408
0.580500,929.448795,302.426570,1205.761646,1009.088516
0.581000,932.256590,309.446057,1204.357749,1014.704081
0.581500,942.083870,305.234365,1204.357749,1006.280734
0.582000,933.660487,305.234365,1221.204516,1010.492408
0.582500,933.660487,302.426570,1219.800619,1010.492408
0.583000,933.660487,292.599289,-1395.660047,-2212.841718
0.583500,-409.869090,-1657.414057,-1395.660047,1740.515816
0.584000,-138.916940,-2016.811765,-676.864630,-415.861021
0.584500,668.323925,2295.960733,-1124.707868,-1494.049439
0.585000,-50.471419,-1298.016349,-676.864630,-1494.049439
0.585500,-3285.050464,-1298.016349,41.930786,-1494.049439
0.586000,-769.266762,-1298.016349,-317.466922,1021.723537
0.586500,-769.266762,-1657.414057,-1755.057755,-1494.049439
0.587000,-769.266762,3014.756149,-46.514744,-1853.445579
0.587500,668.323925,-1657.414057,760.726203,-1853.445579
0.588000,3902.902970,-667.666462,760.726203,-2572.237858
0.588500,-1488.062105,-938.618641,760.726203,-1134.653300
0.589000,-769.266762,-938.618641,401.328494,-2572.237858
0.589500,2465.312283,-1386.461879,-1755.057755,-1853.445579
0.590000,7137.482015,1848.117495,-405.912452,-1134.653300
0.590500,8934.470373,-1386.461879,-317.466922,-56.464881
0.591000,8934.470373,-1386.461879,-1036.262338,-3291.030137
0.591500,6418.686671,-1745.859587,-3552.046296,-415.861021
0.592000,2824.709955,-1386.461879,-1395.660047,302.931258
0.592500,-50.471419,-3095.004890,-1755.057755,-415.861021
0.593000,-6519.629509,-579.220933,-1036.262338,-415.861021
0.593500,-6160.231837,-938.618641,-1036.262338,-1494.049439
0.594000,-4722.641150,-219.823224,-1395.660047,-2931.633997
0.594500,-4363.243479,-219.823224,-1036.262338,-1494.049439
0.595000,-4363.243479,-2376.209474,-1036.262338,-775.257160
0.595500,-5082.038822,-938.618641,-317.466922,-1134.653300
0.596000,-6879.027180,-579.220933,-1036.262338,-1494.049439
0.596500,-7597.822524,-938.618641,-1036.262338,-415.861021
0.597000,-5082.038822,-579.220933,-2114.455463,-1134.653300
0.597500,-4003.845807,-579.220933,-2114.455463,-1853.445579
0.598000,-2925.652792,-1298.016349,41.930786,-2212.841718
0.598500,-5082.038822,-938.618641,-676.864630,-1853.445579
0.599000,-3285.050464,-938.618641,-1395.660047,662.327398
0.599500,-50.471419,-579.220933,-317.466922,-1494.049439
0.600000,2105.914611,-308.268754,-1395.660047,-1494.049439
0.600500,2465.312283,3645.106036,-46.514744,-1494.049439
0.601000,3184.107626,230.827808,1200.146057,1007.684625
0.601500,912.602030,315.061646,1204.357749,1006.280734
0.602000,901.370852,316.465543,1207.165543,1006.280734
0.602500,906.986441,313.657749,1207.165543,1013.300190
0.603000,908.390338,308.042159,1204.357749,1007.684625
0.603500,909.794235,309.446057,1204.357749,1006.280734
0.604000,919.621515,315.061646,1201.549954,1010.492408
0.604500,909.794235,313.657749,1202.953851,1007.684625
0.605000,914.005927,317.869441,1197.338262,1010.492408
0.605500,916.813721,315.061646,1194.530468,1009.088516
0.606000,921.025412,329.100619,1200.146057,1011.896299
0.606500,928.044898,333.312311,1200.146057,1011.896299
0.607000,923.833207,317.869441,1201.549954,1014.704081
0.607500,928.044898,315.061646,1204.357749,1028.742993
0.608000,926.641001,319.273338,1195.934365,1009.088516
0.608500,928.044898,317.869441,1194.530468,1007.684625
0.609000,923.833207,316.465543,1202.953851,1010.492408
0.609500,912.602030,315.061646,1202.953851,1011.896299
0.610000,923.833207,317.869441,1193.126570,1007.684625
0.610500,929.448795,317.869441,1193.126570,1006.280734
0.611000,928.044898,319.273338,1205.761646,1010.492408
0.611500,926.641001,310.849954,1207.165543,1010.492408
0.612000,943.487767,316.465543,1207.165543,1009.088516
0.612500,925.237104,317.869441,1207.165543,1004.876843
0.613000,929.448795,319.273338,1200.146057,1014.704081
0.613500,928.044898,323.485030,1212.781132,1013.300190
0.614000,928.044898,315.061646,1205.761646,1013.300190
0.614500,932.256590,324.888927,1204.357749,1013.300190
0.615000,925.237104,323.485030,1204.357749,1007.684625
0.615500,930.852693,324.888927,1212.781132,1013.300190
0.616000,930.852693,323.485030,1204.357749,1017.511863
0.616500,933.660487,329.100619,1204.357749,1014.704081
0.617000,929.448795,331.908414,1204.357749,1011.896299
0.617500,919.621515,317.869441,1204.357749,1014.704081
0.618000,928.044898,-2915.306036,-856.563484,4795.383001
0.618500,-1756.206462,-1477.715203,-1575.358901,-236.162951
0.619000,-1667.760941,-1837.112911,-4091.142858,-236.162951
0.619500,-1308.363270,-1837.112911,-1575.358901,842.025467
0.620000,-3105.351628,-2915.306036,-856.563484,842.025467
0.620500,-3105.351628,-2555.908328,-497.165776,2639.006165
0.621000,-1037.411119,-2196.510620,-497.165776,-236.162951
0.621500,-230.170255,-2196.510620,2737.413598,1472.372602
0.622000,-678.013447,-2196.510620,-1934.756609,842.025467
0.622500,488.625089,-40.124370,-1575.358901,2279.610025
0.623000,-678.013447,-3993.499160,-1215.961192,2639.006165
0.623500,-2475.001805,-1118.317495,-856.563484,5873.571420
0.624000,-678.013447,-758.919787,-1575.358901,6951.759838
0.624500,-1396.808790,-1477.715203,-3731.745150,2639.006165
0.625000,-1037.411119,3194.455003,-1663.804430,2279.610025
0.625500,-1756.206462,-3274.703744,-1934.756609,2998.402304
0.626000,-3553.194820,-1477.715203,-856.563484,6232.967559
0.626500,-1037.411119,-2196.510620,-137.768068,1560.817746
0.627000,-1037.411119,-2915.306036,3096.811306,2550.561021
0.627500,-1396.808790,-1837.112911,-1215.961192,2279.610025
0.628000,-1396.808790,-1118.317495,-1215.961192,2998.402304
0.628500,-3553.194820,-399.522079,-1575.358901,-954.955230
0.629000,-1308.363270,-399.522079,-856.563484,1560.817746
0.629500,-1756.206462,-1477.715203,2018.618181,2191.164881
0.630000,-1037.411119,-1477.715203,-2294.154317,2279.610025
0.630500,-678.013447,1756.864171,-1304.406722,1920.213886
0.631000,-3193.797149,-2196.510620,-1934.756609,2279.610025
0.631500,-3553.194820,-1477.715203,-1575.358901,6592.363699
0.632000,-678.013447,-1837.112911,2737.413598,2191.164881
0.632500,-1037.411119,-5071.692285,-3012.949733,2998.402304
0.633000,-1756.206462,-4712.294577,-1934.756609,3357.798444
0.633500,3275.360941,-2284.956149,-1215.961192,2998.402304
0.634000,1837.770255,-2284.956149,-1575.358901,1560.817746
0.634500,-1037.411119,-1837.112911,-4091.142858,3357.798444
0.635000,-318.615775,-1477.715203,-137.768068,2639.006165
0.635500,-678.013447,-2196.510620,-856.563484,2639.006165
0.636000,-1037.411119,-3993.499160,-856.563484,2998.402304
0.636500,-2115.604134,-2915.306036,-497.165776,2279.610025
0.637000,-1396.808790,-2555.908328,-137.768068,-236.162951
0.637500,-948.965598,-2915.306036,-1215.961192,2279.610025
0.638000,-1396.808790,-2196.510620,940.425057,5514.175280
0.638500,400.179568,-2196.510620,-3372.347442,3717.194583
0.639000,-318.615775,-2196.510620,-137.768068,3357.798444
0.639500,40.781896,-2196.510620,-497.165776,2998.402304
0.640000,-678.013447,-3634.101452,581.027348,2639.006165
0.640500,-1037.411119,-1477.715203,-137.768068,-236.162951
0.641000,848.022760,-2196.510620,-137.768068,3357.798444
0.641500,40.781896,-1837.112911,-3012.949733,2998.402304
0.642000,40.781896,-1837.112911,-856.563484,3357.798444
0.642500,-2475.001805,-2196.510620,-856.563484,2639.006165
0.643000,-2834.399477,-2196.510620,-856.563484,3717.194583
0.643500,759.577240,-1477.715203,-1575.358901,2998.402304
0.644000,759.577240,-758.919787,-4450.540566,842.025467
0.644500,848.022760,-1477.715203,-3012.949733,3357.798444
0.645000,40.781896,-1118.317495,-3372.347442,3717.194583
0.645500,1478.372583,-2284.956149,-4450.540566,3717.194583
0.646000,2556.565598,-2644.353857,-4809.938274,1920.213886
0.646500,-318.615775,-2196.510620,-4809.938274,2639.006165
0.647000,400.179568,-1837.112911,-5169.335983,2998.402304
0.647500,-318.615775,2116.261879,-945.009014,2998.402304
0.648000,-318.615775,-3634.101452,-497.165776,3717.194583
0.648500,-3193.797149,-2196.510620,-856.563484,3717.194583
0.649000,-1037.411119,-2915.306036,581.027348,3717.194583
0.649500,40.781896,-2555.908328,3096.811306,3269.353300
0.650000,-318.615775,-3274.703744,-1934.756609,2998.402304
0.650500,40.781896,319.273338,-497.165776,3357.798444
0.651000,-1756.206462,-2555.908328,-856.563484,3357.798444
0.651500,-318.615775,-2196.510620,-1215.961192,3717.194583
0.652000,-318.615775,-2555.908328,-4450.540566,3717.194583
0.652500,-318.615775,-1118.317495,-3012.949733,3357.798444
0.653000,-318.615775,-4712.294577,-856.563484,3357.798444
0.653500,-318.615775,-1477.715203,1659.220473,3628.749439
0.654000,-678.013447,-2555.908328,4534.402139,3988.145579
0.654500,-318.615775,-2196.510620,6690.788388,3269.353300
0.655000,-318.615775,-2915.306036,4893.799847,3269.353300
0.655500,-1037.411119,-1837.112911,3456.209014,3628.749439
0.656000,-678.013447,1756.864171,133.184111,3357.798444
0.656500,-2475.001805,-2196.510620,-1575.358901,3357.798444
0.657000,-2834.399477,-2196.510620,-3731.745150,3357.798444
0.657500,-678.013447,-2915.306036,-4450.540566,2998.402304
0.658000,-1037.411119,-2196.510620,-4450.540566,2639.006165
0.658500,-1037.411119,2116.261879,-2741.997555,3717.194583
0.659000,-3193.797149,-2196.510620,-3731.745150,3717.194583
0.659500,-2475.001805,-2196.510620,-5528.733691,1000.665169
0.660000,949.103356,313.657749,1204.357749,1011.896299
0.660500,943.487767,317.869441,1221.204516,1009.088516
0.661000,946.295561,333.312311,1201.549954,1009.088516
0.661500,946.295561,315.061646,1202.953851,1009.088516
0.662000,944.891664,316.465543,1200.146057,997.857387
0.662500,944.891664,316.465543,1195.934365,1010.492408
0.663000,944.891664,317.869441,1190.318776,1011.896299
0.663500,943.487767,309.446057,1197.338262,1014.704081
0.664000,937.872178,315.061646,1193.126570,1017.511863
0.664500,951.911150,316.465543,1197.338262,1011.896299
0.665000,942.083870,316.465543,1200.146057,1028.742993
0.665500,943.487767,319.273338,1197.338262,1010.492408
0.666000,944.891664,313.657749,1193.126570,1013.300190
0.666500,946.295561,303.830468,1201.549954,1013.300190
0.667000,946.295561,306.638262,1201.549954,1014.704081
0.667500,936.468281,312.253851,1204.357749,1027.339102
0.668000,937.872178,312.253851,1201.549954,1004.876843
0.668500,933.660487,309.446057,1193.126570,1006.280734
0.669000,939.276075,301.022673,1202.953851,1006.280734
0.669500,925.237104,313.657749,1202.953851,1007.684625
0.670000,930.852693,312.253851,1201.549954,1027.339102
0.670500,937.872178,315.061646,1191.722673,1007.684625
0.671000,940.679973,316.465543,1194.530468,1007.684625
0.671500,942.083870,317.869441,1200.146057,1013.300190
0.672000,937.872178,333.312311,1201.549954,1011.896299
0.672500,928.044898,315.061646,1200.146057,1004.876843
0.673000,933.660487,315.061646,1200.146057,1013.300190
0.673500,936.468281,317.869441,1218.396722,1024.531319
0.674000,940.679973,333.312311,1200.146057,1024.531319
0.674500,937.872178,316.465543,1201.549954,1027.339102
0.675000,937.872178,315.061646,1201.549954,1018.915755
0.675500,940.679973,319.273338,1201.549954,1014.704081
0.676000,937.872178,317.869441,1190.318776,1024.531319
0.676500,940.679973,319.273338,1187.510981,1024.531319
0.677000,937.872178,310.849954,1200.146057,1021.723537
0.677500,956.122841,323.485030,1200.146057,1020.319646
0.678000,933.660487,323.485030,1201.549954,1037.166340
0.678500,932.256590,317.869441,1198.742159,1014.704081
0.679000,930.852693,316.465543,1197.338262,1016.107972
0.679500,929.448795,310.849954,1200.146057,1016.107972
0.680000,925.237104,316.465543,1200.146057,1009.088516
0.680500,933.660487,322.081132,1195.934365,1021.723537
0.681000,937.872178,319.273338,1186.107084,999.261278
0.681500,936.468281,322.081132,1215.588927,997.857387
0.682000,937.872178,319.273338,1201.549954,997.857387
0.682500,925.237104,319.273338,1201.549954,997.857387
0.683000,929.448795,319.273338,1201.549954,1000.665169
0.683500,936.468281,317.869441,1202.953851,1007.684625
0.684000,936.468281,316.465543,1216.992824,-236.162951
0.684500,4082.601805,-1206.763025,-856.563484,-2033.143649
0.685000,3723.204134,-2284.956149,-1934.756609,-236.162951
0.685500,3363.806462,-1206.763025,-1575.358901,-595.559091
0.686000,2645.011119,-2644.353857,-1934.756609,123.233188
0.686500,4801.397149,-847.365317,-497.165776,1920.213886
0.687000,3994.156285,-847.365317,-137.768068,-954.955230
0.687500,4441.999477,-1206.763025,-856.563484,-1673.747509
0.688000,4082.601805,-1925.558441,-856.563484,-1673.747509
0.688500,3723.204134,1309.020933,-1304.406722,-954.955230
0.689000,7317.180850,-1925.558441,-1934.756609,-595.559091
0.689500,4801.397149,-1566.160733,581.027348,-236.162951
0.690000,4082.601805,-1206.763025,-1934.756609,-954.955230
0.690500,4082.601805,-487.967608,-137.768068,-954.955230
0.691000,4801.397149,-128.569900,940.425057,-1314.351370
0.691500,5160.794820,-2284.956149,940.425057,-954.955230
0.692000,6957.783179,-1925.558441,940.425057,2279.610025
0.692500,5431.746971,-2644.353857,581.027348,-236.162951
0.693000,6238.987835,-2284.956149,-1934.756609,-595.559091
0.693500,4801.397149,1668.418641,-1304.406722,-595.559091
0.694000,5520.192492,-128.569900,-1575.358901,-236.162951
0.694500,5160.794820,-3003.751566,-1215.961192,842.025467
0.695000,6238.987835,-2644.353857,-1575.358901,-236.162951
0.695500,6598.385507,-3003.751566,-1215.961192,-1673.747509
0.696000,6598.385507,-2644.353857,-856.563484,-236.162951
0.696500,6238.987835,2027.816349,-2023.202139,123.233188
0.697000,9114.169209,-2284.956149,-3372.347442,-595.559091
0.697500,6598.385507,-2644.353857,-4809.938274,-1314.351370
0.698000,4801.397149,-1925.558441,-8044.517648,-2033.143649
0.698500,6238.987835,-2284.956149,-5528.733691,-1673.747509
0.699000,5160.794820,1309.020933,-2382.599847,-1673.747509
0.699500,2645.011119,-3003.751566,-1575.358901,-595.559091
0.700000,4801.397149,-1925.558441,-497.165776,1560.817746
0.700500,5431.746971,-2644.353857,-2653.552025,-2751.935927
0.701000,5879.590164,-1925.558441,-2653.552025,-1673.747509
0.701500,5160.794820,-2284.956149,-1934.756609,-2392.539788
0.702000,4082.601805,-2284.956149,-1575.358901,-1673.747509
0.702500,2645.011119,-1925.558441,-856.563484,2639.006165
0.703000,4712.951628,-1566.160733,-1575.358901,-1314.351370
0.703500,4801.397149,-2284.956149,3456.209014,-1402.796513
0.704000,5879.590164,-2644.353857,-1215.961192,-1673.747509
0.704500,5160.794820,-3363.149274,-1215.961192,-1673.747509
0.705000,3363.806462,-1925.558441,-1215.961192,-4908.312764
0.705500,5520.192492,-1206.763025,-497.165776,-1673.747509
0.706000,5879.590164,-1566.160733,3815.606722,-1762.192653
0.706500,5879.590164,-1925.558441,-1575.358901,-954.955230
0.707000,4082.601805,-4081.944690,-1215.961192,-1673.747509
0.707500,3363.806462,-1566.160733,-1575.358901,-3470.728206
0.708000,5520.192492,-1566.160733,-856.563484,-4189.520485
0.708500,6598.385507,-2284.956149,-3731.745150,-2033.143649
0.709000,6238.987835,-2284.956149,221.629640,-2033.143649
0.709500,5879.590164,1309.020933,-1304.406722,-2392.539788
0.710000,5520.192492,-3003.751566,-1575.358901,-595.559091
0.710500,4441.999477,-2284.956149,-2653.552025,-2392.539788
0.711000,4801.397149,-2284.956149,-4809.938274,-1673.747509
0.711500,5520.192492,-2284.956149,-1575.358901,-1673.747509
0.712000,6598.385507,-1925.558441,-1215.961192,-1314.351370
0.712500,7317.180850,-3363.149274,-497.165776,-2392.539788
0.713000,5160.794820,-2284.956149,1659.220473,-2121.588792
0.713500,5520.192492,-1925.558441,3815.606722,-1762.192653
0.714000,5160.794820,-2284.956149,8847.174637,-1762.192653
0.714500,5520.192492,-2644.353857,5612.595263,-1762.192653
0.715000,6598.385507,-3363.149274,3456.209014,-1762.192653
0.715500,10192.362224,-1566.160733,2378.015889,-4277.965629
0.716000,5879.590164,-847.365317,-766.714057,4885.232036
0.716500,-1306.959372,-3184.854317,-2923.100306,4885.232036
0.717000,-1306.959372,-3184.854317,-3282.498015,4885.232036
0.717500,-1666.357044,-6419.433691,-1126.111765,4885.232036
0.718000,-1306.959372,-5341.240566,-1485.509474,6322.816594
0.718500,-1666.357044,-6778.831399,-47.918641,4525.835897
0.719000,-1306.959372,-8216.422232,670.876776,4166.439757
0.719500,-1666.357044,-7857.024524,311.479067,5963.420455
0.720000,-947.561701,-669.070360,1030.274484,5604.024315
0.720500,-1666.357044,-2825.456609,-47.918641,4525.835897
0.721000,-3822.743074,-2466.058901,1030.274484,4166.439757
0.721500,-4541.538417,-2106.661192,-1126.111765,2369.459060
0.722000,-2744.550059,-2466.058901,1030.274484,4166.439757
0.722500,-2744.550059,-3903.649733,-47.918641,4525.835897
0.723000,-2025.754716,-2825.456609,670.876776,4885.232036
0.723500,-588.164029,-2106.661192,1030.274484,7401.005013
0.724000,-2385.152387,-2825.456609,2467.865317,4437.390753
0.724500,-1666.357044,-2466.058901,670.876776,4885.232036
0.725000,-1666.357044,-4263.047442,311.479067,5244.628176
0.725500,-947.561701,-2466.058901,-407.316349,5604.024315
0.726000,-588.164029,-2106.661192,-407.316349,6682.212734
0.726500,-1306.959372,-2466.058901,670.876776,4525.835897
0.727000,2287.017344,-2195.106722,670.876776,5963.420455
0.727500,2287.017344,-3632.697555,311.479067,5963.420455
0.728000,2287.017344,-757.515889,-47.918641,6322.816594
0.728500,490.028986,-2466.058901,-407.316349,6682.212734
0.729000,-1666.357044,-1747.263484,-407.316349,6322.816594
0.729500,-588.164029,-2106.661192,-407.316349,5244.628176
0.730000,-588.164029,-1028.468068,-407.316349,5244.628176
0.730500,-588.164029,3284.304430,-495.761879,4885.232036
0.731000,-1666.357044,49.725057,-407.316349,5244.628176
0.731500,-3103.947731,-1387.865776,-47.918641,5244.628176
0.732000,-947.561701,-2106.661192,-407.316349,4885.232036
0.732500,-947.561701,-2466.058901,-1844.907182,4525.835897
0.733000,-947.561701,-1028.468068,670.876776,4166.439757
0.733500,-1306.959372,302.426570,1197.338262,1017.511863
0.734000,957.526738,312.253851,1201.549954,1016.107972
0.734500,944.891664,308.042159,1204.357749,1011.896299
0.735000,947.699458,308.042159,1208.569441,1017.511863
0.735500,943.487767,306.638262,1195.934365,1016.107972
0.736000,937.872178,317.869441,1200.146057,1016.107972
0.736500,932.256590,312.253851,1201.549954,1014.704081
0.737000,933.660487,312.253851,1195.934365,1021.723537
0.737500,937.872178,309.446057,1184.703186,1013.300190
0.738000,940.679973,313.657749,1188.914878,1017.511863
0.738500,943.487767,310.849954,1193.126570,1018.915755
0.739000,935.064384,308.042159,1194.530468,1017.511863
0.739500,932.256590,317.869441,1197.338262,1010.492408
0.740000,944.891664,315.061646,1205.761646,1018.915755
0.740500,947.699458,312.253851,1221.204516,1018.915755
0.741000,949.103356,310.849954,1201.549954,1016.107972
0.741500,961.738430,313.657749,1200.146057,1020.319646
0.742000,951.911150,316.465543,1200.146057,1011.896299
0.742500,954.718944,316.465543,1208.569441,1021.723537
0.743000,953.315047,316.465543,1224.012311,1025.935210
0.743500,953.315047,305.234365,1205.761646,1027.339102
0.744000,954.718944,302.426570,1208.569441,1027.339102
0.744500,951.911150,309.446057,1208.569441,1024.531319
0.745000,956.122841,306.638262,1207.165543,1018.915755
0.745500,958.930636,310.849954,1207.165543,1018.915755
0.746000,960.334533,309.446057,1201.549954,1025.935210
0.746500,963.142327,306.638262,1205.761646,1025.935210
0.747000,960.334533,305.234365,1202.953851,1028.742993
0.747500,953.315047,308.042159,1201.549954,1016.107972
0.748000,957.526738,310.849954,1207.165543,1025.935210
0.748500,957.526738,310.849954,1225.416208,1021.723537
0.749000,961.738430,302.426570,1204.357749,1025.935210
0.749500,954.718944,313.657749,1204.357749,1023.127428
0.750000,949.103356,315.061646,1201.549954,1016.107972
0.750500,953.315047,317.869441,1204.357749,1014.704081
0.751000,953.315047,322.081132,1204.357749,1020.319646
0.751500,951.911150,319.273338,1197.338262,1025.935210
0.752000,951.911150,317.869441,1201.549954,1024.531319
0.752500,950.507253,337.524003,1198.742159,1025.935210
0.753000,950.507253,322.081132,1200.146057,1030.146884
0.753500,950.507253,322.081132,1207.165543,1027.339102
0.754000,947.699458,320.677235,1202.953851,1030.146884
0.754500,943.487767,312.253851,1205.761646,1031.550775
0.755000,946.295561,326.292824,1205.761646,1027.339102
0.755500,954.718944,315.061646,1204.357749,1039.974122
0.756000,944.891664,301.022673,1207.165543,1020.319646
0.756500,943.487767,302.426570,1222.608414,1020.319646
0.757000,944.891664,303.830468,1208.569441,1024.531319
0.757500,943.487767,310.849954,1212.781132,1025.935210
0.758000,958.930636,308.042159,1215.588927,1028.742993
0.758500,943.487767,312.253851,1212.781132,1038.570231
0.759000,943.487767,313.657749,1221.204516,1027.339102
0.759500,943.487767,313.657749,1204.357749,1027.339102
0.760000,942.083870,313.657749,1205.761646,1025.935210
0.760500,943.487767,327.696722,1207.165543,1027.339102
0.761000,942.083870,308.042159,1205.761646,1044.185796
0.761500,942.083870,302.426570,1204.357749,1027.339102
0.762000,944.891664,308.042159,1218.396722,1027.339102
0.762500,943.487767,306.638262,1198.742159,1028.742993
0.763000,946.295561,313.657749,1194.530468,1031.550775
0.763500,953.315047,315.061646,1188.914878,1028.742993
0.764000,943.487767,315.061646,1183.299289,1045.589687
0.764500,947.699458,315.061646,1179.087597,1031.550775
0.765000,947.699458,317.869441,1180.491495,1031.550775
0.765500,949.103356,305.234365,1195.934365,1032.954666
0.766000,936.468281,317.869441,1200.146057,1034.358558
0.766500,949.103356,316.465543,1202.953851,1030.146884
0.767000,947.699458,315.061646,1214.185030,1028.742993
0.767500,947.699458,309.446057,1195.934365,1030.146884
0.768000,942.083870,316.465543,1202.953851,1028.742993
0.768500,935.064384,301.022673,1201.549954,1032.954666
0.769000,936.468281,308.042159,1201.549954,1024.531319
0.769500,940.679973,306.638262,1188.914878,1034.358558
0.770000,944.891664,312.253851,1195.934365,1035.762449
0.770500,942.083870,313.657749,1200.146057,1037.166340
0.771000,947.699458,306.638262,1197.338262,1037.166340
0.771500,944.891664,312.253851,1202.953851,1027.339102
0.772000,944.891664,310.849954,1201.549954,1034.358558
0.772500,946.295561,310.849954,1194.530468,1030.146884
0.773000,951.911150,310.849954,1201.549954,1030.146884
0.773500,936.468281,306.638262,1200.146057,1035.762449
0.774000,942.083870,309.446057,1200.146057,1035.762449
0.774500,944.891664,308.042159,1201.549954,1028.742993
0.775000,940.679973,309.446057,1193.126570,1038.570231
0.775500,940.679973,310.849954,1200.146057,1035.762449
0.776000,947.699458,322.081132,1200.146057,1038.570231
0.776500,940.679973,313.657749,1201.549954,1037.166340
0.777000,951.911150,313.657749,1184.703186,1020.319646
0.777500,949.103356,310.849954,1179.087597,1017.511863
0.778000,950.507253,310.849954,1183.299289,1014.704081
0.778500,942.083870,309.446057,1187.510981,1017.511863
0.779000,943.487767,308.042159,1188.914878,1007.684625
0.779500,953.315047,310.849954,1188.914878,1013.300190
0.780000,951.911150,313.657749,1193.126570,1010.492408
0.780500,956.122841,305.234365,1184.703186,1011.896299
0.781000,967.354019,310.849954,1188.914878,1010.492408
0.781500,947.699458,313.657749,1207.165543,1010.492408
0.782000,950.507253,315.061646,1238.051284,1011.896299
0.782500,957.526738,317.869441,1257.705846,1011.896299
0.783000,956.122841,334.716208,1228.224003,1013.300190
0.783500,958.930636,315.061646,1218.396722,1014.704081
0.784000,964.546224,312.253851,1209.973338,1002.069061
0.784500,951.911150,312.253851,1212.781132,1013.300190
0.785000,953.315047,309.446057,1209.973338,1014.704081
0.785500,956.122841,317.869441,1208.569441,1011.896299
0.786000,957.526738,322.081132,1207.165543,1010.492408
0.786500,946.295561,312.253851,1209.973338,995.049605
0.787000,954.718944,309.446057,1212.781132,997.857387
0.787500,953.315047,309.446057,1221.204516,1002.069061
0.788000,953.315047,308.042159,1214.185030,1004.876843
0.788500,954.718944,312.253851,1209.973338,1006.280734
0.789000,957.526738,309.446057,1205.761646,1010.492408
0.789500,958.930636,308.042159,1207.165543,1013.300190
0.790000,950.507253,306.638262,1208.569441,1014.704081
0.790500,950.507253,305.234365,1218.396722,1016.107972
0.791000,951.911150,306.638262,1205.761646,1014.704081
0.791500,947.699458,306.638262,1208.569441,1018.915755
0.792000,947.699458,308.042159,1212.781132,1020.319646
0.792500,947.699458,306.638262,1212.781132,1045.589687
0.793000,949.103356,296.810981,1202.953851,1045.589687
0.793500,946.295561,298.214878,1207.165543,1042.781905
0.794000,933.660487,306.638262,1204.357749,1037.166340
0.794500,947.699458,308.042159,1207.165543,1028.742993
0.795000,946.295561,308.042159,1208.569441,1014.704081
0.795500,946.295561,308.042159,1198.742159,1020.319646
0.796000,946.295561,305.234365,1201.549954,1017.511863
0.796500,943.487767,298.214878,1208.569441,1018.915755
0.797000,936.468281,306.638262,1209.973338,1020.319646
0.797500,944.891664,306.638262,1209.973338,1025.935210
0.798000,944.891664,309.446057,1205.761646,1009.088516
0.798500,944.891664,309.446057,1216.992824,1003.472952
0.799000,944.891664,305.234365,1205.761646,996.453496
0.799500,943.487767,299.618776,1197.338262,975.395128
0.800000,947.699458,306.638262,1187.510981,988.030149
0.800500,949.103356,302.426570,1176.279803,978.202911
0.801000,949.103356,306.638262,1197.338262,983.818475
0.801500,953.315047,316.465543,1177.683700,993.645714
0.802000,964.546224,306.638262,1183.299289,1007.684625
0.802500,950.507253,306.638262,1181.895392,1020.319646
0.803000,946.295561,309.446057,1181.895392,1020.319646
0.803500,954.718944,310.849954,1181.895392,1028.742993
0.804000,951.911150,323.485030,1176.279803,1021.723537
0.804500,950.507253,306.638262,1193.126570,1018.915755
0.805000,950.507253,-6610.363723,2647.564171,-1492.645548
0.805500,3633.354716,-7046.975783,1928.768754,-414.457130
0.806000,6867.933761,-3812.396409,2288.166462,-773.853269
0.806500,3273.957044,-3812.396409,491.177921,3627.345548
0.807000,2466.716180,-4171.794117,-2024.606036,-1763.596544
0.807500,3273.957044,-4890.589534,-587.015203,-1404.200404
0.808000,2555.161701,-6328.180366,850.575630,-1404.200404
0.808500,398.775671,-5880.337129,491.177921,-1763.596544
0.809000,398.775671,-5161.541712,850.575630,1830.364851
0.809500,2826.113852,-5249.987242,131.780213,-2482.388823
0.810000,2555.161701,-4890.589534,-2743.401452,-2841.784962
0.810500,2914.559372,-218.419327,131.780213,-2122.992683
0.811000,-679.417344,-4442.746296,-227.617495,-1404.200404
0.811500,-320.019673,-4442.746296,-587.015203,-3560.577241
0.812000,2195.764029,-4531.191825,131.780213,-1044.804265
0.812500,2195.764029,-4890.589534,2288.166462,-1133.249409
0.813000,2195.764029,-5609.384950,-1305.810620,392.780293
0.813500,2555.161701,-7765.771199,491.177921,33.384153
0.814000,398.775671,-6239.734837,491.177921,-1404.200404
0.814500,2555.161701,-6687.578075,850.575630,3986.741688
0.815000,2466.716180,-7406.373491,-2743.401452,-326.011986
0.815500,2555.161701,-8125.168907,-3102.799160,33.384153
0.816000,2195.764029,-8125.168907,-587.015203,752.176432
0.816500,1836.366357,-8484.566616,131.780213,-685.408125
0.817000,-320.019673,-7677.325669,-587.015203,-3201.181102
0.817500,2555.161701,-8484.566616,491.177921,-326.011986
0.818000,2195.764029,-7765.771199,3006.961879,-1492.645548
0.818500,2555.161701,-4531.191825,-227.617495,-1763.596544
0.819000,5789.740746,-6328.180366,491.177921,-1763.596544
0.819500,2195.764029,-5968.782658,131.780213,-3201.181102
0.820000,2555.161701,-5249.987242,131.780213,-1044.804265
0.820500,2555.161701,-3812.396409,-946.412911,-685.408125
0.821000,2195.764029,-3093.600993,491.177921,-1404.200404
0.821500,2195.764029,-2734.203285,-227.617495,-1763.596544
0.822000,1476.968686,-4890.589534,-227.617495,-3560.577241
0.822500,2195.764029,-4531.191825,491.177921,-5357.557939
0.823000,2914.559372,-5609.384950,1209.973338,-4279.369520
0.823500,2914.559372,-2374.805576,131.780213,-3560.577241
0.824000,3273.957044,-6687.578075,131.780213,-2841.784962
0.824500,5430.343074,-6328.180366,491.177921,-2122.992683
0.825000,1836.366357,-5249.987242,491.177921,-4279.369520
0.825500,2195.764029,-5968.782658,131.780213,-2122.992683
0.826000,2195.764029,-7765.771199,131.780213,-1404.200404
0.826500,2914.559372,-9203.362032,-587.015203,-1044.804265
0.827000,6508.536089,-6687.578075,-946.412911,392.780293
0.827500,1836.366357,-7046.975783,-946.412911,4346.137827
0.828000,2107.318508,-7046.975783,-2743.401452,-326.011986
0.828500,2195.764029,-5968.782658,131.780213,1830.364851
0.829000,2466.716180,-8125.168907,-946.412911,752.176432
0.829500,-320.019673,-7677.325669,-587.015203,-685.408125
0.830000,3633.354716,-6687.578075,131.780213,752.176432
0.830500,1836.366357,-7765.771199,-946.412911,-1404.200404
0.831000,1836.366357,-8125.168907,-3462.196869,-1044.804265
0.831500,1836.366357,-4171.794117,-587.015203,-685.408125
0.832000,1476.968686,-4171.794117,-1305.810620,-1763.596544
0.832500,758.173342,-6599.132545,-1305.810620,-3201.181102
0.833000,398.775671,-6599.132545,-227.617495,1830.364851
0.833500,1747.920837,-6687.578075,-2743.401452,-1044.804265
0.834000,1476.968686,-5609.384950,-2024.606036,-685.408125
0.834500,39.377999,-6239.734837,-227.617495,-1044.804265
0.835000,758.173342,-8036.723378,-227.617495,-685.408125
0.835500,1476.968686,-8125.168907,-227.617495,1830.364851
0.836000,669.727822,-7677.325669,-946.412911,-1404.200404
0.836500,1476.968686,-7765.771199,2288.166462,-1133.249409
0.837000,398.775671,-9114.916502,-227.617495,-1763.596544
0.837500,758.173342,-9833.711919,-227.617495,-1044.804265
0.838000,758.173342,-7317.927961,491.177921,3627.345548
0.838500,310.330150,-5880.337129,-587.015203,-1404.200404
0.839000,758.173342,-5161.541712,-227.617495,-1404.200404
0.839500,398.775671,-5520.939420,-1305.810620,-1044.804265
0.840000,-320.019673,-7677.325669,131.780213,-685.408125
0.840500,3273.957044,-7406.373491,131.780213,-1404.200404
0.841000,1476.968686,-7406.373491,1928.768754,1741.919707
0.841500,669.727822,-6958.530253,131.780213,392.780293
0.842000,1476.968686,-4531.191825,1928.768754,663.731289
0.842500,2195.764029,-3812.396409,1569.371046,304.335149
0.843000,-1038.815016,-6239.734837,2288.166462,-2930.230106
0.843500,2195.764029,-6687.578075,2647.564171,-2211.437827
0.844000,758.173342,-8036.723378,5522.745836,-414.457130
0.844500,758.173342,-8396.121086,3006.961879,-414.457130
0.845000,2195.764029,-8125.168907,1928.768754,-55.060990
0.845500,4352.150059,-8484.566616,1209.973338,33.384153
0.846000,2914.559372,-8484.566616,-587.015203,-2122.992683
0.846500,3992.752387,-7765.771199,-3102.799160,-685.408125
0.847000,4711.547731,-7406.373491,-3821.594577,-2482.388823
0.847500,5789.740746,-7046.975783,-2743.401452,-2122.992683
0.848000,5070.945402,-6687.578075,-1305.810620,-2122.992683
0.848500,3992.752387,-5609.384950,-1305.810620,1470.968711
0.849000,2826.113852,-6328.180366,-1305.810620,-3919.973381
0.849500,3273.957044,-9562.759740,-1665.208328,-2841.784962
0.850000,2195.764029,-7765.771199,-227.617495,-2122.992683
0.850500,-679.417344,-8396.121086,-227.617495,-1763.596544
0.851000,1836.366357,-8484.566616,-587.015203,392.780293
0.851500,2914.559372,-8125.168907,-1305.810620,-1404.200404
0.852000,1476.968686,-7765.771199,-3102.799160,-685.408125
0.852500,758.173342,-6958.530253,-946.412911,-326.011986
0.853000,-2117.008031,-8396.121086,-946.412911,-685.408125
0.853500,-320.019673,-7317.927961,-587.015203,-2841.784962
0.854000,398.775671,-7677.325669,-587.015203,-326.011986
0.854500,398.775671,-6599.132545,-1665.208328,-1404.200404
0.855000,-320.019673,-7677.325669,-1665.208328,-1763.596544
0.855500,758.173342,-3364.553171,-227.617495,-685.408125
0.856000,-1757.610359,-6958.530253,131.780213,-4279.369520
0.856500,39.377999,-5880.337129,491.177921,-3201.181102
0.857000,-320.019673,-5161.541712,850.575630,-1404.200404
0.857500,758.173342,-1567.564630,131.780213,-1404.200404
0.858000,398.775671,-5880.337129,850.575630,-685.408125
0.858500,1836.366357,-4531.191825,-227.617495,-685.408125
0.859000,-1757.610359,-5161.541712,-587.015203,-2841.784962
0.859500,-320.019673,-4442.746296,-946.412911,-1404.200404
0.860000,-679.417344,-5161.541712,1928.768754,-2211.437827
0.860500,39.377999,-7677.325669,-2743.401452,-1404.200404
0.861000,4352.150059,-4531.191825,-3102.799160,-1763.596544
0.861500,3633.354716,-4531.191825,-3462.196869,3986.741688
0.862000,-1486.658208,-5161.541712,-1665.208328,-326.011986
0.862500,-1038.815016,-5520.939420,-946.412911,-685.408125
0.863000,-1398.212688,-5520.939420,491.177921,-1044.804265
0.863500,-3913.996389,-5161.541712,-227.617495,-1044.804265
0.864000,-1398.212688,-5161.541712,131.780213,-1763.596544
0.864500,-1038.815016,-5880.337129,850.575630,-1044.804265
0.865000,-1398.212688,-4802.144004,3006.961879,-1852.041688
0.865500,-1398.212688,-4802.144004,2288.166462,-1852.041688
0.866000,758.173342,-6239.734837,850.575630,-1763.596544
0.866500,1476.968686,-5968.782658,131.780213,-4998.161799
0.867000,-1757.610359,-5520.939420,131.780213,-685.408125
0.867500,-1757.610359,-5161.541712,3725.757295,-1133.249409
0.868000,-1757.610359,-6599.132545,131.780213,-1404.200404
0.868500,-2117.008031,-5880.337129,-587.015203,-1404.200404
0.869000,-3195.201046,-5880.337129,491.177921,392.780293
0.869500,-2117.008031,-5520.939420,131.780213,-685.408125
0.870000,-2117.008031,-7317.927961,-1305.810620,-685.408125
0.870500,-1757.610359,-7677.325669,-227.617495,-1044.804265
0.871000,-1757.610359,-5161.541712,131.780213,33.384153
0.871500,-2835.803374,-6239.734837,-227.617495,1830.364851
0.872000,-2205.453552,-5520.939420,131.780213,-1404.200404
0.872500,-1757.610359,-7317.927961,491.177921,-1044.804265
0.873000,-1757.610359,-5520.939420,491.177921,-1044.804265
0.873500,-3554.598718,-5520.939420,491.177921,-326.011986
0.874000,-3195.201046,-4802.144004,131.780213,752.176432
0.874500,-1038.815016,-5161.541712,491.177921,-2841.784962
0.875000,398.775671,-3723.950879,3006.961879,-1852.041688
0.875500,2195.764029,-5968.782658,491.177921,-1763.596544
0.876000,2914.559372,-6687.578075,131.780213,-1044.804265
0.876500,6149.138417,-5249.987242,850.575630,-4279.369520
0.877000,2555.161701,-5609.384950,1928.768754,-3649.022385
0.877500,1836.366357,-5249.987242,850.575630,-1044.804265
0.878000,1476.968686,-7406.373491,131.780213,-685.408125
0.878500,398.775671,-8036.723378,-946.412911,-1044.804265
0.879000,4711.547731,-6328.180366,-946.412911,-3560.577241
0.879500,39.377999,-6239.734837,131.780213,-2841.784962
0.880000,-679.417344,-5520.939420,131.780213,33.384153
0.880500,-679.417344,-5520.939420,3006.961879,-773.853269
0.881000,39.377999,-5161.541712,-587.015203,-1044.804265
0.881500,2914.559372,-5249.987242,-946.412911,-326.011986
0.882000,-1757.610359,-5161.541712,-227.617495,-685.408125
0.882500,-2117.008031,-6239.734837,-1665.208328,-326.011986
0.883000,-2117.008031,-7677.325669,2288.166462,-414.457130
0.883500,-1757.610359,-5161.541712,-587.015203,2908.553269
0.884000,-408.465193,-5880.337129,131.780213,3627.345548
0.884500,-2205.453552,-5880.337129,131.780213,3986.741688
0.885000,-2564.851223,-5880.337129,-946.412911,5064.930106
0.885500,-2564.851223,-4802.144004,3366.359587,3898.296544
0.886000,-2564.851223,-6599.132545,131.780213,3627.345548
0.886500,-2205.453552,-6958.530253,131.780213,2189.760990
0.887000,1747.920837,-4890.589534,1209.973338,-1763.596544
0.887500,-2476.405703,-4083.348588,1209.973338,752.176432
0.888000,-2476.405703,-7317.927961,-587.015203,33.384153
0.888500,-2835.803374,-7677.325669,491.177921,33.384153
0.889000,-1757.610359,-5161.541712,1195.934365,999.261278
0.889500,925.237104,291.195392,1197.338262,992.241822
0.890000,926.641001,295.407084,1193.126570,997.857387
0.890500,930.852693,315.061646,1197.338262,999.261278
0.891000,919.621515,303.830468,1194.530468,1000.665169
0.891500,936.468281,309.446057,1197.338262,1000.665169
0.892000,928.044898,312.253851,1201.549954,993.645714
0.892500,935.064384,305.234365,1193.126570,999.261278
0.893000,933.660487,292.599289,1198.742159,1000.665169
0.893500,935.064384,296.810981,1198.742159,999.261278
0.894000,944.891664,302.426570,1201.549954,997.857387
0.894500,926.641001,303.830468,1201.549954,996.453496
0.895000,928.044898,305.234365,1204.357749,999.261278
0.895500,928.044898,295.407084,1197.338262,997.857387
0.896000,930.852693,301.022673,1198.742159,996.453496
0.896500,937.872178,301.022673,1197.338262,996.453496
0.897000,923.833207,298.214878,1201.549954,992.241822
0.897500,928.044898,299.618776,1216.992824,997.857387
0.898000,926.641001,303.830468,1198.742159,1000.665169
0.898500,925.237104,306.638262,1197.338262,1000.665169
0.899000,914.005927,316.465543,1197.338262,1020.319646
0.899500,926.641001,327.696722,1198.742159,1024.531319
0.900000,928.044898,327.696722,1188.914878,1016.107972
0.900500,930.852693,324.888927,1197.338262,1011.896299
0.901000,930.852693,333.312311,1198.742159,1009.088516
0.901500,932.256590,315.061646,1200.146057,1027.339102
0.902000,930.852693,315.061646,1198.742159,1025.935210
0.902500,933.660487,315.061646,1190.318776,1006.280734
0.903000,929.448795,315.061646,1193.126570,1006.280734
0.903500,930.852693,305.234365,1200.146057,1006.280734
0.904000,932.256590,310.849954,1200.146057,1009.088516
0.904500,944.891664,313.657749,1204.357749,1006.280734
0.905000,929.448795,315.061646,1215.588927,1002.069061
0.905500,929.448795,310.849954,1216.992824,1000.665169
0.906000,930.852693,306.638262,1202.953851,1004.876843
0.906500,919.621515,313.657749,1197.338262,1002.069061
0.907000,921.025412,315.061646,1197.338262,997.857387
0.907500,928.044898,315.061646,1190.318776,1006.280734
0.908000,928.044898,316.465543,1200.146057,1002.069061
0.908500,928.044898,331.908414,1200.146057,1003.472952
0.909000,933.660487,313.657749,1201.549954,1004.876843
0.909500,950.507253,312.253851,1200.146057,1018.915755
0.910000,932.256590,315.061646,1215.588927,1004.876843
0.910500,930.852693,312.253851,1201.549954,1002.069061
0.911000,932.256590,306.638262,1200.146057,1000.665169
0.911500,933.660487,315.061646,1200.146057,992.241822
0.912000,928.044898,312.253851,1202.953851,990.837931
0.912500,929.448795,312.253851,1202.953851,1000.665169
0.913000,932.256590,316.465543,1197.338262,1003.472952
0.913500,929.448795,324.888927,1200.146057,1000.665169
0.914000,925.237104,310.849954,1198.742159,1002.069061
0.914500,942.083870,315.061646,1200.146057,997.857387
0.915000,932.256590,312.253851,1198.742159,1006.280734
0.915500,929.448795,313.657749,1191.722673,1006.280734
0.916000,930.852693,313.657749,1188.914878,1007.684625
0.916500,930.852693,313.657749,1198.742159,1009.088516
0.917000,943.487767,310.849954,1198.742159,1013.300190
0.917500,928.044898,313.657749,1202.953851,1010.492408
0.918000,929.448795,309.446057,1200.146057,1020.319646
0.918500,928.044898,302.426570,1200.146057,1021.723537
0.919000,929.448795,309.446057,1200.146057,1018.915755
0.919500,933.660487,312.253851,1200.146057,1018.915755
0.920000,942.083870,310.849954,1200.146057,1024.531319
0.920500,930.852693,315.061646,1195.934365,1010.492408
0.921000,932.256590,312.253851,1197.338262,1006.280734
0.921500,928.044898,305.234365,1197.338262,1006.280734
0.922000,935.064384,312.253851,1197.338262,993.645714
0.922500,928.044898,312.253851,1197.338262,995.049605
0.923000,932.256590,312.253851,1214.185030,1009.088516
0.923500,933.660487,316.465543,1198.742159,1009.088516
0.924000,930.852693,326.292824,1194.530468,1010.492408
0.924500,932.256590,313.657749,1197.338262,1006.280734
0.925000,930.852693,312.253851,1200.146057,999.261278
0.925500,933.660487,315.061646,1194.530468,993.645714
0.926000,933.660487,322.081132,1188.914878,1000.665169
0.926500,933.660487,331.908414,1195.934365,1003.472952
0.927000,929.448795,315.061646,1197.338262,1004.876843
0.927500,916.813721,317.869441,1197.338262,1027.339102
0.928000,928.044898,317.869441,1197.338262,1009.088516
0.928500,928.044898,317.869441,1188.914878,1014.704081
0.929000,928.044898,316.465543,1191.722673,1017.511863
0.929500,933.660487,310.849954,1198.742159,1017.511863
0.930000,933.660487,312.253851,1197.338262,1014.704081
0.930500,940.679973,313.657749,1197.338262,1020.319646
0.931000,944.891664,313.657749,1198.742159,1006.280734
0.931500,943.487767,301.022673,1197.338262,1011.896299
0.932000,937.872178,316.465543,1195.934365,1009.088516
0.932500,933.660487,305.234365,1200.146057,1024.531319
0.933000,935.064384,305.234365,1195.934365,1020.319646
0.933500,935.064384,301.022673,1188.914878,1006.280734
0.934000,933.660487,292.599289,1198.742159,1010.492408
0.934500,936.468281,303.830468,1198.742159,1010.492408
0.935000,928.044898,310.849954,1198.742159,1011.896299
0.935500,922.429310,315.061646,1198.742159,1007.684625
0.936000,914.005927,315.061646,1198.742159,1010.492408
0.936500,911.198132,329.100619,1190.318776,1021.723537
0.937000,932.256590,329.100619,1191.722673,1014.704081
0.937500,933.660487,326.292824,1191.722673,1014.704081
0.938000,928.044898,338.927900,1197.338262,1013.300190
0.938500,916.813721,316.465543,1197.338262,1014.704081
0.939000,929.448795,317.869441,1200.146057,1027.339102
0.939500,925.237104,317.869441,1194.530468,1013.300190
0.940000,928.044898,317.869441,1194.530468,1014.704081
0.940500,930.852693,322.081132,1188.914878,1016.107972
0.941000,933.660487,315.061646,1193.126570,1011.896299
0.941500,923.833207,312.253851,1194.530468,1014.704081
0.942000,928.044898,310.849954,1193.126570,1011.896299
0.942500,929.448795,312.253851,1197.338262,1014.704081
0.943000,930.852693,312.253851,1200.146057,1013.300190
0.943500,935.064384,312.253851,1200.146057,1013.300190
0.944000,930.852693,309.446057,1204.357749,1002.069061
0.944500,929.448795,310.849954,1204.357749,1014.704081
0.945000,926.641001,310.849954,1214.185030,1011.896299
0.945500,923.833207,312.253851,1208.569441,1016.107972
0.946000,926.641001,326.292824,1208.569441,1016.107972
0.946500,922.429310,315.061646,1209.973338,1014.704081
0.947000,932.256590,309.446057,1198.742159,1016.107972
0.947500,933.660487,312.253851,1197.338262,1011.896299
0.948000,937.872178,313.657749,1198.742159,1014.704081
0.948500,937.872178,309.446057,1204.357749,1011.896299
0.949000,930.852693,312.253851,1207.165543,1013.300190
0.949500,940.679973,313.657749,1202.953851,1014.704081
0.950000,944.891664,308.042159,1212.781132,1011.896299
0.950500,940.679973,303.830468,1208.569441,1013.300190
0.951000,937.872178,322.081132,1204.357749,1014.704081
0.951500,937.872178,312.253851,1201.549954,1017.511863
0.952000,932.256590,310.849954,1204.357749,1009.088516
0.952500,930.852693,309.446057,1193.126570,1013.300190
0.953000,929.448795,306.638262,1202.953851,1017.511863
0.953500,930.852693,303.830468,1202.953851,1018.915755
0.954000,929.448795,306.638262,1202.953851,1018.915755
0.954500,918.217618,309.446057,1202.953851,1017.511863
0.955000,919.621515,310.849954,1208.569441,1016.107972
0.955500,912.602030,312.253851,1208.569441,1013.300190
0.956000,909.794235,317.869441,1212.781132,1013.300190
0.956500,909.794235,315.061646,1207.165543,1011.896299
0.957000,919.621515,309.446057,1208.569441,1011.896299
0.957500,925.237104,312.253851,1198.742159,1009.088516
0.958000,925.237104,312.253851,1200.146057,1007.684625
0.958500,923.833207,323.485030,1208.569441,1011.896299
0.959000,922.429310,308.042159,1208.569441,1009.088516
0.959500,921.025412,306.638262,1208.569441,1006.280734
0.960000,933.660487,310.849954,1198.742159,1002.069061
0.960500,935.064384,313.657749,1205.761646,1010.492408
0.961000,940.679973,298.214878,1205.761646,1013.300190
0.961500,943.487767,309.446057,1205.761646,1013.300190
0.962000,953.315047,309.446057,1204.357749,1006.280734
0.962500,932.256590,309.446057,1208.569441,1009.088516
0.963000,930.852693,310.849954,1215.588927,1011.896299
0.963500,929.448795,310.849954,1221.204516,1009.088516
0.964000,929.448795,306.638262,1207.165543,1009.088516
0.964500,928.044898,309.446057,1211.377235,1009.088516
0.965000,930.852693,308.042159,1216.992824,1004.876843
0.965500,928.044898,309.446057,1214.185030,1011.896299
0.966000,932.256590,309.446057,1209.973338,1011.896299
0.966500,933.660487,302.426570,1212.781132,1016.107972
0.967000,919.621515,308.042159,1214.185030,1014.704081
0.967500,923.833207,309.446057,1214.185030,1017.511863
0.968000,928.044898,309.446057,1218.396722,1011.896299
0.968500,929.448795,315.061646,1207.165543,1016.107972
0.969000,930.852693,313.657749,1218.396722,1014.704081
0.969500,928.044898,310.849954,1221.204516,1016.107972
0.970000,944.891664,309.446057,1224.012311,1004.876843
0.970500,929.448795,309.446057,1222.608414,1000.665169
0.971000,930.852693,308.042159,1216.992824,1011.896299
0.971500,930.852693,295.407084,1215.588927,1011.896299
0.972000,928.044898,309.446057,-937.989528,-2392.539788
0.972500,-230.170255,-40.124370,-1575.358901,-2392.539788
0.973000,2645.011119,-1566.160733,-497.165776,-4908.312764
0.973500,-2027.158613,-1477.715203,581.027348,-1673.747509
0.974000,-2386.556285,-1477.715203,3815.606722,-1762.192653
0.974500,-2027.158613,-758.919787,-1575.358901,-1314.351370
0.975000,-1308.363270,1038.068754,-1304.406722,-2033.143649
0.975500,-230.170255,-758.919787,-497.165776,-4548.916625
0.976000,-1667.760941,-1118.317495,-497.165776,-4548.916625
0.976500,-948.965598,-1477.715203,2378.015889,-2121.588792
0.977000,-948.965598,-2196.510620,-1934.756609,-2033.143649
0.977500,129.227417,-399.522079,-497.165776,-2033.143649
0.978000,-230.170255,-40.124370,-1215.961192,-3470.728206
0.978500,-1308.363270,-1477.715203,-497.165776,482.629328
0.979000,-589.567926,-1477.715203,-1575.358901,-1673.747509
0.979500,-230.170255,-1837.112911,3096.811306,-2121.588792
0.980000,1926.215775,-2644.353857,-497.165776,-2392.539788
0.980500,6238.987835,-1925.558441,-1215.961192,-2033.143649
0.981000,6957.783179,-1566.160733,-497.165776,-4548.916625
0.981500,3004.408790,-2644.353857,-4091.142858,-1314.351370
0.982000,3723.204134,-1925.558441,-2294.154317,-1673.747509
0.982500,3363.806462,-2644.353857,-1215.961192,-2033.143649
0.983000,3363.806462,-3003.751566,-856.563484,-2033.143649
0.983500,1926.215775,-2644.353857,-856.563484,-4548.916625
0.984000,3004.408790,-1925.558441,-137.768068,-5627.105043
0.984500,2645.011119,-2284.956149,3815.606722,-2480.984932
0.985000,2285.613447,-1925.558441,-1575.358901,-2392.539788
0.985500,3363.806462,-847.365317,-137.768068,-2033.143649
0.986000,3363.806462,-1925.558441,-856.563484,-2033.143649
0.986500,488.625089,-1477.715203,-497.165776,-4189.520485
0.987000,2645.011119,-1566.160733,-497.165776,-1673.747509
0.987500,2285.613447,-1566.160733,3456.209014,-2121.588792
0.988000,2645.011119,-3722.546982,-856.563484,-2392.539788
0.988500,5520.192492,-1925.558441,221.629640,-1673.747509
0.989000,4441.999477,-1566.160733,-856.563484,-4548.916625
0.989500,1926.215775,-1206.763025,221.629640,-236.162951
0.990000,1926.215775,-2284.956149,581.027348,-1314.351370
0.990500,2285.613447,-847.365317,940.425057,-954.955230
0.991000,848.022760,-2915.306036,581.027348,-954.955230
0.991500,-1308.363270,-1477.715203,940.425057,-954.955230
0.992000,-948.965598,-1118.317495,940.425057,-3111.332067
0.992500,1207.420432,-847.365317,1299.822765,-1762.192653
0.993000,1566.818104,-1566.160733,-137.768068,-2033.143649
0.993500,3363.806462,-2644.353857,221.629640,-1673.747509
0.994000,3004.408790,-2644.353857,221.629640,-2033.143649
0.994500,848.022760,-2555.908328,940.425057,-3111.332067
0.995000,3004.408790,-2284.956149,-2294.154317,-2033.143649
0.995500,3004.408790,-1925.558441,-497.165776,-1673.747509
0.996000,3004.408790,-1566.160733,-1215.961192,-954.955230
0.996500,2285.613447,-4081.944690,-3012.949733,-1314.351370
0.997000,3363.806462,-3003.751566,-3012.949733,-3470.728206
0.997500,3363.806462,-2284.956149,-3372.347442,-1673.747509
0.998000,3723.204134,-2644.353857,-5528.733691,-1673.747509
0.998500,3363.806462,-1925.558441,-2294.154317,-2033.143649
0.999000,488.625089,-1837.112911,-1575.358901,-1673.747509
0.999500,-230.170255,-1837.112911,-497.165776,-595.559091
1.000000,1566.818104,-1925.558441,221.629640,-2033.143649
1.000500,2285.613447,-1925.558441,3096.811306,-2121.588792
1.001000,3363.806462,-2644.353857,-1934.756609,-2033.143649
1.001500,3004.408790,-3722.546982,-856.563484,-2033.143649
1.002000,4801.397149,-1925.558441,-856.563484,-3111.332067
1.002500,5160.794820,-1925.558441,-137.768068,482.629328
1.003000,5520.192492,-1566.160733,2378.015889,-2121.588792
1.003500,5520.192492,-3363.149274,-1575.358901,-1673.747509
1.004000,6238.987835,303.830468,1200.146057,1009.088516
1.004500,956.122841,310.849954,1202.953851,1004.876843
1.005000,950.507253,310.849954,1207.165543,1004.876843
1.005500,956.122841,315.061646,1215.588927,1010.492408
1.006000,956.122841,312.253851,1202.953851,1013.300190
1.006500,954.718944,309.446057,1202.953851,1011.896299
1.007000,974.373504,317.869441,1205.761646,1000.665169
1.007500,958.930636,316.465543,1208.569441,999.261278
1.008000,960.334533,316.465543,1209.973338,1011.896299
1.008500,960.334533,313.657749,1205.761646,1011.896299
1.009000,963.142327,316.465543,1207.165543,1010.492408
1.009500,963.142327,319.273338,1207.165543,1010.492408
1.010000,964.546224,303.830468,1214.185030,1025.935210
1.010500,961.738430,306.638262,1216.992824,1011.896299
1.011000,963.142327,312.253851,1239.455181,1009.088516
1.011500,961.738430,302.426570,1219.800619,1010.492408
1.012000,958.930636,319.273338,1216.992824,1009.088516
1.012500,961.738430,305.234365,1212.781132,1010.492408
1.013000,961.738430,292.599289,1212.781132,1002.069061
1.013500,960.334533,286.983700,1231.031797,1010.492408
1.014000,961.738430,284.175905,1208.569441,1011.896299
1.014500,961.738430,286.983700,1207.165543,1010.492408
1.015000,958.930636,270.136932,1205.761646,1009.088516
1.015500,951.911150,277.156419,1207.165543,1003.472952
1.016000,963.142327,279.964213,1205.761646,1010.492408
1.016500,960.334533,279.964213,1219.800619,1010.492408
1.017000,963.142327,281.368111,1194.530468,1010.492408
1.017500,974.373504,292.599289,1184.703186,1013.300190
1.018000,971.565710,324.888927,1183.299289,1009.088516
1.018500,956.122841,351.562976,1188.914878,1017.511863
1.019000,958.930636,351.562976,1201.549954,1011.896299
1.019500,958.930636,340.331797,1201.549954,1013.300190
1.020000,957.526738,322.081132,1204.357749,1014.704081
1.020500,950.507253,324.888927,1205.761646,1004.876843
1.021000,963.142327,317.869441,1209.973338,1006.280734
1.021500,965.950121,316.465543,1224.012311,1013.300190
1.022000,970.161813,309.446057,1201.549954,1013.300190
1.022500,974.373504,315.061646,1202.953851,1011.896299
1.023000,972.969607,315.061646,1201.549954,1010.492408
1.023500,972.969607,315.061646,1201.549954,1017.511863
1.024000,971.565710,316.465543,1193.126570,1011.896299
1.024500,972.969607,315.061646,1193.126570,1011.896299
1.025000,967.354019,303.830468,1204.357749,1011.896299
1.025500,958.930636,295.407084,1202.953851,1014.704081
1.026000,956.122841,295.407084,1202.953851,1017.511863
1.026500,971.565710,292.599289,1207.165543,1009.088516
1.027000,932.256590,313.657749,1250.686359,1003.472952
1.027500,932.256590,317.869441,1253.494154,1014.704081
1.028000,933.660487,309.446057,1253.494154,1044.185796
1.028500,922.429310,312.253851,1252.090257,1068.051946
1.029000,930.852693,310.849954,1256.301949,1056.820816
1.029500,929.448795,310.849954,1250.686359,1044.185796
1.030000,929.448795,310.849954,1254.898051,1025.935210
1.030500,932.256590,302.426570,1254.898051,1014.704081
1.031000,950.507253,308.042159,1259.109743,1004.876843
1.031500,930.852693,309.446057,1260.513641,1018.915755
1.032000,933.660487,310.849954,1271.744819,1013.300190
1.032500,932.256590,326.292824,1263.321435,1013.300190
1.033000,932.256590,308.042159,1263.321435,1011.896299
1.033500,922.429310,305.234365,1267.533127,1016.107972
1.034000,933.660487,309.446057,1257.705846,1013.300190
1.034500,933.660487,309.446057,1268.937024,1020.319646
1.035000,933.660487,303.830468,1263.321435,1018.915755
1.035500,937.872178,312.253851,1260.513641,1014.704081
1.036000,939.276075,324.888927,1257.705846,1018.915755
1.036500,928.044898,309.446057,1256.301949,1030.146884
1.037000,933.660487,309.446057,1256.301949,1007.684625
1.037500,933.660487,309.446057,1250.686359,1010.492408
1.038000,935.064384,329.100619,1254.898051,1011.896299
1.038500,940.679973,308.042159,1254.898051,1011.896299
1.039000,954.718944,312.253851,1256.301949,1010.492408
1.039500,933.660487,309.446057,1245.070770,1003.472952
1.040000,935.064384,308.042159,1256.301949,1007.684625
1.040500,937.872178,312.253851,1254.898051,1006.280734
1.041000,933.660487,315.061646,1261.917538,1006.280734
1.041500,937.872178,313.657749,1261.917538,1009.088516
1.042000,935.064384,312.253851,1261.917538,1000.665169
1.042500,935.064384,312.253851,1253.494154,997.857387
1.043000,933.660487,312.253851,1252.090257,1007.684625
1.043500,936.468281,306.638262,1261.917538,1016.107972
1.044000,933.660487,313.657749,1260.513641,1020.319646
1.044500,929.448795,312.253851,1257.705846,1014.704081
1.045000,930.852693,309.446057,1259.109743,1017.511863
1.045500,932.256590,308.042159,1250.686359,1017.511863
1.046000,933.660487,310.849954,1256.301949,1017.511863
1.046500,933.660487,327.696722,1254.898051,1017.511863
1.047000,923.833207,309.446057,1256.301949,1027.339102
1.047500,933.660487,309.446057,1257.705846,1024.531319
1.048000,929.448795,309.446057,1256.301949,1014.704081
1.048500,930.852693,308.042159,1256.301949,1017.511863
1.049000,935.064384,312.253851,1254.898051,1017.511863
1.049500,930.852693,310.849954,1254.898051,1013.300190
1.050000,935.064384,310.849954,1257.705846,1003.472952
1.050500,939.276075,312.253851,1252.090257,1004.876843
1.051000,940.679973,310.849954,1245.070770,1011.896299
1.051500,942.083870,327.696722,1247.878565,1010.492408
1.052000,943.487767,310.849954,1249.282462,1010.492408
1.052500,940.679973,310.849954,1252.090257,999.261278
1.053000,936.468281,312.253851,1238.051284,1002.069061
1.053500,936.468281,310.849954,1243.666873,1010.492408
1.054000,940.679973,302.426570,1249.282462,1010.492408
1.054500,937.872178,310.849954,1252.090257,1009.088516
1.055000,949.103356,310.849954,1247.878565,1010.492408
1.055500,933.660487,308.042159,1257.705846,1011.896299
1.056000,933.660487,309.446057,1245.070770,1009.088516
1.056500,929.448795,309.446057,1243.666873,1011.896299
1.057000,923.833207,309.446057,1252.090257,1016.107972
1.057500,940.679973,312.253851,1253.494154,1018.915755
1.058000,921.025412,309.446057,1250.686359,1010.492408
1.058500,919.621515,309.446057,1266.129230,1016.107972
1.059000,923.833207,299.618776,1249.282462,1013.300190
1.059500,925.237104,301.022673,1252.090257,1014.704081
1.060000,925.237104,310.849954,1247.878565,1017.511863
1.060500,916.813721,309.446057,1249.282462,1031.550775
1.061000,923.833207,309.446057,1243.666873,1018.915755
1.061500,928.044898,309.446057,1239.455181,1017.511863
1.062000,923.833207,299.618776,1246.474668,1020.319646
