Time,1,2,3,4
0.000000,940.703895,306.638262,1200.168844,999.233793
0.000500,964.570101,308.042159,1197.361055,962.732536
0.001000,980.012941,309.446057,1204.380527,973.963692
0.001500,981.416836,310.849954,1207.188316,1003.445477
0.002000,981.416836,309.446057,1208.592211,1018.888316
0.002500,996.859675,309.446057,1208.592211,1004.849371
0.003000,994.051886,309.446057,1195.957160,1000.637688
0.003500,971.589574,312.253851,1198.764949,982.387059
0.004000,947.723367,309.446057,1201.572738,979.579270
0.004500,925.261055,306.638262,1202.976633,982.387059
0.005000,922.453266,308.042159,1205.784422,983.790953
0.005500,902.798743,306.638262,1207.188316,990.810426
0.006000,904.202637,305.234365,1224.035051,959.924747
0.006500,907.010426,298.214878,1200.168844,950.097485
0.007000,905.606532,312.253851,1205.784422,938.866329
0.007500,909.818215,303.830468,1204.380527,910.788439
0.008000,908.414321,305.234365,1204.380527,898.153388
0.008500,916.837688,306.638262,1202.976633,913.596228
0.009000,919.645477,308.042159,1221.227262,955.713063
0.009500,914.029899,308.042159,1205.784422,995.022110
0.010000,894.375375,310.849954,1202.976633,1061.005152
0.010500,881.740325,327.696722,1202.976633,1069.428519
0.011000,863.489696,309.446057,1202.976633,1009.061055
0.011500,873.316958,310.849954,1205.784422,961.328641
0.012000,888.759797,313.657749,1194.553266,930.442962
0.012500,905.606532,301.022673,1205.784422,923.423489
0.013000,921.049371,315.061646,1207.188316,923.423489
0.013500,933.684422,324.888927,1202.976633,955.713063
0.014000,925.261055,309.446057,1202.976633,988.002637
0.014500,936.492211,309.446057,1204.380527,976.771481
0.015000,936.492211,309.446057,1224.035051,955.713063
0.015500,943.511684,309.446057,1202.976633,966.944219
0.016000,947.723367,302.426570,1207.188316,1002.041582
0.016500,949.127262,296.810981,1205.784422,997.829899
0.017000,950.531156,306.638262,1207.188316,955.713063
0.017500,918.241582,305.234365,1202.976633,954.309169
0.018000,918.241582,308.042159,1202.976633,972.559797
0.018500,926.664949,309.446057,1198.764949,988.002637
0.019000,932.280527,299.618776,1202.976633,973.963692
0.019500,940.703895,305.234365,1200.168844,940.270223
0.020000,947.723367,306.638262,1202.976633,909.384544
0.020500,905.606532,308.042159,1202.976633,878.498865
0.021000,888.759797,308.042159,1207.188316,836.382029
0.021500,866.297485,309.446057,1222.631156,812.515822
0.022000,856.470223,296.810981,1205.784422,808.304139
0.022500,874.720852,306.638262,1205.784422,844.805396
0.023000,905.606532,308.042159,1201.572738,961.328641
0.023500,933.684422,302.426570,1204.380527,1018.888316
0.024000,960.358418,310.849954,1201.572738,971.155903
0.024500,961.762312,306.638262,1200.168844,983.790953
0.025000,956.146734,302.426570,1225.438945,979.579270
0.025500,957.550629,295.407084,1204.380527,1038.542840
0.026000,967.377890,313.657749,1208.592211,1062.409047
0.026500,971.589574,308.042159,1207.188316,1000.637688
0.027000,980.012941,308.042159,1205.784422,959.924747
0.027500,988.436308,308.042159,1209.996105,937.462434
0.028000,996.859675,306.638262,1207.188316,951.501380
0.028500,1003.879148,309.446057,1201.572738,954.309169
0.029000,1002.475253,324.888927,1214.207789,951.501380
0.029500,1001.071359,309.446057,1212.803895,1017.484422
0.030000,1012.302515,309.446057,1201.572738,1097.506409
0.030500,988.436308,303.830468,1200.168844,1117.160933
0.031000,972.993468,305.234365,1197.361055,1069.428519
0.031500,958.954523,309.446057,1202.976633,995.022110
0.032000,953.338945,309.446057,1207.188316,962.732536
0.032500,950.531156,298.214878,1204.380527,945.885801
0.033000,963.166207,305.234365,1205.784422,930.442962
0.033500,947.723367,306.638262,1208.592211,933.250751
0.034000,953.338945,306.638262,1205.784422,930.442962
0.034500,930.876633,309.446057,1218.419473,951.501380
0.035000,914.029899,301.022673,1207.188316,969.752008
0.035500,909.818215,309.446057,1208.592211,982.387059
0.036000,925.261055,308.042159,1207.188316,988.002637
0.036500,956.146734,309.446057,1204.380527,986.598743
0.037000,965.973996,310.849954,1195.957160,1037.138945
0.037500,950.531156,308.042159,1188.937688,1136.815456
0.038000,915.433793,306.638262,1174.898743,1197.182920
0.038500,885.952008,312.253851,1187.533793,1190.163448
0.039000,869.105274,315.061646,1195.957160,1129.795983
0.039500,864.893591,309.446057,1198.764949,1079.255781
0.040000,877.528641,309.446057,1202.976633,1068.024625
0.040500,864.893591,305.234365,1205.784422,1066.620730
0.041000,880.336430,308.042159,1200.168844,1051.177890
0.041500,904.202637,310.849954,1217.015578,1028.715578
0.042000,928.068844,299.618776,1205.784422,993.618215
0.042500,951.935051,308.042159,1205.784422,979.579270
0.043000,950.531156,306.638262,1201.572738,978.175375
0.043500,880.336430,309.446057,1204.380527,996.426004
0.044000,794.698865,308.042159,1204.380527,1016.080527
0.044500,731.523611,306.638262,1198.764949,1045.562312
0.045000,704.849615,309.446057,1194.553266,1048.370101
0.045500,710.465194,323.485030,1190.341582,1027.311684
0.046000,738.543084,308.042159,1186.129899,1031.523367
0.046500,794.698865,306.638262,1186.129899,1034.331156
0.047000,814.353388,308.042159,1176.302637,1032.927262
0.047500,832.604017,303.830468,1181.918215,1041.350629
0.048000,838.219595,301.022673,1190.341582,1048.370101
0.048500,843.835173,306.638262,1191.745477,1055.389574
0.049000,841.027384,306.638262,1193.149371,1070.832414
0.049500,856.470223,308.042159,1190.341582,-8232.776560
0.050000,-2564.820718,-1208.166922,-7056.134819,-4638.806593
0.050500,-1486.629728,-2286.360047,-4540.355842,-1044.836626
0.051000,1029.149249,-3093.600993,-3821.561848,3986.721328
0.051500,-4361.805701,-3723.950879,-3821.561848,11534.058259
0.052000,-2205.423721,-3005.155463,-3821.561848,-7873.379563
0.052500,-2924.217715,-3364.553171,-5618.546832,-7154.585570
0.053000,-2564.820718,-3005.155463,-1305.782871,6143.103309
0.053500,-2205.423721,-1208.166922,-2743.370858,10455.867269
0.054000,-4002.408705,-1208.166922,-2383.973862,10815.264266
0.054500,-4632.757343,-1926.962338,-2024.576865,-7154.585570
0.055000,-2116.978366,-2645.757755,-946.385875,-7873.379563
0.055500,-2116.978366,-1926.962338,-1305.782871,9377.676279
0.056000,-1757.581370,-2645.757755,-1665.179868,12252.852252
0.056500,-3195.169357,948.219327,-2472.419216,-3201.218606
0.057000,-3195.169357,2745.207868,-2472.419216,6861.897302
0.057500,-1038.787376,2745.207868,-1753.625223,-8951.570553
0.058000,-1757.581370,1667.014744,-316.037236,-5716.997583
0.058500,-1757.581370,-848.769214,-1665.179868,-3201.218606
0.059000,-2476.375363,-3364.553171,-4540.355842,-1404.233622
0.059500,-2476.375363,-2286.360047,-2743.370858,1830.339348
0.060000,-5080.599695,-3364.553171,850.599109,3986.721328
0.060500,-1486.629728,-2645.757755,131.805115,7580.691295
0.061000,-1846.026724,-848.769214,-3821.561848,-9670.364546
0.061500,-1846.026724,-848.769214,-3462.164852,-2841.821609
0.062000,-1846.026724,-129.973797,-7774.928812,1111.545355
0.062500,-1486.629728,-129.973797,-6337.340825,1111.545355
0.063000,-1846.026724,2026.412452,-8941.565157,-6076.394579
0.063500,-5080.599695,-1926.962338,-9571.913796,9377.676279
0.064000,-4361.805701,-3723.950879,11991.906007,5424.309315
0.064500,-2924.217715,-4083.348588,7679.142046,6861.897302
0.065000,-3283.614711,-3723.950879,1928.790099,7221.294299
0.065500,-2924.217715,-4442.746296,4803.966073,3986.721328
0.066000,-2205.423721,-5880.337129,-1305.782871,3986.721328
0.066500,-2205.423721,-848.769214,7679.142046,6414.054951
0.067000,-4721.202698,-2286.360047,-9571.913796,10367.421914
0.067500,-4002.408705,-2286.360047,-9931.310792,-9040.015908
0.068000,-2564.820718,-1567.564630,7679.142046,11445.612904
0.068500,-2205.423721,-1567.564630,4803.966073,-3289.663960
0.069000,-2564.820718,-3005.155463,1928.790099,1023.100000
0.069500,-1846.026724,229.423911,131.805115,4346.118325
0.070000,-4361.805701,-1926.962338,-1305.782871,2189.736345
0.070500,-5080.599695,-2286.360047,-946.385875,3986.721328
0.071000,-2924.217715,-1208.166922,-946.385875,-4998.203589
0.071500,-2564.820718,-1567.564630,3006.981089,-9040.015908
0.072000,-2205.423721,-2645.757755,7679.142046,2101.290990
0.072500,-1757.581370,-5880.337129,4085.172079,4257.672970
0.073000,758.197607,-5161.541712,5882.157063,6773.451947
0.073500,-3913.963350,-5161.541712,10554.318020,8570.436931
0.074000,-1757.581370,-5520.939420,-8853.119802,11805.009901
0.074500,-1757.581370,-4442.746296,-7774.928812,-10118.206898
0.075000,-1398.184373,-6958.530253,-8853.119802,-5086.648944
0.075500,-1757.581370,-6958.530253,10913.715016,-1852.075974
0.076000,-1757.581370,-4442.746296,8397.936040,3538.878977
0.076500,-4721.202698,-3005.155463,5522.760066,-10118.206898
0.077000,-2564.820718,-2286.360047,3366.378086,-414.487987
0.077500,-2205.423721,-1208.166922,131.805115,1470.942351
0.078000,-2924.217715,-1208.166922,3006.981089,6414.054951
0.078500,-2564.820718,1307.617035,5434.314711,7492.245941
0.079000,-2564.820718,-848.769214,-2743.370858,10096.470272
0.079500,-3283.614711,-848.769214,2647.584092,-9670.364546
0.080000,-2205.423721,-848.769214,-2743.370858,-9670.364546
0.080500,-2924.217715,-848.769214,131.805115,11174.661262
0.081000,-1846.026724,-489.371506,3725.775082,9377.676279
0.081500,-2924.217715,-1567.564630,-227.591881,2908.530338
0.082000,-1846.026724,-1567.564630,5882.157063,-6795.188573
0.082500,-2564.820718,-2645.757755,-9931.310792,6143.103309
0.083000,-4721.202698,-1208.166922,-2024.576865,-7873.379563
0.083500,-2835.772360,-129.973797,12351.303003,2101.290990
0.084000,-2835.772360,-489.371506,-3462.164852,-2570.869967
0.084500,-1757.581370,-489.371506,11991.906007,-6524.236931
0.085000,-2476.375363,-1567.564630,4085.172079,12164.406898
0.085500,-3195.169357,-2645.757755,-8134.325809,8658.882285
0.086000,2195.785594,-3812.396409,-7056.134819,2549.133341
0.086500,-2835.772360,-3723.950879,8038.539043,-8680.618911
0.087000,-2116.978366,-4083.348588,-3821.561848,-6164.839934
0.087500,-3195.169357,-4442.746296,-4540.355842,663.703003
0.088000,-2835.772360,-489.371506,-8493.722806,1741.893993
0.088500,-2476.375363,-5880.337129,-9212.516799,304.306007
0.089000,-5710.948334,-4802.144004,-9931.310792,304.306007
0.089500,-1757.581370,-4802.144004,-9931.310792,663.703003
0.090000,-1757.581370,-4802.144004,1569.393102,1382.496997
0.090500,-2116.978366,-3005.155463,-8853.119802,2101.290990
0.091000,-2116.978366,-1567.564630,7679.142046,304.306007
0.091500,-1757.581370,3104.605576,10465.872665,-414.487987
0.092000,-1398.184373,-2286.360047,9116.730033,392.751361
0.092500,-1398.184373,-2286.360047,5522.760066,4346.118325
0.093000,-2476.375363,-1926.962338,-8493.722806,10815.264266
0.093500,-1757.581370,-1567.564630,-6696.737822,10096.470272
0.094000,-1757.581370,-848.769214,491.202112,10096.470272
0.094500,-2835.772360,3464.003285,8309.490685,9018.279282
0.095000,-3195.169357,-848.769214,-9571.913796,7580.691295
0.095500,1476.991601,-2374.805576,3006.981089,8299.485289
0.096000,-3195.169357,-1926.962338,8038.539043,8211.039934
0.096500,-2476.375363,-2645.757755,4444.569076,-7602.427921
0.097000,-2835.772360,-3005.155463,3366.378086,-9399.412904
0.097500,-2476.375363,-1926.962338,-946.385875,-4727.251947
0.098000,-1757.581370,-2645.757755,8038.539043,-1492.678977
0.098500,-2116.978366,-4083.348588,4803.966073,-4367.854951
0.099000,1476.991601,-4171.794117,6600.951056,-7602.427921
0.099500,-1757.581370,-3723.950879,10913.715016,-7961.824918
0.100000,-1757.581370,-4442.746296,-9571.913796,-8680.618911
0.100500,-2116.978366,-4083.348588,7319.745049,-5086.648944
0.101000,-1757.581370,-4083.348588,2288.187096,2460.687987
0.101500,-1846.026724,-6599.132545,5522.760066,11174.661262
0.102000,310.355256,-3005.155463,-3821.561848,-1404.233622
0.102500,-4721.202698,-3364.553171,4803.966073,7221.294299
0.103000,-3283.614711,-2645.757755,4444.569076,10008.024918
0.103500,-4002.408705,-3005.155463,-7056.134819,7851.642937
0.104000,-2924.217715,-5520.939420,6600.951056,-1852.075974
0.104500,-2924.217715,-1926.962338,-3102.767855,2908.530338
0.105000,-2564.820718,229.423911,-4540.355842,11893.455256
0.105500,-3195.169357,-4083.348588,-946.385875,-9310.967550
0.106000,-2835.772360,-5161.541712,-227.591881,1470.942351
0.106500,-2564.820718,-4802.144004,-1305.782871,-4638.806593
0.107000,-2564.820718,-5161.541712,-4540.355842,-2123.027616
0.107500,-1846.026724,-5520.939420,-5259.149835,-10029.761543
0.108000,-1486.629728,-6599.132545,1209.996105,1027.311684
0.108500,928.068844,295.407084,1202.976633,1049.773996
0.109000,936.492211,305.234365,1221.227262,1062.409047
0.109500,916.837688,305.234365,1224.035051,1070.832414
0.110000,926.664949,308.042159,1218.419473,1068.024625
0.110500,926.664949,310.849954,1214.207789,1090.486937
0.111000,925.261055,312.253851,1201.572738,1126.988194
0.111500,928.068844,312.253851,1177.706532,1162.085557
0.112000,929.472738,312.253851,1181.918215,1171.912819
0.112500,929.472738,319.273338,1183.322110,1162.085557
0.113000,926.664949,319.273338,1181.918215,1142.431034
0.113500,922.453266,323.485030,1176.302637,1156.469979
0.114000,922.453266,323.485030,1163.667586,1178.932292
0.114500,923.857160,308.042159,1179.110426,1202.798498
0.115000,925.261055,331.908414,1176.302637,1254.742596
0.115500,940.703895,309.446057,1183.322110,1323.533427
0.116000,918.241582,312.253851,1193.149371,1371.265841
0.116500,919.645477,310.849954,1214.207789,1354.419106
0.117000,925.261055,309.446057,1225.438945,1322.129532
0.117500,926.664949,308.042159,1231.054523,1287.032169
0.118000,928.068844,302.426570,1215.611684,1281.416591
0.118500,928.068844,299.618776,1225.438945,1310.898376
0.119000,936.492211,306.638262,1217.015578,1308.090587
0.119500,918.241582,309.446057,1209.996105,1230.876389
0.120000,926.664949,308.042159,1207.188316,1150.854401
0.120500,925.261055,306.638262,1197.361055,1073.640203
0.121000,925.261055,324.888927,1204.380527,1007.657160
0.121500,925.261055,309.446057,1202.976633,950.097485
0.122000,926.664949,309.446057,1201.572738,900.961177
0.122500,928.068844,295.407084,1200.168844,844.805396
0.123000,923.857160,271.540830,1201.572738,781.630143
0.123500,925.261055,264.521343,1204.380527,710.031522
0.124000,925.261055,264.521343,1219.823367,704.415944
0.124500,928.068844,261.713549,1209.996105,732.493835
0.125000,923.857160,256.097959,1208.592211,791.457404
0.125500,919.645477,263.117446,1205.784422,849.017080
0.126000,918.241582,264.521343,1202.976633,870.075497
0.126500,925.261055,270.136932,1201.572738,915.000122
0.127000,925.261055,279.964213,1188.937688,903.768966
0.127500,928.068844,281.368111,1198.764949,905.172860
0.128000,929.472738,299.618776,1193.149371,888.326126
0.128500,925.261055,286.983700,1195.957160,860.248236
0.129000,946.319473,295.407084,1193.149371,820.939189
0.129500,922.453266,299.618776,1190.341582,766.187303
0.130000,928.068844,303.830468,1194.553266,756.360042
0.130500,926.664949,306.638262,1193.149371,784.437932
0.131000,926.664949,296.810981,1197.361055,841.997607
0.131500,925.261055,302.426570,1200.168844,895.345599
0.132000,919.645477,305.234365,1204.380527,933.250751
0.132500,943.511684,308.042159,1205.784422,937.462434
0.133000,925.261055,312.253851,1209.996105,951.501380
0.133500,925.261055,316.465543,1208.592211,929.039067
0.134000,925.261055,310.849954,1212.803895,922.019595
0.134500,926.664949,305.234365,1201.572738,922.019595
0.135000,923.857160,294.003186,1209.996105,933.250751
0.135500,943.511684,302.426570,1214.207789,950.097485
0.136000,921.049371,-2567.139506,5972.006312,-1673.781370
0.136500,-4902.305091,-2196.510620,5612.609315,-2751.972360
0.137000,10911.162764,-1837.112911,9925.373276,-4548.957343
0.137500,11989.353754,-1477.715203,-1934.727616,-3470.766353
0.138000,11629.956757,319.273338,5253.212318,-2840.417715
0.138500,11270.559761,1756.864171,6602.354951,-2481.020718
0.139000,11989.353754,2475.659587,10196.324918,-2840.417715
0.139500,-9933.863045,-758.919787,-8403.873556,-2121.623721
0.140000,-10293.260042,3553.852712,-3101.363960,-2121.623721
0.140500,-8855.672055,3194.455003,-3460.760957,-324.638738
0.141000,-6699.290074,3553.852712,10555.721914,-4637.402698
0.141500,-4542.908094,1756.864171,852.003003,-2392.575363
0.142000,-2027.129117,319.273338,8487.785289,-2392.575363
0.142500,-1308.335124,-40.124370,-9482.064546,-1673.781370
0.143000,488.649860,1756.864171,-3460.760957,-2392.575363
0.143500,129.252863,-1118.317495,-856.536626,-4548.957343
0.144000,3363.825833,-847.365317,581.051361,-3111.369357
0.144500,4082.619827,-847.365317,2378.036345,-2481.020718
0.145000,4801.413820,-847.365317,5972.006312,-2481.020718
0.145500,2645.031840,-2284.956149,10644.167269,-2481.020718
0.146000,-3105.320107,-3993.499160,9565.976279,-2481.020718
0.146500,-9574.466048,-1837.112911,4534.418325,-2121.623721
0.147000,-5980.496081,-1477.715203,-3012.918606,2279.585594
0.147500,-7865.926419,-1477.715203,-6606.888573,-2033.178366
0.148000,-7777.481065,-1837.112911,8847.182285,-2481.020718
0.148500,-7777.481065,-1837.112911,-9841.461543,-2840.417715
0.149000,-6699.290074,-2915.306036,-4809.903589,-2481.020718
0.149500,-2386.526114,-2555.908328,-1575.330619,-1402.829728
0.150000,-5261.702088,-2915.306036,2378.036345,-3559.211708
0.150500,-3464.717104,-2555.908328,3456.227335,-4278.005701
0.151000,-3464.717104,-2196.510620,3456.227335,-2121.623721
0.151500,-3105.320107,-1837.112911,-6247.491576,-2481.020718
0.152000,-3824.114101,2116.261879,-9929.906898,-2121.623721
0.152500,-3464.717104,1038.068754,492.606007,-3111.369357
0.153000,-5621.099084,-2196.510620,1299.845355,-2751.972360
0.153500,-7777.481065,-2915.306036,8128.388292,-1314.384373
0.154000,-8496.275058,-2555.908328,11003.564266,-4908.354340
0.154500,-9933.863045,-2915.306036,12441.152252,-2751.972360
0.155000,-9215.069051,-4352.896869,11722.358259,-2481.020718
0.155500,-7777.481065,-3993.499160,-10200.858540,-2121.623721
0.156000,-3464.717104,-6868.680826,9565.976279,-1402.829728
0.156500,-8136.878061,-8306.271659,-2653.521609,-1762.226724
0.157000,-9933.863045,-9384.464783,-4450.506593,-2481.020718
0.157500,-9215.069051,-10103.260200,-4091.109596,-2121.623721
0.158000,-7418.084068,-10462.657908,-9482.064546,-2840.417715
0.158500,-4183.511098,-10462.657908,-8044.476560,-2840.417715
0.159000,-230.144134,11820.000000,-4450.506593,-2121.623721
0.159500,488.649860,10741.806875,-1215.933622,-1762.226724
0.160000,-1667.732121,10023.011459,2737.433341,-3199.814711
0.160500,-1308.335124,9663.613751,-2294.124612,-3199.814711
0.161000,-2745.923111,8585.420626,-8763.270553,-2481.020718
0.161500,-3464.717104,10023.011459,4893.815322,-2840.417715
0.162000,-4902.305091,1756.864171,10555.721914,-3559.211708
0.162500,-3824.114101,-4712.294577,6602.354951,-1762.226724
0.163000,-4902.305091,-5071.692285,-2382.569967,-2033.178366
0.163500,-5261.702088,7866.625210,-7414.127921,-1673.781370
0.164000,-4542.908094,-40.124370,-2294.124612,-2751.972360
0.164500,-4183.511098,-3993.499160,4534.418325,-2033.178366
0.165000,-2027.129117,-3993.499160,12081.755256,-1673.781370
0.165500,-589.541131,-4712.294577,3815.624332,-2392.575363
0.166000,1926.237846,-3363.149274,-7325.682566,-2751.972360
0.166500,2645.031840,-3003.751566,4893.815322,-2751.972360
0.167000,4082.619827,-3363.149274,-9841.461543,-1673.781370
0.167500,3363.825833,-3003.751566,3456.227335,-1673.781370
0.168000,848.046856,-4352.896869,-137.742632,-2033.178366
0.168500,-3824.114101,-2555.908328,-3731.712599,-2033.178366
0.169000,-5980.496081,-5071.692285,-6247.491576,-3111.369357
0.169500,-5980.496081,-6149.885410,-3731.712599,-3830.163350
0.170000,-9215.069051,-6149.885410,-856.536626,-2751.972360
0.170500,-9215.069051,-5071.692285,-137.742632,-3470.766353
0.171000,-7777.481065,-5431.089993,3815.624332,-2033.178366
0.171500,-5261.702088,-4712.294577,4534.418325,-2751.972360
0.172000,-4183.511098,-1477.715203,8487.785289,-2033.178366
0.172500,-6339.893078,-5071.692285,-8044.476560,-2033.178366
0.173000,-7418.084068,-7587.476242,-4450.506593,-3830.163350
0.173500,12348.750751,-8306.271659,-1215.933622,-2392.575363
0.174000,10551.765767,-10822.055616,940.448358,-2033.178366
0.174500,10911.162764,-8665.669367,10644.167269,-2121.623721
0.175000,8754.780784,9304.216043,-2294.124612,-2481.020718
0.175500,11270.559761,7147.829793,7768.991295,-2481.020718
0.176000,-5621.099084,6429.034377,-9122.667550,-4278.005701
0.176500,-7418.084068,5350.841253,10644.167269,-2481.020718
0.177000,-5261.702088,3913.250420,-9122.667550,-2840.417715
0.177500,-5261.702088,6429.034377,10644.167269,-3111.369357
0.178000,-5980.496081,-399.522079,-5169.300586,-2392.575363
0.178500,-7418.084068,-7228.078534,-9570.509901,-2033.178366
0.179000,2646.435734,-6148.481512,-1485.481370,3088.228837
0.179500,-2025.725223,-4622.445150,-2563.672360,2728.831840
0.180000,-4182.107203,-1028.468068,-2563.672360,572.449860
0.180500,-5890.646832,-5341.240566,-2204.275363,-4099.711098
0.181000,-3734.264852,-3903.649733,-2563.672360,-4099.711098
0.181500,-2656.073862,-4622.445150,-1485.481370,-8412.475058
0.182000,-2656.073862,-6778.831399,-2204.275363,-9490.666048
0.182500,-1937.279868,-7857.024524,-2204.275363,-8053.078061
0.183000,-3015.470858,-6778.831399,-1844.878366,-8771.872055
0.183500,-4093.661848,-4981.842858,-1844.878366,12432.550751
0.184000,-2656.073862,-669.070360,-1844.878366,11713.756757
0.184500,-1577.882871,-3903.649733,-2563.672360,10276.168771
0.185000,1656.690099,-6867.276929,-4001.260347,9197.977780
0.185500,-1218.485875,-5700.638274,-4001.260347,9197.977780
0.186000,-1577.882871,1487.315889,-1933.323721,9197.977780
0.186500,-3374.867855,6518.883804,-1933.323721,10276.168771
0.187000,-4812.455842,11550.451719,-1933.323721,12073.153754
0.187500,-2296.676865,-9654.013065,-2652.117715,-9850.063045
0.188000,-9125.219802,-9294.615356,-2652.117715,11354.359761
0.188500,-8047.028812,-10732.206189,582.455256,-8412.475058
0.189000,-10203.410792,9034.667762,-3370.911708,-7693.681065
0.189500,11719.806007,-10013.410773,-2292.720718,-6974.887071
0.190000,-6968.837822,7956.474637,-2652.117715,-7334.284068
0.190500,-859.088878,6518.883804,-2292.720718,-10209.460042
0.191000,-2296.676865,6518.883804,-2652.117715,-6256.093078
0.191500,-5171.852838,10472.258594,2020.043243,-9219.714406
0.192000,-3015.470858,-4981.842858,-1933.323721,11354.359761
0.192500,-1218.485875,-2825.456609,-2292.720718,9557.374777
0.193000,-859.088878,-669.070360,-1933.323721,8479.183787
0.193500,-4453.058845,-2106.661192,-2292.720718,5604.007813
0.194000,219.102112,-6060.035983,-2292.720718,6682.198804
0.194500,5610.057063,-7586.072345,-1214.529728,5963.404810
0.195000,7407.042046,-2554.504430,-2292.720718,7041.595800
0.195500,4891.263069,8946.222232,-2292.720718,8119.786790
0.196000,2734.881089,3555.256609,-1933.323721,9557.374777
0.196500,-1577.882871,2924.906722,-2652.117715,9916.771774
0.197000,-3374.867855,1127.918181,-1933.323721,-6974.887071
0.197500,-9844.013796,-8575.819940,2020.043243,-9938.508399
0.198000,-10203.410792,-2106.661192,-3730.308705,-9490.666048
0.198500,-9484.616799,-2106.661192,-1485.481370,-8412.475058
0.199000,-9844.013796,-11091.603897,-1126.084373,-6615.490074
0.199500,11360.409010,5440.690680,-1844.878366,-4818.505091
0.200000,-6609.440825,10831.656302,-1844.878366,-1943.329117
0.200500,-10203.410792,-4263.047442,-3641.863350,-7334.284068
0.201000,-9125.219802,-8216.422232,2827.282591,-9219.714406
0.201500,-9125.219802,9753.463178,-1844.878366,7041.595800
0.202000,-9484.616799,-3544.252025,-1126.084373,4166.419827
0.202500,-9484.616799,4362.497555,-1126.084373,4166.419827
0.203000,-5890.646832,9753.463178,-2204.275363,-1314.384373
0.203500,7676.589794,-2915.306036,-5169.300586,-2393.979258
0.204000,6598.398804,-3993.499160,3815.624332,-5267.751337
0.204500,5879.604810,-3993.499160,7050.197302,-2392.575363
0.205000,4082.619827,-3634.101452,581.051361,-2392.575363
0.205500,1566.840850,-2915.306036,-6966.285570,-2033.178366
0.206000,-4183.511098,-4352.896869,-137.742632,-2392.575363
0.206500,-4542.908094,-4712.294577,2378.036345,-3111.369357
0.207000,-3105.320107,-2196.510620,3456.227335,-3830.163350
0.207500,-948.938127,-2555.908328,4893.815322,-236.193383
0.208000,4082.619827,-3634.101452,5612.609315,-1673.781370
0.208500,11270.559761,-2915.306036,12081.755256,-2392.575363
0.209000,-4183.511098,-2915.306036,-8044.476560,-2392.575363
0.209500,-230.144134,-2915.306036,-7325.682566,-4548.957343
0.210000,7317.192797,-3003.751566,-5169.300586,-3830.163350
0.210500,9473.574777,-3722.546982,-4809.903589,-2033.178366
0.211000,11629.956757,-4800.740107,-2294.124612,-2033.178366
0.211500,-10293.260042,-2284.956149,7050.197302,-2121.623721
0.212000,-8136.878061,-4800.740107,-10200.858540,-2121.623721
0.212500,-4183.511098,-6597.728648,-8763.270553,-2481.020718
0.213000,-2027.129117,-6238.330939,-8403.873556,-3199.814711
0.213500,-5261.702088,-5160.137815,-10200.858540,-2481.020718
0.214000,-4183.511098,-3003.751566,7409.594299,-3199.814711
0.214500,-4183.511098,-2284.956149,8128.388292,-2481.020718
0.215000,-5980.496081,-3003.751566,4534.418325,-2481.020718
0.215500,11989.353754,-1925.558441,-1215.933622,-1314.384373
0.216000,9114.177780,2027.816349,-3460.760957,2279.585594
0.216500,7947.541436,5262.395723,-1304.378977,-3111.369357
0.217000,6598.398804,5621.793431,-3101.363960,-1673.781370
0.217500,5520.207813,-1206.763025,-2653.521609,-2033.178366
0.218000,4082.619827,-7675.921772,-5169.300586,-1673.781370
0.218500,1566.840850,-10910.501146,-9122.667550,-1673.781370
0.219000,-1667.732121,-6868.680826,11362.961262,2279.585594
0.219500,-1396.780479,-4352.896869,9925.373276,-3470.766353
0.220000,-2386.526114,-4352.896869,8128.388292,-2033.178366
0.220500,-4542.908094,-4712.294577,11722.358259,-2392.575363
0.221000,-4902.305091,-5790.487701,-9122.667550,-3111.369357
0.221500,-7058.687071,-7228.078534,-5169.300586,-1673.781370
0.222000,11629.956757,4632.045836,-497.139629,2279.585594
0.222500,-9662.911403,4632.045836,7050.197302,-3199.814711
0.223000,-8136.878061,9663.613751,-5169.300586,-2481.020718
0.223500,-8136.878061,-10822.055616,2737.433341,-2481.020718
0.224000,-6699.290074,-6149.885410,6690.800305,-2481.020718
0.224500,-7418.084068,-9384.464783,-856.536626,-2481.020718
0.225000,11989.353754,-6509.283118,11362.961262,-1043.432731
0.225500,-8496.275058,-6149.885410,7050.197302,-1762.226724
0.226000,-7058.687071,-4712.294577,221.654365,-2033.178366
0.226500,-7418.084068,-3274.703744,-5528.697583,-2392.575363
0.227000,-7058.687071,-40.124370,-1575.330619,-2751.972360
0.227500,-8136.878061,-2915.306036,3456.227335,-2840.417715
0.228000,-10293.260042,-3274.703744,7768.991295,-1402.829728
0.228500,-7418.084068,-758.919787,9925.373276,-1043.432731
0.229000,-8496.275058,-399.522079,9206.579282,-4637.402698
0.229500,-9933.863045,-1477.715203,11362.961262,-2481.020718
0.230000,11989.353754,-2915.306036,-1215.933622,-2033.178366
0.230500,-10293.260042,-758.919787,-2294.124612,-2033.178366
0.231000,11270.559761,-3274.703744,3456.227335,-1402.829728
0.231500,11989.353754,-5790.487701,9206.579282,-2481.020718
0.232000,-10293.260042,-6149.885410,-9841.461543,-4637.402698
0.232500,-9215.069051,-6509.283118,-8044.476560,-2121.623721
0.233000,-7418.084068,-7228.078534,6331.403309,-2121.623721
0.233500,-4542.908094,-7228.078534,5972.006312,-2121.623721
0.234000,-1308.335124,-8306.271659,6690.800305,-2481.020718
0.234500,488.649860,-10103.260200,8128.388292,-2121.623721
0.235000,-1667.732121,-7228.078534,8847.182285,2191.140239
0.235500,759.601502,-5431.089993,10284.770272,-2121.623721
0.236000,848.046856,-5790.487701,2378.036345,-2481.020718
0.236500,488.649860,-5431.089993,9206.579282,-2481.020718
0.237000,-948.938127,-3634.101452,-137.742632,-2481.020718
0.237500,2285.634843,-4441.342398,-2653.521609,-2481.020718
0.238000,2285.634843,-3003.751566,-856.536626,-4637.402698
0.238500,-2386.526114,-2196.510620,3815.624332,-2392.575363
0.239000,-2745.923111,-399.522079,12081.755256,-2033.178366
0.239500,-4542.908094,319.273338,12441.152252,-1673.781370
0.240000,-5980.496081,-2196.510620,4893.815322,-1314.384373
0.240500,-8136.878061,-6149.885410,-2653.521609,-1314.384373
0.241000,10551.765767,-7946.873951,6690.800305,-2392.575363
0.241500,10551.765767,11820.000000,12441.152252,-2392.575363
0.242000,8754.780784,6069.636669,-8403.873556,-1673.781370
0.242500,9832.971774,-399.522079,-9122.667550,-1673.781370
0.243000,9114.177780,-5071.692285,11722.358259,-2033.178366
0.243500,8035.986790,-7228.078534,-8044.476560,-2033.178366
0.244000,10192.368771,-7228.078534,-7685.079563,-1673.781370
0.244500,4442.016823,-6509.283118,-7325.682566,-4548.957343
0.245000,6598.398804,-3634.101452,-7325.682566,-5267.751337
0.245500,12348.750751,-6149.885410,3456.227335,-684.035734
0.246000,10911.162764,-4712.294577,6331.403309,-3559.211708
0.246500,10551.765767,-5790.487701,12441.152252,-2481.020718
0.247000,11270.559761,10741.806875,5612.609315,-2481.020718
0.247500,11629.956757,-399.522079,-2294.124612,-2033.178366
0.248000,10551.765767,-10822.055616,6690.800305,-2751.972360
0.248500,8395.383787,-1837.112911,-9841.461543,-5267.751337
0.249000,9114.177780,-10822.055616,6690.800305,-1673.781370
0.249500,8754.780784,2116.261879,12352.706898,-1673.781370
0.250000,8035.986790,7507.227502,-3101.363960,-2033.178366
0.250500,6957.795800,4272.648128,6961.751947,-2033.178366
0.251000,6598.398804,319.273338,10284.770272,-3111.369357
0.251500,4442.016823,7866.625210,11274.515908,-2392.575363
0.252000,5160.810817,10382.409167,-9211.112904,2998.379587
0.252500,8306.938432,4632.045836,-3820.157954,-2751.972360
0.253000,9114.177780,-758.919787,-1575.330619,-2033.178366
0.253500,11989.353754,-2196.510620,-1215.933622,-2033.178366
0.254000,-7058.687071,-2915.306036,-2294.124612,-2033.178366
0.254500,129.252863,-2555.908328,-2294.124612,-4548.957343
0.255000,5160.810817,-1566.160733,-1934.727616,-2033.178366
0.255500,4801.413820,-1925.558441,-1575.330619,-2392.575363
0.256000,848.046856,-758.919787,-3012.918606,-2392.575363
0.256500,-1308.335124,-40.124370,-1215.933622,-1673.781370
0.257000,-3464.717104,2835.057295,-1663.775974,-1673.781370
0.257500,-2027.129117,-2196.510620,-1934.727616,-3830.163350
0.258000,-2745.923111,-2555.908328,-1934.727616,-1673.781370
0.258500,-3105.320107,-2555.908328,-1215.933622,-2033.178366
0.259000,-1667.732121,-3274.703744,-4450.506593,-2033.178366
0.259500,2645.031840,-3003.751566,-497.139629,-1673.781370
0.260000,4442.016823,-4081.944690,-137.742632,-1673.781370
0.260500,6957.795800,-5878.933231,-497.139629,-2392.575363
0.261000,5520.207813,-3722.546982,-3012.918606,-1673.781370
0.261500,3004.428837,-3722.546982,-137.742632,-1673.781370
0.262000,1926.237846,-4081.944690,581.051361,-1673.781370
0.262500,-1667.732121,-2915.306036,3096.830338,-1762.226724
0.263000,-3464.717104,-2196.510620,6690.800305,-2121.623721
0.263500,-4542.908094,-2915.306036,7409.594299,-1762.226724
0.264000,-5980.496081,-3993.499160,8487.785289,-4996.799695
0.264500,9832.971774,-4352.896869,10644.167269,-4278.005701
0.265000,6957.795800,-4352.896869,12441.152252,-2840.417715
0.265500,6957.795800,-3274.703744,-8044.476560,-2840.417715
0.266000,7676.589794,-2915.306036,-3731.712599,-2121.623721
0.266500,8035.986790,-4712.294577,-1575.330619,-2481.020718
0.267000,10192.368771,319.273338,4893.815322,-3559.211708
0.267500,10911.162764,-1837.112911,-10200.858540,2191.140239
0.268000,-10381.705396,-2555.908328,10644.167269,-2840.417715
0.268500,-10293.260042,-3993.499160,940.448358,-2481.020718
0.269000,12348.750751,-7228.078534,2018.639348,-2121.623721
0.269500,10551.765767,10382.409167,-1575.330619,-1673.781370
0.270000,8395.383787,11460.602292,1659.242351,-2751.972360
0.270500,10192.368771,8944.818334,3815.624332,2998.379587
0.271000,10103.923416,7866.625210,-6247.491576,-2392.575363
0.271500,9832.971774,6429.034377,3815.624332,-1673.781370
0.272000,11270.559761,5350.841253,7409.594299,-2033.178366
0.272500,10551.765767,1397.466462,-8763.270553,-2392.575363
0.273000,9114.177780,-1477.715203,-1934.727616,-2392.575363
0.273500,4082.619827,-1837.112911,4534.418325,-4637.402698
0.274000,3363.825833,6069.636669,8487.785289,-1402.829728
0.274500,848.046856,5350.841253,-9211.112904,-2840.417715
0.275000,-2386.526114,-399.522079,-3820.157954,-2481.020718
0.275500,-4183.511098,-1477.715203,6242.957954,-2481.020718
0.276000,-3824.114101,6429.034377,9836.927921,-2121.623721
0.276500,2645.031840,-3274.703744,-9841.461543,3449.029728
0.277000,-9123.815908,-3095.004890,8308.086790,7042.999695
0.277500,-2295.272970,-2735.607182,6870.498804,2011.441741
0.278000,10283.621914,-2735.607182,10464.468771,-144.940239
0.278500,-6878.988573,-3095.004890,10105.071774,1652.044744
0.279000,-9483.212904,-2735.607182,9745.674777,1652.044744
0.279500,-498.287987,-3095.004890,8667.483787,2011.441741
0.280000,10283.621914,-2376.209474,9026.880784,2011.441741
0.280500,-3732.860957,-2735.607182,9026.880784,-144.940239
0.281000,1387.142351,-2376.209474,6511.101807,-1223.131229
0.281500,4981.112318,-2376.209474,5792.307813,-3379.513210
0.282000,7856.288292,-4891.993431,4714.116823,-1582.528226
0.282500,11090.861262,-2376.209474,1838.940850,-1582.528226
0.283000,-10472.958540,1936.563025,312.907508,-2212.876865
0.283500,-9035.370553,-2376.209474,-2114.426114,-3291.067855
0.284000,-7238.385570,-2735.607182,-3192.617104,-6166.243829
0.284500,-8316.576560,-2735.607182,-4270.808094,-1853.479868
0.285000,11090.861262,-2376.209474,-3911.411098,-5806.846832
0.285500,10012.670272,-2376.209474,-3911.411098,-5806.846832
0.286000,-9754.164546,-6688.981972,-4630.205091,-6166.243829
0.286500,-7597.782566,-3095.004890,-5708.396081,-4369.258845
0.287000,-7597.782566,-3095.004890,-7145.984068,662.299109
0.287500,-2206.827616,-2376.209474,-7505.381065,1021.696105
0.288000,1387.142351,-3183.450420,-7505.381065,-56.494885
0.288500,4981.112318,-3542.848128,-8224.175058,-1494.082871
0.289000,9653.273276,51.128954,-7505.381065,-1494.082871
0.289500,2465.333341,-2824.052712,-6786.587071,-1134.685875
0.290000,-6160.194579,-2376.209474,-7145.984068,-3291.067855
0.290500,10012.670272,-2376.209474,-4630.205091,-4009.861848
0.291000,11450.258259,-3813.800306,-4989.602088,-1853.479868
0.291500,-8675.973556,-2376.209474,-5348.999084,-1494.082871
0.292000,-5441.400586,1577.165317,-1124.680479,-4009.861848
0.292500,-7597.782566,-2735.607182,41.955866,-6525.640825
0.293000,-4722.606593,-3095.004890,1120.146856,-8322.625809
0.293500,6059.303309,-3095.004890,2557.734843,-4098.307203
0.294000,1027.745355,-2735.607182,6151.704810,-863.734233
0.294500,-50.445635,-2376.209474,2198.337846,-6973.483177
0.295000,1387.142351,-3813.800306,1838.940850,11715.160652
0.295500,6059.303309,-2376.209474,-2114.426114,-7603.831815
0.296000,11450.258259,-2735.607182,-5708.396081,-5806.846832
0.296500,8575.082285,-2376.209474,-8224.175058,-6166.243829
0.297000,8575.082285,-2735.607182,12261.453754,-4369.258845
0.297500,10012.670272,-3813.800306,10105.071774,-8322.625809
0.298000,-9754.164546,-3813.800306,10823.865767,-7603.831815
0.298500,-2206.827616,-4532.595723,9026.880784,-4369.258845
0.299000,4621.715322,-1027.064171,6870.498804,2099.887096
0.299500,1298.696997,-2824.052712,5432.910817,5334.460066
0.300000,1658.093993,-3183.450420,41.955866,2818.681089
0.300500,-1217.081980,-2376.209474,-3911.411098,302.902112
0.301000,-769.239629,-5610.788847,-8224.175058,-2212.876865
0.301500,1387.142351,51.128954,-7864.778061,-7603.831815
0.302000,-1847.430619,-3813.800306,-4270.808094,9287.827030
0.302500,-5800.797583,-3095.004890,2198.337846,4975.063069
0.303000,7856.288292,-2735.607182,7589.292797,2459.284092
0.303500,5699.906312,-3095.004890,10105.071774,3537.475082
0.304000,8934.479282,-2376.209474,8667.483787,4256.269076
0.304500,-7238.385570,858.369900,3547.480479,6412.651056
0.305000,-769.239629,-2376.209474,-2114.426114,8209.636040
0.305500,668.348358,-2735.607182,-7145.984068,6412.651056
0.306000,1387.142351,-2824.052712,-6786.587071,8209.636040
0.306500,-3285.018606,-2016.811765,-5708.396081,9647.224026
0.307000,-5441.400586,-3095.004890,-1395.632121,8569.033036
0.307500,-6248.639934,-2735.607182,2557.734843,-10119.610792
0.308000,-6608.036931,-2376.209474,7948.689794,-7603.831815
0.308500,-9123.815908,-3454.402598,11542.659761,1381.093102
0.309000,-3373.463960,-3095.004890,-9302.366048,-9760.213796
0.309500,-3732.860957,-2735.607182,-10021.160042,8209.636040
0.310000,-2654.669967,-2376.209474,10105.071774,7131.445049
0.310500,-3014.066964,-2735.607182,-8942.969051,5693.857063
0.311000,-4811.051947,-4891.993431,9026.880784,1381.093102
0.311500,-7326.830924,-2376.209474,8308.086790,-2572.273862
0.312000,-2206.827616,-2016.811765,9386.277780,-6166.243829
0.312500,-1847.430619,-2376.209474,11542.659761,-7963.228812
0.313000,-409.842632,-2735.607182,-8583.572055,-8322.625809
0.313500,3184.127335,-2824.052712,-7505.381065,11084.812013
0.314000,5699.906312,1848.117495,-2202.871469,-8682.022806
0.314500,6418.700305,-308.268754,41.955866,-1853.479868
0.315000,5699.906312,-2464.655003,-676.838127,-775.288878
0.315500,-1128.636626,-2376.209474,-1755.029117,-1494.082871
0.316000,-6878.988573,-2735.607182,-2114.426114,-775.288878
0.316500,11809.655256,-2376.209474,-3911.411098,2459.284092
0.317000,11361.812904,-3095.004890,-2833.220107,5693.857063
0.317500,12080.606898,-4891.993431,-3192.617104,7131.445049
0.318000,-4451.654951,-2735.607182,-676.838127,4975.063069
0.318500,-8045.624918,-3095.004890,2917.131840,8121.190685
0.319000,-7686.227921,-2735.607182,4714.116823,5964.808705
0.319500,-8045.624918,-1657.414057,3995.322830,-863.734233
0.320000,-8316.576560,-2735.607182,8308.086790,-6885.037822
0.320500,-5441.400586,-3095.004890,-8583.572055,-2931.670858
0.321000,-5082.003589,-3095.004890,-3192.617104,-3291.067855
0.321500,-4363.209596,1577.165317,-765.283482,-6166.243829
0.322000,-2566.224612,-4173.198015,760.749860,-8682.022806
0.322500,2824.730338,-3183.450420,2198.337846,-6254.689183
0.323000,-4363.209596,-3095.004890,2917.131840,7761.793688
0.323500,-4811.051947,-2735.607182,3276.528837,-9129.865157
0.324000,-6608.036931,-2376.209474,2917.131840,9199.381675
0.324500,-6608.036931,-5251.391139,3995.322830,3808.426724
0.325000,-5170.448944,-3813.800306,5432.910817,-863.734233
0.325500,-6878.988573,-3095.004890,6511.101807,-2301.322220
0.326000,-6519.591576,-2376.209474,7229.895800,-4098.307203
0.326500,-5441.400586,-2376.209474,7589.292797,-863.734233
0.327000,-5441.400586,-2016.811765,7948.689794,-6254.689183
0.327500,-3644.415602,-2376.209474,7948.689794,-4817.101196
0.328000,1387.142351,1848.117495,7860.244439,-3020.116213
0.328500,4262.318325,-2464.655003,7948.689794,-1582.528226
0.329000,-9754.164546,-2824.052712,3276.528837,-1582.528226
0.329500,-9754.164546,-3183.450420,-3192.617104,-2572.273862
0.330000,-6519.591576,-3183.450420,-7505.381065,-4369.258845
0.330500,-7238.385570,-3902.245836,-7864.778061,-4009.861848
0.331000,-8316.576560,-5699.234377,-10021.160042,-5088.052838
0.331500,-9754.164546,-3542.848128,10823.865767,-4369.258845
0.332000,-6160.194579,-3183.450420,8308.086790,-4728.655842
0.332500,-10472.958540,-3183.450420,6511.101807,-1494.082871
0.333000,-8675.973556,-3183.450420,4714.116823,-56.494885
0.333500,-6878.988573,-2464.655003,3995.322830,-4009.861848
0.334000,-6878.988573,-3183.450420,1838.940850,-5088.052838
0.334500,11090.861262,-4261.643544,-2473.823111,-5088.052838
0.335000,-2925.621609,-2376.209474,-5708.396081,-3650.464852
0.335500,-6160.194579,-3095.004890,-4270.808094,1021.696105
0.336000,-4003.812599,-2735.607182,-2833.220107,-2212.876865
0.336500,-4363.209596,-3454.402598,401.352863,-4009.861848
0.337000,9293.876279,1937.966922,-3462.164852,9018.279282
0.337500,-2835.772360,2026.412452,-2383.973862,-1763.630619
0.338000,-2116.978366,4901.594117,-4180.958845,392.751361
0.338500,-3195.169357,9573.764324,-4540.355842,752.148358
0.339000,-2476.375363,-5161.541712,-1665.179868,-1763.630619
0.339500,-2116.978366,-1208.166922,-3102.767855,752.148358
0.340000,-1398.184373,5620.389534,-2831.816213,4705.515322
0.340500,-4002.408705,9214.366616,-3550.610206,3627.324332
0.341000,-1846.026724,-10552.507335,-1753.625223,6861.897302
0.341500,-2564.820718,-6958.530253,-5347.595190,6861.897302
0.342000,-1846.026724,-5161.541712,-8941.565157,7221.294299
0.342500,-1846.026724,-7677.325669,-8222.771163,8299.485289
0.343000,-1846.026724,-4442.746296,-7863.374167,8658.882285
0.343500,-4721.202698,-5161.541712,-7144.580173,392.751361
0.344000,-2476.375363,-9114.916502,-5706.992187,-3201.218606
0.344500,-2476.375363,9573.764324,-6425.786180,6143.103309
0.345000,-2476.375363,1667.014744,-8582.168160,752.148358
0.345500,-2476.375363,-8036.723378,11632.509010,3267.927335
0.346000,-2476.375363,-10193.109627,9476.127030,7940.088292
0.346500,-4273.360347,5979.787242,8757.333036,7580.691295
0.347000,-2476.375363,4901.594117,1928.790099,-9040.015908
0.347500,-1757.581370,4182.798701,-2024.576865,9648.627921
0.348000,-2116.978366,1307.617035,3366.378086,9289.230924
0.348500,-1757.581370,7417.378075,-9571.913796,9648.627921
0.349000,-1038.787376,8136.173491,4085.172079,9289.230924
0.349500,-1398.184373,-9114.916502,-1305.782871,9377.676279
0.350000,-2116.978366,-5161.541712,-3821.561848,-8592.173556
0.350500,-1757.581370,-4442.746296,-2383.973862,9737.073276
0.351000,-2116.978366,-7317.927961,4444.569076,9648.627921
0.351500,-2116.978366,11011.355157,5522.760066,10367.421914
0.352000,-679.390380,8854.968907,3006.981089,-10477.603895
0.352500,-2116.978366,9573.764324,2647.584092,-6524.236931
0.353000,-4273.360347,10292.559740,850.599109,-685.439629
0.353500,-1757.581370,11370.752865,1209.996105,-4638.806593
0.354000,-2476.375363,11011.355157,4085.172079,1741.893993
0.354500,-2205.423721,10292.559740,3366.378086,7851.642937
0.355000,-1846.026724,-9474.314210,4085.172079,-7961.824918
0.355500,-2205.423721,-8036.723378,3725.775082,-1852.075974
0.356000,-5080.599695,-9833.711919,2288.187096,6054.657954
0.356500,-2924.217715,10651.957448,1209.996105,-8951.570553
0.357000,-1846.026724,7776.775783,850.599109,-6076.394579
0.357500,849.450751,209.769349,1209.996105,1278.608802
0.358000,928.068844,225.212219,1205.784422,1264.569857
0.358500,925.261055,216.788835,1204.380527,1159.277768
0.359000,925.261055,225.212219,1204.380527,958.520852
0.359500,922.453266,229.423911,1200.168844,839.189818
0.360000,925.261055,239.251192,1181.918215,767.591198
0.360500,925.261055,250.482370,1187.533793,784.437932
0.361000,925.261055,256.097959,1190.341582,856.036552
0.361500,926.664949,256.097959,1190.341582,915.000122
0.362000,940.703895,272.944727,1186.129899,891.133915
0.362500,919.645477,274.348624,1184.726004,905.172860
0.363000,928.068844,258.905754,1177.706532,947.289696
0.363500,928.068844,246.270678,1186.129899,990.810426
0.364000,928.068844,254.694062,1191.745477,964.136430
0.364500,930.876633,257.501857,1195.957160,884.114443
0.365000,929.472738,274.348624,1201.572738,833.574240
0.365500,929.472738,301.022673,1202.976633,888.326126
0.366000,926.664949,322.081132,1200.168844,930.442962
0.366500,925.261055,337.524003,1194.553266,973.963692
0.367000,923.857160,350.159078,1212.803895,986.598743
0.367500,925.261055,379.640922,1228.246734,976.771481
0.368000,940.703895,374.025332,1232.458418,945.885801
0.368500,925.261055,386.660408,1217.015578,957.116958
0.369000,925.261055,393.679895,1201.572738,955.713063
0.369500,926.664949,397.891586,1186.129899,968.348114
0.370000,928.068844,399.295484,1197.361055,973.963692
0.370500,928.068844,437.200711,1201.572738,978.175375
0.371000,915.433793,431.585122,1201.572738,966.944219
0.371500,928.068844,440.008505,1207.188316,985.194848
0.372000,926.664949,434.392916,1200.168844,980.983164
0.372500,923.857160,430.181224,1198.764949,982.387059
0.373000,926.664949,416.142251,1215.611684,980.983164
0.373500,925.261055,404.911073,1205.784422,980.983164
0.374000,936.492211,388.064305,1205.784422,980.983164
0.374500,919.645477,378.237024,1205.784422,996.426004
0.375000,926.664949,367.005846,1202.976633,978.175375
0.375500,925.261055,348.755181,1202.976633,982.387059
0.376000,923.857160,336.120105,1221.227262,982.387059
0.376500,922.453266,340.331797,1200.168844,980.983164
0.377000,914.029899,319.273338,1198.764949,980.983164
0.377500,929.472738,327.696722,1194.553266,976.771481
0.378000,926.664949,330.504516,1195.957160,969.752008
0.378500,928.068844,330.504516,1208.592211,978.175375
0.379000,926.664949,330.504516,1194.553266,975.367586
0.379500,928.068844,324.888927,1197.361055,986.598743
0.380000,918.241582,326.292824,1197.361055,1000.637688
0.380500,923.857160,322.081132,1197.361055,1021.696105
0.381000,928.068844,316.465543,1200.168844,1034.331156
0.381500,925.261055,310.849954,1201.572738,1070.832414
0.382000,926.664949,302.426570,1221.227262,1098.910304
0.382500,926.664949,294.003186,1217.015578,-2834.802136
0.383000,-8496.275058,1038.068754,6602.354951,-1762.226724
0.383500,-8496.275058,-1477.715203,7050.197302,-2481.020718
0.384000,-8136.878061,-2555.908328,-8044.476560,-2121.623721
0.384500,-6699.290074,-2555.908328,-9122.667550,-2481.020718
0.385000,-6699.290074,-5071.692285,5972.006312,-2481.020718
0.385500,-7777.481065,-2555.908328,-137.742632,-2481.020718
0.386000,-3464.717104,-1837.112911,-1575.330619,-2840.417715
0.386500,-3824.114101,-1837.112911,-4450.506593,-4278.005701
0.387000,-2386.526114,-1837.112911,10644.167269,-1762.226724
0.387500,-2027.129117,-1118.317495,12081.755256,-2392.575363
0.388000,-3105.320107,-1118.317495,-6606.888573,-2033.178366
0.388500,-4902.305091,-1477.715203,-6247.491576,-2033.178366
0.389000,-2386.526114,-758.919787,6331.403309,-4548.957343
0.389500,-8855.672055,-1837.112911,-4450.506593,-3111.369357
0.390000,9114.177780,-1837.112911,-10200.858540,-2033.178366
0.390500,3723.222830,-1118.317495,-856.536626,-1673.781370
0.391000,-589.541131,-40.124370,7409.594299,-1673.781370
0.391500,-3824.114101,-2555.908328,8128.388292,-2751.972360
0.392000,9473.574777,-2196.510620,8847.182285,-5267.751337
0.392500,6598.398804,-2555.908328,10284.770272,-2033.178366
0.393000,4442.016823,-2196.510620,12441.152252,-2033.178366
0.393500,5879.604810,-3634.101452,-9482.064546,-2751.972360
0.394000,11989.353754,-7587.476242,-5169.300586,-2751.972360
0.394500,-5621.099084,11101.204584,-6247.491576,-2392.575363
0.395000,-1667.732121,8226.022918,-9841.461543,-1673.781370
0.395500,4801.413820,7507.227502,9206.579282,-1673.781370
0.396000,-10293.260042,8585.420626,7050.197302,-1673.781370
0.396500,-8136.878061,9304.216043,12081.755256,-2033.178366
0.397000,11989.353754,10741.806875,8128.388292,-1673.781370
0.397500,2285.634843,10741.806875,7409.594299,-2392.575363
0.398000,-5980.496081,8585.420626,8128.388292,-2392.575363
0.398500,-6339.893078,9304.216043,9206.579282,-4548.957343
0.399000,11989.353754,-8665.669367,9206.579282,-2033.178366
0.399500,-9933.863045,-9384.464783,7680.545941,-2751.972360
0.400000,12348.750751,3194.455003,10915.118911,-2033.178366
0.400500,12348.750751,-6868.680826,-5976.539934,-2392.575363
0.401000,-8136.878061,4632.045836,-226.187987,-2392.575363
0.401500,-6339.893078,3913.250420,1930.193993,-3199.814711
0.402000,-5621.099084,8585.420626,4086.575974,-2840.417715
0.402500,-3464.717104,8585.420626,6602.354951,-2840.417715
0.403000,129.252863,6069.636669,-226.187987,-2033.178366
0.403500,5879.604810,3913.250420,-3460.760957,-2392.575363
0.404000,10911.162764,4632.045836,-9211.112904,-1673.781370
0.404500,-5261.702088,1397.466462,11993.309901,-1673.781370
0.405000,-948.938127,1756.864171,-7054.730924,-4189.560347
0.405500,2285.634843,1668.418641,-944.981980,-4548.957343
0.406000,5879.604810,-128.569900,5972.006312,-2121.623721
0.406500,8395.383787,-128.569900,1659.242351,-1762.226724
0.407000,9114.177780,2746.611765,133.209010,-1673.781370
0.407500,9114.177780,1668.418641,492.606007,-2392.575363
0.408000,10551.765767,949.623224,1570.796997,-3199.814711
0.408500,11270.559761,-128.569900,581.051361,-2392.575363
0.409000,-9574.466048,230.827808,4534.418325,-2840.417715
0.409500,-8136.878061,-487.967608,-1215.933622,-2033.178366
0.410000,-7777.481065,-1566.160733,-856.536626,-2033.178366
0.410500,-4542.908094,949.623224,-1663.775974,-2033.178366
0.411000,-9574.466048,230.827808,-1575.330619,123.203614
0.411500,6598.398804,949.623224,-3101.363960,2279.585594
0.412000,2915.983482,590.225516,-5617.142937,-1673.781370
0.412500,488.649860,1397.466462,852.003003,-1673.781370
0.413000,129.252863,-40.124370,-3372.315602,-1314.384373
0.413500,-3464.717104,-40.124370,-3731.712599,-2392.575363
0.414000,-4902.305091,-3274.703744,-3372.315602,-1314.384373
0.414500,-5980.496081,-2555.908328,-4091.109596,-2392.575363
0.415000,-3824.114101,-2555.908328,-3372.315602,-3111.369357
0.415500,848.046856,-1837.112911,-4450.506593,-1673.781370
0.416000,6957.795800,-2644.353857,-2653.521609,-1673.781370
0.416500,-9215.069051,2387.214057,-2023.172970,-1673.781370
0.417000,-7058.687071,-3003.751566,581.051361,-2033.178366
0.417500,-3105.320107,-2284.956149,3815.624332,-4637.402698
0.418000,-9933.863045,-1566.160733,4175.021328,-1762.226724
0.418500,10551.765767,-128.569900,7768.991295,-2121.623721
0.419000,7676.589794,-1925.558441,2018.639348,-2121.623721
0.419500,5160.810817,-5519.535523,940.448358,-2392.575363
0.420000,5520.207813,-3722.546982,1659.242351,-2481.020718
0.420500,488.649860,-8665.669367,221.654365,1560.791601
0.421000,-1756.177475,8944.818334,-856.536626,-2033.178366
0.421500,-3464.717104,4991.443544,-4450.506593,973.963692
0.422000,846.642962,303.830468,1197.361055,969.752008
0.422500,846.642962,289.791495,1198.764949,978.175375
0.423000,918.241582,289.791495,1198.764949,969.752008
0.423500,1041.784300,292.599289,1200.168844,983.790953
0.424000,1114.786815,296.810981,1202.976633,999.233793
0.424500,1090.920608,286.983700,1198.764949,1014.676633
0.425000,1027.745355,310.849954,1198.764949,1025.907789
0.425500,984.224625,299.618776,1202.976633,1028.715578
0.426000,970.185679,303.830468,1201.572738,1035.735051
0.426500,961.762312,305.234365,1198.764949,1066.620730
0.427000,964.570101,305.234365,1191.745477,1061.005152
0.427500,967.377890,305.234365,1198.764949,1063.812941
0.428000,970.185679,330.504516,1197.361055,1066.620730
0.428500,964.570101,310.849954,1200.168844,1063.812941
0.429000,956.146734,305.234365,1200.168844,1068.024625
0.429500,921.049371,301.022673,1197.361055,1073.640203
0.430000,915.433793,302.426570,1195.957160,1055.389574
0.430500,926.664949,301.022673,1197.361055,1055.389574
0.431000,936.492211,286.983700,1197.361055,1056.793468
0.431500,940.703895,295.407084,1195.957160,1059.601257
0.432000,930.876633,286.983700,1195.957160,1049.773996
0.432500,925.261055,282.772008,1200.168844,1032.927262
0.433000,932.280527,291.195392,1215.611684,1031.523367
0.433500,943.511684,302.426570,1193.149371,1016.080527
0.434000,946.319473,308.042159,1201.572738,1011.868844
0.434500,942.107789,303.830468,1200.168844,1010.464949
0.435000,918.241582,301.022673,1198.764949,1010.464949
0.435500,926.664949,298.214878,1197.361055,1024.503895
0.436000,901.394848,298.214878,1188.937688,1003.445477
0.436500,895.779270,316.465543,1200.168844,1011.868844
0.437000,894.375375,327.696722,1198.764949,1021.696105
0.437500,892.971481,337.524003,1200.168844,1031.523367
0.438000,884.548114,319.273338,1198.764949,1028.715578
0.438500,876.124747,317.869441,1200.168844,1013.272738
0.439000,881.740325,333.312311,1197.361055,1002.041582
0.439500,859.278012,354.370770,1217.015578,1009.061055
0.440000,860.681907,368.409743,1201.572738,1016.080527
0.440500,898.587059,369.813641,1198.764949,1021.696105
0.441000,921.049371,367.005846,1198.764949,1031.523367
0.441500,877.528641,376.833127,1201.572738,1041.350629
0.442000,869.105274,375.429230,1200.168844,1028.715578
0.442500,914.029899,378.237024,1202.976633,1039.946734
0.443000,984.224625,383.852614,1201.572738,1048.370101
0.443500,1015.110304,383.852614,1201.572738,1053.985679
0.444000,1008.090831,416.142251,1200.168844,1048.370101
0.444500,984.224625,406.314970,1200.168844,1039.946734
0.445000,970.185679,421.757841,1200.168844,1018.888316
0.445500,949.127262,402.103278,1201.572738,1021.696105
0.446000,936.492211,291.195392,1191.745477,1016.080527
0.446500,940.703895,160.632943,1190.341582,1013.272738
0.447000,947.723367,140.978381,1197.361055,1002.041582
0.447500,958.954523,211.173246,1198.764949,976.771481
0.448000,964.570101,298.214878,1198.764949,954.309169
0.448500,951.935051,327.696722,1198.764949,941.674118
0.449000,943.511684,319.273338,1191.745477,944.481907
0.449500,936.492211,317.869441,1194.553266,957.116958
0.450000,933.684422,329.100619,1198.764949,985.194848
0.450500,937.896105,340.331797,1200.168844,1014.676633
0.451000,925.261055,310.849954,1200.168844,1025.907789
0.451500,928.068844,301.022673,1198.764949,1011.868844
0.452000,935.088316,295.407084,1200.168844,1000.637688
0.452500,933.684422,286.983700,1207.188316,997.829899
0.453000,933.684422,261.713549,1215.611684,1003.445477
0.453500,932.280527,232.231705,1198.764949,1010.464949
0.454000,937.896105,264.521343,1198.764949,1014.676633
0.454500,936.492211,303.830468,1197.361055,1017.484422
0.455000,937.896105,340.331797,1198.764949,1017.484422
0.455500,944.915578,6017.692469,3367.781980,-1762.226724
0.456000,-5261.702088,2835.057295,7321.148944,-1762.226724
0.456500,-10293.260042,3194.455003,9477.530924,-4278.005701
0.457000,-9933.863045,2835.057295,-10289.303895,-3918.608705
0.457500,11629.956757,2835.057295,-3820.157954,-2121.623721
0.458000,11270.559761,-40.124370,-7325.682566,-2121.623721
0.458500,-9933.863045,4632.045836,-9929.906898,-2121.623721
0.459000,-6699.290074,6069.636669,-1663.775974,-1762.226724
0.459500,-6339.893078,1038.068754,-8851.715908,-1673.781370
0.460000,-5980.496081,-1118.317495,-6247.491576,-3111.369357
0.460500,-3464.717104,-3634.101452,-3372.315602,-2033.178366
0.461000,-2386.526114,-6509.283118,-7685.079563,-2392.575363
0.461500,-4902.305091,-7946.873951,-5169.300586,-2392.575363
0.462000,-9933.863045,-9384.464783,8128.388292,-2751.972360
0.462500,-6339.893078,-10822.055616,6331.403309,-2033.178366
0.463000,-8136.878061,10382.409167,-9482.064546,-4548.957343
0.463500,-8136.878061,8585.420626,-4091.109596,-2033.178366
0.464000,-7777.481065,4991.443544,-6966.285570,-1314.384373
0.464500,-8496.275058,2116.261879,-137.742632,-2392.575363
0.465000,-8136.878061,9663.613751,5253.212318,-2033.178366
0.465500,-7058.687071,6069.636669,5883.560957,-3111.369357
0.466000,-7777.481065,4632.045836,8399.339934,2279.585594
0.466500,-2115.574472,4632.045836,11633.912904,-2392.575363
0.467000,3723.222830,-5878.933231,-5976.539934,-1673.781370
0.467500,8395.383787,8496.975097,-3820.157954,-1673.781370
0.468000,11989.353754,2746.611765,-944.981980,-1673.781370
0.468500,-5621.099084,3824.804890,-226.187987,-2751.972360
0.469000,-10293.260042,2746.611765,1570.796997,394.155256
0.469500,-10293.260042,2387.214057,2648.987987,-2481.020718
0.470000,11270.559761,949.623224,7680.545941,-2121.623721
0.470500,10551.765767,1668.418641,4086.575974,-2840.417715
0.471000,11270.559761,949.623224,6961.751947,-2481.020718
0.471500,10551.765767,949.623224,8399.339934,-3199.814711
0.472000,-9215.069051,-1566.160733,11362.961262,-4637.402698
0.472500,9832.971774,-5519.535523,-7325.682566,-1762.226724
0.473000,-10293.260042,-8394.717189,-8044.476560,-2121.623721
0.473500,-9933.863045,-10551.103438,5253.212318,-1762.226724
0.474000,-10293.260042,11012.759054,-8403.873556,-1314.384373
0.474500,8754.780784,8496.975097,-5888.094579,-1673.781370
0.475000,6957.795800,8856.372805,5612.609315,-1673.781370
0.475500,129.252863,10741.806875,12441.152252,-2033.178366
0.476000,-3824.114101,10382.409167,2737.433341,-2033.178366
0.476500,-4542.908094,11101.204584,7050.197302,-2033.178366
0.477000,-3105.320107,-7587.476242,-10200.858540,-1673.781370
0.477500,-4183.511098,3194.455003,-8851.715908,-1673.781370
0.478000,-2027.129117,2475.659587,-9211.112904,-2033.178366
0.478500,-589.541131,7147.829793,-10289.303895,-3470.766353
0.479000,4442.016823,-4081.944690,12352.706898,-4548.957343
0.479500,10551.765767,8496.975097,11993.309901,-2392.575363
0.480000,12348.750751,2027.816349,11993.309901,-2392.575363
0.480500,12348.750751,5621.793431,-8132.921914,-2392.575363
0.481000,-7418.084068,2387.214057,-5976.539934,-4908.354340
0.481500,6957.795800,1668.418641,-1663.775974,-1673.781370
0.482000,2285.634843,1309.020933,4086.575974,-1762.226724
0.482500,-1308.335124,1038.068754,4086.575974,-1762.226724
0.483000,-3105.320107,319.273338,-497.139629,-1314.384373
0.483500,-4542.908094,-2555.908328,-5528.697583,-2033.178366
0.484000,-5621.099084,-1477.715203,-6966.285570,-2392.575363
0.484500,-7058.687071,-1837.112911,-6966.285570,123.203614
0.485000,-5980.496081,-1837.112911,-5169.300586,-2033.178366
0.485500,-4902.305091,-1477.715203,-1215.933622,-2033.178366
0.486000,-4183.511098,-1837.112911,1659.242351,-2121.623721
0.486500,-4542.908094,-2196.510620,1659.242351,-2840.417715
0.487000,-4542.908094,1397.466462,-585.584984,-3111.369357
0.487500,-2027.129117,319.273338,-2294.124612,-2033.178366
0.488000,-589.541131,-40.124370,-5169.300586,123.203614
0.488500,129.252863,4272.648128,-4538.951947,-2033.178366
0.489000,488.649860,2835.057295,-6695.333927,-1314.384373
0.489500,129.252863,-40.124370,-7325.682566,-1314.384373
0.490000,-589.541131,3553.852712,-9929.906898,-2751.972360
0.490500,-2027.129117,1756.864171,11993.309901,2638.982591
0.491000,-3193.765462,1038.068754,9836.927921,-2751.972360
0.491500,-2386.526114,1038.068754,11274.515908,-1673.781370
0.492000,-230.144134,319.273338,7409.594299,-2033.178366
0.492500,-2386.526114,-3274.703744,7050.197302,-2392.575363
0.493000,-5621.099084,-1477.715203,7768.991295,-2392.575363
0.493500,-3824.114101,-1477.715203,10644.167269,-3111.369357
0.494000,-4542.908094,-1477.715203,11722.358259,-4548.957343
0.494500,-2027.129117,-1477.715203,-8044.476560,-1673.781370
0.495000,488.649860,-2196.510620,-10200.858540,-2392.575363
0.495500,-948.938127,-2196.510620,-8044.476560,-1673.781370
0.496000,-4542.908094,1397.466462,-6695.333927,-1673.781370
0.496500,1566.840850,-1925.558441,-6606.888573,-4908.354340
0.497000,-1667.732121,-1477.715203,-9482.064546,-3111.369357
0.497500,-230.144134,-1118.317495,10644.167269,-2033.178366
0.498000,-5261.702088,-758.919787,11362.961262,-2033.178366
0.498500,6598.398804,-40.124370,-5888.094579,-1673.781370
0.499000,-4902.305091,-3634.101452,221.654365,-2033.178366
0.499500,-7777.481065,-3634.101452,4534.418325,-3918.608705
0.500000,-9215.069051,-3634.101452,3456.227335,-4278.005701
0.500500,-5980.496081,-2915.306036,-1575.330619,-2751.972360
0.501000,-1667.732121,-4352.896869,-3012.918606,-1673.781370
0.501500,1566.840850,-3634.101452,-2653.521609,-1673.781370
0.502000,3723.222830,-3993.499160,-4450.506593,-2033.178366
0.502500,8035.986790,-4352.896869,5253.212318,-1762.226724
0.503000,-7058.687071,-1206.763025,3456.227335,-2121.623721
0.503500,-5980.496081,2027.816349,3727.178977,-2840.417715
0.504000,-5621.099084,-2644.353857,581.051361,-2392.575363
0.504500,-9215.069051,-3363.149274,221.654365,-4908.354340
0.505000,-7058.687071,-1566.160733,-137.742632,123.203614
0.505500,-7418.084068,-1206.763025,-1575.330619,-2392.575363
0.506000,-7058.687071,-1206.763025,-2653.521609,-2033.178366
0.506500,-8136.878061,-2284.956149,-1575.330619,-2392.575363
0.507000,-10293.260042,-5160.137815,-1215.933622,-3111.369357
0.507500,11989.353754,-1566.160733,-1215.933622,-2033.178366
0.508000,11270.559761,-2644.353857,-1215.933622,2998.379587
0.508500,9385.129423,-2284.956149,-1934.727616,-3111.369357
0.509000,7317.192797,-3363.149274,-137.742632,-1673.781370
0.509500,6957.795800,-5160.137815,-1934.727616,-2033.178366
0.510000,6957.795800,-6957.126356,-2294.124612,-1673.781370
0.510500,5879.604810,-3722.546982,-3012.918606,-2392.575363
0.511000,4442.016823,-8035.319480,-2294.124612,2638.982591
0.511500,2915.983482,-10191.705730,-2294.124612,-3470.766353
0.512000,1926.237846,-10551.103438,-1575.330619,-2392.575363
0.512500,848.046856,-3274.703744,-856.536626,-2392.575363
0.513000,-1308.335124,8226.022918,-1663.775974,-1673.781370
0.513500,-2745.923111,-5790.487701,-1663.775974,-2392.575363
0.514000,-948.938127,9663.613751,-1304.378977,-4908.354340
0.514500,-7418.084068,5350.841253,-585.584984,-595.590380
0.515000,-7777.481065,2835.057295,-1663.775974,-2392.575363
0.515500,-8855.672055,2475.659587,3727.178977,-2481.020718
0.516000,12348.750751,319.273338,-1215.933622,-1673.781370
0.516500,10911.162764,4272.648128,-226.187987,-1673.781370
0.517000,-4183.511098,5350.841253,492.606007,-1314.384373
0.517500,5520.207813,3824.804890,1930.193993,753.552252
0.518000,-9933.863045,230.827808,-137.742632,-2033.178366
0.518500,-9215.069051,-2644.353857,6331.403309,-1762.226724
0.519000,10192.368771,-3363.149274,221.654365,-2033.178366
0.519500,6598.398804,-1566.160733,940.448358,-2033.178366
0.520000,4082.619827,-5519.535523,2378.036345,-1402.829728
0.520500,6598.398804,-2284.956149,2737.433341,-324.638738
0.521000,12348.750751,-2284.956149,2737.433341,-4996.799695
0.521500,-9215.069051,-1566.160733,8487.785289,-2840.417715
0.522000,-8855.672055,-2284.956149,6690.800305,-2121.623721
0.522500,-8136.878061,949.623224,6242.957954,-2121.623721
0.523000,-8496.275058,2746.611765,-1663.775974,-1314.384373
0.523500,-8855.672055,-1566.160733,11362.961262,-595.590380
0.524000,-10293.260042,-847.365317,6331.403309,-2033.178366
0.524500,11270.559761,-487.967608,-9841.461543,-2392.575363
0.525000,8035.986790,-1206.763025,11362.961262,-1673.781370
0.525500,5160.810817,-1925.558441,-8044.476560,-1314.384373
0.526000,4801.413820,-2644.353857,-7325.682566,-1314.384373
0.526500,3723.222830,-2644.353857,-6606.888573,841.997607
0.527000,2285.634843,-1925.558441,-5528.697583,-4189.560347
0.527500,1566.840850,-1925.558441,3096.830338,-1762.226724
0.528000,1566.840850,-2644.353857,3096.830338,-2121.623721
0.528500,1207.443853,-1566.160733,7409.594299,-2481.020718
0.529000,4082.619827,2746.611765,7321.148944,-2840.417715
0.529500,8395.383787,-1566.160733,6690.800305,-3199.814711
0.530000,5879.604810,-1925.558441,5253.212318,-4637.402698
0.530500,8035.986790,-3003.751566,5972.006312,-2481.020718
0.531000,6957.795800,-3722.546982,-1934.727616,-2751.972360
0.531500,3004.428837,-4081.944690,-3372.315602,-2392.575363
0.532000,-2027.129117,-2555.908328,-5888.094579,-1673.781370
0.532500,-7777.481065,-3634.101452,-6606.888573,-4908.354340
0.533000,-9574.466048,-3634.101452,-5888.094579,-4548.957343
0.533500,11989.353754,-2555.908328,-5528.697583,-1673.781370
0.534000,11270.559761,-2196.510620,-6966.285570,-1673.781370
0.534500,12348.750751,-2196.510620,-4809.903589,-1314.384373
0.535000,-8496.275058,-2196.510620,-4091.109596,-2392.575363
0.535500,-6339.893078,3194.455003,3276.528837,-1582.528226
0.536000,-4003.812599,-2735.607182,5073.513820,-504.337236
0.536500,-4003.812599,-2735.607182,7948.689794,-144.940239
0.537000,-5082.003589,-3454.402598,10105.071774,-144.940239
0.537500,-2206.827616,-2735.607182,9745.674777,-2301.322220
0.538000,-3285.018606,-3095.004890,9026.880784,-3379.513210
0.538500,-3644.415602,-2376.209474,10464.468771,-144.940239
0.539000,-3644.415602,-2376.209474,3635.925833,214.456757
0.539500,-3285.018606,139.574484,4714.116823,-863.734233
0.540000,-3285.018606,-2376.209474,4354.719827,214.456757
0.540500,2465.333341,-2824.052712,3635.925833,-863.734233
0.541000,-2925.621609,-2376.209474,1838.940850,-504.337236
0.541500,-1847.430619,-2376.209474,3276.528837,573.853754
0.542000,-1847.430619,-3454.402598,2917.131840,214.456757
0.542500,-769.239629,-1298.016349,760.749860,302.902112
0.543000,-1847.430619,-2735.607182,2198.337846,573.853754
0.543500,-3285.018606,-2735.607182,5432.910817,-144.940239
0.544000,5340.509315,-3183.450420,9026.880784,-1582.528226
0.544500,11809.655256,-3183.450420,9026.880784,-3020.116213
0.545000,-8675.973556,-2824.052712,11183.262764,-863.734233
0.545500,-6878.988573,-3183.450420,10823.865767,-504.337236
0.546000,-5800.797583,-5339.836669,10464.468771,-504.337236
0.546500,-3285.018606,-2824.052712,10105.071774,2370.838738
0.547000,3814.475974,-2464.655003,7589.292797,-1582.528226
0.547500,7137.494299,-2464.655003,10105.071774,-863.734233
0.548000,8215.685289,-2824.052712,9745.674777,-504.337236
0.548500,10731.464266,-3183.450420,6151.704810,-504.337236
0.549000,-10472.958540,-2824.052712,6870.498804,-863.734233
0.549500,-9754.164546,-2464.655003,7948.689794,-144.940239
0.550000,-7238.385570,-1745.859587,10105.071774,-1582.528226
0.550500,9293.876279,-2464.655003,10823.865767,-504.337236
0.551000,11809.655256,-2824.052712,-7864.778061,-504.337236
0.551500,2824.730338,-5610.788847,12261.453754,-504.337236
0.552000,-7957.179563,-3095.004890,12620.850751,-1582.528226
0.552500,2105.936345,-2735.607182,-9661.763045,-504.337236
0.553000,11450.258259,-3095.004890,-10021.160042,2370.838738
0.553500,5970.857954,-2735.607182,-10021.160042,-1582.528226
0.554000,4981.112318,-2735.607182,10105.071774,-1582.528226
0.554500,-4003.812599,-5610.788847,10823.865767,-863.734233
0.555000,6778.097302,-3454.402598,9386.277780,-1223.131229
0.555500,-1847.430619,-2376.209474,9026.880784,-1223.131229
0.556000,2465.333341,-2735.607182,7589.292797,-1582.528226
0.556500,7856.288292,-3454.402598,6870.498804,-4098.307203
0.557000,8575.082285,-2735.607182,3995.322830,-9129.865157
0.557500,8575.082285,-2016.811765,4354.719827,10277.572665
0.558000,9293.876279,-3095.004890,5432.910817,9918.175668
0.558500,8934.479282,-4173.198015,5432.910817,9918.175668
0.559000,-7957.179563,-2735.607182,4714.116823,11355.763655
0.559500,-8316.576560,-3095.004890,6870.498804,-10208.056147
0.560000,-6160.194579,-3095.004890,6511.101807,-9129.865157
0.560500,-4722.606593,-3095.004890,5432.910817,12074.557649
0.561000,-4363.209596,-2376.209474,5792.307813,10996.366659
0.561500,-7957.179563,-3454.402598,4354.719827,-10208.056147
0.562000,-4722.606593,-2735.607182,4354.719827,3089.632731
0.562500,-6608.036931,-2735.607182,3276.528837,-1941.925223
0.563000,-5889.242937,-3095.004890,1838.940850,3089.632731
0.563500,-6608.036931,-2735.607182,6870.498804,-7332.880173
0.564000,-7686.227921,1577.165317,4625.671469,5964.808705
0.564500,-8405.021914,-3454.402598,4354.719827,2730.235734
0.565000,-4451.654951,-2735.607182,4714.116823,-1582.528226
0.565500,-6519.591576,-2016.811765,4354.719827,2011.441741
0.566000,-7326.830924,-2735.607182,2557.734843,-504.337236
0.566500,-8316.576560,-2376.209474,-676.838127,1740.490099
0.567000,-9842.609901,-2735.607182,1120.146856,2099.887096
0.567500,12080.606898,-4891.993431,2198.337846,2011.441741
0.568000,-8405.021914,-2735.607182,2917.131840,1652.044744
0.568500,-8764.418911,-2735.607182,3635.925833,1652.044744
0.569000,-7326.830924,-3813.800306,4714.116823,4167.823721
0.569500,-8405.021914,-3454.402598,5792.307813,-144.940239
0.570000,-8316.576560,-2735.607182,3995.322830,214.456757
0.570500,-6878.988573,1217.767608,7141.450446,-144.940239
0.571000,-4363.209596,-2735.607182,6511.101807,573.853754
0.571500,-7597.782566,-2376.209474,6151.704810,1652.044744
0.572000,-3732.860957,-3095.004890,4714.116823,214.456757
0.572500,-2566.224612,-2376.209474,1120.146856,1021.696105
0.573000,-2206.827616,-2016.811765,3635.925833,573.853754
0.573500,-1847.430619,-2376.209474,3276.528837,573.853754
0.574000,1387.142351,-2464.655003,2917.131840,214.456757
0.574500,2465.333341,-2464.655003,2917.131840,573.853754
0.575000,-1128.636626,-2376.209474,3635.925833,4167.823721
0.575500,2017.490990,-2824.052712,2917.131840,-1223.131229
0.576000,2465.333341,-3902.245836,5432.910817,214.456757
0.576500,1387.142351,-3902.245836,5073.513820,-144.940239
0.577000,668.348358,-3095.004890,5073.513820,214.456757
0.577500,-1488.033622,-3095.004890,5432.910817,573.853754
0.578000,-3644.415602,-2735.607182,4714.116823,214.456757
0.578500,-1128.636626,-3095.004890,4714.116823,-1941.925223
0.579000,-1488.033622,-2376.209474,1838.940850,-863.734233
0.579500,-1847.430619,-2016.811765,5073.513820,-1223.131229
0.580000,-1847.430619,-2376.209474,4354.719827,-863.734233
0.580500,-1847.430619,-2376.209474,4354.719827,-1223.131229
0.581000,1746.539348,-2824.052712,4714.116823,-863.734233
0.581500,-3285.018606,-2376.209474,5792.307813,4167.823721
0.582000,-4451.654951,-2016.811765,8667.483787,-1223.131229
0.582500,-5441.400586,858.369900,3906.877475,-863.734233
0.583000,-5082.003589,-4173.198015,3995.322830,-863.734233
0.583500,-4722.606593,-4173.198015,3995.322830,-504.337236
0.584000,-2566.224612,-2376.209474,3635.925833,-1582.528226
0.584500,-6519.591576,-3095.004890,1838.940850,-504.337236
0.585000,-8316.576560,-2376.209474,760.749860,-775.288878
0.585500,-9754.164546,-2376.209474,5432.910817,-863.734233
0.586000,-9394.767550,-5610.788847,401.352863,-1134.685875
0.586500,-6519.591576,-3095.004890,760.749860,-775.288878
0.587000,-2206.827616,-2735.607182,3995.322830,214.456757
0.587500,6778.097302,-3183.450420,4354.719827,933.250751
0.588000,-9754.164546,-2824.052712,4714.116823,2370.838738
0.588500,-3732.860957,-2824.052712,9026.880784,1652.044744
0.589000,2017.490990,-3902.245836,4354.719827,933.250751
0.589500,6059.303309,-2105.257295,7948.689794,-144.940239
0.590000,10731.464266,-1745.859587,7948.689794,-144.940239
0.590500,7137.494299,-2105.257295,8308.086790,-144.940239
0.591000,10731.464266,-2105.257295,7948.689794,4886.617715
0.591500,-10202.006898,-2824.052712,8667.483787,573.853754
0.592000,-6878.988573,-3542.848128,3635.925833,1652.044744
0.592500,-3732.860957,1488.719787,4266.274472,1652.044744
0.593000,939.300000,-2824.052712,3995.322830,-1223.131229
0.593500,-4003.812599,-3183.450420,4354.719827,-863.734233
0.594000,10372.067269,-3183.450420,1120.146856,-2931.670858
0.594500,-2925.621609,-3813.800306,3635.925833,-3379.513210
0.595000,2465.333341,-5970.186556,2917.131840,-863.734233
0.595500,-7238.385570,-2016.811765,3995.322830,-144.940239
0.596000,2465.333341,-3095.004890,5792.307813,573.853754
0.596500,6418.700305,-2376.209474,7229.895800,573.853754
0.597000,9293.876279,-2376.209474,8308.086790,-863.734233
0.597500,-7238.385570,-2735.607182,11183.262764,933.250751
0.598000,2465.333341,-2735.607182,7948.689794,933.250751
0.598500,10731.464266,2295.960733,8219.641436,1652.044744
0.599000,-7326.830924,-2376.209474,5073.513820,933.250751
0.599500,-6519.591576,-3095.004890,2198.337846,933.250751
0.600000,-8316.576560,-2735.607182,41.955866,-56.494885
0.600500,-6160.194579,-2735.607182,1838.940850,-2301.322220
0.601000,-6160.194579,-2376.209474,-2114.426114,-1853.479868
0.601500,-6878.988573,-3095.004890,-2114.426114,-1494.082871
0.602000,-5800.797583,-2735.607182,-317.441131,-2931.670858
0.602500,-4722.606593,-2376.209474,3276.528837,-2301.322220
0.603000,-6160.194579,-2735.607182,5792.307813,1652.044744
0.603500,-6608.036931,-2376.209474,7948.689794,-2301.322220
0.604000,925.261055,334.716208,1215.611684,1003.445477
0.604500,926.664949,336.120105,1214.207789,995.022110
0.605000,926.664949,340.331797,1209.996105,1002.041582
0.605500,928.068844,341.735695,1200.168844,1000.637688
0.606000,928.068844,333.312311,1208.592211,1000.637688
0.606500,928.068844,352.966873,1204.380527,997.829899
0.607000,915.433793,344.543489,1205.784422,985.194848
0.607500,925.261055,340.331797,1202.976633,1002.041582
0.608000,928.068844,340.331797,1200.168844,1006.253266
0.608500,928.068844,333.312311,1188.937688,1009.061055
0.609000,928.068844,343.139592,1194.553266,1006.253266
0.609500,930.876633,334.716208,1191.745477,1003.445477
0.610000,942.107789,336.120105,1195.957160,990.810426
0.610500,926.664949,337.524003,1200.168844,1014.676633
0.611000,926.664949,337.524003,1200.168844,996.426004
0.611500,926.664949,336.120105,1197.361055,992.214321
0.612000,926.664949,331.908414,1193.149371,990.810426
0.612500,928.068844,334.716208,1201.572738,992.214321
0.613000,926.664949,329.100619,1197.361055,1006.253266
0.613500,928.068844,323.485030,1195.957160,1006.253266
0.614000,925.261055,315.061646,1200.168844,1028.715578
0.614500,922.453266,312.253851,1197.361055,1027.311684
0.615000,925.261055,327.696722,1197.361055,1025.907789
0.615500,928.068844,323.485030,1198.764949,1024.503895
0.616000,923.857160,316.465543,1201.572738,1025.907789
0.616500,928.068844,316.465543,1202.976633,1006.253266
0.617000,925.261055,324.888927,1207.188316,1020.292211
0.617500,925.261055,331.908414,1204.380527,1016.080527
0.618000,926.664949,331.908414,1198.764949,1014.676633
0.618500,928.068844,324.888927,1208.592211,1013.272738
0.619000,926.664949,344.543489,1207.188316,1014.676633
0.619500,916.837688,337.524003,1214.207789,1017.484422
0.620000,928.068844,337.524003,1215.611684,1020.292211
0.620500,928.068844,337.524003,1215.611684,1013.272738
0.621000,925.261055,329.100619,1200.168844,1016.080527
0.621500,925.261055,327.696722,1194.553266,1013.272738
0.622000,923.857160,344.543489,1202.976633,1011.868844
0.622500,915.433793,326.292824,1201.572738,1017.484422
0.623000,928.068844,329.100619,1202.976633,1009.061055
0.623500,925.261055,326.292824,1208.592211,1000.637688
0.624000,925.261055,327.696722,1208.592211,1009.061055
0.624500,925.261055,336.120105,1212.803895,1006.253266
0.625000,926.664949,340.331797,1217.015578,1006.253266
0.625500,922.453266,326.292824,1212.803895,1004.849371
0.626000,930.876633,322.081132,1214.207789,995.022110
0.626500,928.068844,327.696722,1214.207789,1009.061055
0.627000,925.261055,326.292824,1209.996105,1011.868844
0.627500,928.068844,330.504516,1200.168844,1017.484422
0.628000,925.261055,331.908414,1205.784422,1021.696105
0.628500,922.453266,330.504516,1200.168844,1023.100000
0.629000,929.472738,333.312311,1197.361055,1017.484422
0.629500,944.915578,330.504516,1197.361055,1004.849371
0.630000,923.857160,334.716208,1198.764949,1010.464949
0.630500,925.261055,345.947386,1188.937688,1007.657160
0.631000,921.049371,359.986359,1201.572738,1006.253266
0.631500,922.453266,341.735695,1201.572738,1009.061055
0.632000,935.088316,344.543489,1200.168844,1004.849371
0.632500,946.319473,344.543489,1200.168844,997.829899
0.633000,928.068844,344.543489,1204.380527,1011.868844
0.633500,929.472738,337.524003,1195.957160,1006.253266
0.634000,926.664949,341.735695,1193.149371,1000.637688
0.634500,925.261055,341.735695,1198.764949,997.829899
0.635000,922.453266,337.524003,1200.168844,1003.445477
0.635500,928.068844,337.524003,1202.976633,999.233793
0.636000,926.664949,337.524003,1205.784422,986.598743
0.636500,925.261055,337.524003,1215.611684,999.233793
0.637000,928.068844,337.524003,1200.168844,1004.849371
0.637500,928.068844,340.331797,1200.168844,1009.061055
0.638000,928.068844,336.120105,1200.168844,1010.464949
0.638500,921.049371,334.716208,1195.957160,1007.657160
0.639000,925.261055,331.908414,1194.553266,989.406532
0.639500,925.261055,329.100619,1198.764949,1000.637688
0.640000,926.664949,317.869441,1193.149371,1007.657160
0.640500,928.068844,330.504516,1187.533793,1016.080527
0.641000,916.837688,330.504516,1200.168844,1021.696105
0.641500,925.261055,331.908414,1201.572738,1018.888316
0.642000,926.664949,327.696722,1204.380527,1003.445477
0.642500,926.664949,327.696722,1208.592211,1014.676633
0.643000,928.068844,326.292824,1214.207789,1016.080527
0.643500,928.068844,316.465543,1212.803895,1028.715578
0.644000,925.261055,319.273338,1212.803895,1051.177890
0.644500,930.876633,322.081132,1204.380527,1062.409047
0.645000,928.068844,326.292824,1205.784422,1093.294726
0.645500,928.068844,329.100619,1202.976633,1087.679148
0.646000,926.664949,324.888927,1194.553266,1090.486937
0.646500,929.472738,316.465543,1202.976633,1090.486937
0.647000,926.664949,341.735695,1200.168844,1091.890831
0.647500,915.433793,329.100619,1201.572738,1096.102515
0.648000,926.664949,337.524003,1200.168844,1090.486937
0.648500,925.261055,341.735695,1204.380527,1083.467464
0.649000,928.068844,344.543489,1205.784422,1098.910304
0.649500,928.068844,351.562976,1201.572738,1104.525882
0.650000,929.472738,324.888927,1208.592211,1098.910304
0.650500,916.837688,326.292824,1205.784422,1083.467464
0.651000,922.453266,324.888927,1205.784422,1020.292211
0.651500,928.068844,319.273338,1204.380527,909.384544
0.652000,928.068844,315.061646,1208.592211,843.401502
0.652500,929.472738,316.465543,1222.631156,865.863814
0.653000,928.068844,309.446057,1205.784422,997.829899
0.653500,928.068844,334.716208,1204.380527,999.233793
0.654000,922.453266,327.696722,1202.976633,1002.041582
0.654500,929.472738,327.696722,1202.976633,997.829899
0.655000,923.857160,327.696722,1204.380527,995.022110
0.655500,922.453266,333.312311,1202.976633,1000.637688
0.656000,925.261055,329.100619,1193.149371,1003.445477
0.656500,926.664949,319.273338,1204.380527,1003.445477
0.657000,918.241582,326.292824,1204.380527,1003.445477
0.657500,935.088316,324.888927,1202.976633,1002.041582
0.658000,926.664949,330.504516,1202.976633,995.022110
0.658500,925.261055,337.524003,1202.976633,1002.041582
0.659000,925.261055,348.755181,1197.361055,1003.445477
0.659500,925.261055,345.947386,1197.361055,1004.849371
0.660000,930.876633,351.562976,1201.572738,1004.849371
0.660500,929.472738,344.543489,1201.572738,1009.061055
0.661000,929.472738,331.908414,1198.764949,1000.637688
0.661500,926.664949,323.485030,1201.572738,1009.061055
0.662000,925.261055,324.888927,1193.149371,1009.061055
0.662500,928.068844,326.292824,1190.341582,1009.061055
0.663000,930.876633,319.273338,1198.764949,1007.657160
0.663500,930.876633,327.696722,1198.764949,1010.464949
0.664000,925.261055,326.292824,1195.957160,1030.119473
0.664500,929.472738,329.100619,1186.129899,1006.253266
0.665000,926.664949,326.292824,1193.149371,1006.253266
0.665500,928.068844,316.465543,1195.957160,1006.253266
0.666000,928.068844,313.657749,1194.553266,1006.253266
0.666500,935.088316,330.504516,1205.784422,1006.253266
0.667000,916.837688,334.716208,1205.784422,1010.464949
0.667500,918.241582,334.716208,1214.207789,1006.253266
0.668000,925.261055,326.292824,1205.784422,1007.657160
0.668500,926.664949,316.465543,1226.842840,1006.253266
0.669000,928.068844,330.504516,1202.976633,1009.061055
0.669500,919.645477,309.446057,1205.784422,1010.464949
0.670000,936.492211,317.869441,1201.572738,1013.272738
0.670500,928.068844,320.677235,1202.976633,1009.061055
0.671000,926.664949,322.081132,1201.572738,1010.464949
0.671500,926.664949,323.485030,1224.035051,1006.253266
0.672000,928.068844,330.504516,1205.784422,1009.061055
0.672500,925.261055,326.292824,1217.015578,1010.464949
0.673000,928.068844,336.120105,1218.419473,1007.657160
0.673500,942.107789,338.927900,1218.419473,1007.657160
0.674000,923.857160,345.947386,1218.419473,1009.061055
0.674500,925.261055,348.755181,1207.188316,1009.061055
0.675000,928.068844,341.735695,1215.611684,1006.253266
0.675500,922.453266,347.351284,1205.784422,1009.061055
0.676000,944.915578,341.735695,1201.572738,1006.253266
0.676500,940.703895,340.331797,1201.572738,1006.253266
0.677000,929.472738,341.735695,1204.380527,1011.868844
0.677500,930.876633,343.139592,1188.937688,1011.868844
0.678000,929.472738,355.774668,1197.361055,1011.868844
0.678500,929.472738,336.120105,1193.149371,1011.868844
0.679000,937.896105,326.292824,1191.745477,1009.061055
0.679500,925.261055,324.888927,1194.553266,1009.061055
0.680000,926.664949,317.869441,1198.764949,1011.868844
0.680500,923.857160,316.465543,1195.957160,1011.868844
0.681000,925.261055,315.061646,1202.976633,1011.868844
0.681500,928.068844,319.273338,1205.784422,1013.272738
0.682000,926.664949,322.081132,1204.380527,1013.272738
0.682500,918.241582,324.888927,1204.380527,1030.119473
0.683000,928.068844,327.696722,1197.361055,1009.061055
0.683500,926.664949,327.696722,1198.764949,1011.868844
0.684000,928.068844,323.485030,1217.015578,1011.868844
0.684500,926.664949,326.292824,1200.168844,1011.868844
0.685000,922.453266,306.638262,1198.764949,1014.676633
0.685500,946.319473,315.061646,1200.168844,1028.715578
0.686000,928.068844,315.061646,1200.168844,1009.061055
0.686500,932.280527,323.485030,1207.188316,1013.272738
0.687000,929.472738,323.485030,1217.015578,1011.868844
0.687500,928.068844,329.100619,1208.592211,1010.464949
0.688000,928.068844,330.504516,1205.784422,1010.464949
0.688500,930.876633,331.908414,1205.784422,995.022110
0.689000,928.068844,324.888927,1205.784422,1010.464949
0.689500,928.068844,320.677235,1205.784422,1009.061055
0.690000,926.664949,313.657749,1200.168844,1006.253266
0.690500,930.876633,306.638262,1207.188316,1004.849371
0.691000,929.472738,322.081132,1208.592211,1007.657160
0.691500,928.068844,327.696722,1209.996105,1006.253266
0.692000,926.664949,333.312311,1207.188316,1021.696105
0.692500,925.261055,334.716208,1215.611684,1003.445477
0.693000,926.664949,336.120105,1224.035051,1006.253266
0.693500,923.857160,361.390257,1217.015578,1011.868844
0.694000,923.857160,337.524003,1215.611684,1021.696105
0.694500,918.241582,336.120105,1209.996105,1021.696105
0.695000,921.049371,333.312311,1208.592211,1027.311684
0.695500,923.857160,334.716208,1208.592211,1034.331156
0.696000,926.664949,336.120105,1197.361055,1032.927262
0.696500,929.472738,329.100619,1201.572738,1032.927262
0.697000,929.472738,343.139592,1200.168844,1030.119473
0.697500,943.511684,333.312311,1198.764949,1013.272738
0.698000,929.472738,334.716208,1198.764949,1025.907789
0.698500,928.068844,330.504516,1194.553266,1013.272738
0.699000,925.261055,337.524003,1193.149371,1010.464949
0.699500,925.261055,338.927900,1208.592211,999.233793
0.700000,925.261055,343.139592,1204.380527,999.233793
0.700500,937.896105,345.947386,1202.976633,983.790953
0.701000,925.261055,348.755181,1201.572738,986.598743
0.701500,923.857160,341.735695,1200.168844,993.618215
0.702000,923.857160,333.312311,1195.957160,1003.445477
0.702500,926.664949,310.849954,1204.380527,1007.657160
0.703000,926.664949,317.869441,1208.592211,1011.868844
0.703500,928.068844,324.888927,1208.592211,1006.253266
0.704000,925.261055,326.292824,1204.380527,1030.119473
0.704500,928.068844,326.292824,1205.784422,1009.061055
0.705000,926.664949,323.485030,1201.572738,1013.272738
0.705500,929.472738,326.292824,1205.784422,1010.464949
0.706000,926.664949,333.312311,1202.976633,1011.868844
0.706500,918.241582,305.234365,1201.572738,1013.272738
0.707000,943.511684,308.042159,1200.168844,1004.849371
0.707500,926.664949,313.657749,1205.784422,997.829899
0.708000,928.068844,322.081132,1204.380527,1007.657160
0.708500,928.068844,331.908414,1202.976633,1004.849371
0.709000,925.261055,352.966873,1207.188316,1003.445477
0.709500,925.261055,338.927900,1204.380527,1003.445477
0.710000,929.472738,336.120105,1205.784422,1004.849371
0.710500,926.664949,324.888927,1205.784422,983.790953
0.711000,929.472738,317.869441,1208.592211,992.214321
0.711500,929.472738,323.485030,1183.322110,1016.080527
0.712000,956.146734,308.042159,1190.341582,1016.080527
0.712500,954.742840,302.426570,1195.957160,1011.868844
0.713000,951.935051,299.618776,1204.380527,1003.445477
0.713500,954.742840,302.426570,1204.380527,1011.868844
0.714000,953.338945,308.042159,1195.957160,1011.868844
0.714500,951.935051,315.061646,1212.803895,1011.868844
0.715000,937.896105,313.657749,1219.823367,1010.464949
0.715500,935.088316,317.869441,1226.842840,1025.907789
0.716000,942.107789,316.465543,1228.246734,1004.849371
0.716500,936.492211,319.273338,1208.592211,1007.657160
0.717000,937.896105,317.869441,1218.419473,1010.464949
0.717500,943.511684,309.446057,1217.015578,1011.868844
0.718000,958.954523,316.465543,1214.207789,1011.868844
0.718500,961.762312,315.061646,1208.592211,1000.637688
0.719000,949.127262,315.061646,1214.207789,1006.253266
0.719500,949.127262,313.657749,1208.592211,1013.272738
0.720000,947.723367,312.253851,1198.764949,1013.272738
0.720500,942.107789,330.504516,1202.976633,1011.868844
0.721000,937.896105,317.869441,1198.764949,1014.676633
0.721500,933.684422,315.061646,1194.553266,1013.272738
0.722000,928.068844,312.253851,1194.553266,1002.041582
0.722500,932.280527,313.657749,1194.553266,1000.637688
0.723000,937.896105,316.465543,1194.553266,1006.253266
0.723500,944.915578,303.830468,1195.957160,1009.061055
0.724000,960.358418,313.657749,1195.957160,1006.253266
0.724500,935.088316,312.253851,1194.553266,1009.061055
0.725000,922.453266,308.042159,1197.361055,1010.464949
0.725500,926.664949,310.849954,1187.533793,1010.464949
0.726000,930.876633,309.446057,1188.937688,1011.868844
0.726500,930.876633,316.465543,1201.572738,1009.061055
0.727000,928.068844,303.830468,1201.572738,1010.464949
0.727500,929.472738,306.638262,1205.784422,1000.637688
0.728000,953.338945,302.426570,1212.803895,997.829899
0.728500,971.589574,306.638262,1232.458418,1006.253266
0.729000,972.993468,298.214878,1215.611684,1010.464949
0.729500,965.973996,309.446057,1218.419473,1011.868844
0.730000,967.377890,320.677235,1215.611684,1011.868844
0.730500,953.338945,323.485030,1208.592211,1028.715578
0.731000,960.358418,324.888927,1200.168844,1011.868844
0.731500,960.358418,322.081132,1205.784422,1009.061055
0.732000,960.358418,330.504516,1221.227262,1011.868844
0.732500,926.664949,323.485030,1219.823367,1011.868844
0.733000,916.837688,309.446057,1217.015578,1011.868844
0.733500,930.876633,310.849954,1217.015578,1009.061055
0.734000,921.049371,309.446057,1202.976633,1000.637688
0.734500,914.029899,305.234365,1212.803895,1006.253266
0.735000,914.029899,315.061646,1214.207789,1007.657160
0.735500,914.029899,299.618776,1217.015578,1009.061055
0.736000,899.990953,308.042159,1224.035051,1013.272738
0.736500,911.222110,305.234365,1226.842840,1011.868844
0.737000,914.029899,308.042159,1225.438945,1017.484422
0.737500,914.029899,306.638262,1217.015578,1016.080527
0.738000,912.626004,319.273338,1219.823367,1018.888316
0.738500,916.837688,298.214878,1215.611684,1017.484422
0.739000,929.472738,302.426570,1218.419473,1017.484422
0.739500,949.127262,309.446057,1217.015578,1011.868844
0.740000,964.570101,306.638262,1214.207789,1035.735051
0.740500,980.012941,309.446057,1236.670101,1017.484422
0.741000,998.263570,296.810981,1217.015578,1018.888316
0.741500,1012.302515,306.638262,1219.823367,1017.484422
0.742000,1024.937566,302.426570,1219.823367,1017.484422
0.742500,1022.129777,301.022673,1219.823367,1020.292211
0.743000,1023.533671,303.830468,1212.803895,1009.061055
0.743500,1006.686937,305.234365,1215.611684,1009.061055
0.744000,998.263570,292.599289,1209.996105,1014.676633
0.744500,995.455781,312.253851,1205.784422,1017.484422
0.745000,999.667464,322.081132,1205.784422,1013.272738
0.745500,1008.090831,306.638262,1208.592211,1013.272738
0.746000,1006.686937,306.638262,1214.207789,1000.637688
0.746500,988.436308,309.446057,1204.380527,1011.868844
0.747000,950.531156,309.446057,1219.823367,1007.657160
0.747500,859.278012,313.657749,1225.438945,1009.061055
0.748000,775.044341,309.446057,1229.650629,1010.464949
0.748500,759.601502,310.849954,1235.266207,1030.119473
0.749000,808.737810,313.657749,1224.035051,1016.080527
0.749500,846.642962,315.061646,1224.035051,1011.868844
0.750000,867.701380,313.657749,1221.227262,1017.484422
0.750500,873.316958,305.234365,1215.611684,1014.676633
0.751000,871.913063,309.446057,1214.207789,1013.272738
0.751500,860.681907,312.253851,1217.015578,1028.715578
0.752000,866.297485,310.849954,1224.035051,1027.311684
0.752500,874.720852,313.657749,1240.881785,1010.464949
0.753000,887.355903,312.253851,1228.246734,1013.272738
0.753500,914.029899,315.061646,1233.862312,1016.080527
0.754000,933.684422,309.446057,1232.458418,1014.676633
0.754500,967.377890,309.446057,1229.650629,1014.676633
0.755000,957.550629,309.446057,1222.631156,1024.503895
0.755500,968.781785,305.234365,1231.054523,1013.272738
0.756000,978.609047,299.618776,1224.035051,1013.272738
0.756500,965.973996,289.791495,1225.438945,1011.868844
0.757000,933.684422,302.426570,1217.015578,1011.868844
0.757500,943.511684,302.426570,1208.592211,1006.253266
0.758000,930.876633,305.234365,1205.784422,1010.464949
0.758500,926.664949,302.426570,1193.149371,1011.868844
0.759000,926.664949,303.830468,1188.937688,1013.272738
0.759500,928.068844,315.061646,1198.764949,1013.272738
0.760000,922.453266,305.234365,1207.188316,1011.868844
0.760500,944.915578,302.426570,1214.207789,1002.041582
0.761000,933.684422,301.022673,1214.207789,1004.849371
0.761500,933.684422,299.618776,1205.784422,1013.272738
0.762000,929.472738,303.830468,1205.784422,1013.272738
0.762500,935.088316,323.485030,1215.611684,1011.868844
0.763000,930.876633,315.061646,1212.803895,-1494.082871
0.763500,-1488.033622,2655.358441,-765.283482,-1853.479868
0.764000,-4722.606593,-2016.811765,-1395.632121,-1134.685875
0.764500,-769.239629,-2016.811765,-676.838127,-4009.861848
0.765000,-769.239629,-1298.016349,-317.441131,-1853.479868
0.765500,-409.842632,-2016.811765,-2833.220107,-1494.082871
0.766000,-50.445635,3374.153857,-1484.077475,-1494.082871
0.766500,308.951361,-2376.209474,-1036.235124,-775.288878
0.767000,-409.842632,-1298.016349,-1395.632121,-56.494885
0.767500,-3285.018606,-1298.016349,-1755.029117,302.902112
0.768000,-1128.636626,-2016.811765,1479.543853,-1223.131229
0.768500,-1128.636626,-2016.811765,-2833.220107,-56.494885
0.769000,-769.239629,-5970.186556,-676.838127,-56.494885
0.769500,-50.445635,-4891.993431,41.955866,-415.891881
0.770000,-1847.430619,-4891.993431,-676.838127,-415.891881
0.770500,-4722.606593,-4891.993431,-1036.235124,-56.494885
0.771000,-1488.033622,-4173.198015,2198.337846,-1223.131229
0.771500,-1128.636626,-4173.198015,-2114.426114,-1134.685875
0.772000,-2206.827616,-8126.572805,41.955866,-775.288878
0.772500,-769.239629,-6329.584264,760.749860,-415.891881
0.773000,1387.142351,-5339.836669,-676.838127,-775.288878
0.773500,-3285.018606,-4173.198015,-1395.632121,-1494.082871
0.774000,-1128.636626,-2735.607182,-317.441131,-2212.876865
0.774500,-769.239629,-1657.414057,-3911.411098,-1494.082871
0.775000,-769.239629,-219.823224,-2114.426114,-1853.479868
0.775500,-1128.636626,-579.220933,-3552.014101,-2212.876865
0.776000,-1488.033622,-2016.811765,-3192.617104,-1494.082871
0.776500,3902.921328,-2105.257295,-2114.426114,-3650.464852
0.777000,-2566.224612,-2735.607182,-1036.235124,-1134.685875
0.777500,-1847.430619,-938.618641,4714.116823,-2301.322220
0.778000,-1488.033622,-1657.414057,1120.146856,-56.494885
0.778500,-1488.033622,-4173.198015,2557.734843,-504.337236
0.779000,-769.239629,-4891.993431,1120.146856,-56.494885
0.779500,-1488.033622,-5251.391139,41.955866,-415.891881
0.780000,-1488.033622,-4891.993431,-317.441131,3537.475082
0.780500,-1576.478977,-4891.993431,1120.146856,-2572.273862
0.781000,-769.239629,-4532.595723,-2114.426114,-775.288878
0.781500,-769.239629,-5251.391139,-1755.029117,-775.288878
0.782000,-50.445635,-2016.811765,-2114.426114,-1853.479868
0.782500,-1128.636626,-938.618641,-1036.235124,-1494.082871
0.783000,-769.239629,-579.220933,401.352863,-3291.067855
0.783500,-1488.033622,-219.823224,5432.910817,-1223.131229
0.784000,-1488.033622,-219.823224,2557.734843,-1582.528226
0.784500,-769.239629,2295.960733,672.304505,-1853.479868
0.785000,-769.239629,-2016.811765,401.352863,-1853.479868
0.785500,-4003.812599,-3454.402598,-317.441131,-415.891881
0.786000,-1488.033622,-3095.004890,-676.838127,-2931.670858
0.786500,-1128.636626,-2016.811765,-3911.411098,-4369.258845
0.787000,-1488.033622,-3454.402598,-2833.220107,-1853.479868
0.787500,-1128.636626,-1657.414057,-1036.235124,-1853.479868
0.788000,-1847.430619,-5610.788847,-676.838127,-1134.685875
0.788500,-4722.606593,-3813.800306,41.955866,-775.288878
0.789000,-1488.033622,-3454.402598,1120.146856,-1494.082871
0.789500,-1128.636626,-3095.004890,-676.838127,-1134.685875
0.790000,-769.239629,-3813.800306,-1395.632121,-1494.082871
0.790500,-409.842632,-8485.970513,-676.838127,-1494.082871
0.791000,-409.842632,-6329.584264,41.955866,-775.288878
0.791500,-3285.018606,-4532.595723,760.749860,-415.891881
0.792000,-2206.827616,-3454.402598,2557.734843,-1223.131229
0.792500,-409.842632,-3454.402598,3995.322830,-1223.131229
0.793000,-769.239629,-3095.004890,4714.116823,-1223.131229
0.793500,-769.239629,-4532.595723,6870.498804,-1941.925223
0.794000,-409.842632,-3095.004890,5432.910817,-1582.528226
0.794500,-4003.812599,-219.823224,5073.513820,-863.734233
0.795000,-2206.827616,-938.618641,5073.513820,-3020.116213
0.795500,-1128.636626,139.574484,4714.116823,-4817.101196
0.796000,-2206.827616,-938.618641,3276.528837,-1582.528226
0.796500,-1128.636626,-219.823224,2917.131840,-1582.528226
0.797000,-1128.636626,3374.153857,4625.671469,-1223.131229
0.797500,-4722.606593,-1657.414057,4714.116823,-863.734233
0.798000,1027.745355,-1745.859587,3995.322830,-1582.528226
0.798500,-1488.033622,-1657.414057,3635.925833,-2660.719216
0.799000,-769.239629,-1657.414057,3276.528837,-1582.528226
0.799500,-1488.033622,-2016.811765,-317.441131,-1494.082871
0.800000,-1128.636626,858.369900,-405.886485,-1494.082871
0.800500,-769.239629,-2376.209474,-1036.235124,-1134.685875
0.801000,4981.112318,-3902.245836,-1755.029117,-1494.082871
0.801500,-1847.430619,-4173.198015,-3552.014101,-1853.479868
0.802000,-1128.636626,-4173.198015,-1036.235124,-1494.082871
0.802500,-1488.033622,-3813.800306,-5348.999084,-1134.685875
0.803000,-1488.033622,-3813.800306,-4630.205091,-1494.082871
0.803500,-769.239629,-4173.198015,-4270.808094,-1853.479868
0.804000,2465.333341,-3542.848128,-2833.220107,-1494.082871
0.804500,-3644.415602,-3095.004890,-1395.632121,-1853.479868
0.805000,-1488.033622,-2735.607182,1838.940850,-3379.513210
0.805500,-1128.636626,-2376.209474,2557.734843,-1582.528226
0.806000,-1128.636626,-2016.811765,2557.734843,-1582.528226
0.806500,-1128.636626,-2376.209474,3635.925833,-1223.131229
0.807000,-3644.415602,-2376.209474,2917.131840,-1582.528226
0.807500,-1128.636626,-3095.004890,1120.146856,-1494.082871
0.808000,-769.239629,-2735.607182,41.955866,-1853.479868
0.808500,-1488.033622,-2376.209474,-1755.029117,-1853.479868
0.809000,-1128.636626,-2016.811765,41.955866,-1494.082871
0.809500,-1847.430619,-579.220933,1838.940850,-1941.925223
0.810000,-2206.827616,-4532.595723,1120.146856,-1853.479868
0.810500,2465.333341,-2464.655003,2198.337846,-4457.704200
0.811000,-1488.033622,-2376.209474,3276.528837,-2301.322220
0.811500,-1488.033622,-2735.607182,760.749860,-1853.479868
0.812000,-1847.430619,-5251.391139,1838.940850,-2301.322220
0.812500,-1488.033622,-5970.186556,1838.940850,-1941.925223
0.813000,3543.524332,-4261.643544,1838.940850,-2301.322220
0.813500,-1488.033622,-3454.402598,2917.131840,-3379.513210
0.814000,-1488.033622,-3813.800306,2557.734843,-1582.528226
0.814500,-1128.636626,-2735.607182,7229.895800,-1941.925223
0.815000,-769.239629,-5610.788847,2198.337846,-1582.528226
0.815500,-1488.033622,-3095.004890,1838.940850,-1582.528226
0.816000,-3285.018606,-2376.209474,41.955866,-775.288878
0.816500,-1847.430619,-2016.811765,760.749860,-775.288878
0.817000,-409.842632,-2735.607182,-676.838127,3178.078086
0.817500,-857.684984,-2735.607182,-1036.235124,-1494.082871
0.818000,-769.239629,-2735.607182,-1395.632121,-1494.082871
0.818500,-769.239629,-4173.198015,-1395.632121,-775.288878
0.819000,-769.239629,-4891.993431,-317.441131,-1494.082871
0.819500,-1488.033622,-2735.607182,401.352863,-4728.655842
0.820000,-769.239629,-2376.209474,-2473.823111,-1494.082871
0.820500,-769.239629,-3095.004890,2198.337846,-1941.925223
0.821000,-1488.033622,-3813.800306,760.749860,-1853.479868
0.821500,-1488.033622,-5610.788847,1120.146856,-1494.082871
0.822000,-4722.606593,-2735.607182,2198.337846,-1582.528226
0.822500,-1488.033622,-2735.607182,2917.131840,-3020.116213
0.823000,-409.842632,-2735.607182,760.749860,-1853.479868
0.823500,-409.842632,-3454.402598,-1395.632121,-1853.479868
0.824000,-769.239629,1936.563025,672.304505,-1134.685875
0.824500,-409.842632,-5251.391139,1120.146856,-1134.685875
0.825000,-1128.636626,-4173.198015,1120.146856,-1134.685875
0.825500,-50.445635,-3095.004890,1838.940850,-3738.910206
0.826000,-1128.636626,-2376.209474,2198.337846,573.853754
0.826500,-409.842632,-1298.016349,760.749860,-1134.685875
0.827000,-1128.636626,-1298.016349,1838.940850,-1582.528226
0.827500,-50.445635,-2016.811765,760.749860,-1134.685875
0.828000,308.951361,1577.165317,312.907508,-1494.082871
0.828500,-2566.224612,-1657.414057,760.749860,-56.494885
0.829000,-769.239629,-2016.811765,2198.337846,573.853754
0.829500,-1128.636626,-2735.607182,760.749860,-2931.670858
0.830000,-1488.033622,-4532.595723,1120.146856,-1494.082871
0.830500,-1128.636626,-4173.198015,760.749860,-1494.082871
0.831000,-1128.636626,-1298.016349,41.955866,-1494.082871
0.831500,-3285.018606,-3454.402598,-676.838127,-56.494885
0.832000,-1128.636626,-2735.607182,-1395.632121,-775.288878
0.832500,308.951361,-3095.004890,-3192.617104,-2931.670858
0.833000,-409.842632,-4173.198015,-5708.396081,-1494.082871
0.833500,-769.239629,1936.563025,-3640.459455,-1134.685875
0.834000,-50.445635,-3454.402598,-3192.617104,-1134.685875
0.834500,-50.445635,-2376.209474,-1395.632121,-1494.082871
0.835000,-769.239629,-2016.811765,-1036.235124,-4009.861848
0.835500,-1488.033622,-2016.811765,3635.925833,-1582.528226
0.836000,-1128.636626,-4532.595723,401.352863,-1853.479868
0.836500,-1128.636626,-2016.811765,1120.146856,-1494.082871
0.837000,-1128.636626,-3454.402598,760.749860,-775.288878
0.837500,2824.730338,-2824.052712,760.749860,-1494.082871
0.838000,-409.842632,-2016.811765,1120.146856,-4009.861848
0.838500,-409.842632,-1657.414057,2557.734843,-2660.719216
0.839000,-769.239629,-938.618641,1838.940850,-863.734233
0.839500,-50.445635,3014.756149,672.304505,-1134.685875
0.840000,-1488.033622,2295.960733,-1484.077475,-1494.082871
0.840500,-1128.636626,-2735.607182,-1755.029117,-1134.685875
0.841000,-409.842632,-3095.004890,-3552.014101,-3650.464852
0.841500,-1128.636626,-2376.209474,-317.441131,-1494.082871
0.842000,-769.239629,-2735.607182,-2833.220107,-1494.082871
0.842500,-409.842632,139.574484,-1755.029117,-1134.685875
0.843000,-1128.636626,-3454.402598,-1755.029117,-775.288878
0.843500,-409.842632,-4173.198015,-1395.632121,-1853.479868
0.844000,-409.842632,-3095.004890,-1755.029117,-3291.067855
0.844500,-769.239629,-3095.004890,-1755.029117,-56.494885
0.845000,-409.842632,-3813.800306,-3911.411098,-1494.082871
0.845500,1387.142351,769.924370,-765.283482,-1494.082871
0.846000,1387.142351,51.128954,1120.146856,-1853.479868
0.846500,-1847.430619,-4173.198015,2557.734843,-863.734233
0.847000,-769.239629,-5251.391139,1838.940850,-3379.513210
0.847500,-2566.224612,-4532.595723,3995.322830,-3738.910206
0.848000,-1128.636626,-4173.198015,4354.719827,-863.734233
0.848500,-50.445635,-6329.584264,3635.925833,-1582.528226
0.849000,-409.842632,-2735.607182,3995.322830,-1582.528226
0.849500,6418.700305,-2105.257295,3635.925833,-2301.322220
0.850000,3543.524332,-1386.461879,1838.940850,-3379.513210
0.850500,3184.127335,-1745.859587,41.955866,2099.887096
0.851000,3095.681980,-1386.461879,3635.925833,-1223.131229
0.851500,2105.936345,-3902.245836,-1395.632121,1009.061055
0.852000,947.723367,305.234365,1202.976633,1003.445477
0.852500,947.723367,303.830468,1221.227262,1011.868844
0.853000,947.723367,298.214878,1204.380527,1011.868844
0.853500,940.703895,319.273338,1205.784422,1009.061055
0.854000,926.664949,308.042159,1205.784422,1013.272738
0.854500,936.492211,310.849954,1205.784422,1006.253266
0.855000,932.280527,313.657749,1190.341582,1004.849371
0.855500,935.088316,306.638262,1201.572738,1010.464949
0.856000,936.492211,299.618776,1197.361055,1011.868844
0.856500,935.088316,298.214878,1195.957160,1014.676633
0.857000,932.280527,301.022673,1197.361055,1013.272738
0.857500,936.492211,302.426570,1195.957160,1002.041582
0.858000,933.684422,303.830468,1194.553266,1028.715578
0.858500,935.088316,308.042159,1218.419473,1009.061055
0.859000,936.492211,322.081132,1198.764949,1011.868844
0.859500,935.088316,303.830468,1202.976633,1009.061055
0.860000,942.107789,312.253851,1201.572738,1010.464949
0.860500,947.723367,310.849954,1200.168844,1013.272738
0.861000,943.511684,312.253851,1205.784422,1024.503895
0.861500,943.511684,313.657749,1208.592211,1004.849371
0.862000,943.511684,313.657749,1194.553266,1010.464949
0.862500,947.723367,327.696722,1201.572738,1011.868844
0.863000,950.531156,299.618776,1202.976633,1009.061055
0.863500,970.185679,308.042159,1204.380527,1009.061055
0.864000,949.127262,302.426570,1202.976633,1014.676633
0.864500,942.107789,301.022673,1197.361055,1025.907789
0.865000,929.472738,303.830468,1195.957160,1011.868844
0.865500,932.280527,316.465543,1197.361055,1010.464949
0.866000,933.684422,302.426570,1200.168844,1011.868844
0.866500,956.146734,309.446057,1198.764949,1010.464949
0.867000,937.896105,309.446057,1200.168844,1006.253266
0.867500,943.511684,308.042159,1201.572738,1031.523367
0.868000,943.511684,308.042159,1221.227262,1013.272738
0.868500,936.492211,302.426570,1201.572738,1013.272738
0.869000,935.088316,316.465543,1205.784422,1011.868844
0.869500,935.088316,308.042159,1200.168844,1011.868844
0.870000,936.492211,303.830468,1200.168844,1011.868844
0.870500,937.896105,303.830468,1200.168844,1027.311684
0.871000,936.492211,306.638262,1202.976633,1011.868844
0.871500,933.684422,296.810981,1198.764949,1013.272738
0.872000,936.492211,306.638262,1207.188316,1011.868844
0.872500,936.492211,315.061646,1217.015578,1011.868844
0.873000,956.146734,312.253851,1218.419473,1011.868844
0.873500,936.492211,317.869441,1215.611684,1027.311684
0.874000,937.896105,313.657749,1208.592211,1010.464949
0.874500,942.107789,308.042159,1209.996105,1014.676633
0.875000,943.511684,306.638262,1202.976633,1013.272738
0.875500,936.492211,312.253851,1205.784422,1013.272738
0.876000,926.664949,306.638262,1202.976633,1013.272738
0.876500,942.107789,306.638262,1652.222879,-1762.226724
0.877000,848.046856,-3634.101452,581.051361,-3470.766353
0.877500,-230.144134,-2915.306036,2378.036345,-6074.990685
0.878000,488.649860,-3274.703744,3096.830338,-6793.784678
0.878500,2645.031840,-3003.751566,2018.639348,-7153.181675
0.879000,3363.825833,230.827808,2018.639348,-5715.593688
0.879500,3004.428837,-5160.137815,2737.433341,-4996.799695
0.880000,-589.541131,-2915.306036,2018.639348,-6793.784678
0.880500,-230.144134,-2555.908328,2737.433341,-2840.417715
0.881000,-589.541131,-2915.306036,-856.536626,-954.987376
0.881500,-948.938127,-2555.908328,2378.036345,1472.346246
0.882000,-677.986485,-2915.306036,2378.036345,2191.140239
0.882500,-3553.162459,-2555.908328,2737.433341,1112.949249
0.883000,-1037.383482,-2555.908328,3096.830338,2191.140239
0.883500,-3193.765462,-3274.703744,2378.036345,1472.346246
0.884000,-1396.780479,-2915.306036,-497.139629,482.600610
0.884500,-2386.526114,-2196.510620,5612.609315,-324.638738
0.885000,-2386.526114,-3274.703744,2018.639348,-1043.432731
0.885500,-2386.526114,-1118.317495,2378.036345,-1043.432731
0.886000,-1667.732121,-2915.306036,2018.639348,-324.638738
0.886500,-2745.923111,-2196.510620,2378.036345,-2840.417715
0.887000,-1308.335124,-2196.510620,3456.227335,-1762.226724
0.887500,129.252863,-2196.510620,1299.845355,-1762.226724
0.888000,488.649860,-1477.715203,2018.639348,-1762.226724
0.888500,-589.541131,-2915.306036,2018.639348,-1762.226724
0.889000,-589.541131,-4352.896869,2737.433341,-2481.020718
0.889500,-1667.732121,-2915.306036,2378.036345,-3559.211708
0.890000,-2027.129117,-2915.306036,2378.036345,-324.638738
0.890500,1566.840850,-3003.751566,221.654365,-4548.957343
0.891000,2285.634843,-2644.353857,940.448358,-4548.957343
0.891500,2285.634843,949.623224,2648.987987,-3559.211708
0.892000,2285.634843,-2284.956149,2737.433341,-2840.417715
0.892500,-1667.732121,-2555.908328,3456.227335,-1762.226724
0.893000,129.252863,-2555.908328,3096.830338,-2481.020718
0.893500,129.252863,-2915.306036,2018.639348,-4996.799695
0.894000,488.649860,-3634.101452,6690.800305,-3199.814711
0.894500,1207.443853,-5160.137815,221.654365,-2033.178366
0.895000,1926.237846,-3363.149274,2378.036345,-1762.226724
0.895500,5520.207813,-3003.751566,3096.830338,-684.035734
0.896000,1566.840850,-3363.149274,2737.433341,-1762.226724
0.896500,488.649860,-2915.306036,2018.639348,-2481.020718
0.897000,1926.237846,-2284.956149,7768.991295,-1762.226724
0.897500,488.649860,-5790.487701,2378.036345,-1762.226724
0.898000,2285.634843,-2284.956149,3096.830338,-2121.623721
0.898500,488.649860,1038.068754,3008.384984,-2121.623721
0.899000,488.649860,-2555.908328,2737.433341,-1043.432731
0.899500,129.252863,-2915.306036,3456.227335,-3559.211708
0.900000,129.252863,-2915.306036,7050.197302,-2481.020718
0.900500,-230.144134,-5431.089993,3096.830338,-2121.623721
0.901000,-589.541131,-4352.896869,3096.830338,-1762.226724
0.901500,-2386.526114,-5071.692285,2737.433341,-3559.211708
0.902000,-2745.923111,-2915.306036,2737.433341,-1043.432731
0.902500,-1308.335124,-3634.101452,1659.242351,-3918.608705
0.903000,-589.541131,-2915.306036,-1215.933622,-3470.766353
0.903500,848.046856,-2915.306036,2737.433341,-3559.211708
0.904000,2645.031840,-5160.137815,2737.433341,-3199.814711
0.904500,-948.938127,-2196.510620,3456.227335,-3918.608705
0.905000,2285.634843,-2284.956149,3815.624332,-3918.608705
0.905500,1926.237846,-2644.353857,3456.227335,-4637.402698
0.906000,848.046856,-2196.510620,4175.021328,-3559.211708
0.906500,488.649860,-2555.908328,6331.403309,-1762.226724
0.907000,1926.237846,-3003.751566,3096.830338,-1043.432731
0.907500,129.252863,1397.466462,3008.384984,-1402.829728
0.908000,5520.207813,-3363.149274,2378.036345,-1402.829728
0.908500,-230.144134,-2555.908328,2737.433341,34.758259
0.909000,848.046856,-2555.908328,2737.433341,-1762.226724
0.909500,848.046856,-2555.908328,6690.800305,-2121.623721
0.910000,1566.840850,-3722.546982,940.448358,-2033.178366
0.910500,1566.840850,-4441.342398,1659.242351,-1762.226724
0.911000,-589.541131,-5071.692285,1659.242351,-2840.417715
0.911500,-948.938127,-3274.703744,2378.036345,-1762.226724
0.912000,-589.541131,-2915.306036,3815.624332,-3918.608705
0.912500,488.649860,-1837.112911,-137.742632,-4548.957343
0.913000,-230.144134,-2196.510620,5612.609315,-4637.402698
0.913500,-230.144134,-4352.896869,2737.433341,-3918.608705
0.914000,4442.016823,-2644.353857,2737.433341,-2481.020718
0.914500,-230.144134,-3274.703744,2737.433341,-1762.226724
0.915000,848.046856,-2915.306036,3815.624332,2550.537236
0.915500,400.204505,-3274.703744,221.654365,-595.590380
0.916000,1566.840850,-3003.751566,6331.403309,-684.035734
0.916500,488.649860,-2915.306036,2378.036345,-684.035734
0.917000,848.046856,-3634.101452,4175.021328,34.758259
0.917500,2645.031840,-2644.353857,3815.624332,-1043.432731
0.918000,129.252863,-2555.908328,3096.830338,3988.125223
0.918500,759.601502,-2555.908328,2378.036345,-1762.226724
0.919000,2645.031840,-3003.751566,2018.639348,-3199.814711
0.919500,3363.825833,-3003.751566,2737.433341,-1762.226724
0.920000,2645.031840,-5160.137815,3456.227335,-2481.020718
0.920500,-948.938127,-2196.510620,3096.830338,-2481.020718
0.921000,3004.428837,-3003.751566,3456.227335,-4278.005701
0.921500,-948.938127,-2915.306036,3815.624332,-4996.799695
0.922000,-589.541131,-2915.306036,940.448358,-3470.766353
0.922500,-230.144134,-2196.510620,2378.036345,-3199.814711
0.923000,1207.443853,-2284.956149,3815.624332,-3199.814711
0.923500,-948.938127,-3274.703744,3815.624332,-2481.020718
0.924000,848.046856,-4352.896869,3815.624332,-1762.226724
0.924500,1926.237846,-3003.751566,4175.021328,-4278.005701
0.925000,1566.840850,-3003.751566,5253.212318,-2840.417715
0.925500,848.046856,-2196.510620,3456.227335,-2840.417715
0.926000,488.649860,-758.919787,3456.227335,-3559.211708
0.926500,848.046856,-2915.306036,3815.624332,-3559.211708
0.927000,-1667.732121,-3274.703744,3456.227335,-3559.211708
0.927500,129.252863,-3274.703744,2737.433341,-4996.799695
0.928000,129.252863,-3993.499160,3096.830338,-2840.417715
0.928500,-589.541131,-3634.101452,8128.388292,-3559.211708
0.929000,-1667.732121,-3634.101452,3815.624332,-3199.814711
0.929500,-2386.526114,-2555.908328,3815.624332,-2121.623721
0.930000,-1308.335124,-1837.112911,4534.418325,-1762.226724
0.930500,1566.840850,-2284.956149,4893.815322,-4996.799695
0.931000,-2386.526114,-2196.510620,5253.212318,-2481.020718
0.931500,-589.541131,-3274.703744,4175.021328,-2481.020718
0.932000,1926.237846,-3003.751566,2018.639348,-2481.020718
0.932500,3723.222830,-2284.956149,4175.021328,-1762.226724
0.933000,6239.001807,-3003.751566,4175.021328,-2121.623721
0.933500,3363.825833,-3003.751566,4534.418325,-2121.623721
0.934000,1566.840850,-3003.751566,4893.815322,-1402.829728
0.934500,488.649860,-3274.703744,7409.594299,-1762.226724
0.935000,129.252863,-3274.703744,2018.639348,-1402.829728
0.935500,848.046856,-6418.029793,-317.441131,-2931.670858
0.936000,3184.127335,-6418.029793,760.749860,-1494.082871
0.936500,3902.921328,-6058.632085,41.955866,-1134.685875
0.937000,4262.318325,-308.268754,-1395.632121,-775.288878
0.937500,2465.333341,-4261.643544,-676.838127,-415.891881
0.938000,6778.097302,-3542.848128,-1036.235124,-415.891881
0.938500,4621.715322,-3902.245836,-317.441131,-3650.464852
0.939000,3543.524332,-3183.450420,-2114.426114,-2212.876865
0.939500,3543.524332,-2105.257295,760.749860,-415.891881
0.940000,3902.921328,-3183.450420,41.955866,-1134.685875
0.940500,4981.112318,-1745.859587,-317.441131,-415.891881
0.941000,8215.685289,-667.666462,401.352863,-1494.082871
0.941500,2824.730338,-1386.461879,2557.734843,573.853754
0.942000,3543.524332,-2824.052712,7589.292797,-1223.131229
0.942500,3184.127335,-2105.257295,2917.131840,-504.337236
0.943000,3184.127335,-308.268754,1120.146856,-415.891881
0.943500,2105.936345,-3183.450420,1838.940850,-144.940239
0.944000,7856.288292,-3902.245836,1838.940850,-863.734233
0.944500,2105.936345,-3542.848128,2557.734843,-1223.131229
0.945000,3902.921328,-2464.655003,3276.528837,-863.734233
0.945500,3902.921328,-2105.257295,3635.925833,-504.337236
0.946000,4262.318325,2207.515203,-1484.077475,-1134.685875
0.946500,4621.715322,-1745.859587,-317.441131,-415.891881
0.947000,9293.876279,-308.268754,-317.441131,-4009.861848
0.947500,4262.318325,-1027.064171,-1395.632121,-1853.479868
0.948000,4262.318325,-2105.257295,-1395.632121,2459.284092
0.948500,3814.475974,-1745.859587,-1036.235124,-1494.082871
0.949000,3543.524332,-1745.859587,-676.838127,-1494.082871
0.949500,3543.524332,-6777.427502,41.955866,-1853.479868
0.950000,7496.891295,-5339.836669,760.749860,-1853.479868
0.950500,2465.333341,-4621.041253,3635.925833,-3379.513210
0.951000,3184.127335,-4621.041253,5792.307813,933.250751
0.951500,3543.524332,-3183.450420,8667.483787,-2301.322220
0.952000,3184.127335,-5339.836669,3635.925833,1027.311684
0.952500,928.068844,315.061646,1200.168844,1024.503895
0.953000,930.876633,316.465543,1200.168844,1035.735051
0.953500,930.876633,316.465543,1187.533793,1035.735051
0.954000,929.472738,306.638262,1198.764949,1034.331156
0.954500,930.876633,317.869441,1197.361055,1034.331156
0.955000,926.664949,313.657749,1197.361055,1034.331156
0.955500,926.664949,315.061646,1197.361055,1027.311684
0.956000,928.068844,323.485030,1190.341582,1031.523367
0.956500,929.472738,324.888927,1198.764949,1034.331156
0.957000,928.068844,338.927900,1195.957160,1035.735051
0.957500,933.684422,316.465543,1198.764949,1034.331156
0.958000,935.088316,327.696722,1200.168844,1032.927262
0.958500,928.068844,326.292824,1200.168844,1052.581785
0.959000,929.472738,324.888927,1202.976633,1037.138945
0.959500,929.472738,322.081132,1194.553266,1037.138945
0.960000,925.261055,333.312311,1204.380527,1034.331156
0.960500,918.241582,327.696722,1202.976633,1037.138945
0.961000,921.049371,310.849954,1202.976633,1032.927262
0.961500,919.645477,306.638262,1204.380527,1025.907789
0.962000,922.453266,306.638262,1202.976633,1035.735051
0.962500,925.261055,306.638262,1195.957160,1035.735051
0.963000,926.664949,326.292824,1205.784422,1034.331156
0.963500,926.664949,326.292824,1202.976633,1035.735051
0.964000,918.241582,315.061646,1204.380527,1038.542840
0.964500,936.492211,315.061646,1202.976633,1025.907789
0.965000,928.068844,316.465543,1205.784422,1032.927262
0.965500,929.472738,317.869441,1208.592211,1034.331156
0.966000,928.068844,327.696722,1200.168844,1035.735051
0.966500,923.857160,331.908414,1205.784422,1031.523367
0.967000,914.029899,315.061646,1205.784422,1030.119473
0.967500,922.453266,309.446057,1204.380527,1034.331156
0.968000,919.645477,310.849954,1205.784422,1024.503895
0.968500,918.241582,310.849954,1219.823367,1035.735051
0.969000,916.837688,315.061646,1221.227262,1032.927262
0.969500,918.241582,333.312311,1205.784422,1035.735051
0.970000,908.414321,316.465543,1205.784422,1039.946734
0.970500,923.857160,322.081132,1207.188316,1052.581785
0.971000,926.664949,323.485030,1205.784422,1034.331156
0.971500,928.068844,323.485030,1204.380527,1035.735051
0.972000,925.261055,319.273338,1222.631156,1034.331156
0.972500,929.472738,317.869441,1205.784422,1032.927262
0.973000,933.684422,317.869441,1207.188316,1034.331156
0.973500,922.453266,-851.577008,-1305.782871,3627.324332
0.974000,-2205.423721,948.219327,-1034.831229,392.751361
0.974500,-2116.978366,2026.412452,-675.434233,3627.324332
0.975000,-2564.820718,-848.769214,-2743.370858,3986.721328
0.975500,-2564.820718,-848.769214,-3462.164852,3267.927335
0.976000,-2924.217715,-4083.348588,-586.988878,3986.721328
0.976500,-4721.202698,-4442.746296,-946.385875,2189.736345
0.977000,-767.835734,-3723.950879,-946.385875,9018.279282
0.977500,-1127.232731,-2645.757755,-946.385875,3627.324332
0.978000,-408.438738,-1926.962338,1928.790099,3179.481980
0.978500,-767.835734,-1926.962338,131.805115,4346.118325
0.979000,-408.438738,-489.371506,131.805115,4346.118325
0.979500,-49.041741,-129.973797,131.805115,3627.324332
0.980000,-2205.423721,948.219327,-316.037236,2908.530338
0.980500,-4002.408705,-848.769214,131.805115,3267.927335
0.981000,-1846.026724,-2645.757755,-2383.973862,3267.927335
0.981500,-2564.820718,-5161.541712,1209.996105,3267.927335
0.982000,-2924.217715,-489.371506,850.599109,3627.324332
0.982500,-4721.202698,-2286.360047,1928.790099,2820.084984
0.983000,-4361.805701,-2645.757755,1928.790099,304.306007
0.983500,-2835.772360,-3364.553171,2288.187096,2101.290990
0.984000,-2564.820718,-3364.553171,2647.584092,3538.878977
0.984500,-2564.820718,-5161.541712,1569.393102,4257.672970
0.985000,-2564.820718,-6239.734837,1209.996105,3627.324332
0.985500,-767.835734,-4442.746296,1569.393102,3538.878977
0.986000,-4002.408705,-3005.155463,2288.187096,8570.436931
0.986500,-1846.026724,-1567.564630,1928.790099,2820.084984
0.987000,-2924.217715,-848.769214,1209.996105,3986.721328
0.987500,-3283.614711,-848.769214,1209.996105,4346.118325
0.988000,-4361.805701,-1926.962338,2647.584092,3179.481980
0.988500,-4002.408705,-1567.564630,2647.584092,3898.275974
0.989000,-6518.187682,-2286.360047,1928.790099,4257.672970
0.989500,-4002.408705,-1926.962338,1209.996105,4346.118325
0.990000,-3643.011708,-2286.360047,1209.996105,3986.721328
0.990500,-4002.408705,-1208.166922,4803.966073,3179.481980
0.991000,-2205.423721,-1208.166922,-946.385875,3627.324332
0.991500,-3283.614711,-4802.144004,1928.790099,4976.466964
0.992000,2107.340239,3555.256609,-1214.529728,-1583.932121
0.992500,578.499109,3643.702139,-1573.926724,213.052863
0.993000,-499.691881,3643.702139,-1933.323721,3807.022830
0.993500,130.656757,2924.906722,-5167.896691,1650.640850
0.994000,490.053754,2924.906722,-1933.323721,-146.344134
0.994500,-140.294885,1487.315889,-1933.323721,-1224.535124
0.995000,937.896105,1487.315889,-1214.529728,-146.344134
0.995500,1656.690099,2477.063484,-1214.529728,2010.037846
0.996000,-1666.328226,2206.111306,-1933.323721,-146.344134
0.996500,219.102112,2924.906722,-3011.514711,2369.434843
0.997000,490.053754,2924.906722,2738.837236,3718.577475
0.997500,490.053754,-1387.865776,-3282.466353,4525.816823
0.998000,849.450751,4362.497555,-3370.911708,4885.213820
0.998500,-228.740239,2206.111306,-3370.911708,5244.610817
0.999000,-228.740239,2565.509014,-2652.117715,2728.831840
0.999500,4084.023721,3195.858901,-3011.514711,2010.037846
1.000000,2287.038738,2477.063484,3817.028226,124.607508
1.000500,2375.484092,680.074943,-1214.529728,572.449860
1.001000,1656.690099,3195.858901,-1933.323721,-505.741131
1.001500,2016.087096,3195.858901,-2652.117715,-1943.329117
1.002000,1656.690099,3195.858901,-3730.308705,-1224.535124
1.002500,4891.263069,3195.858901,-4808.499695,3447.625833
1.003000,130.656757,2924.906722,-5886.690685,-3021.520107
1.003500,578.499109,2565.509014,2020.043243,-1312.980479
1.004000,937.896105,5081.292971,-2652.117715,-1224.535124
1.004500,-140.294885,-1387.865776,-2563.672360,-1583.932121
1.005000,937.896105,1127.918181,-1573.926724,-1224.535124
1.005500,-140.294885,49.725057,-1485.481370,-1943.329117
1.006000,-1218.485875,49.725057,-47.893383,1650.640850
1.006500,-588.137236,409.122765,-495.735734,3807.022830
1.007000,-588.137236,-1028.468068,-1126.084373,2728.831840
1.007500,-228.740239,-1028.468068,-1485.481370,931.846856
1.008000,-859.088878,2924.906722,-1573.926724,-865.138127
1.008500,-3015.470858,2924.906722,-1214.529728,2369.434843
1.009000,-947.534233,2924.906722,-1933.323721,-3380.917104
1.009500,-499.691881,2924.906722,2020.043243,-2391.171469
1.010000,-140.294885,3643.702139,-3370.911708,-2302.726114
1.010500,-140.294885,3284.304430,-3370.911708,-1224.535124
1.011000,1656.690099,2117.665776,-2652.117715,-146.344134
1.011500,-1937.279868,1487.315889,-2292.720718,572.449860
1.012000,578.499109,1846.713598,-1933.323721,-2302.726114
1.012500,937.896105,1127.918181,941.852252,213.052863
1.013000,937.896105,1487.315889,-4089.705701,1650.640850
1.013500,-228.740239,1846.713598,-3370.911708,1650.640850
1.014000,-1666.328226,768.520473,-4808.499695,1650.640850
1.014500,3005.832731,1398.870360,-3730.308705,931.846856
1.015000,-140.294885,2565.509014,-2652.117715,3807.022830
1.015500,-1666.328226,2565.509014,-3011.514711,-146.344134
1.016000,-1218.485875,3284.304430,941.852252,931.846856
1.016500,-1218.485875,4362.497555,-3011.514711,2010.037846
1.017000,-588.137236,1846.713598,-2292.720718,931.846856
1.017500,-1577.882871,1846.713598,-1573.926724,-1224.535124
1.018000,578.499109,1127.918181,-495.735734,2369.434843
1.018500,849.450751,2206.111306,-495.735734,572.449860
1.019000,578.499109,1487.315889,-495.735734,-865.138127
1.019500,-140.294885,2565.509014,-136.338738,-1583.932121
1.020000,-1577.882871,2206.111306,-136.338738,-1583.932121
1.020500,937.896105,2565.509014,-495.735734,-1943.329117
1.021000,578.499109,3284.304430,-495.735734,-2662.123111
1.021500,1656.690099,2477.063484,-3011.514711,-1583.932121
1.022000,1656.690099,-757.515889,-1126.084373,-1583.932121
1.022500,578.499109,409.122765,-855.132731,-865.138127
1.023000,937.896105,2206.111306,-855.132731,-2302.726114
1.023500,937.896105,1846.713598,-1933.323721,-3380.917104
1.024000,-2296.676865,1846.713598,-5167.896691,-1583.932121
1.024500,-140.294885,1846.713598,-3730.308705,-1224.535124
1.025000,219.102112,1487.315889,-1933.323721,-1583.932121
1.025500,578.499109,-669.070360,-2204.275363,-2302.726114
1.026000,-140.294885,1487.315889,-2292.720718,-3021.520107
1.026500,-1577.882871,1127.918181,-3011.514711,2369.434843
1.027000,490.053754,1846.713598,-3011.514711,-505.741131
1.027500,219.102112,1487.315889,582.455256,-146.344134
1.028000,219.102112,1846.713598,-4449.102698,-1583.932121
1.028500,-499.691881,2206.111306,-2652.117715,-1943.329117
1.029000,-1218.485875,1846.713598,-3011.514711,-2302.726114
1.029500,2016.087096,2117.665776,-1573.926724,-3021.520107
1.030000,-2296.676865,1846.713598,-1214.529728,-1583.932121
1.030500,-859.088878,768.520473,-136.338738,-1583.932121
1.031000,-1577.882871,1487.315889,-2652.117715,-505.741131
1.031500,-1218.485875,1846.713598,-1573.926724,-146.344134
1.032000,-499.691881,5440.690680,-1573.926724,-146.344134
1.032500,-499.691881,1127.918181,-1573.926724,1650.640850
1.033000,2646.435734,680.074943,-1573.926724,1650.640850
1.033500,-1666.328226,1487.315889,-1573.926724,-1943.329117
1.034000,-140.294885,1127.918181,-855.132731,213.052863
1.034500,219.102112,1127.918181,-2292.720718,572.449860
1.035000,937.896105,49.725057,-3641.863350,1650.640850
1.035500,490.053754,1487.315889,-1933.323721,-865.138127
1.036000,-1218.485875,1487.315889,-1573.926724,213.052863
1.036500,-859.088878,2565.509014,-1573.926724,-3380.917104
1.037000,-140.294885,1487.315889,-1573.926724,-1583.932121
1.037500,-499.691881,1846.713598,-3011.514711,-1583.932121
