1.686217
1.705767
1.710655
1.730205
1.710655
1.710655
1.686217
1.705767
1.700880
1.725318
1.715543
1.730205
1.720430
1.705767
1.710655
1.700880
1.700880
1.700880
1.686217
1.676442
1.652004
1.666667
1.642229
1.632454
1.632454
1.647116
1.647116
1.656891
1.642229
1.632454
1.627566
1.627566
1.632454
1.642229
1.652004
1.652004
1.661779
1.661779
1.676442
1.686217
1.691105
1.681329
1.710655
1.705767
1.710655
1.715543
1.695992
1.695992
1.700880
16.353861
1.691105
1.710655
1.695992
1.686217
1.671554
1.681329
1.661779
1.656891
1.642229
1.637341
1.622678
1.612903
1.652004
1.671554
1.647116
1.661779
1.642229
1.632454
1.642229
1.652004
1.637341
1.647116
1.652004
1.661779
1.661779
1.666667
1.661779
1.661779
1.666667
1.656891
1.656891
1.652004
1.666667
1.695992
1.695992
1.681329
1.686217
1.676442
1.686217
1.710655
1.710655
1.715543
1.715543
1.700880
1.695992
1.710655
1.715543
1.710655
1.695992
1.695992
1.671554
1.656891
1.647116
1.671554
1.681329
1.676442
1.686217
1.695992
1.681329
1.666667
1.666667
1.700880
1.681329
1.671554
1.656891
1.642229
1.642229
1.647116
1.652004
1.656891
1.656891
1.656891
1.666667
1.666667
1.686217
1.700880
1.739980
1.730205
1.744868
1.749756
1.769306
1.764418
1.769306
1.744868
1.730205
1.725318
1.720430
1.730205
1.720430
1.715543
1.700880
1.700880
1.705767
1.700880
1.686217
1.700880
1.710655
1.686217
1.671554
1.656891
1.666667
1.661779
1.661779
1.647116
1.632454
1.632454
1.617791
1.617791
1.627566
1.627566
1.652004
1.652004
1.656891
1.671554
1.691105
1.749756
1.730205
1.730205
1.720430
1.754643
1.730205
1.739980
1.720430
1.720430
1.720430
1.730205
1.735093
1.725318
1.715543
1.705767
1.705767
1.686217
1.686217
1.681329
1.686217
1.686217
1.681329
1.652004
1.642229
1.661779
1.661779
1.656891
1.647116
1.642229
1.642229
1.642229
1.647116
1.656891
1.671554
1.676442
1.686217
1.700880
1.695992
1.700880
1.730205
1.754643
1.749756
1.730205
1.730205
1.739980
1.754643
1.759531
1.744868
1.730205
1.739980
1.730205
1.725318
1.720430
1.710655
1.700880
1.710655
1.705767
1.691105
1.700880
1.710655
1.686217
1.661779
1.642229
1.652004
1.666667
1.666667
1.647116
1.632454
1.637341
1.642229
1.647116
1.656891
1.661779
1.666667
1.666667
1.671554
1.681329
1.686217
1.715543
1.725318
1.710655
1.715543
1.715543
1.710655
1.730205
1.730205
1.715543
1.720430
1.715543
1.710655
1.710655
1.700880
1.686217
1.686217
1.681329
1.676442
1.666667
1.656891
1.676442
1.676442
1.642229
1.627566
1.632454
1.666667
1.676442
1.656891
1.642229
1.627566
1.622678
1.632454
1.637341
1.652004
1.661779
1.676442
1.671554
1.676442
1.681329
1.695992
1.720430
1.725318
1.705767
1.705767
1.705767
1.720430
1.735093
1.730205
1.725318
1.695992
1.691105
1.686217
1.691105
1.686217
1.676442
1.681329
1.686217
1.691105
1.705767
1.710655
1.710655
1.686217
1.656891
1.676442
1.671554
1.676442
1.686217
1.661779
1.642229
1.632454
1.632454
1.632454
1.632454
1.652004
1.652004
1.661779
1.671554
1.686217
1.700880
1.764418
1.827957
1.735093
1.715543
1.720430
1.710655
1.710655
1.705767
1.691105
1.691105
1.695992
1.700880
1.700880
1.695992
1.695992
1.700880
1.705767
1.681329
1.681329
1.695992
1.695992
1.691105
1.661779
1.642229
1.652004
1.666667
1.661779
1.656891
1.647116
1.642229
1.632454
1.637341
1.652004
1.656891
1.676442
1.671554
1.676442
1.686217
1.710655
1.769306
1.788856
1.779081
1.749756
1.730205
1.691105
1.676442
1.661779
1.642229
1.652004
1.671554
1.686217
1.705767
1.710655
1.715543
1.710655
1.705767
1.715543
1.710655
1.715543
1.725318
1.695992
1.691105
1.676442
1.666667
1.686217
1.666667
1.656891
1.656891
1.656891
1.647116
1.652004
1.647116
1.656891
1.671554
1.671554
1.700880
1.710655
1.730205
1.754643
1.759531
1.754643
1.754643
1.749756
1.754643
1.735093
1.730205
1.715543
1.730205
1.735093
1.730205
1.730205
1.715543
1.705767
1.720430
1.700880
1.691105
1.700880
1.695992
1.700880
1.666667
1.666667
1.632454
1.632454
1.647116
1.637341
1.637341
1.632454
1.617791
1.617791
1.637341
1.656891
1.661779
1.666667
1.661779
1.666667
1.666667
1.671554
1.700880
1.730205
1.710655
1.710655
1.705767
1.725318
1.749756
1.725318
1.720430
1.715543
1.720430
1.710655
1.695992
1.681329
1.676442
1.661779
1.666667
1.647116
1.637341
1.617791
1.666667
1.656891
1.622678
1.608016
1.612903
1.637341
1.666667
1.661779
1.652004
1.637341
1.642229
1.647116
1.652004
1.656891
1.661779
1.666667
1.671554
1.671554
1.686217
1.691105
1.710655
1.715543
1.686217
1.671554
1.700880
1.715543
1.720430
1.725318
1.715543
1.720430
1.720430
1.715543
1.710655
1.695992
1.666667
1.671554
1.681329
1.676442
1.666667
1.681329
1.676442
1.661779
1.656891
1.647116
1.656891
1.656891
1.666667
1.647116
1.632454
1.627566
1.622678
1.637341
1.656891
1.671554
1.671554
1.686217
1.691105
1.686217
1.686217
1.691105
1.725318
1.705767
1.705767
1.715543
1.739980
1.744868
1.725318
1.720430
1.715543
1.720430
1.720430
1.705767
1.695992
1.691105
1.700880
1.686217
1.676442
1.666667
1.652004
1.666667
1.637341
1.622678
1.608016
1.681329
1.666667
1.622678
1.612903
1.608016
1.608016
1.603128
1.632454
1.632454
1.642229
1.647116
1.647116
1.661779
1.666667
1.691105
1.710655
1.730205
1.730205
1.739980
1.754643
1.769306
1.754643
1.735093
1.725318
1.720430
1.730205
1.735093
1.735093
1.725318
1.710655
1.705767
1.695992
1.691105
1.681329
1.681329
1.686217
1.666667
1.666667
1.642229
1.652004
1.661779
1.652004
1.647116
1.637341
1.632454
1.637341
1.642229
1.652004
1.661779
1.666667
1.671554
1.666667
1.676442
1.691105
1.705767
1.705767
1.720430
1.705767
1.715543
1.735093
1.725318
1.744868
1.705767
1.715543
1.710655
1.725318
1.720430
1.710655
1.695992
1.691105
1.691105
1.695992
1.681329
1.676442
1.661779
1.671554
1.666667
1.642229
1.637341
1.676442
1.656891
1.652004
1.637341
1.637341
1.632454
1.637341
1.642229
1.652004
1.661779
1.666667
1.681329
1.681329
1.686217
1.695992
1.715543
1.681329
1.695992
1.700880
1.705767
1.715543
1.720430
1.720430
1.710655
1.730205
1.730205
1.730205
1.720430
1.710655
1.700880
1.695992
1.691105
1.686217
1.671554
1.656891
1.627566
1.622678
1.612903
1.608016
1.656891
1.656891
1.676442
1.666667
1.666667
1.656891
1.656891
1.666667
1.661779
1.661779
1.671554
1.666667
1.656891
1.632454
1.627566
1.637341
1.647116
1.642229
1.671554
1.686217
1.695992
1.705767
1.700880
1.686217
1.691105
1.691105
1.705767
1.700880
1.715543
1.720430
1.730205
1.730205
1.725318
1.715543
1.730205
1.725318
1.720430
1.705767
1.676442
1.676442
1.691105
1.666667
1.652004
1.652004
1.666667
1.661779
1.681329
1.695992
1.705767
1.695992
1.695992
1.695992
1.695992
1.725318
1.749756
1.764418
1.744868
1.735093
1.754643
1.759531
1.735093
1.735093
1.720430
1.720430
1.725318
1.725318
1.725318
1.710655
1.715543
1.695992
1.686217
1.681329
1.676442
1.671554
1.681329
1.671554
1.642229
1.622678
1.652004
1.627566
1.652004
1.642229
1.627566
1.632454
1.622678
1.642229
1.652004
1.671554
1.681329
1.681329
1.681329
1.686217
1.681329
1.700880
1.705767
1.710655
1.705767
1.710655
1.725318
1.730205
1.735093
1.730205
1.730205
1.725318
1.730205
1.720430
1.710655
1.691105
1.686217
1.691105
1.676442
1.676442
1.671554
1.647116
1.642229
1.608016
1.617791
1.617791
1.676442
1.676442
1.647116
1.627566
1.622678
1.632454
1.637341
1.656891
1.656891
1.676442
1.681329
1.681329
1.691105
1.691105
1.705767
1.695992
1.700880
1.681329
1.676442
1.705767
1.720430
1.715543
1.715543
1.705767
1.730205
1.725318
1.710655
1.705767
1.710655
1.710655
1.705767
1.710655
1.691105
1.676442
1.686217
1.676442
1.632454
1.612903
1.617791
1.676442
1.656891
1.647116
1.632454
1.632454
1.632454
1.642229
1.656891
1.666667
1.676442
1.676442
1.666667
1.661779
1.661779
1.700880
1.735093
1.730205
1.720430
1.730205
1.739980
1.735093
1.739980
1.730205
1.725318
1.730205
1.739980
1.744868
1.725318
1.705767
1.705767
1.686217
1.676442
1.681329
1.676442
1.691105
1.671554
1.652004
1.647116
0.014663
0.205279
1.666667
1.691105
1.671554
1.656891
1.632454
1.632454
1.637341
1.637341
1.647116
1.656891
1.661779
1.661779
1.676442
1.686217
1.695992
1.720430
1.715543
1.710655
1.710655
1.715543
1.730205
1.725318
1.720430
1.715543
1.720430
1.715543
1.715543
1.710655
1.700880
1.681329
1.671554
1.661779
1.656891
1.647116
1.656891
1.671554
1.656891
1.647116
1.637341
1.652004
1.730205
1.652004
1.617791
1.617791
1.608016
1.617791
1.627566
1.652004
1.661779
1.676442
1.681329
1.691105
1.710655
1.710655
1.739980
1.725318
1.725318
1.715543
1.725318
1.735093
1.744868
1.735093
1.730205
1.730205
1.739980
1.735093
1.739980
1.725318
1.715543
1.705767
1.710655
1.700880
1.686217
1.676442
1.691105
1.686217
1.656891
1.652004
1.656891
1.647116
1.681329
1.642229
1.637341
1.637341
1.642229
1.652004
1.656891
1.666667
1.671554
1.666667
1.671554
1.671554
1.676442
1.715543
1.695992
1.710655
1.671554
1.612903
1.622678
1.593353
1.617791
1.598240
1.627566
1.676442
1.695992
1.710655
1.725318
1.739980
1.749756
1.759531
1.754643
1.739980
1.725318
1.730205
1.715543
1.691105
1.656891
1.686217
1.691105
1.691105
1.666667
1.647116
1.627566
1.612903
1.617791
1.617791
1.642229
1.666667
1.681329
1.691105
1.715543
1.730205
1.730205
1.769306
1.744868
1.739980
1.739980
1.725318
1.730205
1.735093
1.720430
1.725318
1.720430
1.744868
1.735093
1.725318
1.720430
1.695992
1.700880
1.695992
1.695992
1.691105
1.676442
1.700880
1.686217
1.642229
1.622678
1.632454
1.642229
1.666667
1.637341
1.612903
1.612903
1.608016
1.622678
1.632454
1.647116
1.656891
1.671554
1.671554
1.681329
1.695992
1.710655
1.730205
1.749756
1.730205
1.739980
1.749756
1.744868
1.739980
1.730205
1.730205
1.735093
1.735093
1.730205
1.725318
1.715543
1.705767
1.691105
1.695992
1.695992
1.666667
1.715543
1.686217
1.656891
1.637341
1.676442
1.661779
1.661779
1.647116
1.627566
1.627566
1.612903
1.622678
1.637341
1.647116
1.652004
1.637341
1.637341
1.652004
1.647116
1.656891
1.666667
1.686217
1.686217
1.700880
1.705767
1.730205
1.735093
1.725318
1.715543
1.725318
1.735093
1.739980
1.730205
1.720430
1.725318
1.720430
1.720430
1.720430
1.710655
1.705767
1.681329
1.686217
1.656891
1.652004
1.695992
1.686217
1.652004
1.637341
1.637341
1.647116
1.652004
1.652004
1.666667
1.681329
1.691105
1.686217
1.686217
1.681329
1.695992
1.715543
1.710655
1.686217
1.671554
1.700880
1.700880
1.730205
1.715543
1.715543
1.725318
1.735093
1.739980
1.749756
1.739980
1.735093
1.725318
1.715543
1.700880
1.700880
1.705767
1.691105
1.700880
1.652004
1.656891
1.647116
1.656891
1.661779
1.642229
1.632454
1.627566
1.642229
1.652004
1.676442
1.691105
1.681329
1.695992
1.695992
1.695992
1.705767
1.720430
1.720430
1.744868
1.735093
1.735093
1.749756
1.754643
1.735093
1.725318
1.730205
1.735093
1.730205
1.720430
1.700880
1.700880
1.686217
1.681329
1.671554
1.666667
1.666667
1.676442
1.637341
1.637341
1.612903
1.622678
1.637341
1.637341
1.617791
1.603128
1.598240
1.612903
1.617791
1.642229
1.652004
1.656891
1.666667
1.661779
1.676442
1.691105
1.739980
1.788856
1.749756
1.739980
1.749756
1.715543
1.725318
1.720430
1.725318
1.739980
1.735093
1.739980
1.730205
1.715543
1.700880
1.705767
1.695992
1.691105
1.681329
1.681329
1.681329
1.691105
1.642229
1.647116
1.652004
1.666667
1.647116
1.637341
1.622678
1.622678
1.632454
1.642229
1.642229
1.661779
1.656891
1.652004
1.637341
1.627566
1.642229
1.671554
1.700880
1.793744
1.720430
1.695992
1.725318
1.744868
1.730205
1.730205
1.730205
1.730205
1.720430
1.715543
1.715543
1.695992
1.691105
1.686217
1.676442
1.652004
1.652004
1.666667
1.661779
1.647116
1.622678
1.637341
1.652004
1.676442
1.666667
1.656891
1.666667
1.671554
1.676442
1.676442
1.652004
1.656891
1.642229
1.656891
1.666667
1.686217
1.700880
1.739980
1.744868
1.730205
1.730205
1.730205
1.759531
1.739980
1.720430
1.710655
1.710655
1.710655
1.686217
1.676442
1.656891
1.652004
1.656891
1.671554
1.666667
1.666667
1.686217
1.686217
1.671554
1.647116
1.632454
1.642229
1.666667
1.642229
1.617791
1.617791
1.617791
1.632454
1.637341
1.652004
1.671554
1.686217
1.691105
1.695992
1.700880
1.715543
1.754643
1.715543
1.691105
1.686217
1.725318
1.710655
1.720430
1.720430
1.730205
1.720430
1.730205
1.744868
1.749756
1.749756
1.730205
1.720430
1.705767
1.691105
1.681329
1.691105
1.681329
1.681329
1.652004
1.642229
1.642229
1.656891
1.637341
1.627566
1.622678
1.608016
1.612903
1.627566
1.637341
1.647116
1.656891
1.652004
1.642229
1.637341
1.652004
1.671554
1.661779
1.661779
1.652004
1.676442
1.715543
1.735093
1.735093
1.735093
1.764418
1.769306
1.764418
1.764418
1.749756
1.735093
1.730205
1.725318
1.720430
1.710655
1.744868
1.705767
1.676442
1.671554
1.642229
1.661779
1.676442
1.671554
1.652004
1.647116
1.632454
1.632454
1.617791
1.627566
1.632454
1.647116
1.656891
1.666667
1.681329
1.705767
1.744868
1.744868
1.754643
1.744868
1.735093
1.779081
1.730205
1.710655
1.710655
1.710655
1.715543
1.715543
1.710655
1.705767
1.700880
1.686217
1.676442
1.661779
1.642229
1.647116
1.671554
1.671554
1.642229
1.632454
1.656891
1.681329
1.671554
1.652004
1.642229
1.637341
1.627566
1.647116
1.652004
1.652004
1.671554
1.686217
1.691105
1.700880
1.705767
1.749756
1.769306
1.769306
1.749756
1.735093
1.725318
1.730205
1.744868
1.725318
1.715543
1.720430
1.730205
1.730205
1.705767
1.695992
1.691105
1.695992
1.691105
1.681329
1.671554
1.686217
1.661779
1.637341
1.617791
1.627566
1.637341
1.656891
1.647116
1.632454
1.622678
1.627566
1.622678
1.642229
1.642229
1.652004
1.661779
1.656891
1.647116
1.661779
1.691105
1.715543
1.720430
1.735093
1.725318
1.720430
1.769306
1.744868
1.735093
1.725318
1.759531
1.739980
1.739980
1.725318
1.710655
1.710655
1.700880
1.700880
1.700880
1.695992
1.691105
1.681329
1.666667
1.652004
1.676442
1.642229
1.656891
1.656891
1.627566
1.608016
1.617791
1.632454
1.647116
1.656891
1.666667
1.671554
1.676442
1.676442
1.686217
1.686217
1.720430
1.774194
1.715543
1.676442
1.710655
1.710655
1.720430
1.730205
1.725318
1.725318
1.730205
1.725318
1.730205
1.705767
1.695992
1.695992
1.700880
1.686217
1.671554
1.695992
1.715543
1.666667
1.608016
1.603128
1.612903
1.637341
1.627566
1.622678
1.612903
1.612903
1.598240
1.608016
1.632454
1.656891
1.661779
1.671554
1.671554
1.686217
1.695992
1.715543
1.730205
1.715543
1.720430
1.710655
1.744868
1.735093
1.725318
1.720430
1.715543
1.730205
1.735093
1.730205
1.725318
1.705767
1.695992
1.691105
1.681329
1.666667
1.642229
1.666667
1.647116
1.632454
1.622678
1.632454
1.656891
1.661779
1.647116
1.632454
1.632454
1.632454
1.647116
1.656891
1.661779
1.661779
1.661779
1.656891
1.656891
1.676442
1.700880
1.725318
1.720430
1.695992
1.710655
1.730205
1.730205
1.735093
1.735093
1.744868
1.769306
1.774194
1.774194
1.754643
1.730205
1.695992
1.691105
1.676442
1.666667
1.661779
1.661779
1.686217
1.671554
1.676442
1.691105
1.715543
1.681329
1.652004
1.637341
1.632454
1.632454
1.642229
1.652004
1.656891
1.666667
1.666667
1.656891
1.676442
1.700880
1.730205
1.783969
1.769306
1.744868
1.735093
1.749756
1.739980
1.739980
1.720430
1.720430
1.720430
1.720430
1.710655
1.705767
1.705767
1.691105
1.686217
1.671554
1.632454
1.608016
1.617791
1.642229
1.603128
1.598240
1.593353
1.617791
1.661779
1.671554
1.676442
1.676442
1.676442
1.681329
1.681329
1.676442
1.666667
1.661779
1.661779
1.671554
1.676442
1.695992
1.720430
1.769306
1.720430
1.730205
1.735093
1.730205
1.720430
1.725318
1.730205
1.720430
1.739980
1.739980
1.730205
1.725318
1.710655
1.686217
1.652004
1.632454
1.598240
1.622678
1.642229
1.642229
1.612903
1.622678
1.622678
1.647116
1.652004
1.647116
1.632454
1.622678
1.637341
1.652004
1.671554
1.686217
1.676442
1.676442
1.681329
1.686217
1.686217
1.720430
1.739980
1.725318
1.710655
1.720430
1.725318
1.715543
1.705767
1.691105
1.710655
1.720430
1.725318
1.730205
1.715543
1.695992
1.671554
1.656891
1.661779
1.661779
1.671554
1.686217
1.661779
1.671554
1.676442
1.666667
1.661779
1.681329
1.661779
1.647116
1.632454
1.627566
1.632454
1.647116
1.652004
1.656891
1.666667
1.666667
1.661779
1.676442
1.671554
1.691105
1.700880
1.700880
1.720430
1.720430
1.739980
1.715543
1.744868
1.739980
1.735093
1.735093
1.739980
1.720430
1.705767
1.705767
1.700880
1.695992
1.691105
1.691105
1.656891
1.700880
1.637341
1.612903
1.612903
1.632454
1.632454
1.622678
1.603128
1.603128
1.593353
1.617791
1.622678
1.637341
1.656891
1.666667
1.671554
1.671554
1.700880
1.720430
1.700880
1.710655
1.691105
1.691105
1.730205
1.725318
1.759531
1.744868
1.739980
1.739980
1.749756
1.749756
1.735093
1.735093
1.715543
1.705767
1.705767
1.700880
1.705767
1.700880
1.656891
1.656891
1.612903
1.598240
1.603128
1.612903
1.622678
1.612903
1.622678
1.632454
1.637341
1.652004
1.666667
1.661779
1.681329
1.676442
1.676442
1.705767
1.695992
1.847507
1.774194
1.691105
1.671554
1.681329
1.700880
1.695992
1.681329
1.681329
1.700880
1.705767
1.710655
1.705767
1.691105
1.705767
1.705767
1.700880
1.686217
1.686217
1.691105
1.715543
1.676442
1.637341
1.617791
1.622678
1.617791
1.647116
1.627566
1.612903
1.617791
1.627566
1.637341
1.647116
1.661779
1.637341
1.622678
1.622678
1.627566
1.652004
1.705767
1.705767
1.700880
1.710655
1.739980
1.739980
1.730205
1.725318
1.730205
1.739980
1.730205
1.725318
1.715543
1.691105
1.671554
1.676442
1.676442
1.666667
1.656891
1.681329
1.656891
1.647116
1.603128
1.598240
1.608016
1.627566
1.598240
1.564027
1.554252
1.568915
1.583578
1.598240
1.612903
1.637341
1.652004
1.661779
1.676442
1.686217
1.695992
1.720430
1.735093
1.725318
1.730205
1.759531
1.769306
1.754643
1.735093
1.735093
1.739980
1.744868
1.735093
1.739980
1.720430
1.700880
1.686217
1.691105
1.686217
1.671554
1.676442
1.676442
1.666667
1.637341
1.632454
1.656891
1.627566
1.637341
1.632454
1.622678
1.622678
1.617791
1.632454
1.642229
1.652004
1.661779
1.671554
1.671554
1.681329
1.710655
1.720430
1.730205
1.720430
1.725318
1.720430
1.759531
1.759531
1.749756
1.749756
1.749756
1.739980
1.749756
1.749756
1.735093
1.725318
1.715543
1.710655
1.710655
1.700880
1.686217
1.691105
1.695992
1.652004
1.627566
1.637341
1.642229
1.647116
1.632454
1.617791
1.622678
1.627566
1.642229
1.647116
1.666667
1.671554
1.647116
1.622678
1.632454
1.652004
1.695992
1.720430
1.735093
1.730205
1.735093
1.735093
1.764418
1.759531
1.764418
1.749756
1.769306
1.764418
1.749756
1.739980
1.710655
1.710655
1.710655
1.705767
1.705767
1.700880
1.720430
1.705767
1.686217
1.691105
1.720430
1.700880
1.695992
1.705767
1.691105
1.661779
1.730205
1.720430
1.735093
1.735093
1.715543
1.705767
1.700880
1.695992
1.686217
1.666667
1.691105
1.695992
1.666667
1.642229
1.617791
1.617791
1.598240
1.583578
1.573803
1.578690
1.593353
1.608016
1.632454
1.647116
1.661779
1.676442
1.681329
1.686217
1.695992
1.705767
1.710655
1.735093
1.695992
1.725318
1.720430
1.705767
1.720430
1.700880
1.700880
1.695992
1.700880
1.710655
1.715543
1.705767
1.695992
1.686217
1.686217
1.666667
1.632454
1.627566
1.642229
1.617791
1.608016
1.598240
1.622678
1.617791
1.647116
1.632454
1.637341
1.647116
1.647116
1.671554
1.676442
1.695992
1.691105
1.681329
1.676442
1.686217
1.715543
1.730205
1.744868
1.725318
1.700880
1.695992
1.710655
1.700880
1.725318
1.720430
1.715543
1.715543
1.686217
1.661779
1.652004
1.647116
1.652004
1.661779
1.666667
1.676442
1.691105
1.700880
1.686217
1.661779
1.652004
1.652004
1.681329
1.700880
1.666667
1.656891
1.642229
1.647116
1.647116
1.652004
1.652004
1.661779
1.666667
1.666667
1.661779
1.681329
1.700880
1.749756
1.725318
1.735093
1.730205
1.725318
1.720430
1.720430
1.715543
1.705767
1.720430
1.725318
1.715543
1.705767
1.691105
1.686217
1.676442
1.676442
1.666667
1.666667
1.691105
1.652004
1.622678
1.603128
1.598240
1.617791
1.637341
1.617791
1.612903
1.612903
1.612903
1.617791
1.637341
1.652004
1.661779
1.666667
1.666667
1.681329
1.691105
1.715543
1.739980
1.735093
1.735093
1.749756
1.754643
1.759531
1.744868
1.725318
1.720430
1.720430
1.720430
1.720430
1.720430
1.720430
1.691105
1.695992
1.705767
1.686217
1.676442
1.705767
1.661779
1.671554
1.622678
1.608016
1.608016
1.608016
1.608016
1.603128
1.608016
1.617791
1.637341
1.661779
1.666667
1.691105
1.700880
1.710655
1.705767
1.715543
1.720430
1.720430
1.739980
1.725318
1.715543
1.730205
1.730205
1.720430
1.710655
1.720430
1.720430
1.725318
1.725318
1.730205
1.720430
1.715543
1.710655
1.710655
1.700880
1.705767
1.705767
1.700880
1.671554
1.656891
1.642229
1.661779
1.652004
1.652004
1.632454
1.612903
1.608016
1.612903
1.622678
1.647116
1.671554
1.691105
1.681329
1.695992
1.705767
1.720430
1.725318
1.744868
1.735093
1.730205
1.725318
1.749756
1.754643
1.739980
1.735093
1.739980
1.744868
1.730205
1.715543
1.705767
1.691105
1.676442
1.691105
1.691105
1.691105
1.705767
1.700880
1.715543
1.671554
1.661779
1.656891
1.661779
1.647116
1.642229
1.617791
1.622678
1.622678
1.627566
1.642229
1.642229
1.642229
1.642229
1.647116
1.656891
1.666667
1.705767
1.739980
1.700880
1.700880
1.710655
1.715543
1.725318
1.725318
1.705767
1.710655
1.720430
1.715543
1.715543
1.705767
1.686217
1.686217
1.691105
1.691105
1.691105
1.686217
1.676442
1.695992
1.637341
1.622678
1.632454
1.647116
1.637341
1.627566
1.612903
1.617791
1.612903
1.627566
1.642229
1.642229
1.647116
1.652004
1.652004
1.656891
1.676442
1.700880
1.710655
1.695992
1.686217
1.700880
1.710655
1.720430
1.705767
1.676442
1.652004
1.656891
1.666667
1.671554
1.671554
1.666667
1.656891
1.666667
1.666667
1.666667
1.671554
1.676442
1.656891
1.612903
1.588465
1.598240
1.608016
1.593353
1.593353
1.593353
1.603128
1.617791
1.637341
1.642229
1.652004
1.671554
1.681329
1.686217
1.700880
1.720430
1.735093
1.744868
1.749756
1.739980
1.730205
1.759531
1.744868
1.744868
1.720430
1.725318
1.720430
1.720430
1.710655
1.695992
1.705767
1.686217
1.700880
1.720430
1.725318
1.700880
1.730205
1.666667
1.676442
1.622678
1.612903
1.588465
1.573803
1.573803
1.549365
1.534702
1.544477
1.568915
1.608016
1.637341
1.652004
1.671554
1.686217
1.691105
1.695992
1.710655
1.739980
1.730205
1.730205
1.735093
1.754643
1.754643
1.754643
1.735093
1.735093
1.744868
1.759531
1.759531
1.749756
1.739980
1.720430
1.715543
1.720430
1.686217
1.700880
1.695992
1.666667
1.676442
1.661779
1.652004
1.666667
1.686217
1.676442
1.656891
1.642229
1.637341
1.632454
1.642229
1.642229
1.661779
1.661779
1.661779
1.661779
1.681329
1.691105
1.676442
1.710655
1.720430
1.695992
1.700880
1.735093
1.710655
1.725318
1.705767
1.710655
1.715543
1.710655
1.700880
1.691105
1.686217
1.681329
1.671554
1.666667
1.661779
1.661779
1.671554
1.656891
1.627566
1.612903
1.617791
1.627566
1.637341
1.627566
1.603128
1.612903
1.612903
1.627566
1.627566
1.642229
1.652004
1.656891
1.652004
1.661779
1.671554
1.710655
1.705767
1.710655
1.700880
1.695992
1.730205
1.725318
1.715543
1.715543
1.715543
1.725318
1.730205
1.710655
1.720430
1.695992
1.681329
1.671554
1.676442
1.661779
1.666667
1.676442
1.676442
1.647116
1.622678
1.632454
1.666667
1.652004
1.637341
1.612903
1.603128
1.603128
1.617791
1.647116
1.652004
1.666667
1.676442
1.676442
1.671554
1.681329
1.700880
1.710655
1.705767
1.700880
1.695992
1.715543
1.686217
1.695992
1.686217
1.686217
1.710655
1.720430
1.735093
1.730205
1.705767
1.705767
1.710655
1.710655
1.710655
1.715543
1.681329
1.691105
1.681329
1.652004
1.652004
1.681329
1.681329
1.686217
1.661779
1.647116
1.637341
1.632454
1.656891
1.671554
1.681329
1.681329
1.666667
1.671554
1.681329
1.730205
1.754643
1.749756
1.725318
1.710655
1.730205
1.725318
1.730205
1.715543
1.710655
1.691105
1.671554
1.647116
1.647116
1.652004
1.642229
1.656891
1.676442
1.686217
1.671554
1.700880
1.705767
1.652004
1.603128
1.588465
1.593353
1.632454
1.612903
1.598240
1.598240
1.603128
1.608016
1.617791
1.632454
1.652004
1.661779
1.671554
1.681329
1.700880
1.744868
1.735093
1.754643
1.730205
1.735093
1.744868
1.739980
1.730205
1.700880
1.691105
1.695992
1.710655
1.720430
1.710655
1.695992
1.700880
1.695992
1.700880
1.691105
1.681329
1.686217
1.691105
1.652004
1.627566
1.622678
1.603128
1.647116
1.627566
1.608016
1.608016
1.608016
1.608016
1.608016
1.622678
1.637341
1.642229
1.647116
1.652004
1.656891
1.666667
1.725318
1.749756
1.695992
1.666667
1.676442
1.686217
1.710655
1.691105
1.666667
1.686217
1.671554
1.671554
1.671554
1.671554
1.676442
1.671554
1.681329
1.686217
1.681329
1.691105
1.735093
1.710655
1.681329
1.652004
1.681329
1.671554
1.681329
1.642229
1.622678
1.627566
1.637341
1.656891
1.676442
1.681329
1.681329
1.681329
1.686217
1.686217
1.686217
1.725318
1.735093
1.754643
1.730205
1.730205
1.735093
1.735093
1.739980
1.730205
1.725318
1.730205
1.725318
1.720430
1.715543
1.686217
1.681329
1.676442
1.666667
1.666667
1.671554
1.656891
1.681329
1.627566
1.632454
1.652004
1.676442
1.637341
1.622678
1.612903
1.598240
1.603128
1.617791
1.627566
1.647116
1.637341
1.642229
1.632454
1.627566
1.632454
1.661779
1.705767
1.695992
1.715543
1.686217
1.730205
1.715543
1.715543
1.700880
1.691105
1.700880
1.700880
1.700880
1.691105
1.695992
1.686217
1.681329
1.676442
1.671554
1.676442
1.691105
1.671554
1.656891
1.632454
1.637341
1.642229
1.642229
1.622678
1.603128
1.603128
1.612903
1.617791
1.647116
1.647116
1.666667
1.666667
1.676442
1.681329
1.681329
1.691105
1.720430
1.725318
1.705767
1.705767
1.725318
1.749756
1.735093
1.715543
1.705767
1.715543
1.715543
1.715543
1.705767
1.686217
1.676442
1.666667
1.671554
1.656891
1.661779
1.671554
1.681329
1.656891
1.632454
1.642229
1.730205
1.642229
1.617791
1.598240
1.578690
1.559140
1.559140
1.588465
1.603128
1.627566
1.647116
1.652004
1.676442
1.695992
1.725318
1.769306
1.764418
1.744868
1.730205
1.705767
1.754643
1.744868
1.725318
1.705767
1.715543
1.720430
1.710655
1.710655
1.700880
1.691105
1.691105
1.671554
1.666667
1.666667
1.681329
1.695992
1.686217
1.656891
1.617791
1.637341
1.647116
1.647116
1.617791
1.617791
1.603128
1.603128
1.612903
1.632454
1.637341
1.632454
1.656891
1.652004
1.656891
1.671554
1.705767
1.754643
1.700880
1.681329
1.676442
1.715543
1.715543
1.705767
1.691105
1.705767
1.715543
1.720430
1.720430
1.715543
1.710655
1.705767
1.695992
1.681329
1.671554
1.671554
1.700880
1.686217
1.637341
1.617791
1.720430
1.700880
1.612903
1.593353
1.578690
1.598240
1.608016
1.632454
1.637341
1.652004
1.656891
1.661779
1.666667
1.666667
1.676442
1.700880
1.715543
1.715543
1.695992
1.700880
1.700880
1.715543
1.725318
1.705767
1.691105
1.695992
1.686217
1.700880
1.686217
1.676442
1.671554
1.666667
1.666667
1.666667
1.671554
1.705767
1.671554
1.661779
1.622678
1.637341
1.647116
1.642229
1.617791
1.598240
1.593353
1.612903
1.632454
1.652004
1.671554
1.681329
1.695992
1.681329
1.676442
1.671554
1.715543
1.720430
1.720430
1.705767
1.700880
1.695992
1.671554
1.681329
1.671554
1.676442
1.691105
1.700880
1.700880
1.705767
1.700880
1.705767
1.695992
1.700880
1.681329
1.681329
1.676442
1.661779
1.612903
1.564027
1.598240
1.852395
1.686217
1.583578
1.573803
1.598240
1.637341
1.661779
1.686217
1.695992
1.715543
1.710655
1.710655
1.720430
1.720430
1.735093
1.739980
1.749756
1.725318
1.730205
1.730205
1.720430
1.730205
1.730205
1.710655
1.710655
1.735093
1.739980
1.744868
1.730205
1.720430
1.710655
1.710655
1.695992
1.686217
1.705767
1.715543
1.652004
1.642229
1.647116
1.661779
1.661779
1.656891
1.637341
1.632454
1.632454
1.637341
1.656891
1.666667
1.671554
1.676442
1.681329
1.681329
1.681329
1.686217
1.735093
1.774194
1.735093
1.720430
1.710655
1.705767
1.744868
1.715543
1.710655
1.710655
1.725318
1.730205
1.730205
1.730205
1.695992
1.710655
1.705767
1.695992
1.686217
1.691105
1.695992
1.671554
1.637341
1.617791
1.647116
1.637341
1.652004
1.598240
1.573803
1.588465
1.608016
1.642229
1.661779
1.661779
1.676442
1.666667
1.661779
1.661779
1.691105
1.710655
1.852395
1.847507
1.700880
1.671554
1.691105
1.710655
1.764418
1.730205
1.691105
1.691105
1.705767
1.710655
1.710655
1.695992
1.686217
1.681329
1.681329
1.671554
1.671554
1.691105
1.876833
1.774194
1.554252
1.539589
1.666667
1.891496
1.827957
1.520039
1.471163
1.466276
1.451613
1.441838
1.466276
1.505376
1.544477
1.578690
1.593353
1.622678
1.666667
1.808407
1.994135
1.764418
1.671554
1.715543
1.759531
1.754643
1.725318
1.710655
1.705767
1.725318
1.739980
1.749756
1.725318
1.715543
1.700880
1.681329
1.671554
1.676442
1.686217
1.686217
1.744868
1.656891
1.588465
1.813294
1.793744
1.666667
1.554252
1.534702
1.554252
1.573803
1.603128
1.632454
1.642229
1.661779
1.671554
1.681329
1.691105
1.720430
1.832845
1.964809
1.798631
1.652004
1.656891
1.891496
1.759531
1.695992
1.691105
1.695992
1.686217
1.705767
1.700880
1.686217
1.676442
1.686217
1.686217
1.681329
1.676442
1.705767
1.725318
1.710655
1.627566
1.593353
1.666667
1.725318
1.700880
1.583578
1.544477
1.554252
1.578690
1.608016
1.622678
1.632454
1.652004
1.652004
1.661779
1.656891
1.686217
1.901271
1.974585
1.823069
1.568915
1.564027
1.608016
1.847507
1.695992
1.632454
1.637341
1.661779
1.686217
1.686217
1.691105
1.681329
1.676442
1.676442
1.666667
1.661779
1.686217
1.764418
1.739980
1.632454
1.564027
1.647116
1.715543
1.715543
1.578690
1.515152
1.495601
1.510264
1.549365
1.578690
1.593353
1.612903
1.647116
1.661779
1.661779
1.695992
1.754643
1.935484
1.901271
1.676442
1.627566
1.749756
1.779081
1.710655
1.661779
1.656891
1.671554
1.691105
1.681329
1.686217
1.676442
1.671554
1.686217
1.681329
1.676442
1.666667
1.735093
1.769306
1.671554
1.588465
1.598240
1.959922
1.759531
1.568915
1.515152
1.534702
1.554252
1.578690
1.598240
1.617791
1.617791
1.647116
1.652004
1.656891
1.661779
1.774194
2.331378
2.282502
1.544477
1.412512
1.510264
1.632454
1.710655
1.769306
1.681329
1.691105
1.700880
1.705767
1.715543
1.695992
1.686217
1.691105
1.686217
1.661779
1.642229
1.700880
1.686217
1.652004
1.598240
1.603128
1.837732
1.911046
1.642229
1.500489
1.490714
1.529814
1.559140
1.588465
1.627566
1.632454
1.647116
1.652004
1.666667
1.681329
1.691105
1.793744
1.945259
1.764418
1.642229
1.647116
1.867058
1.803519
1.666667
1.627566
1.642229
1.666667
1.691105
1.710655
1.705767
1.691105
1.691105
1.681329
1.681329
1.676442
1.686217
1.759531
1.735093
1.603128
1.559140
1.725318
1.754643
1.632454
1.554252
1.549365
1.554252
1.588465
1.612903
1.627566
1.632454
1.642229
1.652004
1.666667
1.671554
1.695992
2.028348
1.950147
1.798631
1.608016
1.617791
1.666667
1.735093
1.730205
1.676442
1.686217
1.700880
1.710655
1.705767
1.700880
1.695992
1.695992
1.695992
1.691105
1.681329
1.695992
1.686217
1.671554
1.608016
1.573803
1.930596
2.306940
1.725318
1.427175
1.388074
1.456500
1.520039
1.573803
1.617791
1.642229
1.661779
1.661779
1.666667
1.686217
1.695992
1.774194
2.023460
2.135875
1.686217
1.598240
1.642229
1.715543
1.642229
1.598240
1.588465
1.603128
1.603128
1.627566
1.652004
1.656891
1.676442
1.691105
1.705767
1.715543
1.725318
1.749756
1.852395
1.725318
1.617791
1.666667
1.813294
1.715543
1.603128
1.559140
1.554252
1.588465
1.608016
1.632454
1.652004
1.671554
1.671554
1.661779
1.671554
1.691105
1.754643
1.915934
1.842620
1.715543
1.671554
1.720430
1.857283
1.754643
1.686217
1.681329
1.700880
1.710655
1.710655
1.700880
1.691105
1.695992
1.691105
1.686217
1.681329
1.666667
1.769306
2.033236
1.725318
1.549365
1.549365
1.901271
1.832845
1.720430
1.451613
1.436950
1.480938
1.529814
1.578690
1.622678
1.647116
1.656891
1.661779
1.671554
1.671554
1.705767
1.837732
1.915934
1.725318
1.642229
1.666667
1.764418
1.774194
1.710655
1.676442
1.691105
1.700880
1.705767
1.700880
1.695992
1.681329
1.676442
1.676442
1.661779
1.656891
1.705767
1.754643
1.827957
1.598240
1.549365
1.735093
1.710655
1.608016
1.529814
1.524927
1.549365
1.583578
1.603128
1.627566
1.642229
1.656891
1.656891
1.656891
1.671554
1.695992
1.783969
1.969697
1.705767
1.627566
1.612903
1.783969
1.715543
1.676442
1.661779
1.676442
1.695992
1.700880
1.710655
1.695992
1.686217
1.686217
1.681329
1.681329
1.671554
1.691105
1.730205
1.686217
1.647116
1.612903
1.725318
1.798631
1.676442
1.583578
1.554252
1.568915
1.588465
1.617791
1.637341
1.656891
1.647116
1.656891
1.671554
1.681329
1.705767
2.023460
2.160313
1.847507
1.568915
1.564027
1.715543
1.691105
1.686217
1.666667
1.686217
1.695992
1.705767
1.695992
1.666667
1.642229
1.632454
1.642229
1.627566
1.632454
1.666667
1.715543
1.754643
1.622678
1.568915
1.671554
1.774194
1.720430
1.524927
1.461388
1.485826
1.529814
1.559140
1.593353
1.603128
1.612903
1.593353
1.608016
1.627566
1.676442
1.744868
2.057674
1.862170
1.666667
1.652004
1.720430
1.754643
1.754643
1.720430
1.710655
1.720430
1.725318
1.730205
1.735093
1.720430
1.715543
1.720430
1.705767
1.691105
1.681329
1.705767
1.695992
1.647116
1.612903
1.642229
1.911046
1.793744
1.603128
1.549365
1.564027
1.588465
1.608016
1.627566
1.617791
1.627566
1.637341
1.642229
1.656891
1.661779
1.759531
2.023460
2.165200
1.612903
1.520039
1.588465
1.681329
1.779081
1.681329
1.666667
1.695992
1.715543
1.725318
1.730205
1.715543
1.715543
1.720430
1.700880
1.695992
1.681329
1.725318
1.720430
1.700880
1.647116
1.700880
2.028348
1.827957
1.598240
1.480938
1.510264
1.559140
1.588465
1.617791
1.652004
1.666667
1.676442
1.676442
1.666667
1.676442
1.700880
1.871945
1.935484
1.720430
1.661779
1.676442
1.847507
1.774194
1.671554
1.642229
1.671554
1.691105
1.705767
1.705767
1.700880
1.691105
1.686217
1.681329
1.671554
1.666667
1.788856
1.749756
1.686217
1.598240
1.588465
1.744868
1.749756
1.632454
1.568915
1.564027
1.568915
1.583578
1.612903
1.627566
1.642229
1.642229
1.627566
1.632454
1.647116
1.656891
2.047898
1.964809
1.759531
1.529814
1.524927
1.617791
1.642229
1.647116
1.647116
1.676442
1.700880
1.710655
1.730205
1.715543
1.705767
1.700880
1.700880
1.700880
1.695992
1.686217
1.705767
1.886608
1.666667
1.583578
1.671554
1.793744
1.813294
1.544477
1.500489
1.515152
1.554252
1.588465
1.612903
1.627566
1.637341
1.652004
1.661779
1.676442
1.700880
1.955034
2.052786
1.793744
1.588465
1.598240
1.661779
1.695992
1.686217
1.661779
1.676442
1.691105
1.676442
1.666667
1.632454
1.573803
1.583578
1.583578
1.583578
1.598240
1.720430
1.832845
1.827957
1.632454
1.559140
1.632454
1.764418
1.700880
1.564027
1.524927
1.539589
1.573803
1.612903
1.647116
1.661779
1.671554
1.681329
1.671554
1.686217
1.710655
1.759531
1.862170
1.876833
1.720430
1.715543
1.857283
1.774194
1.744868
1.710655
1.710655
1.720430
1.730205
1.730205
1.735093
1.700880
1.695992
1.691105
1.691105
1.681329
1.676442
1.720430
1.705767
1.691105
1.617791
1.647116
1.847507
1.739980
1.578690
1.510264
1.534702
1.544477
1.559140
1.573803
1.588465
1.598240
1.608016
1.632454
1.652004
1.666667
1.783969
1.876833
1.876833
1.705767
1.671554
1.759531
1.989247
1.862170
1.705767
1.612903
1.632454
1.656891
1.681329
1.691105
1.676442
1.676442
1.681329
1.681329
1.681329
1.686217
1.725318
1.715543
1.686217
1.608016
1.637341
1.823069
1.779081
1.642229
1.524927
1.534702
1.559140
1.583578
1.617791
1.637341
1.656891
1.661779
1.652004
1.656891
1.666667
1.715543
0.014663
0.361681
2.008798
1.676442
1.583578
1.637341
1.691105
1.720430
1.686217
1.661779
1.666667
1.681329
1.686217
1.691105
1.661779
1.647116
1.627566
1.617791
1.608016
1.598240
1.715543
1.666667
1.647116
1.583578
1.583578
1.823069
1.837732
1.632454
1.534702
1.534702
1.554252
1.588465
1.627566
1.647116
1.671554
1.691105
1.710655
1.720430
1.725318
1.739980
2.018573
1.867058
1.739980
1.608016
1.622678
1.681329
1.691105
1.705767
1.681329
1.681329
1.710655
1.725318
1.744868
1.739980
1.710655
1.720430
1.715543
1.710655
1.710655
1.715543
1.720430
1.730205
1.656891
1.627566
1.759531
1.979472
1.676442
1.510264
1.485826
1.515152
1.529814
1.554252
1.578690
1.603128
1.612903
1.627566
1.642229
1.661779
1.695992
1.862170
2.082111
1.911046
1.603128
1.603128
1.691105
1.700880
1.695992
1.686217
1.686217
1.695992
1.715543
1.715543
1.700880
1.691105
1.676442
1.681329
1.676442
1.676442
1.676442
1.725318
1.769306
1.666667
1.554252
1.647116
1.779081
1.637341
1.539589
1.515152
1.554252
1.578690
1.603128
1.656891
1.661779
1.671554
1.671554
1.666667
1.676442
1.681329
1.788856
1.930596
1.827957
1.671554
1.671554
1.754643
1.803519
1.725318
1.671554
1.681329
1.686217
1.700880
1.700880
1.705767
1.691105
1.691105
1.676442
1.681329
1.661779
1.666667
1.735093
1.676442
1.681329
1.593353
1.652004
1.950147
2.003910
1.588465
1.466276
1.495601
1.534702
1.578690
1.608016
1.622678
1.627566
1.637341
1.642229
1.647116
1.652004
1.705767
1.867058
1.862170
1.666667
1.617791
1.656891
1.857283
1.774194
1.666667
1.637341
1.656891
1.691105
1.705767
1.686217
1.671554
1.642229
1.632454
1.632454
1.627566
1.637341
1.720430
1.842620
1.710655
1.534702
1.539589
1.695992
1.764418
1.617791
1.544477
1.568915
1.593353
1.617791
1.642229
1.656891
1.666667
1.681329
1.691105
1.691105
1.691105
1.705767
1.920821
2.390029
1.700880
1.510264
1.573803
1.681329
1.695992
1.681329
1.652004
1.710655
1.779081
1.803519
1.813294
1.808407
1.788856
1.793744
1.803519
1.813294
1.837732
1.823069
1.847507
1.774194
1.695992
1.686217
1.744868
1.754643
1.749756
1.681329
1.695992
1.700880
1.681329
1.681329
1.661779
1.642229
1.637341
1.666667
1.661779
1.642229
1.637341
1.691105
1.827957
1.847507
1.769306
1.725318
1.769306
1.764418
1.754643
1.627566
1.549365
1.564027
1.608016
1.612903
1.598240
1.549365
1.534702
1.490714
1.490714
1.500489
1.559140
1.754643
1.920821
1.823069
1.441838
1.529814
1.774194
1.720430
1.495601
1.461388
1.510264
1.598240
1.681329
1.730205
1.744868
1.798631
1.827957
1.823069
1.798631
1.788856
1.808407
1.871945
1.803519
1.710655
1.686217
1.739980
1.779081
1.759531
1.739980
1.710655
1.666667
1.676442
1.681329
1.642229
1.617791
1.588465
1.603128
1.622678
1.642229
1.661779
1.676442
1.764418
1.642229
1.583578
1.603128
1.847507
2.013685
1.730205
1.559140
1.524927
1.520039
1.568915
1.627566
1.666667
1.642229
1.608016
1.603128
1.593353
1.608016
1.637341
1.847507
1.945259
1.720430
1.647116
1.725318
1.793744
1.823069
1.823069
1.827957
1.832845
1.803519
1.754643
1.705767
1.642229
1.622678
1.666667
1.730205
1.749756
1.764418
1.788856
1.769306
1.739980
1.637341
1.583578
1.617791
1.759531
1.627566
1.559140
1.544477
1.573803
1.603128
1.612903
1.622678
1.612903
1.612903
1.612903
1.632454
1.666667
1.691105
1.769306
2.390029
2.013685
1.666667
1.632454
1.652004
1.637341
1.568915
1.544477
1.559140
1.593353
1.603128
1.598240
1.583578
1.568915
1.534702
1.520039
1.573803
1.598240
1.666667
1.735093
1.730205
1.705767
1.691105
1.759531
1.862170
1.769306
1.661779
1.608016
1.588465
1.559140
1.490714
1.412512
1.373412
1.422287
1.534702
1.647116
1.735093
1.798631
2.062561
2.023460
1.847507
1.735093
1.715543
1.749756
1.769306
1.754643
1.705767
1.695992
1.695992
1.652004
1.617791
1.661779
1.691105
1.705767
1.695992
1.686217
1.700880
1.735093
1.793744
1.774194
1.754643
1.749756
1.827957
1.901271
1.881720
1.735093
1.652004
1.622678
1.627566
1.661779
1.661779
1.671554
1.681329
1.744868
1.827957
1.847507
1.852395
1.876833
1.886608
1.906158
1.764418
1.686217
1.617791
1.314761
1.124145
0.879765
0.865103
0.962854
1.119257
1.260997
1.402737
1.534702
1.661779
1.793744
1.911046
1.989247
2.052786
2.218964
2.179863
2.116325
2.023460
1.906158
1.823069
1.739980
1.715543
1.686217
1.617791
1.539589
1.524927
1.578690
1.598240
1.593353
1.627566
1.686217
1.739980
1.793744
1.857283
2.003910
2.253177
1.901271
1.823069
1.876833
1.915934
1.881720
1.886608
1.906158
1.867058
1.803519
1.671554
1.568915
1.524927
1.544477
1.612903
1.671554
1.695992
1.700880
1.774194
1.803519
1.774194
1.725318
1.735093
1.832845
1.955034
1.842620
1.725318
1.700880
1.661779
1.642229
1.603128
1.593353
1.568915
1.603128
1.627566
1.656891
1.681329
1.710655
1.803519
1.871945
1.808407
1.735093
1.676442
1.647116
1.529814
1.285435
1.148583
1.133920
1.177908
1.280547
1.353861
1.436950
1.559140
1.637341
1.656891
1.700880
1.759531
1.808407
1.735093
1.695992
1.554252
1.495601
1.588465
1.847507
1.549365
1.270772
1.187683
1.314761
1.480938
1.627566
1.715543
1.764418
1.857283
1.920821
1.930596
1.925709
1.940371
1.979472
2.287390
2.111437
1.793744
1.735093
1.720430
1.676442
1.583578
1.515152
1.549365
1.637341
1.700880
1.725318
1.715543
1.720430
1.754643
1.798631
1.808407
1.793744
1.837732
1.832845
1.803519
1.739980
1.681329
1.661779
1.691105
1.656891
1.617791
1.598240
1.593353
1.568915
1.549365
1.505376
1.505376
1.476051
1.471163
1.500489
1.539589
1.622678
1.754643
1.969697
1.881720
1.749756
1.788856
1.906158
1.994135
2.003910
1.783969
1.485826
1.226784
0.977517
0.865103
0.918866
1.065494
1.192571
1.358749
1.598240
1.823069
2.082111
2.135875
2.126100
2.116325
2.096774
2.116325
2.111437
2.072336
1.994135
1.881720
1.720430
1.422287
1.221896
1.158358
1.212121
1.334311
1.422287
1.520039
1.608016
1.686217
1.852395
2.174976
2.287390
1.950147
1.896383
1.896383
1.896383
1.915934
1.862170
1.837732
1.827957
1.867058
1.871945
1.774194
1.637341
1.549365
1.534702
1.456500
1.344086
1.295210
1.588465
2.082111
1.490714
1.099707
1.353861
1.573803
1.739980
1.402737
1.285435
1.427175
1.612903
1.788856
1.930596
1.969697
1.974585
1.950147
1.940371
1.950147
1.896383
1.867058
2.028348
1.901271
1.881720
1.950147
1.945259
1.930596
1.945259
1.901271
1.827957
1.803519
1.783969
1.739980
1.705767
1.676442
1.681329
1.700880
1.666667
1.637341
1.612903
1.656891
1.686217
1.647116
1.593353
1.603128
1.940371
1.735093
1.534702
1.348974
1.173021
1.060606
1.075269
1.163245
1.182796
1.202346
1.241447
1.344086
1.480938
1.603128
1.779081
2.091887
2.199413
1.964809
1.906158
1.955034
1.969697
1.945259
1.886608
1.808407
1.754643
1.754643
1.793744
1.818182
1.793744
1.754643
1.700880
1.627566
1.598240
1.603128
1.637341
1.637341
1.544477
1.329423
1.319648
1.554252
1.891496
1.676442
1.515152
1.559140
1.647116
1.739980
1.803519
1.813294
1.837732
1.906158
1.901271
1.862170
1.813294
1.818182
1.886608
1.881720
1.906158
1.583578
1.466276
1.476051
1.554252
1.588465
1.583578
1.681329
1.759531
1.837732
1.871945
1.891496
1.862170
1.871945
1.847507
1.779081
1.725318
1.676442
1.627566
1.554252
1.476051
1.500489
1.588465
1.676442
1.642229
1.568915
1.617791
1.676442
1.642229
1.593353
1.441838
1.300098
1.275660
1.280547
1.314761
1.451613
1.593353
1.788856
2.072336
2.052786
1.901271
1.847507
1.847507
1.813294
1.788856
1.798631
1.681329
1.559140
1.480938
1.505376
1.520039
1.466276
1.446725
1.490714
1.578690
1.656891
1.749756
1.862170
1.940371
1.955034
1.950147
1.979472
1.999022
1.945259
1.842620
1.837732
1.823069
1.857283
1.930596
1.984360
1.945259
1.881720
1.842620
1.749756
1.642229
1.549365
1.520039
1.813294
1.656891
1.446725
1.446725
1.539589
1.754643
1.622678
1.554252
1.544477
1.598240
1.686217
1.759531
1.813294
1.808407
1.803519
1.803519
1.823069
1.871945
1.862170
1.974585
1.852395
1.583578
1.495601
1.471163
1.656891
1.529814
1.441838
1.324536
1.324536
1.344086
1.392962
1.485826
1.549365
1.627566
1.705767
1.695992
1.549365
1.466276
1.524927
2.018573
1.857283
1.656891
1.671554
1.749756
1.739980
1.691105
1.617791
1.642229
1.725318
1.788856
1.832845
1.881720
1.891496
1.837732
1.749756
1.686217
1.612903
1.534702
1.588465
1.656891
1.705767
1.749756
1.813294
1.906158
1.774194
1.642229
1.539589
1.520039
1.564027
1.617791
1.710655
1.779081
1.808407
1.754643
1.627566
1.480938
1.329423
1.270772
1.608016
1.749756
1.436950
1.348974
1.495601
1.691105
1.759531
1.779081
1.749756
1.774194
1.823069
1.906158
1.935484
1.906158
1.827957
1.788856
1.739980
1.661779
1.549365
1.608016
1.691105
1.715543
1.705767
1.725318
1.793744
1.827957
1.754643
1.603128
1.529814
1.554252
1.617791
1.691105
1.739980
1.739980
1.788856
1.803519
1.710655
1.652004
1.578690
1.945259
1.896383
1.480938
1.392962
1.510264
1.691105
1.827957
1.906158
1.901271
1.925709
1.955034
1.974585
1.984360
1.950147
1.906158
1.876833
1.832845
1.793744
1.739980
1.720430
1.720430
1.627566
1.471163
1.378299
1.422287
1.549365
1.471163
1.260997
1.192571
1.226784
1.324536
1.417400
1.505376
1.568915
1.632454
1.676442
1.739980
1.803519
1.818182
1.896383
2.003910
1.867058
1.749756
1.642229
1.520039
1.436950
1.324536
1.119257
1.055718
1.168133
1.363636
1.505376
1.612903
1.710655
1.832845
2.008798
2.130987
2.174976
2.165200
2.140762
2.077224
1.940371
1.779081
1.686217
1.515152
1.480938
1.495601
1.480938
1.524927
1.612903
1.749756
1.857283
1.906158
1.911046
1.852395
1.788856
1.813294
1.749756
1.739980
1.925709
1.920821
1.759531
1.666667
1.632454
1.656891
1.676442
1.666667
1.730205
1.798631
1.857283
1.857283
1.754643
1.656891
1.583578
1.564027
1.554252
1.622678
1.774194
1.915934
1.891496
1.798631
1.691105
1.705767
1.876833
1.715543
1.559140
1.432063
1.446725
1.505376
1.578690
1.642229
1.705767
1.744868
1.754643
1.749756
1.764418
1.735093
1.788856
1.852395
1.876833
1.739980
1.573803
1.505376
1.417400
1.407625
1.392962
1.373412
1.392962
1.441838
1.490714
1.603128
1.681329
1.710655
1.612903
1.495601
1.441838
1.417400
1.456500
1.573803
1.710655
1.793744
1.808407
1.871945
1.808407
1.603128
1.529814
1.568915
1.642229
1.676442
1.735093
1.803519
1.852395
1.886608
1.813294
1.788856
1.798631
1.832845
1.915934
1.891496
1.827957
1.798631
1.764418
1.735093
1.730205
1.710655
1.686217
1.700880
1.730205
1.754643
1.818182
1.837732
1.847507
1.881720
1.911046
1.896383
1.837732
1.813294
1.813294
1.783969
1.764418
1.725318
1.798631
1.886608
1.837732
1.671554
1.505376
1.388074
1.378299
1.392962
1.427175
1.476051
1.529814
1.578690
1.612903
1.661779
1.695992
1.920821
2.155425
1.847507
1.661779
1.695992
1.798631
1.744868
1.720430
1.695992
1.744868
1.798631
1.837732
1.769306
1.608016
1.461388
1.319648
1.256109
1.275660
1.280547
1.344086
1.490714
1.593353
1.422287
1.392962
1.608016
1.876833
1.730205
1.505376
1.554252
1.710655
1.813294
1.842620
1.808407
1.681329
1.578690
1.534702
1.388074
1.275660
1.295210
1.490714
1.881720
1.695992
1.559140
1.612903
1.725318
1.955034
1.911046
1.896383
1.920821
1.994135
2.043011
1.930596
1.691105
1.510264
1.529814
1.656891
1.759531
1.793744
1.827957
1.901271
1.984360
1.930596
1.837732
1.813294
1.803519
1.735093
1.759531
1.407625
1.427175
1.466276
1.534702
1.627566
1.710655
1.754643
1.774194
1.808407
1.827957
1.827957
1.842620
2.038123
1.930596
1.783969
1.725318
1.739980
1.705767
1.671554
1.627566
1.588465
1.598240
1.632454
1.686217
1.735093
1.764418
1.818182
1.842620
1.857283
1.876833
1.891496
1.950147
1.955034
1.876833
1.725318
1.666667
1.666667
1.671554
1.686217
1.666667
1.578690
1.505376
1.480938
1.495601
1.500489
1.520039
1.578690
1.656891
1.705767
1.749756
1.813294
1.867058
1.871945
1.842620
1.793744
1.774194
1.735093
1.691105
1.710655
1.754643
1.774194
1.730205
1.656891
1.627566
1.612903
1.617791
1.598240
1.608016
1.627566
1.661779
1.661779
1.676442
1.617791
1.495601
1.417400
1.725318
1.539589
1.500489
1.534702
1.608016
1.671554
1.730205
1.779081
1.793744
1.783969
1.779081
1.749756
1.730205
1.705767
1.691105
1.700880
1.735093
1.705767
1.725318
1.744868
1.730205
1.666667
1.583578
1.554252
1.564027
1.598240
1.652004
1.715543
1.730205
1.730205
1.725318
1.725318
1.744868
1.774194
1.813294
1.813294
1.788856
1.730205
1.710655
1.652004
1.862170
1.593353
1.471163
1.446725
1.495601
1.505376
1.524927
1.554252
1.564027
1.603128
1.666667
1.730205
1.808407
1.886608
1.950147
1.798631
1.656891
1.559140
1.568915
1.627566
1.642229
1.686217
1.715543
1.764418
1.827957
1.832845
1.818182
1.818182
1.842620
1.881720
1.876833
1.803519
1.700880
1.627566
1.642229
1.617791
1.471163
1.373412
1.417400
1.432063
1.412512
1.441838
1.544477
1.647116
1.739980
1.793744
1.852395
1.896383
1.911046
1.911046
1.862170
1.818182
1.769306
1.769306
1.779081
1.779081
1.754643
1.749756
1.783969
1.774194
1.749756
1.720430
1.720430
1.725318
1.730205
1.725318
1.720430
1.710655
1.710655
1.671554
1.642229
1.627566
1.593353
1.622678
1.627566
1.593353
1.568915
1.578690
1.622678
1.632454
1.612903
1.578690
1.588465
1.583578
1.622678
1.652004
1.695992
1.744868
1.779081
1.788856
1.759531
1.735093
1.749756
1.964809
2.086999
1.593353
1.534702
1.568915
1.642229
1.666667
1.676442
1.700880
1.710655
1.710655
1.695992
1.686217
1.671554
1.661779
1.656891
1.642229
1.617791
1.598240
1.637341
1.676442
1.656891
1.608016
1.578690
1.642229
1.622678
1.593353
1.593353
1.564027
1.559140
1.573803
1.603128
1.652004
1.661779
1.637341
1.622678
1.617791
1.637341
1.705767
1.749756
1.779081
1.705767
1.666667
1.588465
1.534702
1.539589
1.529814
1.549365
1.588465
1.666667
1.749756
1.818182
1.803519
1.793744
1.818182
1.832845
1.857283
1.881720
1.871945
1.798631
1.739980
1.622678
1.524927
1.554252
1.544477
1.500489
1.476051
1.495601
1.564027
1.652004
1.710655
1.769306
1.759531
1.744868
1.739980
1.764418
1.779081
1.808407
1.823069
1.813294
1.759531
1.710655
1.739980
1.783969
1.798631
1.764418
1.735093
1.735093
1.730205
1.739980
1.759531
1.774194
1.774194
1.749756
1.700880
1.588465
1.476051
1.427175
1.466276
1.515152
1.451613
1.466276
1.573803
1.691105
1.832845
1.730205
1.695992
1.720430
1.749756
1.779081
1.749756
1.700880
1.647116
1.598240
1.603128
1.637341
1.710655
1.774194
1.798631
1.813294
1.749756
1.725318
1.710655
1.647116
1.622678
1.583578
1.598240
1.608016
1.627566
1.671554
1.710655
1.725318
1.754643
1.779081
1.808407
1.788856
1.783969
1.818182
1.788856
1.695992
1.593353
1.573803
1.617791
1.661779
1.612903
0.161290
0.000000
1.661779
1.691105
1.720430
1.739980
1.735093
1.720430
1.710655
1.735093
1.754643
1.764418
1.783969
1.823069
1.783969
1.739980
1.705767
1.695992
1.695992
1.676442
1.681329
1.691105
1.715543
1.735093
1.735093
1.715543
1.705767
1.671554
1.647116
1.612903
1.603128
1.622678
1.661779
1.647116
1.666667
1.642229
1.661779
1.710655
1.691105
1.676442
1.627566
1.598240
1.598240
1.603128
1.578690
1.554252
1.578690
1.578690
1.549365
1.534702
1.554252
1.608016
1.754643
1.744868
1.637341
1.603128
1.676442
1.686217
1.725318
1.744868
1.759531
1.764418
1.764418
1.759531
1.774194
1.779081
1.823069
1.852395
1.862170
1.867058
1.847507
1.827957
1.774194
1.705767
1.647116
1.632454
1.730205
1.691105
1.661779
1.598240
1.568915
1.564027
1.559140
1.568915
1.583578
1.608016
1.632454
1.647116
1.676442
1.705767
1.710655
1.779081
1.803519
1.779081
1.739980
1.730205
1.769306
1.754643
1.700880
1.686217
1.671554
1.686217
1.681329
1.695992
1.700880
1.695992
1.730205
1.749756
1.744868
1.739980
1.759531
1.788856
1.739980
1.656891
1.559140
1.510264
1.339198
1.168133
1.065494
1.138807
1.270772
1.427175
1.593353
1.720430
1.808407
1.876833
1.959922
2.003910
2.018573
2.033236
2.008798
2.003910
1.876833
1.700880
1.622678
1.622678
1.593353
1.598240
1.573803
1.549365
1.549365
1.554252
1.554252
1.568915
1.612903
1.637341
1.671554
1.700880
1.720430
1.735093
1.783969
1.769306
1.739980
1.754643
1.783969
1.852395
1.823069
1.764418
1.710655
1.705767
1.735093
1.769306
1.798631
1.808407
1.769306
1.705767
1.656891
1.632454
1.647116
1.862170
1.852395
1.744868
1.720430
1.769306
1.837732
1.842620
1.832845
1.793744
1.769306
1.779081
1.774194
1.744868
1.715543
1.671554
1.666667
1.671554
1.666667
1.661779
1.676442
1.686217
1.681329
1.637341
1.603128
1.622678
1.661779
1.520039
1.427175
1.388074
1.422287
1.476051
1.529814
1.608016
1.676442
1.720430
1.730205
1.725318
1.749756
1.779081
1.832845
1.886608
1.803519
1.739980
1.725318
1.705767
1.647116
1.652004
1.642229
1.627566
1.642229
1.647116
1.666667
1.666667
1.637341
1.617791
1.608016
1.612903
1.637341
1.671554
1.735093
1.779081
1.739980
1.720430
1.720430
1.788856
1.739980
1.695992
1.661779
1.656891
1.647116
1.632454
1.632454
1.632454
1.642229
1.656891
1.681329
1.686217
1.691105
1.705767
1.725318
1.735093
1.730205
1.720430
1.735093
1.749756
1.749756
1.720430
1.710655
1.720430
1.735093
1.735093
1.735093
1.720430
1.715543
1.705767
1.695992
1.681329
1.676442
1.695992
1.676442
1.637341
1.573803
1.539589
1.564027
1.612903
1.559140
1.515152
1.505376
1.515152
1.559140
1.627566
1.656891
1.661779
1.627566
1.578690
1.549365
1.554252
1.598240
1.725318
1.867058
1.827957
1.681329
1.681329
1.764418
1.827957
1.842620
1.852395
1.857283
1.862170
1.847507
1.793744
1.720430
1.676442
1.642229
1.647116
1.671554
1.691105
1.705767
1.725318
1.744868
1.691105
1.676442
1.715543
1.700880
1.691105
1.691105
1.666667
1.647116
1.647116
1.652004
1.637341
1.632454
1.632454
1.637341
1.647116
1.652004
1.681329
1.705767
1.710655
1.730205
1.686217
1.715543
1.735093
1.739980
1.700880
1.632454
1.564027
1.534702
1.520039
1.534702
1.549365
1.568915
1.608016
1.652004
1.691105
1.730205
1.774194
1.818182
1.832845
1.774194
1.744868
1.739980
1.891496
1.744868
1.622678
1.578690
1.559140
1.568915
1.593353
1.598240
1.608016
1.627566
1.661779
1.676442
1.676442
1.681329
1.656891
1.642229
1.564027
1.500489
1.529814
1.598240
1.642229
1.705767
1.759531
1.808407
1.862170
1.881720
1.896383
1.896383
1.847507
1.769306
1.735093
1.676442
1.617791
1.593353
1.617791
1.764418
1.598240
1.461388
1.451613
1.510264
1.539589
1.573803
1.588465
1.632454
1.661779
1.691105
1.700880
1.720430
1.744868
1.764418
1.788856
1.808407
1.857283
1.935484
1.920821
1.886608
1.788856
1.749756
1.759531
1.793744
1.818182
1.803519
1.769306
1.695992
1.647116
1.647116
1.671554
1.676442
1.700880
1.730205
1.744868
1.749756
1.749756
1.754643
1.754643
1.671554
1.578690
1.544477
1.608016
1.759531
1.652004
1.564027
1.539589
1.564027
1.603128
1.652004
1.676442
1.691105
1.695992
1.700880
1.715543
1.730205
1.749756
1.788856
1.779081
1.730205
1.710655
1.744868
1.759531
1.764418
1.739980
1.710655
1.715543
1.730205
1.730205
1.725318
1.686217
1.652004
1.632454
1.622678
1.603128
1.578690
1.588465
1.593353
1.588465
1.554252
1.559140
1.754643
1.652004
1.612903
1.583578
1.598240
1.637341
1.666667
1.705767
1.720430
1.739980
1.725318
1.725318
1.720430
1.715543
1.739980
1.964809
1.827957
1.725318
1.710655
1.691105
1.671554
1.588465
1.480938
1.373412
1.324536
1.265885
1.251222
1.285435
1.373412
1.451613
1.568915
1.695992
1.813294
1.886608
1.950147
1.999022
1.994135
1.974585
1.959922
1.955034
1.876833
1.793744
1.681329
1.627566
1.627566
1.661779
1.700880
1.749756
1.764418
1.759531
1.735093
1.710655
1.715543
1.735093
1.788856
1.808407
1.783969
1.749756
1.769306
1.783969
1.759531
1.759531
1.735093
1.730205
1.735093
1.720430
1.720430
1.710655
1.695992
1.647116
1.612903
1.588465
1.588465
1.637341
1.627566
1.671554
1.642229
1.637341
1.656891
1.705767
1.686217
1.656891
1.642229
1.622678
1.612903
1.617791
1.622678
1.642229
1.656891
1.676442
1.681329
1.681329
1.676442
1.700880
1.686217
1.691105
1.647116
1.632454
1.598240
1.529814
1.520039
1.510264
1.554252
1.608016
1.652004
1.691105
1.715543
1.715543
1.725318
1.739980
1.754643
1.779081
1.818182
1.832845
1.798631
1.769306
1.710655
1.691105
1.671554
1.691105
1.676442
1.642229
1.593353
1.544477
1.539589
1.564027
1.573803
1.632454
1.656891
1.671554
1.695992
1.720430
1.779081
1.813294
1.906158
1.813294
1.774194
1.739980
1.691105
1.637341
1.598240
1.617791
1.647116
1.612903
1.500489
1.422287
1.422287
1.456500
1.529814
1.598240
1.681329
1.754643
1.837732
1.842620
1.823069
1.818182
1.808407
1.827957
1.891496
1.837732
1.783969
1.725318
1.705767
1.691105
1.700880
1.671554
1.666667
1.671554
1.661779
1.666667
1.681329
1.686217
1.700880
1.695992
1.695992
1.666667
1.661779
1.671554
1.681329
1.681329
1.671554
1.671554
1.681329
1.695992
1.700880
1.691105
1.681329
1.666667
1.671554
1.666667
1.666667
1.686217
1.744868
1.715543
1.676442
1.671554
1.705767
1.735093
1.739980
1.710655
1.700880
1.710655
1.705767
1.710655
1.700880
1.691105
1.686217
1.652004
1.642229
1.622678
1.617791
1.691105
1.857283
1.744868
1.583578
1.534702
1.539589
1.588465
1.603128
1.632454
1.676442
1.725318
1.749756
1.774194
1.783969
1.793744
1.818182
1.827957
1.818182
1.798631
1.788856
1.774194
1.739980
1.691105
1.671554
1.676442
1.695992
1.695992
1.656891
1.642229
1.642229
1.637341
1.637341
1.656891
1.652004
1.647116
1.647116
1.642229
1.647116
1.652004
1.691105
1.656891
1.608016
1.603128
1.652004
1.710655
1.725318
1.700880
1.632454
1.539589
1.505376
1.505376
1.529814
1.544477
1.564027
1.608016
1.647116
1.676442
1.705767
1.720430
1.783969
1.744868
1.695992
1.671554
1.735093
1.764418
1.720430
1.700880
1.671554
1.656891
1.642229
1.647116
1.676442
1.695992
1.715543
1.735093
1.739980
1.744868
1.749756
1.769306
1.764418
1.759531
1.744868
1.744868
1.759531
1.788856
1.754643
1.744868
1.749756
1.754643
1.730205
1.739980
1.725318
1.715543
1.705767
1.710655
1.700880
1.695992
1.681329
1.686217
1.700880
1.656891
1.637341
1.656891
1.656891
1.661779
1.647116
1.617791
1.612903
1.608016
1.622678
1.642229
1.642229
1.652004
1.666667
1.671554
1.676442
1.666667
1.725318
1.735093
1.735093
1.695992
1.700880
1.735093
1.744868
1.715543
1.691105
1.676442
1.666667
1.661779
1.671554
1.661779
1.666667
1.671554
1.666667
1.666667
1.676442
1.676442
1.681329
1.686217
1.676442
1.642229
1.627566
1.656891
1.661779
1.656891
1.627566
1.612903
1.612903
1.598240
1.598240
1.608016
1.612903
1.617791
1.632454
1.652004
1.681329
1.686217
1.808407
1.803519
1.720430
1.710655
1.739980
1.759531
1.774194
1.739980
1.720430
1.720430
1.715543
1.710655
1.700880
1.686217
1.676442
1.676442
1.676442
1.681329
1.661779
1.735093
1.598240
1.544477
1.476051
1.466276
1.515152
1.564027
1.568915
1.564027
1.573803
1.583578
1.608016
1.642229
1.666667
1.700880
1.730205
1.739980
1.735093
1.735093
1.749756
1.754643
1.769306
1.739980
1.686217
1.705767
1.695992
1.720430
1.710655
1.705767
1.725318
1.744868
1.739980
1.730205
1.720430
1.720430
1.725318
1.735093
1.754643
1.759531
1.774194
1.779081
1.749756
1.720430
1.681329
1.686217
1.695992
1.681329
1.652004
1.637341
1.647116
1.656891
1.666667
1.676442
1.686217
1.656891
1.593353
1.568915
1.578690
1.622678
1.681329
1.730205
1.735093
1.715543
1.710655
1.710655
1.695992
1.666667
1.652004
1.681329
1.691105
1.705767
1.720430
1.730205
1.744868
1.739980
1.744868
1.735093
1.700880
1.691105
1.720430
1.730205
1.725318
1.700880
1.686217
1.710655
1.730205
1.715543
1.705767
1.691105
1.671554
1.671554
1.676442
1.681329
1.686217
1.681329
1.681329
1.691105
1.695992
1.749756
1.739980
1.754643
1.725318
1.730205
1.735093
1.725318
1.715543
1.705767
1.710655
1.715543
1.715543
1.715543
1.715543
1.700880
1.695992
1.705767
1.681329
1.666667
1.652004
1.666667
1.656891
1.656891
1.622678
1.637341
1.666667
1.739980
1.647116
1.583578
1.588465
1.603128
1.608016
1.617791
1.637341
1.652004
1.652004
1.656891
1.671554
1.676442
1.715543
1.730205
1.739980
1.710655
1.695992
1.725318
1.710655
1.681329
1.627566
1.598240
1.603128
1.632454
1.652004
1.676442
1.686217
1.705767
1.720430
1.720430
1.715543
1.720430
1.764418
1.764418
1.715543
1.681329
1.666667
1.700880
1.705767
1.632454
1.603128
1.598240
1.603128
1.603128
1.617791
1.622678
1.632454
1.647116
1.671554
1.676442
1.666667
1.671554
1.686217
1.705767
1.681329
1.710655
1.720430
1.725318
1.739980
1.735093
1.730205
1.730205
1.739980
1.730205
1.730205
1.715543
1.710655
1.710655
1.715543
1.705767
1.710655
1.730205
1.695992
1.700880
1.647116
1.652004
1.656891
1.666667
1.656891
1.612903
1.617791
1.617791
1.627566
1.647116
1.661779
1.671554
1.671554
1.661779
1.661779
1.671554
1.695992
1.705767
1.744868
1.744868
1.735093
1.739980
1.759531
1.744868
1.720430
1.700880
1.695992
1.710655
1.715543
1.710655
1.705767
1.700880
1.691105
1.666667
1.656891
1.632454
1.652004
1.627566
1.578690
1.544477
1.544477
1.568915
1.608016
1.612903
1.588465
1.588465
1.583578
1.598240
1.622678
1.642229
1.642229
1.642229
1.642229
1.642229
1.632454
1.642229
1.705767
1.925709
1.803519
1.695992
1.691105
1.783969
1.725318
1.700880
1.710655
1.735093
1.779081
1.798631
1.798631
1.793744
1.735093
1.661779
1.622678
1.647116
1.681329
1.705767
1.720430
1.779081
1.666667
1.647116
1.671554
1.695992
1.691105
1.700880
1.695992
1.686217
1.676442
1.691105
1.691105
1.681329
1.681329
1.676442
1.671554
1.686217
1.686217
1.739980
1.749756
1.754643
1.739980
1.749756
1.774194
1.744868
1.764418
1.730205
1.710655
1.695992
1.671554
1.622678
1.603128
1.578690
1.573803
1.564027
1.583578
1.603128
1.637341
1.671554
1.666667
1.637341
1.622678
1.627566
1.818182
1.700880
1.652004
1.627566
1.642229
1.661779
1.666667
1.671554
1.676442
1.676442
1.666667
1.666667
1.681329
1.700880
1.749756
1.769306
1.749756
1.730205
1.730205
1.749756
1.754643
1.754643
1.735093
1.735093
1.749756
1.744868
1.749756
1.749756
1.735093
1.735093
1.735093
1.720430
1.695992
1.681329
1.676442
1.700880
1.691105
1.637341
1.642229
1.676442
1.686217
1.656891
1.622678
1.612903
1.598240
1.598240
1.608016
1.622678
1.627566
1.622678
1.652004
1.671554
1.686217
1.725318
1.735093
1.769306
1.720430
1.720430
1.774194
1.808407
1.764418
1.715543
1.710655
1.705767
1.700880
1.705767
1.700880
1.715543
1.700880
1.705767
1.700880
1.695992
1.686217
1.705767
1.686217
1.686217
1.642229
1.617791
1.642229
1.661779
1.656891
1.617791
1.598240
1.598240
1.603128
1.617791
1.622678
1.603128
1.598240
1.603128
1.603128
1.573803
1.578690
1.568915
1.608016
1.608016
1.637341
1.676442
1.730205
1.769306
1.774194
1.793744
1.803519
1.808407
1.813294
1.803519
1.783969
1.759531
1.749756
1.754643
1.749756
1.739980
1.730205
1.691105
1.676442
1.637341
1.652004
1.656891
1.725318
1.691105
1.666667
1.647116
1.647116
1.647116
1.666667
1.676442
1.686217
1.691105
1.686217
1.691105
1.686217
1.695992
1.847507
1.798631
1.715543
1.681329
1.686217
1.681329
1.681329
1.686217
1.666667
1.671554
1.691105
1.705767
1.700880
1.700880
1.691105
1.691105
1.700880
1.691105
1.691105
1.700880
1.705767
1.754643
1.661779
1.632454
1.622678
1.671554
1.642229
1.627566
1.612903
1.608016
1.627566
1.642229
1.661779
1.676442
1.671554
1.656891
1.612903
1.583578
1.593353
1.652004
1.686217
1.823069
1.656891
1.632454
1.671554
1.730205
1.705767
1.681329
1.700880
1.715543
1.730205
1.730205
1.720430
1.710655
1.700880
1.691105
1.676442
1.661779
1.647116
1.652004
1.671554
1.666667
1.652004
1.656891
1.681329
1.681329
1.666667
1.642229
1.612903
1.588465
1.578690
1.573803
1.573803
1.588465
1.593353
1.617791
1.637341
1.676442
1.744868
1.788856
1.798631
1.749756
1.744868
1.769306
1.769306
1.788856
1.774194
1.769306
1.779081
1.783969
1.764418
1.754643
1.744868
1.730205
1.715543
1.691105
1.686217
1.671554
1.666667
1.666667
1.632454
1.603128
1.583578
1.642229
1.637341
1.656891
1.627566
1.637341
1.642229
1.656891
1.671554
1.681329
1.671554
1.681329
1.671554
1.661779
1.681329
1.710655
1.735093
1.754643
1.735093
1.749756
1.769306
1.783969
1.793744
1.759531
1.720430
1.710655
1.720430
1.730205
1.730205
1.710655
1.705767
1.705767
1.700880
1.691105
1.681329
1.647116
1.676442
1.637341
1.598240
1.603128
1.642229
1.652004
1.642229
1.612903
1.603128
1.608016
1.622678
1.632454
1.652004
1.656891
1.652004
1.661779
1.671554
1.681329
1.700880
1.769306
1.779081
1.686217
1.603128
1.632454
1.705767
1.705767
1.705767
1.695992
1.715543
1.730205
1.749756
1.749756
1.739980
1.725318
1.730205
1.739980
1.710655
1.676442
1.676442
1.671554
1.656891
1.622678
1.622678
1.647116
1.671554
1.695992
1.686217
1.681329
1.671554
1.671554
1.676442
1.661779
1.666667
1.671554
1.661779
1.661779
1.676442
1.686217
1.730205
1.725318
1.725318
1.705767
1.720430
1.700880
1.720430
1.715543
1.686217
1.691105
1.700880
1.710655
1.725318
1.710655
1.686217
1.691105
1.676442
1.647116
1.627566
1.637341
1.656891
1.671554
1.637341
1.632454
1.642229
1.671554
1.686217
1.652004
1.627566
1.608016
1.593353
1.593353
1.608016
1.622678
1.637341
1.656891
1.671554
1.681329
1.710655
1.735093
1.774194
1.764418
1.720430
1.744868
1.730205
1.754643
1.744868
1.735093
1.749756
1.759531
1.754643
1.754643
1.691105
1.608016
1.554252
1.564027
1.554252
1.549365
1.573803
1.608016
1.652004
1.647116
1.627566
1.671554
1.705767
1.744868
1.720430
1.691105
1.666667
1.676442
1.676442
1.691105
1.686217
1.691105
1.695992
1.700880
1.705767
1.715543
1.744868
1.832845
1.774194
1.735093
1.730205
1.749756
1.813294
1.754643
1.720430
1.720430
1.720430
1.710655
1.686217
1.656891
1.632454
1.632454
1.627566
1.661779
1.652004
1.647116
1.695992
1.715543
1.642229
1.598240
1.608016
1.769306
1.691105
1.652004
1.627566
1.622678
1.647116
1.676442
1.691105
1.695992
1.705767
1.691105
1.671554
1.686217
1.671554
1.676442
1.744868
1.715543
1.705767
1.710655
1.715543
1.749756
1.744868
1.730205
1.705767
1.705767
1.705767
1.681329
1.666667
1.637341
1.642229
1.647116
1.652004
1.652004
1.637341
1.681329
1.700880
1.642229
1.608016
1.593353
1.583578
1.632454
1.598240
1.622678
1.603128
1.637341
1.637341
1.661779
1.666667
1.671554
1.666667
1.661779
1.676442
1.686217
1.720430
1.725318
1.744868
1.710655
1.710655
1.735093
1.730205
1.730205
1.705767
1.691105
1.691105
1.705767
1.715543
1.715543
1.705767
1.705767
1.705767
1.695992
1.681329
1.661779
1.686217
1.735093
1.652004
1.603128
1.608016
1.754643
1.681329
1.652004
1.608016
1.608016
1.598240
1.622678
1.627566
1.637341
1.642229
1.661779
1.671554
1.666667
1.691105
1.720430
1.749756
1.769306
1.744868
1.720430
1.710655
1.730205
1.783969
1.739980
1.710655
1.705767
1.715543
1.720430
1.725318
1.715543
1.705767
1.691105
1.686217
1.676442
1.676442
1.676442
1.686217
1.681329
1.632454
1.622678
1.652004
1.642229
1.671554
1.632454
1.622678
1.617791
1.622678
1.627566
1.647116
1.647116
1.656891
1.661779
1.671554
1.666667
1.686217
1.720430
1.739980
1.715543
1.705767
1.681329
1.695992
1.700880
1.666667
1.666667
1.666667
1.681329
1.652004
1.652004
1.647116
1.632454
1.627566
1.632454
1.617791
1.627566
1.642229
1.681329
1.686217
1.666667
1.652004
1.681329
1.656891
1.598240
1.578690
1.564027
1.568915
1.588465
1.603128
1.603128
1.612903
1.608016
1.612903
1.617791
1.656891
1.695992
1.749756
1.803519
1.793744
1.754643
1.769306
1.788856
1.798631
1.813294
1.779081
1.759531
1.764418
1.764418
1.788856
1.749756
1.691105
1.647116
1.622678
1.608016
1.608016
1.637341
1.695992
1.700880
1.686217
1.652004
1.647116
1.661779
1.676442
1.676442
1.666667
1.652004
1.661779
1.661779
1.652004
1.647116
1.666667
1.705767
1.705767
1.671554
1.652004
1.681329
1.686217
1.891496
1.769306
1.744868
1.783969
1.798631
1.813294
1.774194
1.769306
1.774194
1.774194
1.764418
1.744868
1.725318
1.691105
1.676442
1.676442
1.661779
1.661779
1.681329
1.676442
1.642229
1.617791
1.612903
1.730205
1.686217
1.647116
1.622678
1.632454
1.647116
1.671554
1.691105
1.695992
1.681329
1.700880
1.700880
1.695992
1.695992
1.695992
1.832845
1.739980
1.676442
1.647116
1.686217
1.710655
1.705767
1.691105
1.676442
1.671554
1.671554
1.681329
1.676442
1.656891
1.642229
1.593353
1.505376
1.427175
1.417400
1.422287
1.490714
1.529814
1.510264
1.544477
1.632454
1.695992
1.715543
1.739980
1.764418
1.759531
1.764418
1.774194
1.803519
1.827957
1.823069
1.808407
1.774194
1.759531
1.730205
1.774194
1.754643
1.744868
1.754643
1.774194
1.823069
1.793744
1.783969
1.754643
1.744868
1.735093
1.739980
1.739980
1.725318
1.715543
1.720430
1.705767
1.720430
1.720430
1.710655
1.735093
1.735093
1.671554
1.642229
1.656891
1.647116
1.661779
1.637341
1.617791
1.612903
1.612903
1.622678
1.642229
1.652004
1.652004
1.671554
1.671554
1.676442
1.686217
1.754643
1.730205
1.686217
1.661779
1.666667
1.695992
1.700880
1.691105
1.681329
1.681329
1.686217
1.686217
1.691105
1.681329
1.671554
1.676442
1.681329
1.676442
1.666667
1.666667
1.681329
1.686217
1.652004
1.632454
1.627566
1.798631
1.744868
1.612903
1.568915
1.593353
1.598240
1.612903
1.627566
1.632454
1.652004
1.637341
1.671554
1.666667
1.666667
1.735093
1.730205
1.749756
1.735093
1.725318
1.705767
1.739980
1.744868
1.715543
1.700880
1.725318
1.730205
1.735093
1.730205
1.710655
1.700880
1.695992
1.681329
1.661779
1.612903
1.642229
1.632454
1.568915
1.510264
1.520039
1.549365
1.573803
1.573803
1.573803
1.598240
1.622678
1.647116
1.661779
1.695992
1.725318
1.730205
1.725318
1.730205
1.730205
1.769306
1.896383
1.779081
1.700880
1.671554
1.676442
1.691105
1.691105
1.691105
1.705767
1.725318
1.744868
1.749756
1.739980
1.725318
1.720430
1.725318
1.710655
1.705767
1.705767
1.739980
1.710655
1.695992
1.652004
1.652004
1.671554
1.656891
1.652004
1.637341
1.627566
1.642229
1.652004
1.671554
1.676442
1.676442
1.676442
1.676442
1.676442
1.676442
1.691105
1.730205
1.710655
1.695992
1.715543
1.720430
1.735093
1.754643
1.705767
1.681329
1.666667
1.671554
1.686217
1.691105
1.686217
1.686217
1.686217
1.686217
1.676442
1.656891
1.666667
1.676442
1.656891
1.617791
1.642229
1.647116
1.686217
1.652004
1.632454
1.622678
1.637341
1.632454
1.642229
1.647116
1.637341
1.632454
1.608016
1.559140
1.524927
1.510264
1.568915
1.627566
1.632454
1.666667
1.715543
1.744868
1.754643
1.788856
1.788856
1.813294
1.837732
1.847507
1.842620
1.813294
1.803519
1.798631
1.769306
1.720430
1.691105
1.705767
1.725318
1.720430
1.700880
1.695992
1.725318
1.710655
1.720430
1.676442
1.647116
1.642229
1.647116
1.666667
1.686217
1.695992
1.705767
1.705767
1.710655
1.715543
1.715543
1.764418
1.744868
1.783969
1.700880
1.710655
1.744868
1.744868
1.730205
1.715543
1.715543
1.715543
1.705767
1.691105
1.681329
1.666667
1.661779
1.656891
1.637341
1.622678
1.622678
1.642229
1.666667
1.627566
1.598240
1.612903
1.637341
1.627566
1.632454
1.622678
1.627566
1.637341
1.647116
1.661779
1.686217
1.686217
1.695992
1.686217
1.681329
1.686217
1.725318
1.730205
1.739980
1.725318
1.725318
1.739980
1.735093
1.769306
1.715543
1.720430
1.730205
1.744868
1.739980
1.720430
1.715543
1.705767
1.705767
1.695992
1.691105
1.686217
1.700880
1.691105
1.661779
1.617791
1.627566
1.652004
1.612903
1.583578
1.554252
1.554252
1.568915
1.588465
1.603128
1.612903
1.632454
1.637341
1.647116
1.661779
1.686217
1.715543
1.754643
1.735093
1.725318
1.725318
1.759531
1.852395
1.739980
1.705767
1.695992
1.715543
1.720430
1.720430
1.725318
1.705767
1.691105
1.705767
1.700880
1.700880
1.710655
1.700880
1.671554
1.686217
1.661779
1.647116
1.666667
1.720430
1.622678
1.544477
1.495601
1.500489
1.524927
1.559140
1.573803
1.554252
1.554252
1.593353
1.627566
1.676442
1.754643
1.832845
1.798631
1.788856
1.769306
1.793744
1.808407
1.813294
1.808407
1.798631
1.793744
1.783969
1.788856
1.788856
1.744868
1.695992
1.666667
1.656891
1.652004
1.656891
1.700880
1.715543
1.720430
1.681329
1.666667
1.666667
1.686217
1.705767
1.637341
1.617791
1.612903
1.622678
1.637341
1.642229
1.647116
1.671554
1.666667
1.676442
1.671554
1.681329
1.715543
1.720430
1.686217
1.666667
1.691105
1.710655
1.710655
1.715543
1.700880
1.715543
1.730205
1.735093
1.735093
1.720430
1.710655
1.700880
1.705767
1.695992
1.700880
1.695992
1.691105
1.686217
1.671554
1.666667
1.647116
1.681329
1.671554
1.652004
1.637341
1.622678
1.627566
1.637341
1.642229
1.652004
1.666667
1.642229
1.632454
1.622678
1.647116
1.671554
1.695992
1.671554
1.583578
1.578690
1.627566
1.608016
1.612903
1.603128
1.627566
1.656891
1.691105
1.730205
1.744868
1.744868
1.749756
1.749756
1.744868
1.739980
1.725318
1.744868
1.730205
1.695992
1.661779
1.647116
1.676442
1.691105
0.014663
0.219941
1.661779
1.637341
1.637341
1.656891
1.686217
1.705767
1.725318
1.720430
1.725318
1.725318
1.705767
1.749756
1.744868
1.744868
1.730205
1.739980
1.739980
1.754643
1.759531
1.735093
1.739980
1.735093
1.735093
1.735093
1.715543
1.705767
1.695992
1.710655
1.710655
1.730205
1.754643
1.730205
1.720430
1.666667
1.622678
1.642229
1.652004
1.647116
1.637341
1.622678
1.622678
1.637341
1.632454
1.637341
1.652004
1.652004
1.666667
1.666667
1.676442
1.691105
1.710655
1.720430
1.720430
1.715543
1.700880
1.700880
1.744868
1.730205
1.710655
1.700880
1.700880
1.705767
1.705767
1.700880
1.681329
1.671554
1.671554
1.671554
1.666667
1.637341
1.593353
1.564027
1.549365
1.529814
1.554252
1.612903
1.652004
1.647116
1.637341
1.632454
1.642229
1.666667
1.671554
1.676442
1.691105
1.710655
1.720430
1.705767
1.710655
1.725318
1.720430
1.730205
1.749756
1.715543
1.735093
1.715543
1.744868
1.720430
1.700880
1.705767
1.710655
1.710655
1.720430
1.705767
1.691105
1.691105
1.691105
1.676442
1.666667
1.671554
1.666667
1.647116
1.612903
1.617791
1.661779
1.661779
1.671554
1.637341
1.627566
1.632454
1.632454
1.637341
1.652004
1.666667
1.676442
1.691105
1.686217
1.695992
1.710655
1.764418
1.749756
1.744868
1.725318
1.744868
1.769306
1.725318
1.700880
1.686217
1.691105
1.691105
1.676442
1.661779
1.632454
1.627566
1.612903
1.568915
1.549365
1.534702
1.573803
1.622678
1.656891
1.637341
1.632454
1.661779
1.710655
1.695992
1.676442
1.652004
1.642229
1.666667
1.681329
1.720430
1.730205
1.744868
1.730205
1.739980
1.749756
1.769306
1.798631
1.808407
1.803519
1.759531
1.735093
1.749756
1.754643
1.749756
1.735093
1.744868
1.744868
1.744868
1.735093
1.720430
1.710655
1.700880
1.700880
1.691105
1.691105
1.691105
1.705767
1.676442
1.671554
1.642229
1.666667
1.671554
1.661779
1.637341
1.617791
1.622678
1.608016
1.622678
1.647116
1.681329
1.691105
1.715543
1.700880
1.700880
1.715543
1.705767
1.705767
1.695992
1.681329
1.676442
1.695992
1.710655
1.710655
1.700880
1.695992
1.715543
1.691105
1.652004
1.612903
1.593353
1.603128
1.612903
1.637341
1.652004
1.681329
1.676442
1.720430
1.666667
1.652004
1.666667
1.769306
1.686217
1.676442
1.652004
1.656891
1.656891
1.666667
1.676442
1.671554
1.681329
1.681329
1.695992
1.705767
1.695992
1.735093
1.725318
1.754643
1.735093
1.725318
1.715543
1.735093
1.754643
1.735093
1.720430
1.730205
1.730205
1.730205
1.725318
1.700880
1.700880
1.686217
1.676442
1.661779
1.656891
1.686217
1.700880
1.661779
1.632454
1.617791
1.652004
1.666667
1.642229
1.627566
1.622678
1.617791
1.622678
1.637341
1.661779
1.661779
1.666667
1.666667
1.661779
1.661779
1.632454
1.647116
1.671554
1.642229
1.642229
1.681329
1.715543
1.725318
1.720430
1.705767
1.720430
1.725318
1.720430
1.720430
1.705767
1.691105
1.695992
1.695992
1.691105
1.695992
1.700880
1.700880
1.676442
1.642229
1.622678
1.852395
1.676442
1.622678
1.593353
1.598240
1.608016
1.608016
1.642229
1.652004
1.656891
1.671554
1.647116
1.564027
1.534702
1.549365
1.642229
1.666667
1.647116
1.676442
1.710655
1.749756
1.764418
1.764418
1.779081
1.783969
1.793744
1.783969
1.764418
1.735093
1.720430
1.691105
1.681329
1.656891
1.637341
1.661779
1.666667
1.671554
1.666667
1.676442
1.695992
1.691105
1.686217
1.671554
1.666667
1.652004
1.647116
1.652004
1.661779
1.666667
1.691105
1.676442
1.676442
1.671554
1.691105
1.676442
1.676442
1.661779
1.656891
1.681329
1.705767
1.686217
1.691105
1.691105
1.686217
1.700880
1.700880
1.700880
1.691105
1.691105
1.686217
1.676442
1.661779
1.666667
1.681329
1.700880
1.700880
1.691105
1.661779
1.710655
1.715543
1.754643
1.710655
1.686217
1.681329
1.676442
1.661779
1.666667
1.676442
1.666667
1.656891
1.661779
1.666667
1.676442
1.710655
1.725318
1.715543
1.710655
1.705767
1.730205
1.720430
1.720430
1.735093
1.730205
1.744868
1.749756
1.744868
1.735093
1.735093
1.744868
1.739980
1.735093
1.710655
1.715543
1.681329
1.691105
1.661779
1.647116
1.656891
1.661779
1.656891
1.622678
1.583578
1.583578
1.598240
1.622678
1.627566
1.647116
1.656891
1.666667
1.661779
1.661779
1.666667
1.705767
1.823069
1.754643
1.700880
1.700880
1.720430
1.754643
1.735093
1.735093
1.735093
1.730205
1.725318
1.720430
1.715543
1.695992
1.681329
1.676442
1.676442
1.676442
1.671554
1.686217
1.695992
1.676442
1.647116
1.647116
1.652004
1.656891
1.652004
1.627566
1.622678
1.627566
1.622678
1.647116
1.608016
1.583578
1.583578
1.588465
1.608016
1.637341
1.691105
1.725318
1.744868
1.720430
1.744868
1.759531
1.754643
1.764418
1.744868
1.735093
1.739980
1.744868
1.730205
1.720430
1.710655
1.691105
1.695992
1.681329
1.671554
1.666667
1.666667
1.666667
1.632454
1.593353
1.608016
1.637341
1.652004
1.642229
1.612903
1.603128
1.617791
1.632454
1.652004
1.661779
1.676442
1.686217
1.700880
1.705767
1.710655
1.725318
1.779081
1.793744
1.769306
1.754643
1.744868
1.754643
1.735093
1.720430
1.710655
1.700880
1.710655
1.705767
1.700880
1.691105
1.681329
1.676442
1.681329
1.676442
1.661779
1.681329
1.671554
1.666667
1.627566
1.622678
1.661779
1.661779
1.627566
1.583578
1.573803
1.578690
1.593353
1.608016
1.627566
1.642229
1.656891
1.656891
1.666667
1.656891
1.647116
1.676442
1.686217
1.686217
1.676442
1.700880
1.715543
1.730205
1.735093
1.739980
1.754643
1.774194
1.764418
1.754643
1.725318
1.700880
1.705767
1.700880
1.705767
1.710655
1.730205
1.744868
1.710655
1.691105
1.652004
1.671554
1.695992
1.700880
1.676442
1.652004
1.642229
1.637341
1.608016
1.588465
1.593353
1.608016
1.622678
1.652004
1.686217
1.725318
1.739980
1.779081
1.774194
1.764418
1.764418
1.793744
1.803519
1.798631
1.759531
1.739980
1.744868
1.735093
1.715543
1.691105
1.676442
1.681329
1.710655
1.710655
1.705767
1.710655
1.695992
1.700880
1.666667
1.637341
1.637341
1.652004
1.642229
1.642229
1.617791
1.622678
1.622678
1.632454
1.647116
1.656891
1.661779
1.652004
1.642229
1.647116
1.661779
1.720430
1.700880
1.725318
1.705767
1.715543
1.749756
1.764418
1.749756
1.720430
1.725318
1.739980
1.749756
1.739980
1.759531
1.735093
1.720430
1.695992
1.676442
1.656891
1.661779
1.661779
1.666667
1.617791
1.612903
1.642229
1.627566
1.588465
1.564027
1.554252
1.568915
1.608016
1.637341
1.661779
1.666667
1.656891
1.666667
1.686217
1.700880
1.695992
1.715543
1.735093
1.725318
1.700880
1.705767
1.739980
1.739980
1.739980
1.715543
1.725318
1.725318
1.735093
1.749756
1.744868
1.730205
1.725318
1.715543
1.700880
1.681329
1.691105
1.710655
1.710655
1.705767
1.656891
1.622678
1.661779
1.608016
1.627566
1.608016
1.617791
1.627566
1.642229
1.656891
1.666667
1.691105
1.725318
1.705767
1.710655
1.705767
1.715543
1.788856
1.774194
1.744868
1.730205
1.744868
1.754643
1.754643
1.744868
1.730205
1.739980
1.744868
1.744868
1.754643
1.730205
1.720430
1.710655
1.691105
1.681329
1.661779
1.691105
1.715543
1.691105
1.647116
1.603128
1.593353
1.632454
1.622678
1.598240
1.593353
1.593353
1.608016
1.637341
1.661779
1.681329
1.686217
1.666667
1.676442
1.681329
1.686217
1.730205
1.759531
1.725318
1.700880
1.725318
1.715543
1.695992
1.700880
1.691105
1.715543
1.730205
1.730205
1.730205
1.720430
1.695992
1.691105
1.681329
1.671554
1.671554
1.676442
1.676442
1.666667
1.656891
1.632454
1.661779
1.661779
1.661779
1.647116
1.642229
1.642229
1.642229
1.656891
1.681329
1.681329
1.686217
1.647116
1.612903
1.617791
1.632454
1.691105
1.695992
1.725318
1.705767
1.705767
1.739980
1.730205
1.779081
1.769306
1.779081
1.803519
1.793744
1.764418
1.735093
1.715543
1.691105
1.681329
1.666667
1.661779
1.656891
1.686217
1.705767
1.661779
1.661779
1.666667
1.676442
1.681329
1.661779
1.642229
1.627566
1.622678
1.637341
1.642229
1.652004
1.656891
1.652004
1.661779
1.666667
1.671554
1.695992
1.744868
1.710655
1.695992
1.715543
1.730205
1.715543
1.725318
1.705767
1.705767
1.715543
1.725318
1.725318
1.725318
1.720430
1.720430
1.730205
1.710655
1.681329
1.661779
1.710655
1.671554
1.652004
1.627566
1.642229
1.671554
1.647116
1.622678
1.573803
1.544477
1.544477
1.559140
1.578690
1.608016
1.622678
1.642229
1.642229
1.647116
1.647116
1.681329
1.666667
1.935484
1.725318
1.656891
1.705767
1.700880
1.710655
1.710655
1.725318
1.739980
1.749756
1.749756
1.749756
1.759531
1.759531
1.759531
1.754643
1.715543
1.695992
1.700880
1.700880
1.686217
1.656891
1.637341
1.661779
1.676442
1.598240
1.564027
1.568915
1.588465
1.598240
1.637341
1.661779
1.681329
1.686217
1.700880
1.695992
1.700880
1.710655
1.735093
1.749756
1.739980
1.744868
1.783969
1.798631
1.788856
1.744868
1.720430
1.715543
1.705767
1.681329
1.656891
1.652004
1.666667
1.691105
1.700880
1.676442
1.656891
1.671554
1.676442
1.656891
1.637341
1.637341
1.671554
1.681329
1.705767
1.656891
1.642229
1.642229
1.647116
1.652004
1.676442
1.681329
1.705767
1.705767
1.710655
1.705767
1.710655
1.739980
1.911046
1.739980
1.676442
1.686217
1.744868
1.739980
1.730205
1.720430
1.715543
1.710655
1.705767
1.705767
1.695992
1.681329
1.681329
1.681329
1.700880
1.700880
1.720430
1.691105
1.681329
1.642229
1.612903
1.642229
1.676442
1.652004
1.632454
1.627566
1.627566
1.632454
1.647116
1.656891
1.661779
1.661779
1.671554
1.671554
1.676442
1.686217
1.739980
1.735093
1.720430
1.705767
1.695992
1.725318
1.739980
1.720430
1.720430
1.710655
1.720430
1.715543
1.710655
1.705767
1.686217
1.681329
1.681329
1.661779
1.652004
1.637341
1.647116
1.656891
1.632454
1.627566
1.622678
1.656891
1.656891
1.656891
1.642229
1.642229
1.647116
1.652004
1.652004
1.656891
1.656891
1.656891
1.656891
1.642229
1.656891
1.686217
1.715543
1.744868
1.754643
1.764418
1.764418
1.759531
1.739980
1.715543
1.710655
1.710655
1.700880
1.705767
1.700880
1.691105
1.695992
1.695992
1.695992
1.691105
1.676442
1.642229
1.637341
1.637341
1.598240
1.632454
1.661779
1.725318
1.593353
1.559140
1.554252
1.583578
1.603128
1.617791
1.588465
1.573803
1.578690
1.603128
1.637341
1.676442
1.720430
1.764418
1.769306
1.774194
1.779081
1.764418
1.798631
1.793744
1.779081
1.779081
1.793744
1.783969
1.754643
1.735093
1.710655
1.705767
1.710655
1.720430
1.720430
1.705767
1.735093
1.705767
1.691105
1.642229
1.637341
1.642229
1.642229
1.647116
1.627566
1.622678
1.622678
1.632454
1.647116
1.661779
1.671554
1.671554
1.671554
1.671554
1.691105
1.720430
1.779081
1.774194
1.720430
1.720430
1.735093
1.749756
1.735093
1.715543
1.700880
1.700880
1.681329
1.686217
1.676442
1.671554
1.656891
1.656891
1.656891
1.671554
1.661779
1.676442
1.656891
1.632454
1.612903
1.598240
1.652004
1.676442
1.691105
1.671554
1.656891
1.652004
1.656891
1.666667
1.681329
1.686217
1.661779
1.642229
1.642229
1.652004
1.676442
1.705767
1.681329
1.666667
1.632454
1.666667
1.691105
1.695992
1.730205
1.735093
1.749756
1.764418
1.754643
1.754643
1.739980
1.730205
1.730205
1.735093
1.720430
1.705767
1.720430
1.715543
1.686217
1.656891
1.632454
1.647116
1.656891
1.661779
1.642229
1.637341
1.647116
1.656891
1.647116
1.647116
1.637341
1.656891
1.661779
1.671554
1.676442
1.686217
1.676442
1.720430
1.837732
1.700880
1.686217
1.700880
1.700880
1.710655
1.686217
1.681329
1.691105
1.691105
1.671554
1.647116
1.617791
1.642229
1.632454
1.647116
1.627566
1.652004
1.656891
1.671554
1.681329
1.666667
1.681329
1.705767
1.725318
1.705767
1.676442
1.661779
1.652004
1.652004
1.656891
1.647116
1.637341
1.642229
1.622678
1.637341
1.661779
1.695992
1.769306
1.759531
1.710655
1.705767
1.739980
1.774194
1.759531
1.744868
1.725318
1.730205
1.739980
1.735093
1.735093
1.700880
1.700880
1.695992
1.705767
1.700880
1.700880
1.720430
1.700880
1.681329
1.666667
1.656891
1.647116
1.661779
1.647116
1.627566
1.622678
1.612903
1.622678
1.637341
1.652004
1.666667
1.661779
1.661779
1.671554
1.676442
1.695992
1.700880
1.705767
1.676442
1.700880
1.700880
1.705767
1.725318
1.695992
1.695992
1.705767
1.715543
1.720430
1.715543
1.700880
1.695992
1.705767
1.715543
1.710655
1.705767
1.720430
1.700880
1.671554
1.642229
1.637341
1.656891
1.666667
1.642229
1.627566
1.637341
1.647116
1.642229
1.647116
1.647116
1.647116
1.637341
1.632454
1.627566
1.637341
1.681329
1.700880
1.705767
1.720430
1.720430
1.754643
1.774194
1.764418
1.749756
1.744868
1.754643
1.759531
1.769306
1.759531
1.754643
1.739980
1.720430
1.700880
1.686217
1.681329
1.661779
1.661779
1.627566
1.583578
1.573803
1.622678
1.627566
1.617791
1.598240
1.603128
1.612903
1.622678
1.642229
1.656891
1.652004
1.642229
1.588465
1.564027
1.568915
1.622678
1.666667
1.681329
1.681329
1.656891
1.691105
1.710655
1.725318
1.739980
1.754643
1.754643
1.769306
1.774194
1.774194
1.769306
1.769306
1.774194
1.779081
1.764418
1.739980
1.735093
1.730205
1.725318
1.671554
1.652004
1.676442
1.681329
1.676442
1.642229
1.642229
1.647116
1.622678
1.608016
1.612903
1.627566
1.647116
1.647116
1.666667
1.691105
1.725318
1.764418
1.749756
1.764418
1.735093
1.769306
1.793744
1.793744
1.764418
1.739980
1.725318
1.710655
1.691105
1.681329
1.666667
1.676442
1.695992
1.700880
1.700880
1.691105
1.681329
1.695992
1.661779
1.656891
1.627566
1.637341
1.691105
1.647116
1.608016
1.608016
1.608016
1.603128
1.603128
1.622678
1.627566
1.637341
1.656891
1.656891
1.666667
1.705767
1.739980
1.725318
1.715543
1.700880
1.686217
1.720430
1.691105
1.705767
1.700880
1.720430
1.725318
1.730205
1.720430
1.715543
1.700880
1.691105
1.691105
1.686217
1.676442
1.686217
1.749756
1.691105
1.617791
1.583578
1.598240
1.666667
1.622678
1.573803
1.573803
1.588465
1.612903
1.642229
1.656891
1.676442
1.695992
1.710655
1.700880
1.710655
1.725318
1.735093
1.769306
1.774194
1.744868
1.754643
1.774194
1.739980
1.744868
1.730205
1.725318
1.730205
1.730205
1.725318
1.695992
1.700880
1.695992
1.686217
1.681329
1.681329
1.681329
1.700880
1.695992
1.656891
1.622678
1.647116
1.715543
1.652004
1.632454
1.612903
1.612903
1.612903
1.617791
1.627566
1.647116
1.647116
1.652004
1.642229
1.647116
1.661779
1.671554
1.691105
1.676442
1.647116
1.642229
1.671554
1.695992
1.720430
1.705767
1.715543
1.730205
1.744868
1.735093
1.720430
1.700880
1.681329
1.676442
1.676442
1.686217
1.686217
1.686217
1.676442
1.661779
1.627566
1.632454
1.617791
1.627566
1.568915
1.529814
1.539589
1.559140
1.564027
1.622678
1.642229
1.671554
1.691105
1.691105
1.695992
1.710655
1.735093
1.842620
1.759531
1.730205
1.730205
1.725318
1.759531
1.754643
1.715543
1.676442
1.676442
1.686217
1.700880
1.730205
1.749756
1.749756
1.749756
0.171065
0.029326
1.730205
1.700880
1.715543
1.710655
1.700880
1.652004
1.652004
1.686217
1.695992
1.695992
1.666667
1.652004
1.642229
1.642229
1.656891
1.666667
1.666667
1.691105
1.686217
1.676442
1.686217
1.710655
1.725318
1.744868
1.735093
1.725318
1.725318
1.725318
1.749756
1.725318
1.705767
1.710655
1.715543
1.710655
1.705767
1.691105
1.671554
1.661779
1.652004
1.647116
1.642229
1.656891
1.691105
1.661779
1.647116
1.647116
1.647116
1.666667
1.661779
1.632454
1.627566
1.632454
1.642229
1.666667
1.671554
1.671554
1.676442
1.671554
1.666667
1.661779
1.676442
1.715543
1.749756
1.705767
1.695992
1.705767
1.725318
1.730205
1.710655
1.705767
1.705767
1.710655
1.725318
1.710655
1.691105
1.681329
1.656891
1.652004
1.647116
1.642229
1.666667
1.676442
1.666667
1.642229
1.632454
1.647116
1.671554
1.686217
1.671554
1.661779
1.652004
1.656891
1.656891
1.671554
1.681329
1.691105
1.691105
1.671554
1.632454
1.632454
1.676442
1.676442
1.739980
1.710655
1.720430
1.744868
1.774194
1.774194
1.759531
1.759531
1.754643
1.754643
1.744868
1.730205
1.691105
1.686217
1.671554
1.656891
1.632454
1.642229
1.647116
1.652004
1.647116
1.637341
1.691105
1.896383
1.642229
1.588465
1.583578
1.593353
1.612903
1.637341
1.652004
1.647116
1.632454
1.578690
1.554252
1.568915
1.598240
1.642229
1.691105
1.715543
1.710655
1.705767
1.739980
1.779081
1.759531
1.749756
1.730205
1.735093
1.735093
1.705767
1.676442
1.652004
1.656891
1.676442
1.691105
1.681329
1.686217
1.710655
1.720430
1.710655
1.700880
1.715543
1.735093
1.744868
1.720430
1.686217
1.656891
1.647116
1.647116
1.671554
1.686217
1.691105
1.691105
1.691105
1.700880
1.720430
1.754643
1.774194
1.774194
1.759531
1.735093
1.739980
1.754643
1.749756
1.744868
1.735093
1.739980
1.715543
1.695992
1.686217
1.666667
1.666667
1.681329
1.681329
1.676442
1.652004
1.656891
1.642229
1.612903
1.593353
1.598240
1.666667
1.632454
1.637341
1.612903
1.603128
1.608016
1.612903
1.617791
1.642229
1.661779
1.666667
1.676442
1.666667
1.676442
1.700880
1.725318
1.730205
1.730205
1.725318
1.739980
1.744868
1.749756
1.739980
1.744868
1.739980
1.749756
1.739980
1.730205
1.705767
1.691105
1.695992
1.695992
1.695992
1.686217
1.691105
1.695992
1.661779
1.647116
1.642229
1.647116
1.652004
1.652004
1.627566
1.612903
1.617791
1.632454
1.637341
1.652004
1.661779
1.656891
1.661779
1.666667
1.671554
1.676442
1.705767
1.710655
1.681329
1.671554
1.676442
1.661779
1.681329
1.686217
1.681329
1.691105
1.700880
1.715543
1.715543
1.705767
1.710655
1.720430
1.695992
1.705767
1.681329
1.715543
1.705767
1.700880
1.676442
1.642229
1.652004
1.637341
1.671554
1.647116
1.632454
1.627566
1.617791
1.627566
1.642229
1.652004
1.642229
1.637341
1.637341
1.652004
1.666667
1.700880
1.725318
1.720430
1.715543
1.710655
1.735093
1.739980
1.725318
1.720430
1.695992
1.700880
1.681329
1.637341
1.612903
1.608016
1.617791
1.617791
1.617791
1.642229
1.647116
1.695992
1.642229
1.637341
1.612903
1.652004
1.642229
1.661779
1.671554
1.661779
1.661779
1.676442
1.681329
1.695992
1.695992
1.695992
1.681329
1.686217
1.691105
1.700880
1.715543
1.735093
1.730205
1.725318
1.744868
1.754643
1.749756
1.700880
1.661779
1.652004
1.671554
1.695992
1.705767
1.725318
1.720430
1.720430
1.744868
1.754643
1.759531
1.749756
1.788856
1.788856
1.754643
1.710655
1.691105
1.700880
1.686217
1.671554
1.627566
1.632454
1.642229
1.642229
1.652004
1.661779
1.666667
1.676442
1.681329
1.695992
1.691105
1.686217
1.710655
1.710655
1.691105
1.700880
1.725318
1.739980
1.720430
1.725318
1.715543
1.725318
1.720430
1.715543
1.705767
1.691105
1.681329
1.681329
1.656891
1.637341
1.593353
1.608016
1.608016
1.583578
1.578690
1.603128
1.632454
1.652004
1.647116
1.617791
1.608016
1.603128
1.612903
1.632454
1.652004
1.676442
1.691105
1.691105
1.700880
1.705767
1.735093
1.774194
1.793744
1.759531
1.739980
1.744868
1.779081
1.759531
1.779081
1.769306
1.764418
1.759531
1.749756
1.739980
1.710655
1.691105
1.686217
1.681329
1.686217
1.691105
1.695992
1.695992
1.695992
1.637341
1.622678
1.642229
1.652004
1.656891
1.622678
1.627566
1.627566
1.632454
1.637341
1.642229
1.612903
1.564027
1.549365
1.554252
1.578690
1.627566
1.676442
1.857283
1.725318
1.671554
1.691105
1.730205
1.735093
1.739980
1.720430
1.705767
1.700880
1.720430
1.715543
1.715543
1.720430
1.710655
1.695992
1.691105
1.686217
1.700880
1.725318
1.705767
1.666667
1.671554
1.681329
1.686217
1.700880
1.661779
1.652004
1.647116
1.632454
1.612903
1.622678
1.632454
1.647116
1.661779
1.686217
1.705767
1.730205
1.764418
1.769306
1.739980
1.754643
1.754643
1.759531
1.764418
1.735093
1.720430
1.735093
1.730205
1.735093
1.725318
1.720430
1.710655
1.710655
1.710655
1.700880
1.691105
1.686217
1.686217
1.803519
1.632454
1.588465
1.617791
1.612903
1.603128
1.608016
1.603128
1.598240
1.608016
1.603128
1.617791
1.632454
1.642229
1.652004
1.652004
1.666667
1.686217
1.691105
1.754643
1.735093
1.720430
1.739980
1.735093
1.754643
1.759531
1.739980
1.725318
1.715543
1.730205
1.720430
1.705767
1.691105
1.686217
1.691105
1.671554
1.671554
1.671554
1.691105
1.695992
1.652004
1.617791
1.632454
1.652004
1.647116
1.617791
1.588465
1.588465
1.593353
1.617791
1.622678
1.612903
1.637341
1.642229
1.642229
1.637341
1.656891
1.700880
1.720430
1.774194
1.744868
1.730205
1.739980
1.749756
1.759531
1.744868
1.730205
1.720430
1.715543
1.710655
1.695992
1.691105
1.681329
1.686217
1.686217
1.686217
1.681329
1.695992
1.681329
1.700880
1.642229
1.642229
1.686217
1.681329
1.676442
1.661779
1.652004
1.661779
1.666667
1.656891
1.676442
1.695992
1.700880
1.705767
1.695992
1.695992
1.725318
1.735093
1.730205
1.725318
1.700880
1.715543
1.735093
1.735093
1.715543
1.710655
1.710655
1.710655
1.700880
1.686217
1.661779
1.661779
1.656891
1.666667
1.661779
1.652004
1.671554
1.671554
1.666667
1.647116
1.627566
1.666667
1.686217
1.681329
1.647116
1.642229
1.632454
1.632454
1.647116
1.661779
1.671554
1.666667
1.681329
1.676442
1.691105
1.691105
1.705767
1.676442
1.656891
1.647116
1.681329
1.725318
1.720430
1.715543
1.705767
1.715543
1.735093
1.739980
1.749756
1.739980
1.739980
1.720430
1.710655
1.700880
1.700880
1.686217
1.676442
1.676442
1.642229
1.627566
1.671554
1.642229
1.652004
1.642229
1.627566
1.627566
1.637341
1.632454
1.632454
1.661779
1.661779
1.666667
1.652004
1.666667
1.671554
1.715543
1.715543
1.691105
1.686217
1.700880
1.730205
1.715543
1.735093
1.725318
1.720430
1.715543
1.715543
1.715543
1.705767
1.705767
1.705767
1.715543
1.705767
1.676442
1.652004
1.691105
1.617791
1.583578
1.568915
1.598240
1.637341
1.622678
1.608016
1.598240
1.583578
1.583578
1.593353
1.622678
1.652004
1.676442
1.691105
1.700880
1.715543
1.744868
1.793744
1.803519
1.793744
1.759531
1.764418
1.774194
1.744868
1.730205
1.691105
1.700880
1.715543
1.720430
1.725318
1.710655
1.705767
1.700880
1.700880
1.695992
1.691105
1.700880
1.720430
1.691105
1.666667
1.642229
1.666667
1.676442
1.671554
1.642229
1.617791
1.608016
1.603128
1.608016
1.617791
1.632454
1.652004
1.652004
1.642229
1.666667
1.676442
1.686217
1.676442
1.720430
1.666667
1.681329
1.700880
1.691105
1.681329
1.647116
1.666667
1.676442
1.691105
1.691105
1.700880
1.676442
1.681329
1.676442
1.686217
1.676442
1.676442
1.725318
1.705767
1.720430
1.710655
1.720430
1.725318
1.695992
1.656891
1.612903
1.603128
1.617791
1.632454
1.652004
1.656891
1.671554
1.671554
1.676442
1.686217
1.695992
1.700880
1.739980
1.739980
1.739980
1.735093
1.759531
1.686217
1.681329
1.681329
1.686217
1.705767
1.730205
1.754643
1.759531
1.754643
1.749756
1.749756
1.749756
1.730205
1.730205
1.749756
1.769306
1.715543
1.661779
1.652004
1.666667
1.652004
1.637341
1.608016
1.608016
1.593353
1.627566
1.656891
1.656891
1.666667
1.671554
1.666667
1.671554
1.681329
1.705767
1.715543
1.710655
1.700880
1.676442
1.715543
1.700880
1.710655
1.700880
1.691105
1.710655
1.710655
1.725318
1.735093
1.715543
1.710655
1.695992
1.686217
1.681329
1.681329
1.695992
1.686217
1.695992
1.661779
1.656891
1.652004
1.686217
1.661779
1.637341
1.617791
1.603128
1.622678
1.632454
1.642229
1.652004
1.666667
1.666667
1.661779
1.671554
1.705767
1.710655
1.754643
1.715543
1.691105
1.720430
1.730205
1.739980
1.735093
1.735093
1.744868
1.744868
1.744868
1.730205
1.720430
1.700880
1.695992
1.695992
1.695992
1.691105
1.695992
1.676442
1.691105
1.656891
1.642229
1.754643
1.681329
1.642229
1.617791
1.608016
1.617791
1.637341
1.627566
1.642229
1.647116
1.647116
1.652004
1.656891
1.671554
1.686217
1.720430
1.730205
1.730205
1.710655
1.710655
1.749756
1.735093
1.720430
1.700880
1.695992
1.705767
1.700880
1.705767
1.676442
1.661779
1.647116
1.627566
1.617791
1.617791
1.627566
1.652004
1.676442
1.642229
1.627566
1.652004
1.656891
1.671554
1.652004
1.637341
1.652004
1.661779
1.671554
1.681329
1.700880
1.700880
1.700880
1.700880
1.695992
1.700880
1.705767
1.779081
1.783969
1.691105
1.691105
1.710655
1.715543
1.744868
1.691105
1.666667
1.666667
1.681329
1.681329
1.691105
1.676442
1.661779
1.647116
1.656891
1.661779
1.676442
1.661779
1.637341
1.603128
1.593353
1.608016
1.656891
1.681329
1.642229
1.598240
1.598240
1.617791
1.661779
1.705767
1.735093
1.735093
1.720430
1.695992
1.681329
1.691105
1.700880
1.739980
1.764418
1.744868
1.744868
1.769306
1.769306
1.793744
1.779081
1.793744
1.793744
1.779081
1.764418
1.754643
1.730205
1.715543
1.705767
1.691105
1.695992
1.671554
1.695992
1.695992
1.681329
1.652004
1.656891
1.656891
1.686217
1.656891
1.632454
1.622678
1.632454
1.632454
1.652004
1.666667
1.676442
1.666667
1.681329
1.671554
1.681329
1.700880
1.710655
1.779081
1.700880
1.691105
1.686217
1.705767
1.710655
1.710655
1.710655
1.705767
1.700880
1.691105
1.691105
1.681329
1.671554
1.642229
1.642229
1.637341
1.642229
1.686217
1.686217
1.652004
1.617791
1.612903
1.642229
1.632454
1.652004
1.637341
1.632454
1.637341
1.637341
1.642229
1.652004
1.661779
1.671554
1.656891
1.647116
1.632454
1.661779
1.691105
1.695992
1.700880
1.676442
1.695992
1.715543
1.739980
1.730205
1.725318
1.730205
1.744868
1.739980
1.739980
1.710655
1.710655
1.700880
1.691105
1.686217
1.686217
1.715543
1.720430
1.725318
1.691105
1.681329
1.661779
1.710655
1.700880
1.656891
1.632454
1.632454
1.632454
1.642229
1.671554
1.681329
1.676442
1.676442
1.666667
1.676442
1.691105
1.720430
1.725318
1.739980
1.730205
1.715543
1.739980
1.744868
1.730205
1.715543
1.715543
1.725318
1.730205
1.730205
1.715543
1.715543
1.705767
1.695992
1.676442
1.666667
1.671554
1.661779
1.652004
1.598240
1.564027
1.593353
1.617791
1.617791
1.593353
1.573803
1.593353
1.608016
1.627566
1.647116
1.656891
1.666667
1.671554
1.681329
1.691105
1.691105
1.749756
1.744868
1.749756
1.730205
1.754643
1.764418
1.730205
1.725318
1.700880
1.691105
1.666667
1.622678
1.583578
1.573803
1.598240
1.617791
1.647116
1.642229
1.647116
1.666667
1.735093
1.725318
1.700880
1.691105
1.710655
1.720430
1.739980
1.705767
1.686217
1.671554
1.661779
1.652004
1.681329
1.691105
1.695992
1.705767
1.710655
1.725318
1.744868
1.764418
1.759531
1.730205
1.735093
1.735093
1.749756
1.744868
1.754643
1.725318
1.715543
1.700880
1.691105
1.686217
1.691105
1.676442
1.681329
1.681329
1.681329
1.681329
1.691105
1.710655
1.700880
1.691105
1.661779
1.671554
1.710655
1.705767
1.691105
1.666667
1.652004
1.632454
1.622678
1.632454
1.642229
1.652004
1.666667
1.671554
1.666667
1.676442
1.700880
1.720430
1.705767
1.710655
1.695992
1.710655
1.735093
1.739980
1.715543
1.705767
1.720430
1.720430
1.715543
1.705767
1.700880
1.695992
1.705767
1.705767
1.691105
1.671554
1.720430
1.700880
1.656891
1.603128
1.593353
1.700880
1.632454
1.612903
1.593353
1.598240
1.608016
1.622678
1.647116
1.656891
1.676442
1.671554
1.681329
1.686217
1.686217
1.705767
1.730205
1.759531
1.749756
1.735093
1.744868
1.754643
1.749756
1.744868
1.730205
1.725318
1.730205
1.725318
1.715543
1.705767
1.700880
1.710655
1.710655
1.695992
1.686217
1.700880
1.681329
1.666667
1.617791
1.598240
1.622678
1.612903
1.612903
1.583578
1.573803
1.568915
1.573803
1.593353
1.603128
1.632454
1.622678
1.617791
1.637341
1.661779
1.691105
1.735093
1.759531
1.739980
1.735093
1.769306
1.764418
1.774194
1.764418
1.739980
1.735093
1.739980
1.754643
1.754643
1.754643
1.744868
1.735093
1.730205
1.725318
1.700880
1.700880
1.705767
1.710655
1.612903
1.583578
1.608016
1.637341
1.656891
1.642229
1.637341
1.632454
1.632454
1.637341
1.666667
1.671554
1.695992
1.705767
1.695992
1.666667
1.661779
1.705767
1.705767
1.705767
1.695992
1.676442
1.710655
1.735093
1.749756
1.744868
1.744868
1.754643
1.744868
1.744868
1.725318
1.710655
1.705767
1.691105
1.671554
1.661779
1.652004
1.710655
1.691105
1.656891
1.637341
1.656891
1.681329
1.676442
1.661779
1.642229
1.642229
1.647116
1.656891
1.666667
1.671554
1.681329
1.671554
1.676442
1.666667
1.686217
1.715543
1.720430
1.710655
1.705767
1.705767
1.705767
1.715543
1.725318
1.700880
1.700880
1.720430
1.715543
1.720430
1.720430
1.705767
1.686217
1.691105
1.691105
1.676442
1.686217
1.720430
1.710655
1.705767
1.661779
1.652004
1.661779
1.652004
1.647116
1.608016
1.598240
1.617791
1.632454
1.642229
1.642229
1.642229
1.627566
1.608016
1.632454
1.642229
1.666667
1.715543
1.700880
1.695992
1.676442
1.661779
1.671554
1.666667
1.671554
1.671554
1.676442
1.695992
1.720430
1.735093
1.735093
1.735093
1.725318
1.735093
1.730205
1.715543
1.720430
1.715543
1.681329
1.666667
1.691105
1.686217
1.686217
1.705767
1.676442
1.661779
1.652004
1.652004
1.661779
1.671554
1.686217
1.681329
1.686217
1.671554
1.681329
1.686217
1.725318
1.730205
1.735093
1.739980
1.754643
1.749756
1.759531
1.730205
1.720430
1.715543
1.720430
1.720430
1.715543
1.695992
1.695992
1.705767
1.700880
1.695992
1.676442
1.686217
1.705767
1.671554
1.627566
1.622678
1.642229
1.647116
1.652004
1.617791
1.617791
1.612903
1.617791
1.622678
1.627566
1.652004
1.652004
1.656891
1.656891
1.622678
1.583578
1.608016
1.627566
1.622678
1.642229
1.686217
1.700880
1.710655
1.715543
1.720430
1.739980
1.759531
1.754643
1.749756
1.739980
1.725318
1.735093
1.720430
1.735093
1.725318
1.725318
1.739980
1.681329
1.656891
1.622678
1.652004
1.681329
1.686217
1.666667
1.652004
1.656891
1.652004
1.652004
1.666667
1.671554
1.676442
1.676442
1.686217
1.681329
1.691105
1.754643
1.754643
1.720430
1.705767
1.691105
1.715543
1.730205
1.739980
1.730205
1.735093
1.735093
1.739980
1.739980
1.710655
1.705767
1.695992
1.691105
1.691105
1.676442
1.666667
1.695992
1.686217
1.656891
1.632454
1.647116
1.691105
1.647116
1.632454
1.608016
1.588465
1.568915
1.564027
1.578690
1.583578
1.603128
1.612903
1.622678
1.642229
1.652004
1.695992
1.720430
1.710655
1.720430
1.720430
1.754643
1.749756
1.754643
1.735093
1.720430
1.705767
1.686217
1.681329
1.691105
1.686217
1.691105
1.686217
1.686217
1.700880
1.710655
1.691105
1.695992
1.661779
1.637341
1.647116
1.666667
1.676442
1.661779
1.656891
1.656891
1.652004
1.652004
1.661779
1.661779
1.676442
1.676442
1.676442
1.691105
1.710655
1.695992
1.735093
1.715543
1.715543
1.725318
1.739980
1.749756
1.749756
1.725318
1.725318
1.739980
1.749756
1.730205
1.720430
1.695992
1.695992
1.695992
1.691105
1.686217
1.671554
1.666667
1.671554
1.627566
1.588465
1.588465
1.612903
1.637341
1.627566
1.627566
1.622678
1.637341
1.647116
1.632454
1.642229
1.652004
1.666667
1.661779
1.671554
1.681329
1.730205
1.754643
1.754643
1.749756
1.730205
1.754643
1.764418
1.744868
1.705767
1.686217
1.691105
1.705767
1.735093
1.735093
1.730205
1.725318
1.715543
1.705767
1.710655
1.681329
1.642229
1.608016
1.608016
1.603128
1.608016
1.759531
1.705767
1.656891
1.627566
1.627566
1.637341
1.656891
1.671554
1.695992
1.691105
1.695992
1.691105
1.691105
1.700880
1.691105
1.730205
1.735093
1.739980
1.730205
1.749756
1.735093
1.744868
1.739980
1.725318
1.730205
1.744868
1.735093
1.730205
1.725318
1.715543
1.710655
1.700880
1.695992
1.686217
1.705767
1.686217
1.681329
1.652004
1.637341
1.661779
1.647116
1.656891
1.632454
1.568915
1.578690
1.617791
1.656891
1.691105
1.720430
1.715543
1.710655
1.705767
1.725318
1.754643
1.779081
1.774194
1.744868
1.730205
1.749756
1.749756
1.739980
1.705767
1.691105
1.681329
1.686217
1.686217
1.705767
1.695992
1.700880
1.710655
1.710655
1.710655
1.686217
1.700880
1.691105
1.700880
1.691105
1.661779
1.686217
1.710655
1.700880
1.666667
1.647116
1.632454
1.622678
1.632454
1.647116
1.652004
1.671554
1.700880
1.686217
1.695992
1.700880
1.759531
1.735093
1.730205
1.715543
1.720430
1.720430
1.739980
1.715543
1.700880
1.686217
1.691105
1.686217
1.691105
1.686217
1.686217
1.686217
1.686217
1.686217
1.676442
1.705767
1.705767
1.676442
1.637341
1.637341
1.637341
1.715543
1.671554
1.627566
1.627566
1.612903
1.622678
1.627566
1.637341
1.642229
1.652004
1.642229
1.647116
1.652004
1.661779
1.710655
1.739980
1.818182
1.730205
1.705767
1.735093
1.735093
1.725318
1.710655
1.710655
1.705767
1.720430
1.715543
1.705767
1.691105
1.686217
1.700880
1.691105
1.695992
1.700880
1.720430
1.710655
1.671554
1.642229
1.676442
1.940371
1.612903
1.554252
1.544477
1.573803
1.603128
1.627566
1.652004
1.666667
1.671554
1.671554
1.671554
1.686217
1.691105
1.705767
1.739980
1.764418
1.715543
1.720430
1.710655
1.725318
1.730205
1.720430
1.715543
1.725318
1.735093
1.730205
1.730205
1.705767
1.691105
1.695992
1.681329
1.671554
1.666667
1.705767
1.676442
1.656891
1.632454
1.637341
1.705767
1.666667
1.632454
1.612903
1.617791
1.612903
1.627566
1.637341
1.647116
1.656891
1.666667
1.661779
1.671554
1.671554
1.710655
1.725318
1.749756
1.730205
1.720430
1.715543
1.754643
1.725318
1.710655
1.695992
1.691105
1.695992
1.695992
1.691105
1.676442
1.652004
1.627566
1.617791
1.598240
1.598240
1.617791
1.568915
1.529814
1.480938
1.485826
1.661779
1.647116
1.622678
1.612903
1.632454
1.666667
1.695992
1.720430
1.744868
1.764418
1.774194
1.764418
1.754643
1.749756
1.730205
1.710655
1.735093
1.705767
1.666667
1.695992
1.715543
1.725318
1.739980
1.749756
1.769306
1.779081
1.783969
1.754643
1.739980
1.725318
1.720430
1.715543
1.700880
1.681329
1.705767
1.695992
1.691105
1.632454
1.647116
1.661779
1.705767
1.661779
1.612903
1.608016
1.622678
1.627566
1.642229
1.656891
1.666667
1.676442
1.676442
1.686217
1.695992
1.691105
1.730205
1.749756
1.749756
1.735093
1.744868
1.725318
1.730205
1.710655
1.691105
1.686217
1.700880
1.700880
1.695992
1.691105
1.676442
1.666667
1.666667
1.661779
1.666667
1.676442
1.676442
1.686217
1.642229
1.617791
1.647116
1.637341
1.647116
1.632454
1.637341
1.642229
1.647116
1.652004
1.656891
1.652004
1.656891
1.666667
1.661779
1.676442
1.686217
1.700880
1.764418
1.788856
1.686217
1.691105
1.715543
1.715543
1.720430
1.705767
1.705767
1.705767
1.710655
1.720430
1.710655
1.720430
1.730205
1.730205
1.725318
1.705767
1.686217
1.700880
1.681329
1.666667
1.642229
1.661779
1.739980
1.671554
1.656891
1.642229
1.647116
1.656891
1.661779
1.656891
1.661779
1.652004
1.666667
1.666667
1.666667
1.676442
1.705767
1.720430
1.720430
1.710655
1.720430
1.725318
1.769306
1.744868
1.695992
1.637341
1.612903
1.617791
1.622678
1.632454
1.632454
1.642229
1.652004
1.671554
1.681329
1.676442
1.735093
1.735093
1.720430
1.671554
1.700880
1.691105
1.705767
1.666667
1.632454
1.622678
1.622678
1.627566
1.642229
1.661779
1.681329
1.710655
1.720430
1.725318
1.715543
1.764418
1.749756
1.725318
1.710655
1.715543
1.735093
1.735093
1.739980
1.725318
1.715543
1.725318
1.720430
1.725318
1.730205
1.705767
1.705767
1.715543
1.695992
1.681329
1.681329
1.686217
1.710655
1.681329
1.642229
1.637341
1.666667
1.681329
1.652004
1.637341
1.622678
1.612903
1.632454
1.642229
1.617791
1.598240
1.593353
1.593353
1.608016
1.632454
1.681329
1.671554
1.715543
1.676442
1.681329
1.710655
1.715543
1.715543
1.695992
1.691105
1.705767
1.710655
1.720430
1.725318
1.710655
1.705767
1.710655
1.700880
1.695992
1.700880
1.700880
1.691105
1.661779
1.642229
1.652004
1.661779
1.686217
1.671554
1.652004
1.637341
1.627566
1.627566
1.647116
1.656891
1.671554
1.676442
1.686217
1.691105
1.686217
1.681329
1.710655
1.720430
1.735093
1.715543
1.715543
1.725318
1.754643
1.715543
1.700880
1.710655
1.720430
1.720430
1.700880
1.686217
1.681329
1.676442
1.686217
1.681329
1.671554
1.700880
1.700880
1.671554
1.671554
1.656891
1.671554
1.700880
1.681329
1.666667
1.652004
1.656891
1.652004
1.666667
1.666667
1.676442
1.676442
1.666667
1.661779
1.652004
1.671554
1.686217
1.700880
1.700880
1.681329
1.705767
1.720430
1.725318
1.720430
1.700880
1.710655
1.725318
1.720430
1.725318
1.700880
1.681329
1.691105
1.691105
1.691105
1.695992
1.700880
1.681329
1.695992
1.666667
1.642229
1.661779
1.691105
1.691105
1.666667
1.642229
1.637341
1.637341
1.637341
1.642229
1.661779
1.666667
1.666667
1.666667
1.681329
1.691105
1.715543
1.744868
1.783969
1.705767
1.720430
1.735093
1.720430
1.715543
1.695992
1.661779
1.632454
1.632454
1.642229
1.652004
1.652004
1.656891
1.676442
1.691105
1.695992
1.691105
1.744868
1.710655
1.691105
1.671554
1.652004
1.695992
1.818182
1.681329
1.617791
1.593353
1.593353
1.568915
1.573803
1.593353
1.568915
1.568915
1.593353
1.622678
1.671554
1.681329
1.754643
1.754643
1.739980
1.754643
1.783969
1.764418
1.739980
1.725318
1.725318
1.735093
1.754643
1.764418
1.749756
1.735093
1.720430
1.730205
1.720430
1.715543
1.695992
1.710655
1.661779
1.627566
1.593353
1.603128
1.656891
1.671554
1.676442
1.661779
1.652004
1.676442
1.681329
1.700880
1.700880
1.705767
1.715543
1.715543
1.710655
1.720430
1.754643
1.764418
1.769306
1.749756
1.730205
1.720430
1.720430
1.715543
1.681329
1.681329
1.700880
1.739980
1.754643
1.764418
1.749756
1.744868
1.739980
0.014663
0.268817
1.720430
1.720430
1.720430
1.725318
1.691105
1.637341
1.632454
1.642229
1.656891
1.661779
1.647116
1.637341
1.627566
1.647116
1.642229
1.652004
1.642229
1.632454
1.642229
1.632454
1.627566
1.656891
1.681329
1.808407
1.686217
1.642229
1.676442
1.671554
1.661779
1.666667
1.666667
1.676442
1.676442
1.676442
1.681329
1.661779
1.656891
1.671554
1.676442
1.681329
1.686217
1.686217
1.686217
1.691105
1.642229
1.642229
1.676442
1.681329
1.671554
1.652004
1.632454
1.637341
1.642229
1.656891
1.647116
1.666667
1.661779
1.656891
1.666667
1.656891
1.647116
1.700880
1.715543
1.705767
1.705767
1.739980
1.720430
1.739980
1.710655
1.700880
1.710655
1.725318
1.739980
1.749756
1.754643
1.744868
1.744868
1.744868
1.744868
1.715543
1.705767
1.700880
1.686217
1.647116
1.632454
1.642229
1.666667
1.671554
1.656891
1.642229
1.642229
1.642229
1.656891
1.661779
1.666667
1.671554
1.676442
1.681329
1.676442
1.691105
1.749756
1.720430
1.730205
1.715543
1.725318
1.725318
1.720430
1.720430
1.715543
1.710655
1.715543
1.725318
1.725318
1.695992
1.666667
1.686217
1.686217
1.686217
1.676442
1.695992
1.715543
1.691105
1.656891
1.627566
1.632454
1.661779
1.666667
1.652004
1.632454
1.617791
1.627566
1.637341
1.652004
1.656891
1.652004
1.608016
1.603128
1.598240
1.593353
1.637341
1.652004
1.656891
1.666667
1.676442
1.749756
1.764418
1.759531
1.749756
1.749756
1.744868
1.749756
1.735093
1.725318
1.705767
1.700880
1.691105
1.691105
1.691105
1.686217
1.705767
1.715543
1.691105
1.666667
1.656891
1.671554
1.666667
1.656891
1.632454
1.632454
1.627566
1.642229
1.656891
1.676442
1.676442
1.681329
1.681329
1.661779
1.656891
1.652004
1.671554
1.647116
1.647116
1.637341
1.661779
1.661779
1.710655
1.720430
1.720430
1.725318
1.730205
1.739980
1.744868
1.739980
1.725318
1.735093
1.735093
1.735093
1.715543
1.744868
1.720430
1.700880
1.656891
1.652004
1.661779
1.720430
1.661779
1.642229
1.647116
1.652004
1.656891
1.666667
1.652004
1.671554
1.666667
1.671554
1.666667
1.676442
1.671554
1.725318
1.735093
1.710655
1.715543
1.715543
1.725318
1.715543
1.715543
1.686217
1.681329
1.681329
1.681329
1.681329
1.686217
1.656891
1.656891
1.666667
1.647116
1.642229
1.661779
1.681329
1.686217
1.637341
1.632454
1.671554
1.676442
1.691105
1.681329
1.656891
1.647116
1.656891
1.671554
1.691105
1.700880
1.710655
1.695992
1.676442
1.666667
1.647116
1.671554
1.666667
1.652004
1.642229
1.676442
1.710655
1.725318
1.725318
1.725318
1.739980
1.754643
1.749756
1.749756
1.735093
1.720430
1.691105
1.666667
1.647116
1.642229
1.642229
1.676442
1.676442
1.661779
1.647116
1.666667
1.681329
1.681329
1.671554
1.647116
1.656891
1.656891
1.671554
1.695992
1.695992
1.700880
1.695992
1.700880
1.705767
1.735093
1.730205
1.827957
1.779081
1.735093
1.730205
1.754643
1.735093
1.754643
1.715543
1.715543
1.700880
1.700880
1.705767
1.700880
1.691105
1.686217
1.695992
1.695992
1.695992
1.666667
1.700880
1.686217
1.637341
1.608016
1.622678
1.637341
1.622678
1.632454
1.622678
1.598240
1.568915
1.539589
1.554252
1.568915
1.598240
1.617791
1.637341
1.652004
1.681329
1.735093
1.915934
1.720430
1.686217
1.700880
1.744868
1.754643
1.744868
1.749756
1.735093
1.735093
1.735093
1.735093
1.715543
1.691105
1.686217
1.681329
1.700880
1.700880
1.691105
1.715543
1.695992
1.671554
1.632454
1.637341
1.652004
1.720430
1.671554
1.642229
1.622678
1.642229
1.647116
1.656891
1.666667
1.681329
1.671554
1.681329
1.681329
1.700880
1.715543
1.725318
1.725318
1.715543
1.700880
1.715543
1.720430
1.700880
1.686217
1.676442
1.676442
1.681329
1.691105
1.691105
1.676442
1.676442
1.671554
1.666667
1.671554
1.666667
1.695992
1.691105
1.676442
1.637341
1.627566
1.652004
1.642229
1.642229
1.612903
1.608016
1.608016
1.627566
1.652004
1.652004
1.666667
1.666667
1.666667
1.666667
1.681329
1.705767
1.695992
1.700880
1.671554
1.666667
1.700880
1.710655
1.725318
1.735093
1.730205
1.730205
1.730205
1.735093
1.710655
1.681329
1.671554
1.661779
1.632454
1.598240
1.593353
1.627566
1.617791
1.642229
1.617791
1.612903
1.691105
1.715543
1.720430
1.705767
1.695992
1.686217
1.686217
1.686217
1.691105
1.700880
1.700880
1.710655
1.715543
1.715543
1.749756
1.764418
1.744868
1.749756
1.749756
1.769306
1.759531
1.759531
1.739980
1.739980
1.739980
1.744868
1.739980
1.744868
1.730205
1.720430
1.715543
1.715543
1.705767
1.710655
1.700880
1.691105
1.686217
1.642229
1.642229
1.661779
1.681329
1.671554
1.642229
1.622678
1.617791
1.632454
1.637341
1.661779
1.676442
1.676442
1.661779
1.681329
1.686217
1.686217
1.705767
1.754643
1.710655
1.686217
1.715543
1.725318
1.710655
1.710655
1.695992
1.695992
1.695992
1.691105
1.695992
1.695992
1.691105
1.686217
1.700880
1.700880
1.691105
1.710655
1.705767
1.710655
1.666667
1.642229
1.666667
1.656891
1.656891
1.637341
1.622678
1.622678
1.627566
1.642229
1.652004
1.671554
1.666667
1.666667
1.676442
1.676442
1.681329
1.725318
1.710655
1.695992
1.681329
1.686217
1.681329
1.671554
1.671554
1.642229
1.647116
1.656891
1.671554
1.676442
1.676442
1.666667
1.666667
1.676442
1.686217
1.686217
1.686217
1.671554
1.671554
1.652004
1.632454
1.661779
1.666667
1.676442
1.652004
1.637341
1.642229
1.652004
1.661779
1.661779
1.681329
1.656891
1.603128
1.573803
1.559140
1.598240
1.622678
1.622678
1.603128
1.608016
1.627566
1.656891
1.705767
1.739980
1.739980
1.749756
1.769306
1.779081
1.783969
1.788856
1.769306
1.759531
1.754643
1.744868
1.725318
1.715543
1.695992
1.695992
1.676442
1.642229
1.647116
1.671554
1.666667
1.661779
1.622678
1.627566
1.603128
1.608016
1.627566
1.642229
1.671554
1.686217
1.695992
1.700880
1.715543
1.754643
1.774194
1.764418
1.744868
1.754643
1.769306
1.764418
1.764418
1.739980
1.720430
1.725318
1.730205
1.725318
1.720430
1.725318
1.705767
1.700880
1.695992
1.666667
1.666667
1.666667
1.666667
1.652004
1.627566
1.622678
1.642229
1.637341
1.632454
1.612903
1.608016
1.608016
1.617791
1.632454
1.642229
1.652004
1.661779
1.666667
1.666667
1.666667
1.710655
1.730205
1.749756
1.720430
1.725318
1.715543
1.739980
1.725318
1.720430
1.725318
1.735093
1.744868
1.744868
1.744868
1.730205
1.705767
1.686217
1.666667
1.647116
1.617791
1.642229
1.627566
1.627566
1.612903
1.622678
1.661779
1.676442
1.676442
1.647116
1.661779
1.671554
1.661779
1.671554
1.681329
1.695992
1.695992
1.705767
1.710655
1.720430
1.700880
1.754643
1.730205
1.725318
1.695992
1.735093
1.715543
1.730205
1.695992
1.700880
1.691105
1.700880
1.705767
1.705767
1.700880
1.705767
1.710655
1.710655
1.700880
1.720430
1.710655
1.686217
1.691105
1.661779
1.642229
1.705767
1.681329
1.656891
1.622678
1.608016
1.622678
1.632454
1.642229
1.652004
1.661779
1.676442
1.676442
1.686217
1.686217
1.710655
1.720430
1.735093
1.735093
1.710655
1.676442
1.661779
1.642229
1.617791
1.608016
1.612903
1.627566
1.652004
1.671554
1.705767
1.705767
1.720430
1.739980
1.744868
1.735093
1.739980
1.744868
1.705767
1.695992
1.656891
1.652004
1.695992
1.691105
1.676442
1.652004
1.647116
1.647116
1.647116
1.656891
1.676442
1.666667
1.666667
1.676442
1.695992
1.710655
1.744868
1.749756
1.808407
1.744868
1.735093
1.744868
1.744868
1.730205
1.715543
1.700880
1.686217
1.676442
1.676442
1.666667
1.666667
1.681329
1.695992
1.700880
1.705767
1.695992
1.720430
1.700880
1.666667
1.656891
1.642229
1.691105
1.676442
1.676442
1.652004
1.647116
1.627566
1.642229
1.652004
1.647116
1.666667
1.681329
1.686217
1.695992
1.710655
1.715543
1.764418
1.730205
1.715543
1.686217
1.735093
1.739980
1.710655
1.705767
1.700880
1.710655
1.715543
1.720430
1.715543
1.705767
1.691105
1.681329
1.686217
1.671554
1.676442
1.695992
1.676442
1.661779
1.627566
1.647116
1.627566
1.637341
1.627566
1.603128
1.598240
1.608016
1.612903
1.627566
1.642229
1.652004
1.661779
1.676442
1.676442
1.686217
1.705767
1.686217
1.715543
1.700880
1.700880
1.730205
1.730205
1.720430
1.715543
1.700880
1.695992
1.695992
1.686217
1.676442
1.652004
1.652004
1.666667
1.681329
1.686217
1.686217
1.695992
1.681329
1.686217
1.656891
1.656891
1.666667
1.715543
1.681329
1.637341
1.637341
1.642229
1.642229
1.652004
1.666667
1.671554
1.676442
1.681329
1.681329
1.686217
1.705767
1.735093
1.744868
1.725318
1.715543
1.739980
1.730205
1.739980
1.720430
1.720430
1.705767
1.715543
1.715543
1.715543
1.700880
1.691105
1.691105
1.695992
1.691105
1.681329
1.705767
1.710655
1.666667
1.642229
1.632454
1.642229
1.661779
1.661779
1.642229
1.612903
1.612903
1.612903
1.622678
1.627566
1.632454
1.642229
1.642229
1.637341
1.647116
1.666667
1.700880
1.691105
1.691105
1.691105
1.700880
1.730205
1.725318
1.720430
1.705767
1.710655
1.720430
1.725318
1.739980
1.735093
1.720430
1.700880
1.691105
1.676442
1.656891
1.666667
1.691105
1.705767
1.686217
1.647116
1.647116
1.666667
1.642229
1.637341
1.622678
1.627566
1.637341
1.642229
1.666667
1.671554
1.691105
1.710655
1.715543
1.730205
1.705767
1.691105
1.661779
1.666667
1.627566
1.627566
1.676442
1.700880
1.661779
1.647116
1.666667
1.686217
1.705767
1.715543
1.715543
1.725318
1.720430
1.725318
1.725318
1.715543
1.715543
1.730205
1.691105
1.666667
1.647116
1.656891
1.715543
1.725318
1.686217
1.661779
1.671554
1.666667
1.661779
1.671554
1.681329
1.681329
1.681329
1.671554
1.681329
1.710655
1.725318
1.774194
1.759531
1.730205
1.730205
1.744868
1.715543
1.710655
1.695992
1.695992
1.705767
1.715543
1.715543
1.705767
1.691105
1.686217
1.705767
1.720430
1.705767
1.705767
1.720430
1.700880
1.686217
1.666667
1.661779
1.666667
1.686217
1.661779
1.637341
1.642229
1.642229
1.656891
1.656891
1.652004
1.647116
1.642229
1.656891
1.661779
1.671554
1.710655
1.744868
1.725318
1.705767
1.710655
1.725318
1.735093
1.730205
1.710655
1.700880
1.710655
1.710655
1.705767
1.686217
1.656891
1.647116
1.647116
1.642229
1.627566
1.627566
1.656891
1.666667
1.656891
1.632454
1.642229
1.622678
1.666667
1.656891
1.632454
1.622678
1.622678
1.632454
1.652004
1.656891
1.671554
1.666667
1.652004
1.666667
1.681329
1.705767
1.764418
1.749756
1.725318
1.720430
1.744868
1.754643
1.744868
1.744868
1.735093
1.735093
1.744868
1.735093
1.705767
1.661779
1.642229
1.642229
1.652004
1.671554
1.666667
1.695992
1.686217
1.686217
1.686217
1.666667
1.691105
1.710655
1.686217
1.661779
1.656891
1.647116
1.647116
1.652004
1.647116
1.661779
1.671554
1.681329
1.681329
1.691105
1.715543
1.769306
1.739980
1.735093
1.715543
1.720430
1.730205
1.739980
1.720430
1.715543
1.710655
1.720430
1.720430
1.715543
1.710655
1.700880
1.691105
1.700880
1.686217
1.681329
1.681329
1.695992
1.691105
1.647116
1.622678
1.642229
1.720430
1.700880
1.632454
1.608016
1.608016
1.612903
1.622678
1.642229
1.642229
1.652004
1.652004
1.656891
1.676442
1.691105
1.720430
1.720430
1.725318
1.695992
1.705767
1.744868
1.710655
1.710655
1.710655
1.710655
1.710655
1.710655
1.705767
1.686217
1.676442
1.666667
1.686217
1.686217
1.686217
1.695992
1.686217
1.691105
1.656891
1.627566
1.671554
1.720430
1.671554
1.637341
1.622678
1.627566
1.622678
1.608016
1.612903
1.617791
1.612903
1.632454
1.647116
1.652004
1.681329
1.700880
1.725318
1.818182
1.700880
1.656891
1.676442
1.686217
1.695992
1.700880
1.720430
1.730205
1.735093
1.744868
1.739980
1.735093
1.730205
1.730205
1.739980
1.735093
1.715543
1.720430
1.730205
1.691105
1.656891
1.656891
1.725318
1.671554
1.637341
1.627566
1.612903
1.603128
1.603128
1.622678
1.627566
1.647116
1.666667
1.676442
1.691105
1.695992
1.739980
1.735093
1.735093
1.715543
1.720430
1.725318
1.739980
1.739980
1.705767
1.700880
1.695992
1.710655
1.710655
1.705767
1.691105
1.691105
1.686217
1.676442
1.671554
1.656891
1.686217
1.676442
1.666667
1.622678
1.612903
1.652004
1.695992
1.647116
1.622678
1.627566
1.632454
1.637341
1.642229
1.647116
1.652004
1.661779
1.656891
1.637341
1.608016
1.617791
1.666667
1.705767
1.666667
1.661779
1.647116
1.656891
1.686217
1.671554
1.691105
1.720430
1.735093
1.749756
1.759531
1.749756
1.754643
1.764418
1.769306
1.779081
1.788856
1.783969
1.783969
1.725318
1.695992
1.652004
1.627566
1.627566
1.642229
1.637341
1.637341
1.647116
1.661779
1.676442
1.686217
1.686217
1.681329
1.676442
1.671554
1.681329
1.700880
1.720430
1.730205
1.720430
1.725318
1.720430
1.730205
1.730205
1.735093
1.720430
1.720430
1.720430
1.710655
1.705767
1.686217
1.676442
1.666667
1.681329
1.686217
1.686217
1.705767
1.715543
1.666667
1.637341
1.612903
1.647116
1.652004
1.652004
1.622678
1.622678
1.617791
1.622678
1.642229
1.661779
1.676442
1.676442
1.686217
1.686217
1.691105
1.686217
1.715543
1.705767
1.700880
1.681329
1.686217
1.735093
1.695992
1.715543
1.695992
1.705767
1.681329
1.661779
1.661779
1.661779
1.652004
1.661779
1.676442
1.681329
1.632454
1.632454
1.637341
1.642229
1.652004
1.642229
1.705767
1.832845
1.705767
1.642229
1.637341
1.642229
1.647116
1.661779
1.666667
1.676442
1.676442
1.681329
1.681329
1.676442
1.676442
1.715543
1.715543
1.705767
1.700880
1.710655
1.686217
1.700880
1.705767
1.700880
1.705767
1.725318
1.725318
1.720430
1.695992
1.676442
1.661779
1.652004
1.598240
1.578690
1.583578
1.598240
1.617791
1.608016
1.598240
1.617791
1.647116
1.676442
1.666667
1.652004
1.671554
1.671554
1.676442
1.691105
1.705767
1.700880
1.700880
1.691105
1.681329
1.695992
1.691105
1.735093
1.735093
1.725318
1.739980
1.754643
1.759531
1.739980
1.725318
1.725318
1.730205
1.725318
1.730205
1.725318
1.720430
1.705767
1.700880
1.700880
1.681329
1.676442
1.671554
1.710655
1.676442
1.642229
1.652004
1.661779
1.666667
1.661779
1.632454
1.642229
1.642229
1.652004
1.661779
1.656891
1.666667
1.656891
1.656891
1.622678
1.583578
1.608016
1.622678
1.637341
1.671554
1.671554
1.676442
1.681329
1.705767
1.691105
1.691105
1.705767
1.725318
1.730205
1.725318
1.705767
1.715543
1.720430
1.715543
1.705767
1.700880
1.720430
1.700880
1.695992
1.652004
1.652004
1.686217
1.705767
1.700880
1.681329
1.671554
1.661779
1.661779
1.642229
1.632454
1.637341
1.632454
1.642229
1.647116
1.656891
1.681329
1.695992
1.715543
1.700880
1.710655
1.744868
1.749756
1.759531
1.754643
1.749756
1.739980
1.754643
1.735093
1.744868
1.730205
1.730205
1.720430
1.705767
1.691105
1.671554
1.671554
1.686217
1.666667
1.647116
1.642229
1.671554
1.681329
1.656891
1.632454
1.637341
1.627566
1.637341
1.632454
1.642229
1.656891
1.671554
1.671554
1.686217
1.700880
1.730205
1.788856
1.749756
1.715543
1.705767
1.700880
1.730205
0.171065
0.014663
1.730205
1.725318
1.720430
1.720430
1.720430
1.700880
1.686217
1.661779
1.656891
1.661779
1.661779
1.652004
1.681329
1.681329
1.642229
1.656891
1.632454
1.647116
1.642229
1.656891
1.627566
1.622678
1.612903
1.608016
1.617791
1.642229
1.656891
1.666667
1.666667
1.666667
1.661779
1.691105
1.700880
1.715543
1.705767
1.715543
1.715543
1.739980
1.739980
1.735093
1.730205
1.730205
1.749756
1.744868
1.749756
1.744868
1.725318
1.720430
1.710655
1.695992
1.681329
1.705767
1.676442
1.656891
1.642229
1.622678
1.642229
1.647116
1.656891
1.652004
1.588465
1.564027
1.529814
1.534702
1.564027
1.588465
1.608016
1.656891
1.681329
1.691105
1.710655
1.720430
1.779081
1.725318
1.739980
1.749756
1.749756
1.749756
1.749756
1.735093
1.739980
1.739980
1.744868
1.739980
1.730205
1.725318
1.725318
1.725318
1.715543
1.686217
1.700880
1.705767
1.686217
1.661779
1.627566
1.642229
1.647116
1.676442
1.656891
1.627566
1.603128
1.603128
1.608016
1.617791
1.632454
1.632454
1.632454
1.642229
1.661779
1.676442
1.720430
1.754643
1.730205
1.720430
1.695992
1.695992
1.710655
1.725318
1.691105
1.681329
1.681329
1.686217
1.695992
1.700880
1.710655
1.705767
1.720430
1.725318
1.725318
1.730205
1.730205
1.725318
1.705767
1.671554
1.676442
1.759531
1.700880
1.691105
1.666667
1.661779
1.656891
1.647116
1.647116
1.666667
1.671554
1.666667
1.681329
1.681329
1.695992
1.695992
1.715543
1.730205
1.730205
1.725318
1.744868
1.739980
1.744868
1.730205
