	Time	Channel 1	Channel 2	Channel 3	Channel 4
0	0.0	0.690909090909	17.8299401198	-20.7815602837	-0.263636363636
1	0.0005	9.36363636364	15.005988024	-8.06028368794	-0.263636363636
2	0.001	0.690909090909	15.005988024	-8.06028368794	2.60909090909
3	0.0015	-2.2	10.7700598802	-10.8872340426	-7.44545454545
4	0.002	-2.2	16.4179640719	-10.8872340426	1.17272727273
5	0.0025	16.5909090909	10.7700598802	-9.47375886525	-0.263636363636
6	0.003	-2.2	13.594011976	-23.6085106383	2.60909090909
7	0.0035	-0.754545454545	15.005988024	-12.3007092199	-0.263636363636
8	0.004	-2.2	10.7700598802	-20.7815602837	-3.13636363636
9	0.0045	-0.754545454545	15.005988024	-10.8872340426	1.17272727273
10	0.005	-2.2	3.71017964072	-13.7141843972	-0.263636363636
11	0.0055	0.690909090909	16.4179640719	-15.1276595745	1.17272727273
12	0.006	-10.8727272727	16.4179640719	-17.9546099291	2.60909090909
13	0.0065	10.8090909091	13.594011976	-13.7141843972	-1.7
14	0.007	-7.98181818182	16.4179640719	-13.7141843972	12.6636363636
15	0.0075	-0.754545454545	15.005988024	-12.3007092199	-1.7
16	0.008	-0.754545454545	17.8299401198	-20.7815602837	1.17272727273
17	0.0085	2.13636363636	13.594011976	-13.7141843972	-0.263636363636
18	0.009	-3.64545454545	13.594011976	-19.3680851064	-3.13636363636
19	0.0095	-0.754545454545	22.0658682635	-10.8872340426	1.17272727273
20	0.01	-5.09090909091	13.594011976	-13.7141843972	2.60909090909
21	0.0105	16.5909090909	15.005988024	-13.7141843972	1.17272727273
22	0.011	-10.8727272727	15.005988024	-10.8872340426	-0.263636363636
23	0.0115	-0.754545454545	15.005988024	-10.8872340426	2.60909090909
24	0.012	-2.2	15.005988024	-23.6085106383	-0.263636363636
25	0.0125	-0.754545454545	12.1820359281	-13.7141843972	-4.57272727273
26	0.013	2.13636363636	15.005988024	-13.7141843972	1.17272727273
27	0.0135	2.13636363636	17.8299401198	-15.1276595745	-0.263636363636
28	0.014	0.690909090909	20.6538922156	-15.1276595745	-0.263636363636
29	0.0145	-13.7636363636	17.8299401198	-15.1276595745	-1.7
30	0.015	-9.42727272727	15.005988024	-16.5411347518	-0.263636363636
31	0.0155	18.0363636364	16.4179640719	-19.3680851064	1.17272727273
32	0.016	0.690909090909	16.4179640719	-17.9546099291	4.04545454545
33	0.0165	0.690909090909	15.005988024	-29.2624113475	-1.7
34	0.017	0.690909090909	17.8299401198	-16.5411347518	-8.88181818182
35	0.0175	2.13636363636	15.005988024	-8.06028368794	-1.7
36	0.018	2.13636363636	23.4778443114	-19.3680851064	-1.7
37	0.0185	2.13636363636	30.5377245509	-16.5411347518	-0.263636363636
38	0.019	3.58181818182	3.71017964072	-15.1276595745	-0.263636363636
39	0.0195	2.13636363636	15.005988024	-15.1276595745	2.60909090909
40	0.02	-2.2	13.594011976	-13.7141843972	-11.7545454545
41	0.0205	2.13636363636	16.4179640719	-15.1276595745	15.5363636364
42	0.021	-2.2	16.4179640719	-15.1276595745	-4.57272727273
43	0.0215	-0.754545454545	15.005988024	-19.3680851064	-1.7
44	0.022	-2.2	16.4179640719	-16.5411347518	-0.263636363636
45	0.0225	-2.2	10.7700598802	-13.7141843972	-1.7
46	0.023	-0.754545454545	22.0658682635	-12.3007092199	-0.263636363636
47	0.0235	2.13636363636	9.35808383234	-10.8872340426	2.60909090909
48	0.024	-7.98181818182	13.594011976	-12.3007092199	-3.13636363636
49	0.0245	-10.8727272727	13.594011976	-12.3007092199	-7.44545454545
50	0.025	-0.754545454545	16.4179640719	-15.1276595745	-4.57272727273
51	0.0255	0.690909090909	20.6538922156	1.83404255319	1.17272727273
52	0.026	-0.754545454545	13.594011976	-20.7815602837	-0.263636363636
53	0.0265	0.690909090909	13.594011976	3.2475177305	-0.263636363636
54	0.027	2.13636363636	24.8898203593	-9.47375886525	-0.263636363636
55	0.0275	-0.754545454545	9.35808383234	-9.47375886525	-0.263636363636
56	0.028	2.13636363636	17.8299401198	-9.47375886525	-0.263636363636
57	0.0285	-13.7636363636	13.594011976	-10.8872340426	-6.00909090909
58	0.029	-0.754545454545	19.2419161677	-9.47375886525	4.04545454545
59	0.0295	0.690909090909	19.2419161677	-12.3007092199	-7.44545454545
60	0.03	-2.2	19.2419161677	-10.8872340426	-0.263636363636
61	0.0305	-2.2	16.4179640719	-10.8872340426	-0.263636363636
62	0.031	-2.2	16.4179640719	-10.8872340426	-0.263636363636
63	0.0315	-0.754545454545	34.7736526946	-8.06028368794	1.17272727273
64	0.032	-3.64545454545	7.94610778443	-9.47375886525	-0.263636363636
65	0.0325	-0.754545454545	19.2419161677	-10.8872340426	-0.263636363636
66	0.033	-2.2	17.8299401198	-12.3007092199	-0.263636363636
67	0.0335	7.91818181818	15.005988024	-10.8872340426	-6.00909090909
68	0.034	-2.2	13.594011976	-5.23333333333	6.91818181818
69	0.0345	-0.754545454545	19.2419161677	-8.06028368794	9.79090909091
70	0.035	-0.754545454545	16.4179640719	7.48794326241	1.17272727273
71	0.0355	-0.754545454545	16.4179640719	-3.81985815603	-0.263636363636
72	0.036	-0.754545454545	5.12215568862	-3.81985815603	-0.263636363636
73	0.0365	-0.754545454545	27.7137724551	-6.64680851064	1.17272727273
74	0.037	0.690909090909	7.94610778443	-5.23333333333	1.17272727273
75	0.0375	-5.09090909091	10.7700598802	-6.64680851064	1.17272727273
76	0.038	-5.09090909091	12.1820359281	-9.47375886525	6.91818181818
77	0.0385	-2.2	7.94610778443	-3.81985815603	-3.13636363636
78	0.039	-0.754545454545	9.35808383234	-8.06028368794	15.5363636364
79	0.0395	0.690909090909	7.94610778443	7.48794326241	1.17272727273
80	0.04	0.690909090909	13.594011976	-13.7141843972	-0.263636363636
81	0.0405	0.690909090909	-0.525748502994	-6.64680851064	1.17272727273
82	0.041	-0.754545454545	26.3017964072	-6.64680851064	-0.263636363636
83	0.0415	-0.754545454545	2.29820359281	-8.06028368794	-0.263636363636
84	0.042	2.13636363636	15.005988024	-6.64680851064	1.17272727273
85	0.0425	-3.64545454545	16.4179640719	-8.06028368794	-3.13636363636
86	0.043	-6.53636363636	10.7700598802	-8.06028368794	-3.13636363636
87	0.0435	-3.64545454545	10.7700598802	-5.23333333333	1.17272727273
88	0.044	-2.2	9.35808383234	-5.23333333333	11.2272727273
89	0.0445	0.690909090909	6.53413173653	-8.06028368794	-0.263636363636
90	0.045	-2.2	13.594011976	-6.64680851064	-0.263636363636
91	0.0455	0.690909090909	5.12215568862	-8.06028368794	1.17272727273
92	0.046	-0.754545454545	23.4778443114	-8.06028368794	-0.263636363636
93	0.0465	-0.754545454545	5.12215568862	-10.8872340426	2.60909090909
94	0.047	-3.64545454545	12.1820359281	-9.47375886525	-7.44545454545
95	0.0475	-3.64545454545	10.7700598802	-12.3007092199	16.9727272727
96	0.048	-0.754545454545	6.53413173653	-6.64680851064	-7.44545454545
97	0.0485	-3.64545454545	9.35808383234	-15.1276595745	1.17272727273
98	0.049	-0.754545454545	9.35808383234	-10.8872340426	-6.00909090909
99	0.0495	-2.2	6.53413173653	-6.64680851064	1.17272727273
100	0.05	2.13636363636	20.6538922156	-9.47375886525	-0.263636363636
101	0.0505	-0.754545454545	23.4778443114	-10.8872340426	2.60909090909
102	0.051	0.690909090909	-1.9377245509	-10.8872340426	-0.263636363636
103	0.0515	-2.2	5.12215568862	-13.7141843972	1.17272727273
104	0.052	0.690909090909	5.12215568862	-12.3007092199	-7.44545454545
105	0.0525	-5.09090909091	6.53413173653	-10.8872340426	5.48181818182
106	0.053	-2.2	9.35808383234	-9.47375886525	-6.00909090909
107	0.0535	2.13636363636	10.7700598802	6.07446808511	1.17272727273
108	0.054	-0.754545454545	9.35808383234	-13.7141843972	1.17272727273
109	0.0545	2.13636363636	-1.9377245509	-5.23333333333	1.17272727273
110	0.055	-2.2	2.29820359281	-3.81985815603	-0.263636363636
111	0.0555	5.02727272727	12.1820359281	-8.06028368794	1.17272727273
112	0.056	-3.64545454545	16.4179640719	-8.06028368794	-0.263636363636
113	0.0565	13.7	16.4179640719	-2.40638297872	2.60909090909
114	0.057	2.13636363636	17.8299401198	-3.81985815603	6.91818181818
115	0.0575	0.690909090909	17.8299401198	-15.1276595745	-1.7
116	0.058	-0.754545454545	13.594011976	15.9687943262	1.17272727273
117	0.0585	-0.754545454545	10.7700598802	-9.47375886525	-0.263636363636
118	0.059	-0.754545454545	7.94610778443	-8.06028368794	4.04545454545
119	0.0595	-0.754545454545	10.7700598802	-0.992907801418	1.17272727273
120	0.06	-5.09090909091	2.29820359281	0.420567375887	1.17272727273
121	0.0605	18.0363636364	6.53413173653	-2.40638297872	1.17272727273
122	0.061	15.1454545455	5.12215568862	-0.992907801418	1.17272727273
123	0.0615	-2.2	3.71017964072	-9.47375886525	-3.13636363636
124	0.062	-5.09090909091	2.29820359281	13.1418439716	1.17272727273
125	0.0625	-3.64545454545	6.53413173653	-8.06028368794	1.17272727273
126	0.063	-0.754545454545	7.94610778443	-0.992907801418	-0.263636363636
127	0.0635	-0.754545454545	17.8299401198	-2.40638297872	2.60909090909
128	0.064	-0.754545454545	17.8299401198	-3.81985815603	-1.7
129	0.0645	-15.2090909091	22.0658682635	-8.06028368794	-3.13636363636
130	0.065	13.7	16.4179640719	-6.64680851064	1.17272727273
131	0.0655	-7.98181818182	19.2419161677	-8.06028368794	-11.7545454545
132	0.066	0.690909090909	16.4179640719	-9.47375886525	19.8454545455
133	0.0665	0.690909090909	17.8299401198	-6.64680851064	-10.3181818182
134	0.067	-2.2	16.4179640719	-22.195035461	1.17272727273
135	0.0675	-3.64545454545	9.35808383234	-10.8872340426	1.17272727273
136	0.068	-3.64545454545	9.35808383234	-20.7815602837	-0.263636363636
137	0.0685	-0.754545454545	-1.9377245509	-15.1276595745	-0.263636363636
138	0.069	0.690909090909	0.88622754491	-8.06028368794	-0.263636363636
139	0.0695	-10.8727272727	13.594011976	-8.06028368794	1.17272727273
140	0.07	16.5909090909	16.4179640719	-6.64680851064	5.48181818182
141	0.0705	-10.8727272727	16.4179640719	-5.23333333333	-8.88181818182
142	0.071	0.690909090909	16.4179640719	-9.47375886525	-8.88181818182
143	0.0715	0.690909090909	13.594011976	-5.23333333333	4.04545454545
144	0.072	0.690909090909	16.4179640719	-15.1276595745	-0.263636363636
145	0.0725	2.13636363636	12.1820359281	13.1418439716	-0.263636363636
146	0.073	-0.754545454545	16.4179640719	-5.23333333333	-0.263636363636
147	0.0735	-0.754545454545	3.71017964072	-3.81985815603	-0.263636363636
148	0.074	-2.2	13.594011976	-6.64680851064	-1.7
149	0.0745	2.13636363636	10.7700598802	-9.47375886525	-1.7
150	0.075	7.91818181818	10.7700598802	-5.23333333333	-0.263636363636
151	0.0755	-5.09090909091	13.594011976	-9.47375886525	4.04545454545
152	0.076	2.13636363636	13.594011976	-17.9546099291	-0.263636363636
153	0.0765	0.690909090909	9.35808383234	-0.992907801418	-0.263636363636
154	0.077	-0.754545454545	6.53413173653	-12.3007092199	-0.263636363636
155	0.0775	-0.754545454545	-1.9377245509	-8.06028368794	-0.263636363636
156	0.078	2.13636363636	26.3017964072	-8.06028368794	1.17272727273
157	0.0785	-3.64545454545	3.71017964072	-6.64680851064	-0.263636363636
158	0.079	-0.754545454545	15.005988024	-6.64680851064	-1.7
159	0.0795	-10.8727272727	9.35808383234	-5.23333333333	-3.13636363636
160	0.08	-6.53636363636	9.35808383234	-5.23333333333	-0.263636363636
161	0.0805	0.690909090909	13.594011976	-6.64680851064	-3.13636363636
162	0.081	-0.754545454545	16.4179640719	0.420567375887	-7.44545454545
163	0.0815	-0.754545454545	10.7700598802	-9.47375886525	-3.13636363636
164	0.082	-0.754545454545	17.8299401198	13.1418439716	-3.13636363636
165	0.0825	-0.754545454545	6.53413173653	-3.81985815603	-0.263636363636
166	0.083	-2.2	16.4179640719	-2.40638297872	-3.13636363636
167	0.0835	2.13636363636	16.4179640719	-2.40638297872	-1.7
168	0.084	-6.53636363636	15.005988024	-0.992907801418	-1.7
169	0.0845	0.690909090909	15.005988024	0.420567375887	12.6636363636
170	0.085	0.690909090909	15.005988024	-2.40638297872	-1.7
171	0.0855	0.690909090909	16.4179640719	3.2475177305	-0.263636363636
172	0.086	-2.2	16.4179640719	-10.8872340426	-4.57272727273
173	0.0865	-0.754545454545	2.29820359281	-0.992907801418	-3.13636363636
174	0.087	0.690909090909	30.5377245509	-0.992907801418	-0.263636363636
175	0.0875	-2.2	5.12215568862	-0.992907801418	-1.7
176	0.088	3.58181818182	13.594011976	-0.992907801418	-0.263636363636
177	0.0885	-2.2	13.594011976	0.420567375887	-0.263636363636
178	0.089	-0.754545454545	10.7700598802	-0.992907801418	4.04545454545
179	0.0895	-2.2	9.35808383234	-12.3007092199	-3.13636363636
180	0.09	-3.64545454545	13.594011976	15.9687943262	-0.263636363636
181	0.0905	0.690909090909	10.7700598802	-8.06028368794	-3.13636363636
182	0.091	0.690909090909	9.35808383234	3.2475177305	1.17272727273
183	0.0915	0.690909090909	26.3017964072	3.2475177305	-1.7
184	0.092	-0.754545454545	5.12215568862	3.2475177305	2.60909090909
185	0.0925	-6.53636363636	9.35808383234	3.2475177305	-0.263636363636
186	0.093	15.1454545455	9.35808383234	-0.992907801418	2.60909090909
187	0.0935	-7.98181818182	9.35808383234	4.6609929078	-11.7545454545
188	0.094	-0.754545454545	7.94610778443	-0.992907801418	15.5363636364
189	0.0945	-0.754545454545	13.594011976	13.1418439716	-1.7
190	0.095	-0.754545454545	10.7700598802	-0.992907801418	2.60909090909
191	0.0955	0.690909090909	17.8299401198	4.6609929078	-1.7
192	0.096	-3.64545454545	0.88622754491	1.83404255319	-3.13636363636
193	0.0965	-0.754545454545	30.5377245509	1.83404255319	-0.263636363636
194	0.097	-3.64545454545	3.71017964072	0.420567375887	2.60909090909
195	0.0975	-5.09090909091	15.005988024	1.83404255319	1.17272727273
196	0.098	0.690909090909	16.4179640719	0.420567375887	-10.3181818182
197	0.0985	-3.64545454545	15.005988024	-6.64680851064	18.4090909091
198	0.099	-0.754545454545	10.7700598802	15.9687943262	-0.263636363636
199	0.0995	-2.2	15.005988024	-6.64680851064	-0.263636363636
200	0.1	-0.754545454545	13.594011976	-2.40638297872	1.17272727273
201	0.1005	0.690909090909	-3.3497005988	-0.992907801418	4.04545454545
202	0.101	2.13636363636	29.125748503	-0.992907801418	-0.263636363636
203	0.1015	-5.09090909091	2.29820359281	0.420567375887	1.17272727273
204	0.102	2.13636363636	6.53413173653	-0.992907801418	2.60909090909
205	0.1025	-2.2	7.94610778443	1.83404255319	-10.3181818182
206	0.103	-3.64545454545	7.94610778443	3.2475177305	15.5363636364
207	0.1035	-2.2	9.35808383234	-0.992907801418	15.5363636364
208	0.104	-0.754545454545	10.7700598802	7.48794326241	-0.263636363636
209	0.1045	-2.2	0.88622754491	-2.40638297872	-0.263636363636
210	0.105	-0.754545454545	23.4778443114	0.420567375887	-0.263636363636
211	0.1055	0.690909090909	-4.76167664671	-2.40638297872	-0.263636363636
212	0.106	-2.2	7.94610778443	-0.992907801418	-1.7
213	0.1065	0.690909090909	9.35808383234	-0.992907801418	-3.13636363636
214	0.107	-5.09090909091	6.53413173653	-0.992907801418	15.5363636364
215	0.1075	-0.754545454545	10.7700598802	-0.992907801418	-4.57272727273
216	0.108	0.690909090909	9.35808383234	-12.3007092199	2.60909090909
217	0.1085	0.690909090909	9.35808383234	1.83404255319	1.17272727273
218	0.109	-0.754545454545	0.88622754491	-3.81985815603	1.17272727273
219	0.1095	-0.754545454545	24.8898203593	-6.64680851064	1.17272727273
220	0.11	-0.754545454545	26.3017964072	-5.23333333333	2.60909090909
221	0.1105	2.13636363636	-1.9377245509	-6.64680851064	-0.263636363636
222	0.111	2.13636363636	10.7700598802	-8.06028368794	2.60909090909
223	0.1115	10.8090909091	9.35808383234	-5.23333333333	-7.44545454545
224	0.112	-5.09090909091	9.35808383234	-6.64680851064	14.1
225	0.1125	-2.2	7.94610778443	-13.7141843972	-7.44545454545
226	0.113	0.690909090909	9.35808383234	7.48794326241	1.17272727273
227	0.1135	-3.64545454545	15.005988024	-3.81985815603	1.17272727273
228	0.114	2.13636363636	16.4179640719	-9.47375886525	-1.7
229	0.1145	0.690909090909	9.35808383234	0.420567375887	-0.263636363636
230	0.115	-0.754545454545	9.35808383234	-0.992907801418	-0.263636363636
231	0.1155	0.690909090909	7.94610778443	-0.992907801418	2.60909090909
232	0.116	-10.8727272727	9.35808383234	1.83404255319	-8.88181818182
233	0.1165	-0.754545454545	7.94610778443	0.420567375887	15.5363636364
234	0.117	-0.754545454545	5.12215568862	-3.81985815603	-6.00909090909
235	0.1175	-3.64545454545	3.71017964072	-0.992907801418	8.35454545455
236	0.118	-0.754545454545	6.53413173653	7.48794326241	-6.00909090909
237	0.1185	-2.2	-6.17365269461	-0.992907801418	-0.263636363636
238	0.119	-0.754545454545	0.88622754491	-0.992907801418	-0.263636363636
239	0.1195	0.690909090909	10.7700598802	1.83404255319	-1.7
240	0.12	3.58181818182	0.88622754491	-0.992907801418	1.17272727273
241	0.1205	16.5909090909	2.29820359281	3.2475177305	-1.7
242	0.121	-12.3181818182	3.71017964072	3.2475177305	-11.7545454545
243	0.1215	-0.754545454545	5.12215568862	0.420567375887	-1.7
244	0.122	-2.2	5.12215568862	4.6609929078	4.04545454545
245	0.1225	-2.2	6.53413173653	-0.992907801418	-1.7
246	0.123	-5.09090909091	5.12215568862	3.2475177305	-1.7
247	0.1235	-2.2	7.94610778443	0.420567375887	-0.263636363636
248	0.124	0.690909090909	2.29820359281	0.420567375887	-0.263636363636
249	0.1245	-6.53636363636	7.94610778443	-0.992907801418	-0.263636363636
250	0.125	19.4818181818	9.35808383234	-0.992907801418	1.17272727273
251	0.1255	-7.98181818182	10.7700598802	-2.40638297872	-0.263636363636
252	0.126	0.690909090909	10.7700598802	0.420567375887	1.17272727273
253	0.1265	2.13636363636	13.594011976	-13.7141843972	-1.7
254	0.127	-3.64545454545	5.12215568862	-9.47375886525	-1.7
255	0.1275	-3.64545454545	9.35808383234	-3.81985815603	-1.7
256	0.128	2.13636363636	9.35808383234	-10.8872340426	1.17272727273
257	0.1285	0.690909090909	9.35808383234	-6.64680851064	-1.7
258	0.129	-13.7636363636	10.7700598802	-5.23333333333	-3.13636363636
259	0.1295	18.0363636364	10.7700598802	-3.81985815603	1.17272727273
260	0.13	-10.8727272727	10.7700598802	0.420567375887	-1.7
261	0.1305	-3.64545454545	10.7700598802	-0.992907801418	11.2272727273
262	0.131	-0.754545454545	17.8299401198	11.7283687943	-4.57272727273
263	0.1315	-3.64545454545	10.7700598802	-0.992907801418	-1.7
264	0.132	-0.754545454545	16.4179640719	8.90141843972	-6.00909090909
265	0.1325	2.13636363636	27.7137724551	-0.992907801418	-0.263636363636
266	0.133	-3.64545454545	5.12215568862	-3.81985815603	-0.263636363636
267	0.1335	2.13636363636	17.8299401198	-6.64680851064	1.17272727273
268	0.134	-7.98181818182	16.4179640719	-8.06028368794	-0.263636363636
269	0.1345	13.7	13.594011976	-8.06028368794	-1.7
270	0.135	-0.754545454545	13.594011976	-13.7141843972	-4.57272727273
271	0.1355	-0.754545454545	10.7700598802	4.6609929078	-0.263636363636
272	0.136	0.690909090909	13.594011976	-9.47375886525	1.17272727273
273	0.1365	0.690909090909	7.94610778443	6.07446808511	-0.263636363636
274	0.137	-0.754545454545	13.594011976	-3.81985815603	-1.7
275	0.1375	-0.754545454545	2.29820359281	-2.40638297872	-0.263636363636
276	0.138	5.02727272727	7.94610778443	-5.23333333333	1.17272727273
277	0.1385	-9.42727272727	9.35808383234	-2.40638297872	-1.7
278	0.139	19.4818181818	13.594011976	-2.40638297872	2.60909090909
279	0.1395	-7.98181818182	16.4179640719	-0.992907801418	-7.44545454545
280	0.14	0.690909090909	17.8299401198	-6.64680851064	-0.263636363636
281	0.1405	0.690909090909	19.2419161677	4.6609929078	1.17272727273
282	0.141	-0.754545454545	16.4179640719	-5.23333333333	1.17272727273
283	0.1415	-0.754545454545	19.2419161677	-0.992907801418	1.17272727273
284	0.142	-0.754545454545	5.12215568862	0.420567375887	-0.263636363636
285	0.1425	0.690909090909	16.4179640719	-0.992907801418	-1.7
286	0.143	-0.754545454545	15.005988024	-2.40638297872	2.60909090909
287	0.1435	-6.53636363636	16.4179640719	-2.40638297872	2.60909090909
288	0.144	7.91818181818	16.4179640719	-2.40638297872	-4.57272727273
289	0.1445	-2.2	17.8299401198	-12.3007092199	-0.263636363636
290	0.145	-3.64545454545	16.4179640719	13.1418439716	-3.13636363636
291	0.1455	-3.64545454545	16.4179640719	-10.8872340426	2.60909090909
292	0.146	-3.64545454545	10.7700598802	-2.40638297872	1.17272727273
293	0.1465	-3.64545454545	17.8299401198	-2.40638297872	-0.263636363636
294	0.147	-0.754545454545	6.53413173653	-2.40638297872	-0.263636363636
295	0.1475	-10.8727272727	9.35808383234	-2.40638297872	-0.263636363636
296	0.148	16.5909090909	9.35808383234	-0.992907801418	-0.263636363636
297	0.1485	-10.8727272727	9.35808383234	-3.81985815603	-3.13636363636
298	0.149	-3.64545454545	9.35808383234	-3.81985815603	15.5363636364
299	0.1495	-0.754545454545	10.7700598802	-0.992907801418	1.17272727273
300	0.15	-0.754545454545	13.594011976	-9.47375886525	-3.13636363636
301	0.1505	-2.2	9.35808383234	-6.64680851064	1.17272727273
302	0.151	-3.64545454545	31.9497005988	-5.23333333333	-0.263636363636
303	0.1515	2.13636363636	29.125748503	-2.40638297872	-0.263636363636
304	0.152	-5.09090909091	5.12215568862	-0.992907801418	1.17272727273
305	0.1525	10.8090909091	9.35808383234	-2.40638297872	4.04545454545
306	0.153	-7.98181818182	9.35808383234	-0.992907801418	-11.7545454545
307	0.1535	-3.64545454545	5.12215568862	-5.23333333333	2.60909090909
308	0.154	-3.64545454545	2.29820359281	-12.3007092199	-8.88181818182
309	0.1545	-0.754545454545	9.35808383234	-0.992907801418	2.60909090909
310	0.155	-0.754545454545	13.594011976	7.48794326241	4.04545454545
311	0.1555	2.13636363636	30.5377245509	-8.06028368794	-0.263636363636
312	0.156	2.13636363636	3.71017964072	-6.64680851064	-3.13636363636
313	0.1565	-2.2	15.005988024	-8.06028368794	-0.263636363636
314	0.157	-9.42727272727	15.005988024	-5.23333333333	-11.7545454545
315	0.1575	0.690909090909	15.005988024	-8.06028368794	15.5363636364
316	0.158	-0.754545454545	9.35808383234	-9.47375886525	-3.13636363636
317	0.1585	0.690909090909	10.7700598802	3.2475177305	1.17272727273
318	0.159	-0.754545454545	13.594011976	-20.7815602837	1.17272727273
319	0.1595	-2.2	-1.9377245509	-8.06028368794	-0.263636363636
320	0.16	-3.64545454545	19.2419161677	-10.8872340426	-0.263636363636
321	0.1605	-6.53636363636	27.7137724551	-8.06028368794	-1.7
322	0.161	0.690909090909	17.8299401198	-6.64680851064	1.17272727273
323	0.1615	-10.8727272727	15.005988024	-8.06028368794	1.17272727273
324	0.162	-2.2	15.005988024	-6.64680851064	-7.44545454545
325	0.1625	-2.2	15.005988024	-16.5411347518	-3.13636363636
326	0.163	-0.754545454545	15.005988024	13.1418439716	-0.263636363636
327	0.1635	-3.64545454545	13.594011976	-3.81985815603	-0.263636363636
328	0.164	0.690909090909	17.8299401198	-3.81985815603	1.17272727273
329	0.1645	-5.09090909091	6.53413173653	-5.23333333333	-0.263636363636
330	0.165	3.58181818182	15.005988024	-8.06028368794	1.17272727273
331	0.1655	-9.42727272727	6.53413173653	-5.23333333333	-0.263636363636
332	0.166	-0.754545454545	10.7700598802	-8.06028368794	-8.88181818182
333	0.1665	-0.754545454545	13.594011976	-2.40638297872	-1.7
334	0.167	-0.754545454545	9.35808383234	-8.06028368794	-6.00909090909
335	0.1675	-0.754545454545	15.005988024	8.90141843972	-0.263636363636
336	0.168	-2.2	10.7700598802	-13.7141843972	-0.263636363636
337	0.1685	-3.64545454545	6.53413173653	-5.23333333333	-3.13636363636
338	0.169	-5.09090909091	20.6538922156	-6.64680851064	-1.7
339	0.1695	-2.2	5.12215568862	-2.40638297872	1.17272727273
340	0.17	-3.64545454545	10.7700598802	-6.64680851064	-10.3181818182
341	0.1705	-3.64545454545	15.005988024	-8.06028368794	15.5363636364
342	0.171	-0.754545454545	10.7700598802	-0.992907801418	-7.44545454545
343	0.1715	2.13636363636	6.53413173653	-5.23333333333	15.5363636364
344	0.172	-0.754545454545	9.35808383234	13.1418439716	-0.263636363636
345	0.1725	-0.754545454545	9.35808383234	-3.81985815603	-0.263636363636
346	0.173	-2.2	6.53413173653	-3.81985815603	-1.7
347	0.1735	0.690909090909	16.4179640719	-2.40638297872	-1.7
348	0.174	2.13636363636	13.594011976	-5.23333333333	1.17272727273
349	0.1745	-15.2090909091	15.005988024	-0.992907801418	-0.263636363636
350	0.175	-2.2	13.594011976	-5.23333333333	4.04545454545
351	0.1755	0.690909090909	10.7700598802	-6.64680851064	18.4090909091
352	0.176	-0.754545454545	10.7700598802	-5.23333333333	-8.88181818182
353	0.1765	2.13636363636	13.594011976	-15.1276595745	1.17272727273
354	0.177	0.690909090909	9.35808383234	-8.06028368794	-0.263636363636
355	0.1775	2.13636363636	6.53413173653	-9.47375886525	1.17272727273
356	0.178	0.690909090909	23.4778443114	-6.64680851064	-0.263636363636
357	0.1785	-5.09090909091	3.71017964072	-12.3007092199	-0.263636363636
358	0.179	-12.3181818182	9.35808383234	-8.06028368794	1.17272727273
359	0.1795	15.1454545455	10.7700598802	-10.8872340426	-0.263636363636
360	0.18	-5.09090909091	9.35808383234	-8.06028368794	1.17272727273
361	0.1805	-0.754545454545	10.7700598802	-12.3007092199	1.17272727273
362	0.181	-0.754545454545	10.7700598802	-0.992907801418	1.17272727273
363	0.1815	-0.754545454545	9.35808383234	-23.6085106383	-0.263636363636
364	0.182	-0.754545454545	10.7700598802	-22.195035461	1.17272727273
365	0.1825	0.690909090909	23.4778443114	-15.1276595745	-0.263636363636
366	0.183	-0.754545454545	16.4179640719	-12.3007092199	-0.263636363636
367	0.1835	-13.7636363636	10.7700598802	-13.7141843972	1.17272727273
368	0.184	16.5909090909	10.7700598802	-16.5411347518	2.60909090909
369	0.1845	-12.3181818182	9.35808383234	-15.1276595745	-7.44545454545
370	0.185	-2.2	7.94610778443	-17.9546099291	9.79090909091
371	0.1855	2.13636363636	10.7700598802	-8.06028368794	-4.57272727273
372	0.186	-2.2	6.53413173653	-17.9546099291	4.04545454545
373	0.1865	-0.754545454545	5.12215568862	-0.992907801418	1.17272727273
374	0.187	-0.754545454545	27.7137724551	-15.1276595745	-0.263636363636
375	0.1875	0.690909090909	0.88622754491	-13.7141843972	1.17272727273
376	0.188	-3.64545454545	13.594011976	-17.9546099291	-0.263636363636
377	0.1885	-3.64545454545	7.94610778443	-17.9546099291	-0.263636363636
378	0.189	-10.8727272727	15.005988024	-9.47375886525	1.17272727273
379	0.1895	-2.2	15.005988024	-12.3007092199	1.17272727273
380	0.19	-0.754545454545	16.4179640719	-25.0219858156	-3.13636363636
381	0.1905	-2.2	17.8299401198	-9.47375886525	-0.263636363636
382	0.191	-3.64545454545	19.2419161677	-16.5411347518	4.04545454545
383	0.1915	-5.09090909091	0.88622754491	-13.7141843972	2.60909090909
384	0.192	-3.64545454545	16.4179640719	-15.1276595745	1.17272727273
385	0.1925	-0.754545454545	3.71017964072	-9.47375886525	1.17272727273
386	0.193	-7.98181818182	15.005988024	-15.1276595745	-0.263636363636
387	0.1935	10.8090909091	13.594011976	-13.7141843972	-0.263636363636
388	0.194	-6.53636363636	15.005988024	-12.3007092199	-1.7
389	0.1945	-0.754545454545	15.005988024	-10.8872340426	-0.263636363636
390	0.195	-2.2	16.4179640719	-2.40638297872	-1.7
391	0.1955	-0.754545454545	10.7700598802	-25.0219858156	-1.7
392	0.196	0.690909090909	16.4179640719	-2.40638297872	1.17272727273
393	0.1965	-3.64545454545	7.94610778443	-15.1276595745	-0.263636363636
394	0.197	0.690909090909	7.94610778443	-17.9546099291	1.17272727273
395	0.1975	-7.98181818182	10.7700598802	-16.5411347518	-1.7
396	0.198	19.4818181818	10.7700598802	-16.5411347518	4.04545454545
397	0.1985	-10.8727272727	9.35808383234	-15.1276595745	-10.3181818182
398	0.199	-3.64545454545	9.35808383234	-13.7141843972	8.35454545455
399	0.1995	-3.64545454545	9.35808383234	-12.3007092199	-0.263636363636
400	0.2	-0.754545454545	5.12215568862	-22.195035461	-1.7
401	0.2005	-3.64545454545	13.594011976	-22.195035461	1.17272727273
402	0.201	-2.2	-3.3497005988	-22.195035461	-0.263636363636
403	0.2015	0.690909090909	27.7137724551	-19.3680851064	-1.7
404	0.202	-0.754545454545	2.29820359281	-20.7815602837	-0.263636363636
405	0.2025	-2.2	10.7700598802	-16.5411347518	-0.263636363636
406	0.203	-2.2	15.005988024	-13.7141843972	-10.3181818182
407	0.2035	2.13636363636	16.4179640719	-12.3007092199	2.60909090909
408	0.204	0.690909090909	13.594011976	-19.3680851064	-10.3181818182
409	0.2045	2.13636363636	12.1820359281	-2.40638297872	-0.263636363636
410	0.205	-0.754545454545	15.005988024	-15.1276595745	-0.263636363636
411	0.2055	0.690909090909	20.6538922156	-17.9546099291	1.17272727273
412	0.206	2.13636363636	13.594011976	-13.7141843972	2.60909090909
413	0.2065	-0.754545454545	19.2419161677	-12.3007092199	4.04545454545
414	0.207	-3.64545454545	17.8299401198	-13.7141843972	2.60909090909
415	0.2075	0.690909090909	16.4179640719	-15.1276595745	2.60909090909
416	0.208	-2.2	17.8299401198	-12.3007092199	-8.88181818182
417	0.2085	0.690909090909	16.4179640719	-22.195035461	2.60909090909
418	0.209	-0.754545454545	17.8299401198	-3.81985815603	2.60909090909
419	0.2095	-2.2	13.594011976	-19.3680851064	2.60909090909
420	0.21	-0.754545454545	13.594011976	-10.8872340426	4.04545454545
421	0.2105	-3.64545454545	2.29820359281	-15.1276595745	1.17272727273
422	0.211	-0.754545454545	7.94610778443	-12.3007092199	5.48181818182
423	0.2115	-10.8727272727	7.94610778443	-13.7141843972	1.17272727273
424	0.212	15.1454545455	9.35808383234	-13.7141843972	1.17272727273
425	0.2125	-6.53636363636	15.005988024	-16.5411347518	4.04545454545
426	0.213	-0.754545454545	16.4179640719	-10.8872340426	6.91818181818
427	0.2135	-0.754545454545	17.8299401198	-5.23333333333	-4.57272727273
428	0.214	-2.2	15.005988024	-10.8872340426	-0.263636363636
429	0.2145	-0.754545454545	17.8299401198	-6.64680851064	-0.263636363636
430	0.215	-0.754545454545	6.53413173653	-10.8872340426	-1.7
431	0.2155	-2.2	10.7700598802	-10.8872340426	-0.263636363636
432	0.216	0.690909090909	9.35808383234	-10.8872340426	4.04545454545
433	0.2165	-13.7636363636	13.594011976	-13.7141843972	-3.13636363636
434	0.217	19.4818181818	9.35808383234	-12.3007092199	5.48181818182
435	0.2175	-3.64545454545	5.12215568862	-10.8872340426	-7.44545454545
436	0.218	-3.64545454545	7.94610778443	-12.3007092199	-0.263636363636
437	0.2185	-0.754545454545	16.4179640719	-5.23333333333	-0.263636363636
438	0.219	-2.2	16.4179640719	-16.5411347518	-0.263636363636
439	0.2195	-3.64545454545	22.0658682635	-12.3007092199	1.17272727273
440	0.22	-5.09090909091	2.29820359281	-13.7141843972	-1.7
441	0.2205	-2.2	13.594011976	-15.1276595745	2.60909090909
442	0.221	-12.3181818182	13.594011976	-12.3007092199	-0.263636363636
443	0.2215	16.5909090909	10.7700598802	-13.7141843972	-0.263636363636
444	0.222	9.36363636364	13.594011976	-13.7141843972	-6.00909090909
445	0.2225	-0.754545454545	15.005988024	-20.7815602837	-0.263636363636
446	0.223	-2.2	13.594011976	-0.992907801418	-0.263636363636
447	0.2235	-5.09090909091	16.4179640719	-19.3680851064	1.17272727273
448	0.224	-5.09090909091	15.005988024	-15.1276595745	-0.263636363636
449	0.2245	-3.64545454545	5.12215568862	-15.1276595745	-0.263636363636
450	0.225	-3.64545454545	27.7137724551	-13.7141843972	-0.263636363636
451	0.2255	-16.6545454545	9.35808383234	-13.7141843972	-1.7
452	0.226	10.8090909091	9.35808383234	-15.1276595745	-4.57272727273
453	0.2265	-6.53636363636	9.35808383234	-17.9546099291	6.91818181818
454	0.227	-3.64545454545	12.1820359281	-16.5411347518	-0.263636363636
455	0.2275	-3.64545454545	12.1820359281	-30.6758865248	-0.263636363636
456	0.228	-5.09090909091	10.7700598802	-2.40638297872	-0.263636363636
457	0.2285	-3.64545454545	13.594011976	-17.9546099291	1.17272727273
458	0.229	-2.2	7.94610778443	-16.5411347518	2.60909090909
459	0.2295	-2.2	19.2419161677	-19.3680851064	-1.7
460	0.23	7.91818181818	13.594011976	-16.5411347518	1.17272727273
461	0.2305	-12.3181818182	13.594011976	-17.9546099291	-0.263636363636
462	0.231	-0.754545454545	10.7700598802	-19.3680851064	14.1
463	0.2315	-3.64545454545	6.53413173653	-12.3007092199	-6.00909090909
464	0.232	-2.2	10.7700598802	-26.4354609929	-0.263636363636
465	0.2325	-3.64545454545	10.7700598802	-16.5411347518	-10.3181818182
466	0.233	-5.09090909091	12.1820359281	-27.8489361702	1.17272727273
467	0.2335	-0.754545454545	9.35808383234	-22.195035461	-0.263636363636
468	0.234	-0.754545454545	22.0658682635	-19.3680851064	-0.263636363636
469	0.2345	0.690909090909	7.94610778443	-19.3680851064	4.04545454545
470	0.235	-15.2090909091	16.4179640719	-22.195035461	-1.7
471	0.2355	15.1454545455	16.4179640719	-23.6085106383	4.04545454545
472	0.236	-9.42727272727	15.005988024	-20.7815602837	-6.00909090909
473	0.2365	-2.2	9.35808383234	-22.195035461	-1.7
474	0.237	0.690909090909	13.594011976	-15.1276595745	2.60909090909
475	0.2375	-0.754545454545	13.594011976	-23.6085106383	2.60909090909
476	0.238	-0.754545454545	13.594011976	-22.195035461	1.17272727273
477	0.2385	-2.2	-3.3497005988	-17.9546099291	1.17272727273
478	0.239	0.690909090909	10.7700598802	-19.3680851064	2.60909090909
479	0.2395	-12.3181818182	10.7700598802	-17.9546099291	1.17272727273
480	0.24	18.0363636364	9.35808383234	-19.3680851064	2.60909090909
481	0.2405	-6.53636363636	9.35808383234	-17.9546099291	-0.263636363636
482	0.241	-0.754545454545	9.35808383234	-16.5411347518	1.17272727273
483	0.2415	0.690909090909	13.594011976	-19.3680851064	-0.263636363636
484	0.242	-2.2	5.12215568862	-15.1276595745	-0.263636363636
485	0.2425	-2.2	10.7700598802	-20.7815602837	1.17272727273
486	0.243	-2.2	-3.3497005988	-13.7141843972	1.17272727273
487	0.2435	0.690909090909	22.0658682635	-12.3007092199	2.60909090909
488	0.244	-3.64545454545	3.71017964072	-12.3007092199	2.60909090909
489	0.2445	10.8090909091	-1.9377245509	-12.3007092199	-3.13636363636
490	0.245	-6.53636363636	0.88622754491	-12.3007092199	-0.263636363636
491	0.2455	0.690909090909	-4.76167664671	-8.06028368794	-0.263636363636
492	0.246	-0.754545454545	-1.9377245509	-19.3680851064	-1.7
493	0.2465	-2.2	-4.76167664671	-9.47375886525	-1.7
494	0.247	-2.2	5.12215568862	-12.3007092199	-3.13636363636
495	0.2475	-0.754545454545	-6.17365269461	-6.64680851064	-4.57272727273
496	0.248	-0.754545454545	27.7137724551	-6.64680851064	-3.13636363636
497	0.2485	-10.8727272727	6.53413173653	-6.64680851064	-3.13636363636
498	0.249	15.1454545455	6.53413173653	-5.23333333333	-6.00909090909
499	0.2495	-9.42727272727	3.71017964072	-6.64680851064	-4.57272727273
500	0.25	-2.2	0.88622754491	-3.81985815603	-4.57272727273
501	0.2505	-3.64545454545	3.71017964072	-10.8872340426	-7.44545454545
502	0.251	-0.754545454545	6.53413173653	-6.64680851064	-4.57272727273
503	0.2515	-0.754545454545	13.594011976	-8.06028368794	-4.57272727273
504	0.252	-0.754545454545	-3.3497005988	-5.23333333333	-6.00909090909
505	0.2525	2.13636363636	26.3017964072	-9.47375886525	-6.00909090909
506	0.253	2.13636363636	10.7700598802	-10.8872340426	-4.57272727273
507	0.2535	-12.3181818182	15.005988024	-10.8872340426	-4.57272727273
508	0.254	16.5909090909	10.7700598802	-8.06028368794	-3.13636363636
509	0.2545	-10.8727272727	15.005988024	-8.06028368794	-11.7545454545
510	0.255	-3.64545454545	9.35808383234	-12.3007092199	5.48181818182
511	0.2555	-0.754545454545	9.35808383234	-6.64680851064	5.48181818182
512	0.256	-2.2	15.005988024	-12.3007092199	-7.44545454545
513	0.2565	0.690909090909	13.594011976	-9.47375886525	-4.57272727273
514	0.257	0.690909090909	22.0658682635	-9.47375886525	-0.263636363636
515	0.2575	0.690909090909	2.29820359281	-12.3007092199	1.17272727273
516	0.258	-12.3181818182	13.594011976	-10.8872340426	-0.263636363636
517	0.2585	15.1454545455	16.4179640719	-12.3007092199	-0.263636363636
518	0.259	-7.98181818182	16.4179640719	-12.3007092199	-10.3181818182
519	0.2595	2.13636363636	15.005988024	-20.7815602837	19.8454545455
520	0.26	0.690909090909	15.005988024	-8.06028368794	4.04545454545
521	0.2605	2.13636363636	16.4179640719	-26.4354609929	-0.263636363636
522	0.261	0.690909090909	19.2419161677	-12.3007092199	-0.263636363636
523	0.2615	2.13636363636	15.005988024	-23.6085106383	1.17272727273
524	0.262	0.690909090909	20.6538922156	-26.4354609929	5.48181818182
525	0.2625	-6.53636363636	17.8299401198	-29.2624113475	5.48181818182
526	0.263	-2.2	19.2419161677	-29.2624113475	5.48181818182
527	0.2635	15.1454545455	19.2419161677	-33.5028368794	5.48181818182
528	0.264	5.02727272727	19.2419161677	-33.5028368794	-0.263636363636
529	0.2645	3.58181818182	20.6538922156	-46.2241134752	5.48181818182
530	0.265	3.58181818182	23.4778443114	-33.5028368794	6.91818181818
531	0.2655	2.13636363636	26.3017964072	-44.8106382979	6.91818181818
532	0.266	7.91818181818	7.94610778443	-44.8106382979	6.91818181818
533	0.2665	6.47272727273	39.0095808383	-44.8106382979	11.2272727273
534	0.267	0.690909090909	15.005988024	-50.4645390071	8.35454545455
535	0.2675	3.58181818182	23.4778443114	-50.4645390071	12.6636363636
536	0.268	-2.2	20.6538922156	-54.704964539	11.2272727273
537	0.2685	3.58181818182	23.4778443114	-58.9453900709	27.0272727273
538	0.269	5.02727272727	24.8898203593	-63.1858156028	5.48181818182
539	0.2695	3.58181818182	23.4778443114	-67.4262411348	28.4636363636
540	0.27	3.58181818182	26.3017964072	-61.7723404255	12.6636363636
541	0.2705	7.91818181818	24.8898203593	-80.1475177305	14.1
542	0.271	12.2545454545	22.0658682635	-73.080141844	12.6636363636
543	0.2715	9.36363636364	43.245508982	-74.4936170213	15.5363636364
544	0.272	7.91818181818	22.0658682635	-77.3205673759	16.9727272727
545	0.2725	3.58181818182	33.3616766467	-78.7340425532	9.79090909091
546	0.273	2.13636363636	37.5976047904	-78.7340425532	18.4090909091
547	0.2735	0.690909090909	34.7736526946	-81.5609929078	19.8454545455
548	0.274	7.91818181818	37.5976047904	-84.3879432624	27.0272727273
549	0.2745	9.36363636364	40.4215568862	-99.9361702128	21.2818181818
550	0.275	9.36363636364	37.5976047904	-75.9070921986	19.8454545455
551	0.2755	10.8090909091	40.4215568862	-92.8687943262	19.8454545455
552	0.276	7.91818181818	39.0095808383	-94.2822695035	19.8454545455
553	0.2765	9.36363636364	41.8335329341	-98.5226950355	16.9727272727
554	0.277	15.1454545455	36.1856287425	-98.5226950355	21.2818181818
555	0.2775	-2.2	37.5976047904	-101.34964539	19.8454545455
556	0.278	-2.2	34.7736526946	-101.34964539	22.7181818182
557	0.2785	5.02727272727	36.1856287425	-101.34964539	12.6636363636
558	0.279	5.02727272727	37.5976047904	-101.34964539	15.5363636364
559	0.2795	3.58181818182	37.5976047904	-111.243971631	19.8454545455
560	0.28	7.91818181818	34.7736526946	-98.5226950355	21.2818181818
561	0.2805	3.58181818182	33.3616766467	-98.5226950355	21.2818181818
562	0.281	5.02727272727	29.125748503	-98.5226950355	21.2818181818
563	0.2815	-7.98181818182	33.3616766467	-97.1092198582	21.2818181818
564	0.282	19.4818181818	33.3616766467	-97.1092198582	27.0272727273
565	0.2825	0.690909090909	33.3616766467	-95.6957446809	12.6636363636
566	0.283	3.58181818182	33.3616766467	-94.2822695035	22.7181818182
567	0.2835	3.58181818182	31.9497005988	-91.4553191489	18.4090909091
568	0.284	3.58181818182	30.5377245509	-91.4553191489	22.7181818182
569	0.2845	0.690909090909	27.7137724551	-71.6666666667	22.7181818182
570	0.285	5.02727272727	31.9497005988	-88.6283687943	22.7181818182
571	0.2855	7.91818181818	16.4179640719	-82.9744680851	21.2818181818
572	0.286	5.02727272727	20.6538922156	-78.7340425532	21.2818181818
573	0.2865	16.5909090909	23.4778443114	-77.3205673759	16.9727272727
574	0.287	-5.09090909091	22.0658682635	-73.080141844	6.91818181818
575	0.2875	3.58181818182	20.6538922156	-71.6666666667	22.7181818182
576	0.288	-0.754545454545	22.0658682635	-66.0127659574	14.1
577	0.2885	0.690909090909	19.2419161677	-68.8397163121	14.1
578	0.289	-0.754545454545	24.8898203593	-63.1858156028	16.9727272727
579	0.2895	2.13636363636	16.4179640719	-56.1184397163	15.5363636364
580	0.29	0.690909090909	19.2419161677	-53.2914893617	14.1
581	0.2905	-10.8727272727	23.4778443114	-49.0510638298	12.6636363636
582	0.291	20.9272727273	19.2419161677	-46.2241134752	14.1
583	0.2915	-9.42727272727	17.8299401198	-41.9836879433	-0.263636363636
584	0.292	2.13636363636	19.2419161677	-40.570212766	18.4090909091
585	0.2925	-0.754545454545	20.6538922156	-30.6758865248	6.91818181818
586	0.293	-0.754545454545	13.594011976	-34.9163120567	6.91818181818
587	0.2935	-3.64545454545	17.8299401198	-27.8489361702	4.04545454545
588	0.294	-3.64545454545	-1.9377245509	-23.6085106383	4.04545454545
589	0.2945	0.690909090909	30.5377245509	-20.7815602837	4.04545454545
590	0.295	-3.64545454545	13.594011976	-16.5411347518	2.60909090909
591	0.2955	-0.754545454545	10.7700598802	-15.1276595745	-6.00909090909
592	0.296	-5.09090909091	10.7700598802	-12.3007092199	12.6636363636
593	0.2965	-0.754545454545	13.594011976	-6.64680851064	-1.7
594	0.297	-0.754545454545	7.94610778443	-9.47375886525	21.2818181818
595	0.2975	-0.754545454545	9.35808383234	-13.7141843972	1.17272727273
596	0.298	-2.2	5.12215568862	-6.64680851064	1.17272727273
597	0.2985	-2.2	3.71017964072	-10.8872340426	2.60909090909
598	0.299	2.13636363636	5.12215568862	-6.64680851064	-0.263636363636
599	0.2995	-15.2090909091	7.94610778443	-2.40638297872	-3.13636363636
600	0.3	15.1454545455	9.35808383234	-2.40638297872	2.60909090909
601	0.3005	-13.7636363636	7.94610778443	1.83404255319	-11.7545454545
602	0.301	-3.64545454545	6.53413173653	0.420567375887	-1.7
603	0.3015	-3.64545454545	5.12215568862	0.420567375887	-8.88181818182
604	0.302	-3.64545454545	2.29820359281	7.48794326241	-1.7
605	0.3025	-3.64545454545	2.29820359281	14.5553191489	-1.7
606	0.303	-2.2	19.2419161677	8.90141843972	-1.7
607	0.3035	0.690909090909	-6.17365269461	8.90141843972	-1.7
608	0.304	-6.53636363636	20.6538922156	14.5553191489	-3.13636363636
609	0.3045	-3.64545454545	0.88622754491	15.9687943262	-3.13636363636
610	0.305	-10.8727272727	0.88622754491	15.9687943262	-1.7
611	0.3055	-5.09090909091	2.29820359281	18.7957446809	5.48181818182
612	0.306	-5.09090909091	0.88622754491	21.6226950355	-1.7
613	0.3065	-3.64545454545	5.12215568862	31.5170212766	-3.13636363636
614	0.307	-5.09090909091	13.594011976	23.0361702128	-3.13636363636
615	0.3075	-0.754545454545	-6.17365269461	25.8631205674	-0.263636363636
616	0.308	-3.64545454545	24.8898203593	24.4496453901	-4.57272727273
617	0.3085	-5.09090909091	-6.17365269461	27.2765957447	-3.13636363636
618	0.309	-3.64545454545	2.29820359281	28.690070922	1.17272727273
619	0.3095	10.8090909091	-0.525748502994	25.8631205674	-4.57272727273
620	0.31	-12.3181818182	-1.9377245509	27.2765957447	-1.7
621	0.3105	-2.2	2.29820359281	28.690070922	-10.3181818182
622	0.311	-3.64545454545	2.29820359281	37.1709219858	-3.13636363636
623	0.3115	-5.09090909091	0.88622754491	18.7957446809	-3.13636363636
624	0.312	-5.09090909091	5.12215568862	27.2765957447	-3.13636363636
625	0.3125	-5.09090909091	-3.3497005988	25.8631205674	-3.13636363636
626	0.313	-6.53636363636	-0.525748502994	24.4496453901	-0.263636363636
627	0.3135	-12.3181818182	6.53413173653	21.6226950355	-7.44545454545
628	0.314	7.91818181818	5.12215568862	25.8631205674	1.17272727273
629	0.3145	-9.42727272727	5.12215568862	24.4496453901	-6.00909090909
630	0.315	-5.09090909091	0.88622754491	23.0361702128	9.79090909091
631	0.3155	-5.09090909091	2.29820359281	14.5553191489	-4.57272727273
632	0.316	-5.09090909091	0.88622754491	30.1035460993	-6.00909090909
633	0.3165	-3.64545454545	2.29820359281	14.5553191489	-3.13636363636
634	0.317	-3.64545454545	9.35808383234	23.0361702128	-6.00909090909
635	0.3175	-7.98181818182	-6.17365269461	24.4496453901	-4.57272727273
636	0.318	0.690909090909	-3.3497005988	23.0361702128	-4.57272727273
637	0.3185	-16.6545454545	-1.9377245509	25.8631205674	-7.44545454545
638	0.319	18.0363636364	-1.9377245509	23.0361702128	-3.13636363636
639	0.3195	-3.64545454545	-3.3497005988	24.4496453901	-11.7545454545
640	0.32	-5.09090909091	-4.76167664671	27.2765957447	-4.57272727273
641	0.3205	-5.09090909091	-0.525748502994	25.8631205674	-1.7
642	0.321	-2.2	3.71017964072	21.6226950355	-3.13636363636
643	0.3215	-2.2	15.005988024	20.2092198582	-1.7
644	0.322	-5.09090909091	0.88622754491	25.8631205674	-4.57272727273
645	0.3225	-5.09090909091	23.4778443114	24.4496453901	-1.7
646	0.323	-3.64545454545	6.53413173653	24.4496453901	-4.57272727273
647	0.3235	-10.8727272727	6.53413173653	23.0361702128	-3.13636363636
648	0.324	-2.2	5.12215568862	27.2765957447	-3.13636363636
649	0.3245	-3.64545454545	-0.525748502994	14.5553191489	-3.13636363636
650	0.325	-0.754545454545	-0.525748502994	35.7574468085	-3.13636363636
651	0.3255	-3.64545454545	-0.525748502994	11.7283687943	-1.7
652	0.326	-5.09090909091	-1.9377245509	30.1035460993	-3.13636363636
653	0.3265	-5.09090909091	0.88622754491	20.2092198582	-3.13636363636
654	0.327	-5.09090909091	-0.525748502994	20.2092198582	-3.13636363636
655	0.3275	-3.64545454545	0.88622754491	21.6226950355	-0.263636363636
656	0.328	-15.2090909091	-0.525748502994	20.2092198582	-3.13636363636
657	0.3285	-3.64545454545	-0.525748502994	21.6226950355	2.60909090909
658	0.329	-2.2	3.71017964072	8.90141843972	-6.00909090909
659	0.3295	-0.754545454545	0.88622754491	37.1709219858	-3.13636363636
660	0.33	-2.2	5.12215568862	11.7283687943	-1.7
661	0.3305	-0.754545454545	0.88622754491	15.9687943262	-3.13636363636
662	0.331	0.690909090909	15.005988024	21.6226950355	-3.13636363636
663	0.3315	-0.754545454545	7.94610778443	21.6226950355	-6.00909090909
664	0.332	15.1454545455	6.53413173653	21.6226950355	-7.44545454545
665	0.3325	12.2545454545	5.12215568862	21.6226950355	-6.00909090909
666	0.333	-10.8727272727	-0.525748502994	25.8631205674	-13.1909090909
667	0.3335	-3.64545454545	2.29820359281	25.8631205674	2.60909090909
668	0.334	-2.2	6.53413173653	20.2092198582	-6.00909090909
669	0.3345	-3.64545454545	3.71017964072	25.8631205674	-4.57272727273
670	0.335	-3.64545454545	6.53413173653	27.2765957447	-6.00909090909
671	0.3355	-5.09090909091	3.71017964072	25.8631205674	-4.57272727273
672	0.336	-18.1	3.71017964072	25.8631205674	-6.00909090909
673	0.3365	18.0363636364	5.12215568862	25.8631205674	-0.263636363636
674	0.337	-12.3181818182	2.29820359281	27.2765957447	-11.7545454545
675	0.3375	-3.64545454545	0.88622754491	27.2765957447	-6.00909090909
676	0.338	-0.754545454545	2.29820359281	17.3822695035	-7.44545454545
677	0.3385	-2.2	-0.525748502994	25.8631205674	-3.13636363636
678	0.339	-5.09090909091	6.53413173653	31.5170212766	-4.57272727273
679	0.3395	-3.64545454545	-8.99760479042	28.690070922	-1.7
680	0.34	-0.754545454545	19.2419161677	25.8631205674	-6.00909090909
681	0.3405	-2.2	0.88622754491	30.1035460993	-3.13636363636
682	0.341	-2.2	6.53413173653	30.1035460993	-4.57272727273
683	0.3415	-2.2	6.53413173653	30.1035460993	-0.263636363636
684	0.342	-5.09090909091	2.29820359281	27.2765957447	-7.44545454545
685	0.3425	-3.64545454545	0.88622754491	45.6517730496	-3.13636363636
686	0.343	-2.2	3.71017964072	20.2092198582	-3.13636363636
687	0.3435	-2.2	7.94610778443	42.824822695	-1.7
688	0.344	-0.754545454545	2.29820359281	27.2765957447	-3.13636363636
689	0.3445	0.690909090909	9.35808383234	24.4496453901	-4.57272727273
690	0.345	-9.42727272727	5.12215568862	23.0361702128	-1.7
691	0.3455	9.36363636364	7.94610778443	21.6226950355	-14.6272727273
692	0.346	-9.42727272727	6.53413173653	24.4496453901	-0.263636363636
693	0.3465	-2.2	7.94610778443	20.2092198582	14.1
694	0.347	-2.2	12.1820359281	32.9304964539	-4.57272727273
695	0.3475	0.690909090909	7.94610778443	23.0361702128	-3.13636363636
696	0.348	-0.754545454545	13.594011976	25.8631205674	-3.13636363636
697	0.3485	-3.64545454545	-0.525748502994	25.8631205674	-6.00909090909
698	0.349	-7.98181818182	22.0658682635	24.4496453901	-1.7
699	0.3495	0.690909090909	-1.9377245509	24.4496453901	-1.7
700	0.35	-9.42727272727	0.88622754491	23.0361702128	5.48181818182
701	0.3505	-0.754545454545	-1.9377245509	27.2765957447	-10.3181818182
702	0.351	-0.754545454545	-0.525748502994	23.0361702128	12.6636363636
703	0.3515	-3.64545454545	-0.525748502994	37.1709219858	-6.00909090909
704	0.352	-5.09090909091	-3.3497005988	20.2092198582	-6.00909090909
705	0.3525	-0.754545454545	2.29820359281	27.2765957447	-3.13636363636
706	0.353	-3.64545454545	-6.17365269461	25.8631205674	-6.00909090909
707	0.3535	-2.2	-3.3497005988	25.8631205674	-1.7
708	0.354	-3.64545454545	-3.3497005988	25.8631205674	-4.57272727273
709	0.3545	0.690909090909	-7.58562874251	28.690070922	-13.1909090909
710	0.355	-3.64545454545	-7.58562874251	28.690070922	5.48181818182
711	0.3555	-2.2	-8.99760479042	15.9687943262	-6.00909090909
712	0.356	-3.64545454545	-6.17365269461	44.2382978723	-6.00909090909
713	0.3565	-2.2	-10.4095808383	18.7957446809	-3.13636363636
714	0.357	-0.754545454545	-8.99760479042	27.2765957447	-4.57272727273
715	0.3575	-2.2	16.4179640719	30.1035460993	-6.00909090909
716	0.358	-3.64545454545	-1.9377245509	28.690070922	-6.00909090909
717	0.3585	-5.09090909091	6.53413173653	27.2765957447	-3.13636363636
718	0.359	-5.09090909091	6.53413173653	25.8631205674	1.17272727273
719	0.3595	-0.754545454545	3.71017964072	28.690070922	-6.00909090909
720	0.36	-2.2	2.29820359281	15.9687943262	-7.44545454545
721	0.3605	-0.754545454545	-0.525748502994	42.824822695	-1.7
722	0.361	-2.2	2.29820359281	15.9687943262	-6.00909090909
723	0.3615	-0.754545454545	-0.525748502994	27.2765957447	-6.00909090909
724	0.362	-2.2	7.94610778443	27.2765957447	-3.13636363636
725	0.3625	0.690909090909	-3.3497005988	30.1035460993	1.17272727273
726	0.363	-12.3181818182	-4.76167664671	30.1035460993	-4.57272727273
727	0.3635	16.5909090909	-4.76167664671	27.2765957447	1.17272727273
728	0.364	-7.98181818182	-1.9377245509	27.2765957447	-11.7545454545
729	0.3645	-3.64545454545	0.88622754491	25.8631205674	15.5363636364
730	0.365	-0.754545454545	-0.525748502994	42.824822695	-6.00909090909
731	0.3655	-0.754545454545	-1.9377245509	17.3822695035	-3.13636363636
732	0.366	-2.2	-3.3497005988	39.9978723404	-3.13636363636
733	0.3665	-5.09090909091	-6.17365269461	27.2765957447	-3.13636363636
734	0.367	-3.64545454545	6.53413173653	28.690070922	-3.13636363636
735	0.3675	-10.8727272727	-0.525748502994	28.690070922	-4.57272727273
736	0.368	13.7	-1.9377245509	27.2765957447	1.17272727273
737	0.3685	-9.42727272727	-0.525748502994	25.8631205674	-13.1909090909
738	0.369	-0.754545454545	0.88622754491	18.7957446809	15.5363636364
739	0.3695	-2.2	-4.76167664671	21.6226950355	-11.7545454545
740	0.37	-3.64545454545	0.88622754491	14.5553191489	-0.263636363636
741	0.3705	-3.64545454545	-1.9377245509	21.6226950355	-3.13636363636
742	0.371	-3.64545454545	-6.17365269461	21.6226950355	-6.00909090909
743	0.3715	-0.754545454545	7.94610778443	18.7957446809	-1.7
744	0.372	-5.09090909091	-4.76167664671	21.6226950355	-1.7
745	0.3725	2.13636363636	0.88622754491	21.6226950355	1.17272727273
746	0.373	18.0363636364	0.88622754491	18.7957446809	-3.13636363636
747	0.3735	-9.42727272727	-3.3497005988	21.6226950355	-7.44545454545
748	0.374	-0.754545454545	-4.76167664671	20.2092198582	-3.13636363636
749	0.3745	-2.2	-6.17365269461	21.6226950355	-7.44545454545
750	0.375	-5.09090909091	-7.58562874251	18.7957446809	-4.57272727273
751	0.3755	-5.09090909091	-7.58562874251	35.7574468085	-1.7
752	0.376	-3.64545454545	9.35808383234	23.0361702128	-0.263636363636
753	0.3765	-2.2	-11.8215568862	23.0361702128	-3.13636363636
754	0.377	-3.64545454545	5.12215568862	23.0361702128	-1.7
755	0.3775	-5.09090909091	-4.76167664671	27.2765957447	-10.3181818182
756	0.378	-5.09090909091	-6.17365269461	21.6226950355	16.9727272727
757	0.3785	-5.09090909091	-6.17365269461	23.0361702128	-8.88181818182
758	0.379	-2.2	-6.17365269461	28.690070922	-3.13636363636
759	0.3795	-5.09090909091	-3.3497005988	17.3822695035	-3.13636363636
760	0.38	-3.64545454545	-6.17365269461	41.4113475177	-3.13636363636
761	0.3805	-3.64545454545	-4.76167664671	21.6226950355	-3.13636363636
762	0.381	-6.53636363636	-7.58562874251	23.0361702128	-1.7
763	0.3815	-0.754545454545	-3.3497005988	20.2092198582	-1.7
764	0.382	-13.7636363636	-4.76167664671	21.6226950355	-11.7545454545
765	0.3825	-5.09090909091	-6.17365269461	15.9687943262	6.91818181818
766	0.383	-2.2	-6.17365269461	13.1418439716	-6.00909090909
767	0.3835	0.690909090909	-4.76167664671	27.2765957447	-3.13636363636
768	0.384	0.690909090909	-0.525748502994	13.1418439716	-3.13636363636
769	0.3845	-5.09090909091	-1.9377245509	18.7957446809	-0.263636363636
770	0.385	-6.53636363636	-1.9377245509	17.3822695035	-1.7
771	0.3855	0.690909090909	-6.17365269461	15.9687943262	-1.7
772	0.386	-13.7636363636	-7.58562874251	17.3822695035	-3.13636363636
773	0.3865	10.8090909091	-4.76167664671	17.3822695035	-7.44545454545
774	0.387	-7.98181818182	-6.17365269461	15.9687943262	6.91818181818
775	0.3875	2.13636363636	-7.58562874251	23.0361702128	-8.88181818182
776	0.388	0.690909090909	-4.76167664671	34.3439716312	-0.263636363636
777	0.3885	-0.754545454545	-8.99760479042	15.9687943262	-0.263636363636
778	0.389	-0.754545454545	-10.4095808383	27.2765957447	-0.263636363636
779	0.3895	-3.64545454545	-6.17365269461	21.6226950355	-1.7
780	0.39	3.58181818182	-8.99760479042	21.6226950355	-0.263636363636
781	0.3905	-12.3181818182	-6.17365269461	23.0361702128	-1.7
782	0.391	12.2545454545	-7.58562874251	23.0361702128	-6.00909090909
783	0.3915	-2.2	-7.58562874251	20.2092198582	12.6636363636
784	0.392	-2.2	-6.17365269461	23.0361702128	-11.7545454545
785	0.3925	0.690909090909	-10.4095808383	17.3822695035	-4.57272727273
786	0.393	-3.64545454545	-6.17365269461	18.7957446809	-1.7
787	0.3935	-3.64545454545	-20.2934131737	14.5553191489	-3.13636363636
788	0.394	-0.754545454545	5.12215568862	14.5553191489	-1.7
789	0.3945	-0.754545454545	-8.99760479042	15.9687943262	-1.7
790	0.395	18.0363636364	-3.3497005988	14.5553191489	2.60909090909
791	0.3955	-9.42727272727	-6.17365269461	13.1418439716	-3.13636363636
792	0.396	0.690909090909	-7.58562874251	8.90141843972	8.35454545455
793	0.3965	-0.754545454545	-8.99760479042	4.6609929078	-6.00909090909
794	0.397	-3.64545454545	-10.4095808383	7.48794326241	-3.13636363636
795	0.3975	-3.64545454545	-6.17365269461	13.1418439716	-3.13636363636
796	0.398	-3.64545454545	-16.0574850299	7.48794326241	-1.7
797	0.3985	-0.754545454545	2.29820359281	8.90141843972	-1.7
798	0.399	2.13636363636	-8.99760479042	13.1418439716	-1.7
799	0.3995	16.5909090909	-3.3497005988	13.1418439716	-4.57272727273
800	0.4	-9.42727272727	-0.525748502994	14.5553191489	-11.7545454545
801	0.4005	-0.754545454545	-3.3497005988	14.5553191489	-3.13636363636
802	0.401	-0.754545454545	0.88622754491	17.3822695035	-11.7545454545
803	0.4015	2.13636363636	0.88622754491	7.48794326241	-6.00909090909
804	0.402	-0.754545454545	-0.525748502994	14.5553191489	-6.00909090909
805	0.4025	0.690909090909	17.8299401198	15.9687943262	-4.57272727273
806	0.403	-3.64545454545	-8.99760479042	17.3822695035	-3.13636363636
807	0.4035	-5.09090909091	-0.525748502994	18.7957446809	-3.13636363636
808	0.404	-0.754545454545	-0.525748502994	21.6226950355	-1.7
809	0.4045	-2.2	-1.9377245509	25.8631205674	-11.7545454545
810	0.405	-2.2	-3.3497005988	13.1418439716	-7.44545454545
811	0.4055	-2.2	-3.3497005988	34.3439716312	-1.7
812	0.406	-0.754545454545	-0.525748502994	7.48794326241	-3.13636363636
813	0.4065	-0.754545454545	-4.76167664671	20.2092198582	-1.7
814	0.407	-5.09090909091	-7.58562874251	20.2092198582	-0.263636363636
815	0.4075	0.690909090909	-6.17365269461	20.2092198582	-0.263636363636
816	0.408	-16.6545454545	-4.76167664671	17.3822695035	-1.7
817	0.4085	15.1454545455	-4.76167664671	17.3822695035	-1.7
818	0.409	-12.3181818182	-6.17365269461	18.7957446809	-1.7
819	0.4095	-2.2	-3.3497005988	18.7957446809	4.04545454545
820	0.41	-2.2	-0.525748502994	30.1035460993	-4.57272727273
821	0.4105	-2.2	-3.3497005988	7.48794326241	-0.263636363636
822	0.411	0.690909090909	2.29820359281	15.9687943262	-1.7
823	0.4115	-2.2	-11.8215568862	17.3822695035	-0.263636363636
824	0.412	-3.64545454545	-13.2335329341	17.3822695035	-1.7
825	0.4125	-10.8727272727	-6.17365269461	20.2092198582	-3.13636363636
826	0.413	15.1454545455	-6.17365269461	18.7957446809	2.60909090909
827	0.4135	-12.3181818182	-7.58562874251	15.9687943262	-10.3181818182
828	0.414	0.690909090909	-4.76167664671	18.7957446809	-0.263636363636
829	0.4145	-0.754545454545	-4.76167664671	18.7957446809	-6.00909090909
830	0.415	-2.2	-6.17365269461	20.2092198582	-1.7
831	0.4155	-0.754545454545	-4.76167664671	32.9304964539	-1.7
832	0.416	0.690909090909	16.4179640719	18.7957446809	-0.263636363636
833	0.4165	-3.64545454545	-10.4095808383	18.7957446809	-1.7
834	0.417	0.690909090909	-7.58562874251	17.3822695035	-3.13636363636
835	0.4175	-0.754545454545	-0.525748502994	17.3822695035	-10.3181818182
836	0.418	-5.09090909091	5.12215568862	11.7283687943	9.79090909091
837	0.4185	-2.2	0.88622754491	17.3822695035	-7.44545454545
838	0.419	-2.2	0.88622754491	3.2475177305	-3.13636363636
839	0.4195	-2.2	0.88622754491	27.2765957447	-3.13636363636
840	0.42	-5.09090909091	-4.76167664671	13.1418439716	-3.13636363636
841	0.4205	0.690909090909	3.71017964072	15.9687943262	-1.7
842	0.421	-5.09090909091	-10.4095808383	14.5553191489	-4.57272727273
843	0.4215	0.690909090909	-6.17365269461	18.7957446809	-1.7
844	0.422	-12.3181818182	-7.58562874251	15.9687943262	-4.57272727273
845	0.4225	-2.2	-6.17365269461	13.1418439716	2.60909090909
846	0.423	-0.754545454545	-3.3497005988	4.6609929078	-6.00909090909
847	0.4235	-0.754545454545	-4.76167664671	20.2092198582	-4.57272727273
848	0.424	-2.2	-3.3497005988	-2.40638297872	-1.7
849	0.4245	-0.754545454545	-6.17365269461	11.7283687943	-1.7
850	0.425	-2.2	3.71017964072	11.7283687943	-4.57272727273
851	0.4255	-3.64545454545	-7.58562874251	14.5553191489	-3.13636363636
852	0.426	2.13636363636	-1.9377245509	8.90141843972	-0.263636363636
853	0.4265	-13.7636363636	-3.3497005988	14.5553191489	-1.7
854	0.427	-2.2	-0.525748502994	15.9687943262	-1.7
855	0.4275	-2.2	3.71017964072	14.5553191489	-8.88181818182
856	0.428	-2.2	2.29820359281	25.8631205674	-6.00909090909
857	0.4285	-0.754545454545	5.12215568862	10.314893617	-6.00909090909
858	0.429	0.690909090909	-6.17365269461	15.9687943262	-0.263636363636
859	0.4295	2.13636363636	24.8898203593	18.7957446809	-1.7
860	0.43	-5.09090909091	-1.9377245509	17.3822695035	-3.13636363636
861	0.4305	0.690909090909	0.88622754491	15.9687943262	-3.13636363636
862	0.431	-6.53636363636	0.88622754491	15.9687943262	-3.13636363636
863	0.4315	-3.64545454545	-0.525748502994	15.9687943262	6.91818181818
864	0.432	-3.64545454545	3.71017964072	14.5553191489	-3.13636363636
865	0.4325	-5.09090909091	0.88622754491	18.7957446809	-4.57272727273
866	0.433	0.690909090909	-0.525748502994	7.48794326241	-7.44545454545
867	0.4335	-3.64545454545	-14.645508982	17.3822695035	-4.57272727273
868	0.434	0.690909090909	13.594011976	14.5553191489	-3.13636363636
869	0.4345	-2.2	-7.58562874251	17.3822695035	-0.263636363636
870	0.435	2.13636363636	-1.9377245509	17.3822695035	-1.7
871	0.4355	-12.3181818182	-1.9377245509	14.5553191489	-6.00909090909
872	0.436	-0.754545454545	-3.3497005988	13.1418439716	9.79090909091
873	0.4365	-0.754545454545	-0.525748502994	6.07446808511	-6.00909090909
874	0.437	-0.754545454545	-1.9377245509	18.7957446809	4.04545454545
875	0.4375	0.690909090909	5.12215568862	17.3822695035	-1.7
876	0.438	-2.2	-3.3497005988	25.8631205674	-0.263636363636
877	0.4385	2.13636363636	15.005988024	18.7957446809	-3.13636363636
878	0.439	-3.64545454545	-7.58562874251	17.3822695035	-0.263636363636
879	0.4395	3.58181818182	-3.3497005988	15.9687943262	-1.7
880	0.44	-10.8727272727	-0.525748502994	17.3822695035	-3.13636363636
881	0.4405	-2.2	0.88622754491	14.5553191489	15.5363636364
882	0.441	-2.2	2.29820359281	17.3822695035	-8.88181818182
883	0.4415	-2.2	2.29820359281	14.5553191489	14.1
884	0.442	-0.754545454545	-0.525748502994	27.2765957447	-1.7
885	0.4425	-2.2	0.88622754491	7.48794326241	-1.7
886	0.443	-0.754545454545	7.94610778443	13.1418439716	-1.7
887	0.4435	-3.64545454545	-6.17365269461	15.9687943262	-0.263636363636
888	0.444	2.13636363636	0.88622754491	18.7957446809	-0.263636363636
889	0.4445	-10.8727272727	-1.9377245509	18.7957446809	-1.7
890	0.445	-3.64545454545	-3.3497005988	21.6226950355	1.17272727273
891	0.4455	-2.2	-1.9377245509	18.7957446809	-3.13636363636
892	0.446	-3.64545454545	-4.76167664671	15.9687943262	-7.44545454545
893	0.4465	-0.754545454545	-4.76167664671	17.3822695035	-4.57272727273
894	0.447	0.690909090909	-1.9377245509	20.2092198582	-0.263636363636
895	0.4475	-2.2	-17.4694610778	14.5553191489	-1.7
896	0.448	-2.2	7.94610778443	14.5553191489	-1.7
897	0.4485	-13.7636363636	-8.99760479042	17.3822695035	-1.7
898	0.449	-10.8727272727	-6.17365269461	15.9687943262	1.17272727273
899	0.4495	16.5909090909	-6.17365269461	17.3822695035	-0.263636363636
900	0.45	-2.2	-7.58562874251	14.5553191489	-7.44545454545
901	0.4505	0.690909090909	-4.76167664671	21.6226950355	-0.263636363636
902	0.451	-2.2	-3.3497005988	18.7957446809	-3.13636363636
903	0.4515	-2.2	0.88622754491	17.3822695035	-6.00909090909
904	0.452	-3.64545454545	3.71017964072	11.7283687943	-3.13636363636
905	0.4525	-3.64545454545	-6.17365269461	20.2092198582	-3.13636363636
906	0.453	-2.2	2.29820359281	15.9687943262	-1.7
907	0.4535	-3.64545454545	0.88622754491	15.9687943262	-3.13636363636
908	0.454	3.58181818182	-0.525748502994	15.9687943262	-3.13636363636
909	0.4545	-2.2	-1.9377245509	4.6609929078	-6.00909090909
910	0.455	-0.754545454545	-3.3497005988	25.8631205674	-0.263636363636
911	0.4555	-0.754545454545	-1.9377245509	7.48794326241	-1.7
912	0.456	0.690909090909	-4.76167664671	28.690070922	-0.263636363636
913	0.4565	0.690909090909	-3.3497005988	13.1418439716	-0.263636363636
914	0.457	0.690909090909	-11.8215568862	13.1418439716	-0.263636363636
915	0.4575	-6.53636363636	-6.17365269461	14.5553191489	-3.13636363636
916	0.458	13.7	-7.58562874251	14.5553191489	2.60909090909
917	0.4585	-9.42727272727	-10.4095808383	14.5553191489	-1.7
918	0.459	-0.754545454545	-11.8215568862	14.5553191489	15.5363636364
919	0.4595	-0.754545454545	-10.4095808383	23.0361702128	-0.263636363636
920	0.46	-3.64545454545	-10.4095808383	8.90141843972	-1.7
921	0.4605	-0.754545454545	-10.4095808383	8.90141843972	-1.7
922	0.461	-2.2	-20.2934131737	14.5553191489	-1.7
923	0.4615	0.690909090909	6.53413173653	14.5553191489	-1.7
924	0.462	-3.64545454545	-16.0574850299	15.9687943262	-0.263636363636
925	0.4625	-7.98181818182	-4.76167664671	15.9687943262	-6.00909090909
926	0.463	3.58181818182	-6.17365269461	15.9687943262	-0.263636363636
927	0.4635	-5.09090909091	-8.99760479042	1.83404255319	-6.00909090909
928	0.464	-5.09090909091	-3.3497005988	30.1035460993	-1.7
929	0.4645	-2.2	-3.3497005988	7.48794326241	-0.263636363636
930	0.465	-0.754545454545	-1.9377245509	18.7957446809	-0.263636363636
931	0.4655	-2.2	0.88622754491	20.2092198582	-0.263636363636
932	0.466	0.690909090909	-0.525748502994	15.9687943262	1.17272727273
933	0.4665	-13.7636363636	-0.525748502994	13.1418439716	-3.13636363636
934	0.467	20.9272727273	0.88622754491	15.9687943262	2.60909090909
935	0.4675	-10.8727272727	0.88622754491	18.7957446809	-11.7545454545
936	0.468	-2.2	-0.525748502994	8.90141843972	-0.263636363636
937	0.4685	-2.2	-1.9377245509	27.2765957447	-1.7
938	0.469	-3.64545454545	-0.525748502994	11.7283687943	-0.263636363636
939	0.4695	0.690909090909	0.88622754491	17.3822695035	-3.13636363636
940	0.47	-2.2	-4.76167664671	11.7283687943	-3.13636363636
941	0.4705	2.13636363636	-4.76167664671	18.7957446809	-1.7
942	0.471	6.47272727273	-0.525748502994	21.6226950355	-1.7
943	0.4715	-12.3181818182	-0.525748502994	20.2092198582	-0.263636363636
944	0.472	2.13636363636	0.88622754491	23.0361702128	1.17272727273
945	0.4725	-2.2	0.88622754491	14.5553191489	-6.00909090909
946	0.473	-2.2	-0.525748502994	24.4496453901	-0.263636363636
947	0.4735	-0.754545454545	0.88622754491	17.3822695035	-6.00909090909
948	0.474	-3.64545454545	-1.9377245509	23.0361702128	-1.7
949	0.4745	-2.2	16.4179640719	21.6226950355	-1.7
950	0.475	-2.2	16.4179640719	21.6226950355	-1.7
951	0.4755	-5.09090909091	-1.9377245509	20.2092198582	-0.263636363636
952	0.476	0.690909090909	-0.525748502994	21.6226950355	-7.44545454545
953	0.4765	0.690909090909	-6.17365269461	21.6226950355	2.60909090909
954	0.477	-6.53636363636	-4.76167664671	20.2092198582	18.4090909091
955	0.4775	-2.2	-1.9377245509	37.1709219858	-0.263636363636
956	0.478	-2.2	0.88622754491	15.9687943262	-0.263636363636
957	0.4785	-3.64545454545	3.71017964072	21.6226950355	-1.7
958	0.479	-3.64545454545	-6.17365269461	13.1418439716	-0.263636363636
959	0.4795	2.13636363636	-0.525748502994	18.7957446809	-0.263636363636
960	0.48	-0.754545454545	-1.9377245509	20.2092198582	2.60909090909
961	0.4805	-6.53636363636	-0.525748502994	18.7957446809	2.60909090909
962	0.481	3.58181818182	-0.525748502994	21.6226950355	-6.00909090909
963	0.4815	-2.2	-0.525748502994	20.2092198582	15.5363636364
964	0.482	-0.754545454545	-1.9377245509	34.3439716312	-0.263636363636
965	0.4825	-3.64545454545	-4.76167664671	13.1418439716	-0.263636363636
966	0.483	-3.64545454545	-4.76167664671	18.7957446809	-1.7
967	0.4835	-0.754545454545	-10.4095808383	18.7957446809	-0.263636363636
968	0.484	3.58181818182	-0.525748502994	18.7957446809	2.60909090909
969	0.4845	-12.3181818182	0.88622754491	18.7957446809	-1.7
970	0.485	9.36363636364	-1.9377245509	17.3822695035	-8.88181818182
971	0.4855	-5.09090909091	-3.3497005988	11.7283687943	11.2272727273
972	0.486	2.13636363636	-1.9377245509	15.9687943262	-11.7545454545
973	0.4865	-2.2	0.88622754491	11.7283687943	-0.263636363636
974	0.487	-0.754545454545	3.71017964072	6.07446808511	-0.263636363636
975	0.4875	2.13636363636	-4.76167664671	11.7283687943	-0.263636363636
976	0.488	2.13636363636	6.53413173653	13.1418439716	-0.263636363636
977	0.4885	3.58181818182	-1.9377245509	14.5553191489	-0.263636363636
978	0.489	-10.8727272727	0.88622754491	11.7283687943	-1.7
979	0.4895	19.4818181818	0.88622754491	13.1418439716	-0.263636363636
980	0.49	-10.8727272727	-0.525748502994	13.1418439716	-1.7
981	0.4905	0.690909090909	-3.3497005988	8.90141843972	9.79090909091
982	0.491	0.690909090909	-3.3497005988	13.1418439716	-6.00909090909
983	0.4915	-0.754545454545	-1.9377245509	15.9687943262	-1.7
984	0.492	-0.754545454545	10.7700598802	17.3822695035	-1.7
985	0.4925	0.690909090909	-10.4095808383	18.7957446809	-1.7
986	0.493	-3.64545454545	-4.76167664671	21.6226950355	-0.263636363636
987	0.4935	0.690909090909	-4.76167664671	24.4496453901	-0.263636363636
988	0.494	-9.42727272727	-1.9377245509	25.8631205674	-6.00909090909
989	0.4945	-0.754545454545	-1.9377245509	27.2765957447	8.35454545455
990	0.495	-0.754545454545	-3.3497005988	25.8631205674	1.17272727273
991	0.4955	-0.754545454545	-3.3497005988	35.7574468085	-0.263636363636
992	0.496	-0.754545454545	2.29820359281	27.2765957447	-0.263636363636
993	0.4965	0.690909090909	-8.99760479042	27.2765957447	-0.263636363636
994	0.497	0.690909090909	20.6538922156	27.2765957447	-1.7
995	0.4975	0.690909090909	-4.76167664671	24.4496453901	-0.263636363636
996	0.498	-10.8727272727	-1.9377245509	24.4496453901	-1.7
997	0.4985	-6.53636363636	-0.525748502994	21.6226950355	15.5363636364
998	0.499	-0.754545454545	0.88622754491	24.4496453901	-11.7545454545
999	0.4995	-0.754545454545	0.88622754491	17.3822695035	-1.7
1000	0.5	-3.64545454545	-1.9377245509	34.3439716312	-1.7
1001	0.5005	-2.2	-3.3497005988	15.9687943262	-0.263636363636
1002	0.501	-0.754545454545	15.005988024	18.7957446809	-0.263636363636
1003	0.5015	-5.09090909091	-3.3497005988	21.6226950355	-0.263636363636
1004	0.502	2.13636363636	0.88622754491	17.3822695035	-0.263636363636
1005	0.5025	-12.3181818182	0.88622754491	18.7957446809	-1.7
1006	0.503	15.1454545455	0.88622754491	18.7957446809	-1.7
1007	0.5035	-3.64545454545	0.88622754491	17.3822695035	-7.44545454545
1008	0.504	-0.754545454545	-3.3497005988	23.0361702128	-1.7
1009	0.5045	0.690909090909	0.88622754491	15.9687943262	-8.88181818182
1010	0.505	-0.754545454545	-0.525748502994	17.3822695035	-1.7
1011	0.5055	-2.2	3.71017964072	20.2092198582	-3.13636363636
1012	0.506	-0.754545454545	0.88622754491	18.7957446809	-0.263636363636
1013	0.5065	-0.754545454545	16.4179640719	14.5553191489	1.17272727273
1014	0.507	3.58181818182	3.71017964072	17.3822695035	4.04545454545
1015	0.5075	-9.42727272727	2.29820359281	17.3822695035	-8.88181818182
1016	0.508	-0.754545454545	-0.525748502994	14.5553191489	4.04545454545
1017	0.5085	-0.754545454545	-0.525748502994	18.7957446809	-8.88181818182
1018	0.509	-2.2	-4.76167664671	11.7283687943	4.04545454545
1019	0.5095	-0.754545454545	-4.76167664671	14.5553191489	-0.263636363636
1020	0.51	-3.64545454545	-6.17365269461	17.3822695035	1.17272727273
1021	0.5105	3.58181818182	9.35808383234	15.9687943262	2.60909090909
1022	0.511	-5.09090909091	-4.76167664671	17.3822695035	-0.263636363636
1023	0.5115	5.02727272727	-0.525748502994	17.3822695035	2.60909090909
1024	0.512	-10.8727272727	2.29820359281	17.3822695035	1.17272727273
1025	0.5125	-0.754545454545	6.53413173653	17.3822695035	-0.263636363636
1026	0.513	-2.2	6.53413173653	18.7957446809	-1.7
1027	0.5135	-2.2	0.88622754491	13.1418439716	6.91818181818
1028	0.514	-0.754545454545	9.35808383234	15.9687943262	1.17272727273
1029	0.5145	-0.754545454545	-7.58562874251	11.7283687943	4.04545454545
1030	0.515	-0.754545454545	-10.4095808383	11.7283687943	2.60909090909
1031	0.5155	0.690909090909	20.6538922156	8.90141843972	-0.263636363636
1032	0.516	-3.64545454545	-3.3497005988	8.90141843972	2.60909090909
1033	0.5165	0.690909090909	-4.76167664671	11.7283687943	-1.7
1034	0.517	-5.09090909091	0.88622754491	4.6609929078	4.04545454545
1035	0.5175	0.690909090909	0.88622754491	7.48794326241	-1.7
1036	0.518	-2.2	0.88622754491	4.6609929078	19.8454545455
1037	0.5185	-3.64545454545	-0.525748502994	-5.23333333333	-3.13636363636
1038	0.519	-3.64545454545	-3.3497005988	4.6609929078	1.17272727273
1039	0.5195	-5.09090909091	-1.9377245509	6.07446808511	-0.263636363636
1040	0.52	2.13636363636	-3.3497005988	4.6609929078	2.60909090909
1041	0.5205	-12.3181818182	-1.9377245509	7.48794326241	-1.7
1042	0.521	19.4818181818	-3.3497005988	3.2475177305	2.60909090909
1043	0.5215	-7.98181818182	-0.525748502994	3.2475177305	1.17272727273
1044	0.522	-2.2	-0.525748502994	10.314893617	2.60909090909
1045	0.5225	-0.754545454545	0.88622754491	4.6609929078	2.60909090909
1046	0.523	0.690909090909	0.88622754491	1.83404255319	1.17272727273
1047	0.5235	-0.754545454545	7.94610778443	3.2475177305	-0.263636363636
1048	0.524	-0.754545454545	-3.3497005988	4.6609929078	5.48181818182
1049	0.5245	7.91818181818	9.35808383234	7.48794326241	4.04545454545
1050	0.525	-10.8727272727	16.4179640719	6.07446808511	1.17272727273
1051	0.5255	16.5909090909	13.594011976	8.90141843972	4.04545454545
1052	0.526	-10.8727272727	16.4179640719	14.5553191489	-1.7
1053	0.5265	-5.09090909091	7.94610778443	7.48794326241	5.48181818182
1054	0.527	0.690909090909	9.35808383234	24.4496453901	4.04545454545
1055	0.5275	2.13636363636	7.94610778443	0.420567375887	4.04545454545
1056	0.528	-0.754545454545	10.7700598802	14.5553191489	2.60909090909
1057	0.5285	3.58181818182	23.4778443114	7.48794326241	4.04545454545
1058	0.529	2.13636363636	-1.9377245509	7.48794326241	2.60909090909
1059	0.5295	0.690909090909	0.88622754491	7.48794326241	-0.263636363636
1060	0.53	-5.09090909091	-1.9377245509	8.90141843972	1.17272727273
1061	0.5305	0.690909090909	-0.525748502994	8.90141843972	16.9727272727
1062	0.531	0.690909090909	-1.9377245509	8.90141843972	-3.13636363636
1063	0.5315	0.690909090909	2.29820359281	7.48794326241	-0.263636363636
1064	0.532	0.690909090909	2.29820359281	4.6609929078	-6.00909090909
1065	0.5325	-2.2	0.88622754491	4.6609929078	4.04545454545
1066	0.533	3.58181818182	13.594011976	3.2475177305	4.04545454545
1067	0.5335	-2.2	9.35808383234	6.07446808511	2.60909090909
1068	0.534	0.690909090909	5.12215568862	1.83404255319	4.04545454545
1069	0.5345	-15.2090909091	5.12215568862	1.83404255319	4.04545454545
1070	0.535	0.690909090909	3.71017964072	6.07446808511	5.48181818182
1071	0.5355	-0.754545454545	-1.9377245509	3.2475177305	22.7181818182
1072	0.536	-0.754545454545	-4.76167664671	3.2475177305	-1.7
1073	0.5365	-2.2	-6.17365269461	-0.992907801418	4.04545454545
1074	0.537	-2.2	-1.9377245509	1.83404255319	-0.263636363636
1075	0.5375	0.690909090909	-14.645508982	1.83404255319	2.60909090909
1076	0.538	3.58181818182	17.8299401198	1.83404255319	1.17272727273
1077	0.5385	-3.64545454545	-1.9377245509	1.83404255319	-0.263636363636
1078	0.539	2.13636363636	10.7700598802	3.2475177305	1.17272727273
1079	0.5395	2.13636363636	7.94610778443	1.83404255319	8.35454545455
1080	0.54	-9.42727272727	6.53413173653	4.6609929078	1.17272727273
1081	0.5405	-2.2	6.53413173653	20.2092198582	4.04545454545
1082	0.541	0.690909090909	10.7700598802	-5.23333333333	4.04545454545
1083	0.5415	0.690909090909	6.53413173653	4.6609929078	4.04545454545
1084	0.542	-2.2	9.35808383234	-0.992907801418	2.60909090909
1085	0.5425	-2.2	-1.9377245509	6.07446808511	2.60909090909
1086	0.543	0.690909090909	6.53413173653	11.7283687943	2.60909090909
1087	0.5435	-5.09090909091	7.94610778443	10.314893617	5.48181818182
1088	0.544	16.5909090909	5.12215568862	14.5553191489	4.04545454545
1089	0.5445	-6.53636363636	6.53413173653	13.1418439716	1.17272727273
1090	0.545	-0.754545454545	3.71017964072	6.07446808511	4.04545454545
1091	0.5455	-0.754545454545	2.29820359281	18.7957446809	5.48181818182
1092	0.546	0.690909090909	3.71017964072	3.2475177305	2.60909090909
1093	0.5465	-3.64545454545	-1.9377245509	8.90141843972	5.48181818182
1094	0.547	-3.64545454545	3.71017964072	6.07446808511	6.91818181818
1095	0.5475	2.13636363636	-4.76167664671	4.6609929078	5.48181818182
1096	0.548	-5.09090909091	-0.525748502994	6.07446808511	5.48181818182
1097	0.5485	12.2545454545	2.29820359281	7.48794326241	5.48181818182
1098	0.549	-5.09090909091	9.35808383234	7.48794326241	-7.44545454545
1099	0.5495	0.690909090909	10.7700598802	0.420567375887	5.48181818182
1100	0.55	2.13636363636	13.594011976	14.5553191489	1.17272727273
1101	0.5505	0.690909090909	16.4179640719	1.83404255319	5.48181818182
1102	0.551	2.13636363636	-1.9377245509	7.48794326241	4.04545454545
1103	0.5515	2.13636363636	13.594011976	1.83404255319	5.48181818182
1104	0.552	3.58181818182	6.53413173653	3.2475177305	2.60909090909
1105	0.5525	-12.3181818182	3.71017964072	3.2475177305	2.60909090909
1106	0.553	18.0363636364	5.12215568862	4.6609929078	4.04545454545
1107	0.5535	-7.98181818182	3.71017964072	7.48794326241	-1.7
1108	0.554	-0.754545454545	6.53413173653	4.6609929078	1.17272727273
1109	0.5545	-0.754545454545	9.35808383234	1.83404255319	-3.13636363636
1110	0.555	-2.2	7.94610778443	6.07446808511	-0.263636363636
1111	0.5555	-2.2	17.8299401198	14.5553191489	1.17272727273
1112	0.556	0.690909090909	16.4179640719	14.5553191489	4.04545454545
1113	0.5565	3.58181818182	5.12215568862	13.1418439716	4.04545454545
1114	0.557	-12.3181818182	9.35808383234	11.7283687943	1.17272727273
1115	0.5575	12.2545454545	5.12215568862	6.07446808511	4.04545454545
1116	0.558	-2.2	6.53413173653	7.48794326241	-7.44545454545
1117	0.5585	-0.754545454545	7.94610778443	13.1418439716	-4.57272727273
1118	0.559	0.690909090909	5.12215568862	-6.64680851064	2.60909090909
1119	0.5595	0.690909090909	6.53413173653	21.6226950355	4.04545454545
1120	0.56	2.13636363636	2.29820359281	1.83404255319	2.60909090909
1121	0.5605	3.58181818182	0.88622754491	4.6609929078	1.17272727273
1122	0.561	0.690909090909	17.8299401198	0.420567375887	2.60909090909
1123	0.5615	-0.754545454545	-4.76167664671	-0.992907801418	5.48181818182
1124	0.562	16.5909090909	6.53413173653	0.420567375887	1.17272727273
1125	0.5625	-6.53636363636	6.53413173653	-2.40638297872	1.17272727273
1126	0.563	0.690909090909	9.35808383234	0.420567375887	16.9727272727
1127	0.5635	-2.2	9.35808383234	1.83404255319	1.17272727273
1128	0.564	-3.64545454545	10.7700598802	4.6609929078	4.04545454545
1129	0.5645	-2.2	16.4179640719	3.2475177305	4.04545454545
1130	0.565	-0.754545454545	2.29820359281	6.07446808511	2.60909090909
1131	0.5655	0.690909090909	19.2419161677	11.7283687943	2.60909090909
1132	0.566	-0.754545454545	9.35808383234	11.7283687943	5.48181818182
1133	0.5665	0.690909090909	5.12215568862	14.5553191489	4.04545454545
1134	0.567	-5.09090909091	9.35808383234	13.1418439716	1.17272727273
1135	0.5675	-5.09090909091	10.7700598802	14.5553191489	5.48181818182
1136	0.568	-5.09090909091	9.35808383234	14.5553191489	15.5363636364
1137	0.5685	-0.754545454545	15.005988024	25.8631205674	2.60909090909
1138	0.569	0.690909090909	15.005988024	3.2475177305	2.60909090909
1139	0.5695	-3.64545454545	9.35808383234	14.5553191489	1.17272727273
1140	0.57	-2.2	16.4179640719	3.2475177305	2.60909090909
1141	0.5705	-2.2	3.71017964072	13.1418439716	2.60909090909
1142	0.571	-0.754545454545	29.125748503	7.48794326241	2.60909090909
1143	0.5715	-2.2	9.35808383234	11.7283687943	2.60909090909
1144	0.572	-10.8727272727	13.594011976	11.7283687943	18.4090909091
1145	0.5725	-2.2	13.594011976	6.07446808511	-6.00909090909
1146	0.573	-2.2	9.35808383234	3.2475177305	2.60909090909
1147	0.5735	-2.2	10.7700598802	7.48794326241	-7.44545454545
1148	0.574	0.690909090909	9.35808383234	-0.992907801418	2.60909090909
1149	0.5745	2.13636363636	9.35808383234	4.6609929078	4.04545454545
1150	0.575	0.690909090909	16.4179640719	1.83404255319	2.60909090909
1151	0.5755	5.02727272727	5.12215568862	3.2475177305	2.60909090909
1152	0.576	-12.3181818182	9.35808383234	3.2475177305	-0.263636363636
1153	0.5765	18.0363636364	9.35808383234	1.83404255319	2.60909090909
1154	0.577	0.690909090909	13.594011976	0.420567375887	-10.3181818182
1155	0.5775	2.13636363636	16.4179640719	4.6609929078	-8.88181818182
1156	0.578	0.690909090909	17.8299401198	7.48794326241	1.17272727273
1157	0.5785	0.690909090909	22.0658682635	4.6609929078	2.60909090909
1158	0.579	-0.754545454545	6.53413173653	7.48794326241	5.48181818182
1159	0.5795	-0.754545454545	34.7736526946	8.90141843972	5.48181818182
1160	0.58	-2.2	10.7700598802	6.07446808511	4.04545454545
1161	0.5805	6.47272727273	16.4179640719	6.07446808511	4.04545454545
1162	0.581	-2.2	13.594011976	6.07446808511	4.04545454545
1163	0.5815	-2.2	10.7700598802	4.6609929078	18.4090909091
1164	0.582	0.690909090909	9.35808383234	23.0361702128	2.60909090909
1165	0.5825	-2.2	9.35808383234	-0.992907801418	2.60909090909
1166	0.583	-5.09090909091	13.594011976	7.48794326241	5.48181818182
1167	0.5835	-3.64545454545	-4.76167664671	7.48794326241	2.60909090909
1168	0.584	0.690909090909	23.4778443114	6.07446808511	2.60909090909
1169	0.5845	-3.64545454545	2.29820359281	6.07446808511	4.04545454545
1170	0.585	-3.64545454545	6.53413173653	6.07446808511	-7.44545454545
1171	0.5855	-0.754545454545	3.71017964072	1.83404255319	16.9727272727
1172	0.586	-2.2	6.53413173653	3.2475177305	-6.00909090909
1173	0.5865	-2.2	9.35808383234	-3.81985815603	5.48181818182
1174	0.587	0.690909090909	15.005988024	-0.992907801418	-4.57272727273
1175	0.5875	-2.2	7.94610778443	-0.992907801418	5.48181818182
1176	0.588	0.690909090909	27.7137724551	0.420567375887	5.48181818182
1177	0.5885	5.02727272727	6.53413173653	0.420567375887	4.04545454545
1178	0.589	-0.754545454545	19.2419161677	3.2475177305	4.04545454545
1179	0.5895	16.5909090909	15.005988024	1.83404255319	4.04545454545
1180	0.59	-9.42727272727	9.35808383234	3.2475177305	2.60909090909
1181	0.5905	-3.64545454545	10.7700598802	3.2475177305	14.1
1182	0.591	-3.64545454545	9.35808383234	4.6609929078	5.48181818182
1183	0.5915	-3.64545454545	5.12215568862	3.2475177305	2.60909090909
1184	0.592	-0.754545454545	16.4179640719	-0.992907801418	4.04545454545
1185	0.5925	-2.2	13.594011976	-0.992907801418	8.35454545455
1186	0.593	-3.64545454545	16.4179640719	1.83404255319	4.04545454545
1187	0.5935	-2.2	17.8299401198	1.83404255319	4.04545454545
1188	0.594	-3.64545454545	22.0658682635	3.2475177305	4.04545454545
1189	0.5945	7.91818181818	17.8299401198	1.83404255319	-1.7
1190	0.595	-5.09090909091	17.8299401198	3.2475177305	4.04545454545
1191	0.5955	-2.2	16.4179640719	13.1418439716	1.17272727273
1192	0.596	-3.64545454545	17.8299401198	-2.40638297872	2.60909090909
1193	0.5965	-0.754545454545	15.005988024	1.83404255319	4.04545454545
1194	0.597	-3.64545454545	19.2419161677	-6.64680851064	4.04545454545
1195	0.5975	-0.754545454545	7.94610778443	1.83404255319	4.04545454545
1196	0.598	-2.2	17.8299401198	3.2475177305	5.48181818182
1197	0.5985	-13.7636363636	15.005988024	6.07446808511	1.17272727273
1198	0.599	15.1454545455	15.005988024	3.2475177305	4.04545454545
1199	0.5995	-3.64545454545	13.594011976	0.420567375887	-7.44545454545
1200	0.6	-2.2	13.594011976	3.2475177305	5.48181818182
1201	0.6005	0.690909090909	16.4179640719	7.48794326241	-3.13636363636
1202	0.601	-0.754545454545	6.53413173653	8.90141843972	2.60909090909
1203	0.6015	-0.754545454545	30.5377245509	4.6609929078	4.04545454545
1204	0.602	0.690909090909	33.3616766467	4.6609929078	5.48181818182
1205	0.6025	-3.64545454545	3.71017964072	7.48794326241	4.04545454545
1206	0.603	12.2545454545	10.7700598802	6.07446808511	2.60909090909
1207	0.6035	-7.98181818182	10.7700598802	8.90141843972	1.17272727273
1208	0.604	-0.754545454545	10.7700598802	6.07446808511	-0.263636363636
1209	0.6045	-2.2	13.594011976	3.2475177305	-1.7
1210	0.605	0.690909090909	16.4179640719	8.90141843972	12.6636363636
1211	0.6055	0.690909090909	16.4179640719	14.5553191489	-0.263636363636
1212	0.606	-0.754545454545	15.005988024	6.07446808511	2.60909090909
1213	0.6065	-2.2	6.53413173653	7.48794326241	1.17272727273
1214	0.607	3.58181818182	10.7700598802	8.90141843972	6.91818181818
1215	0.6075	-9.42727272727	13.594011976	13.1418439716	-0.263636363636
1216	0.608	18.0363636364	13.594011976	14.5553191489	4.04545454545
1217	0.6085	-7.98181818182	12.1820359281	8.90141843972	-0.263636363636
1218	0.609	0.690909090909	10.7700598802	18.7957446809	2.60909090909
1219	0.6095	-2.2	16.4179640719	8.90141843972	4.04545454545
1220	0.61	-2.2	9.35808383234	11.7283687943	2.60909090909
1221	0.6105	-0.754545454545	16.4179640719	3.2475177305	-0.263636363636
1222	0.611	-0.754545454545	0.88622754491	13.1418439716	-0.263636363636
1223	0.6115	-5.09090909091	9.35808383234	14.5553191489	1.17272727273
1224	0.612	-3.64545454545	10.7700598802	11.7283687943	4.04545454545
1225	0.6125	3.58181818182	7.94610778443	13.1418439716	-4.57272727273
1226	0.613	-5.09090909091	9.35808383234	7.48794326241	6.91818181818
1227	0.6135	-2.2	9.35808383234	8.90141843972	-3.13636363636
1228	0.614	-0.754545454545	6.53413173653	24.4496453901	5.48181818182
1229	0.6145	-0.754545454545	6.53413173653	-0.992907801418	4.04545454545
1230	0.615	-2.2	6.53413173653	17.3822695035	1.17272727273
1231	0.6155	-3.64545454545	9.35808383234	1.83404255319	-0.263636363636
1232	0.616	-3.64545454545	3.71017964072	3.2475177305	2.60909090909
1233	0.6165	2.13636363636	3.71017964072	4.6609929078	2.60909090909
1234	0.617	-12.3181818182	6.53413173653	3.2475177305	1.17272727273
1235	0.6175	-3.64545454545	6.53413173653	1.83404255319	15.5363636364
1236	0.618	-0.754545454545	5.12215568862	6.07446808511	1.17272727273
1237	0.6185	-0.754545454545	9.35808383234	15.9687943262	1.17272727273
1238	0.619	0.690909090909	13.594011976	-3.81985815603	-0.263636363636
1239	0.6195	-3.64545454545	-4.76167664671	8.90141843972	4.04545454545
1240	0.62	-2.2	22.0658682635	3.2475177305	-0.263636363636
1241	0.6205	2.13636363636	-0.525748502994	4.6609929078	-0.263636363636
1242	0.621	-0.754545454545	6.53413173653	3.2475177305	2.60909090909
1243	0.6215	5.02727272727	9.35808383234	3.2475177305	-4.57272727273
1244	0.622	-3.64545454545	7.94610778443	4.6609929078	6.91818181818
1245	0.6225	0.690909090909	10.7700598802	3.2475177305	1.17272727273
1246	0.623	0.690909090909	9.35808383234	0.420567375887	16.9727272727
1247	0.6235	-2.2	6.53413173653	-10.8872340426	2.60909090909
1248	0.624	3.58181818182	2.29820359281	1.83404255319	2.60909090909
1249	0.6245	0.690909090909	-3.3497005988	-6.64680851064	4.04545454545
1250	0.625	-0.754545454545	-0.525748502994	-5.23333333333	5.48181818182
1251	0.6255	3.58181818182	2.29820359281	-3.81985815603	4.04545454545
1252	0.626	-13.7636363636	3.71017964072	-5.23333333333	8.35454545455
1253	0.6265	-0.754545454545	3.71017964072	-3.81985815603	9.79090909091
1254	0.627	-5.09090909091	3.71017964072	-3.81985815603	-3.13636363636
1255	0.6275	-5.09090909091	3.71017964072	-2.40638297872	22.7181818182
1256	0.628	-0.754545454545	2.29820359281	6.07446808511	2.60909090909
1257	0.6285	-3.64545454545	-4.76167664671	3.2475177305	4.04545454545
1258	0.629	-3.64545454545	7.94610778443	-2.40638297872	2.60909090909
1259	0.6295	-2.2	-7.58562874251	-0.992907801418	5.48181818182
1260	0.63	-2.2	-6.17365269461	-2.40638297872	2.60909090909
1261	0.6305	18.0363636364	-6.17365269461	-0.992907801418	8.35454545455
1262	0.631	-7.98181818182	-6.17365269461	0.420567375887	2.60909090909
1263	0.6315	-3.64545454545	-1.9377245509	-3.81985815603	21.2818181818
1264	0.632	-2.2	-0.525748502994	-0.992907801418	-7.44545454545
1265	0.6325	-0.754545454545	-1.9377245509	4.6609929078	4.04545454545
1266	0.633	-3.64545454545	-0.525748502994	-10.8872340426	1.17272727273
1267	0.6335	-3.64545454545	-10.4095808383	-6.64680851064	1.17272727273
1268	0.634	0.690909090909	17.8299401198	-6.64680851064	-0.263636363636
1269	0.6345	5.02727272727	3.71017964072	-3.81985815603	2.60909090909
1270	0.635	-12.3181818182	-1.9377245509	-3.81985815603	1.17272727273
1271	0.6355	13.7	-3.3497005988	-3.81985815603	-1.7
1272	0.636	-7.98181818182	0.88622754491	-3.81985815603	2.60909090909
1273	0.6365	-0.754545454545	-3.3497005988	-0.992907801418	1.17272727273
1274	0.637	-2.2	0.88622754491	-10.8872340426	2.60909090909
1275	0.6375	-0.754545454545	-1.9377245509	-3.81985815603	4.04545454545
1276	0.638	0.690909090909	5.12215568862	-0.992907801418	2.60909090909
1277	0.6385	2.13636363636	6.53413173653	-3.81985815603	2.60909090909
1278	0.639	0.690909090909	6.53413173653	-3.81985815603	5.48181818182
1279	0.6395	5.02727272727	3.71017964072	-2.40638297872	4.04545454545
1280	0.64	-12.3181818182	0.88622754491	-3.81985815603	1.17272727273
1281	0.6405	-9.42727272727	-0.525748502994	-0.992907801418	16.9727272727
1282	0.641	-2.2	2.29820359281	0.420567375887	-3.13636363636
1283	0.6415	0.690909090909	2.29820359281	-6.64680851064	-3.13636363636
1284	0.642	0.690909090909	0.88622754491	11.7283687943	4.04545454545
1285	0.6425	0.690909090909	3.71017964072	0.420567375887	2.60909090909
1286	0.643	-0.754545454545	-10.4095808383	-2.40638297872	1.17272727273
1287	0.6435	-0.754545454545	10.7700598802	-0.992907801418	4.04545454545
1288	0.644	2.13636363636	-0.525748502994	-0.992907801418	2.60909090909
1289	0.6445	-6.53636363636	-0.525748502994	-5.23333333333	-3.13636363636
1290	0.645	-13.7636363636	-1.9377245509	0.420567375887	-6.00909090909
1291	0.6455	-2.2	-3.3497005988	-2.40638297872	14.1
1292	0.646	-0.754545454545	-0.525748502994	-5.23333333333	-4.57272727273
1293	0.6465	-0.754545454545	-4.76167664671	14.5553191489	-0.263636363636
1294	0.647	-2.2	0.88622754491	4.6609929078	4.04545454545
1295	0.6475	-0.754545454545	-14.645508982	4.6609929078	2.60909090909
1296	0.648	-2.2	13.594011976	4.6609929078	2.60909090909
1297	0.6485	-2.2	-7.58562874251	4.6609929078	2.60909090909
1298	0.649	9.36363636364	0.88622754491	0.420567375887	2.60909090909
1299	0.6495	-7.98181818182	2.29820359281	0.420567375887	-10.3181818182
1300	0.65	-0.754545454545	0.88622754491	-0.992907801418	15.5363636364
1301	0.6505	-0.754545454545	2.29820359281	1.83404255319	1.17272727273
1302	0.651	-0.754545454545	0.88622754491	-5.23333333333	-0.263636363636
1303	0.6515	-5.09090909091	5.12215568862	1.83404255319	-0.263636363636
1304	0.652	0.690909090909	-3.3497005988	4.6609929078	-1.7
1305	0.6525	3.58181818182	-0.525748502994	6.07446808511	1.17272727273
1306	0.653	-12.3181818182	-1.9377245509	6.07446808511	-0.263636363636
1307	0.6535	16.5909090909	-6.17365269461	7.48794326241	2.60909090909
1308	0.654	-15.2090909091	-6.17365269461	13.1418439716	-10.3181818182
1309	0.6545	-5.09090909091	-4.76167664671	14.5553191489	18.4090909091
1310	0.655	-0.754545454545	0.88622754491	28.690070922	-1.7
1311	0.6555	-0.754545454545	2.29820359281	6.07446808511	2.60909090909
1312	0.656	0.690909090909	-3.3497005988	30.1035460993	5.48181818182
1313	0.6565	-0.754545454545	-4.76167664671	15.9687943262	-0.263636363636
1314	0.657	-0.754545454545	-6.17365269461	13.1418439716	-0.263636363636
1315	0.6575	-5.09090909091	-0.525748502994	13.1418439716	-0.263636363636
1316	0.658	0.690909090909	-0.525748502994	13.1418439716	-1.7
1317	0.6585	12.2545454545	-1.9377245509	11.7283687943	-0.263636363636
1318	0.659	-6.53636363636	-1.9377245509	13.1418439716	-3.13636363636
1319	0.6595	-3.64545454545	-4.76167664671	11.7283687943	9.79090909091
1320	0.66	-3.64545454545	-6.17365269461	14.5553191489	-0.263636363636
1321	0.6605	-3.64545454545	-7.58562874251	0.420567375887	2.60909090909
1322	0.661	-0.754545454545	-0.525748502994	7.48794326241	-0.263636363636
1323	0.6615	0.690909090909	-14.645508982	6.07446808511	2.60909090909
1324	0.662	2.13636363636	9.35808383234	6.07446808511	-1.7
1325	0.6625	-12.3181818182	-4.76167664671	8.90141843972	-1.7
1326	0.663	18.0363636364	-6.17365269461	8.90141843972	5.48181818182
1327	0.6635	-12.3181818182	-7.58562874251	13.1418439716	-10.3181818182
1328	0.664	-0.754545454545	-8.99760479042	8.90141843972	5.48181818182
1329	0.6645	-5.09090909091	-6.17365269461	8.90141843972	-6.00909090909
1330	0.665	-5.09090909091	-1.9377245509	15.9687943262	2.60909090909
1331	0.6655	-5.09090909091	-1.9377245509	0.420567375887	4.04545454545
1332	0.666	-3.64545454545	-1.9377245509	6.07446808511	1.17272727273
1333	0.6665	-2.2	-16.0574850299	4.6609929078	2.60909090909
1334	0.667	-5.09090909091	-3.3497005988	4.6609929078	2.60909090909
1335	0.6675	-3.64545454545	-4.76167664671	4.6609929078	4.04545454545
1336	0.668	-5.09090909091	-3.3497005988	1.83404255319	-0.263636363636
1337	0.6685	0.690909090909	-4.76167664671	1.83404255319	-4.57272727273
1338	0.669	-3.64545454545	-7.58562874251	-2.40638297872	9.79090909091
1339	0.6695	-3.64545454545	-7.58562874251	15.9687943262	-0.263636363636
1340	0.67	-0.754545454545	-6.17365269461	-8.06028368794	2.60909090909
1341	0.6705	-2.2	-8.99760479042	3.2475177305	-0.263636363636
1342	0.671	-0.754545454545	-4.76167664671	4.6609929078	4.04545454545
1343	0.6715	0.690909090909	-7.58562874251	6.07446808511	1.17272727273
1344	0.672	-12.3181818182	-0.525748502994	13.1418439716	1.17272727273
1345	0.6725	16.5909090909	-1.9377245509	11.7283687943	5.48181818182
1346	0.673	-6.53636363636	2.29820359281	14.5553191489	-13.1909090909
1347	0.6735	0.690909090909	-0.525748502994	13.1418439716	19.8454545455
1348	0.674	-0.754545454545	-1.9377245509	15.9687943262	-7.44545454545
1349	0.6745	-0.754545454545	0.88622754491	3.2475177305	1.17272727273
1350	0.675	0.690909090909	2.29820359281	14.5553191489	-0.263636363636
1351	0.6755	-0.754545454545	-0.525748502994	7.48794326241	-0.263636363636
1352	0.676	0.690909090909	-4.76167664671	6.07446808511	1.17272727273
1353	0.6765	2.13636363636	9.35808383234	7.48794326241	1.17272727273
1354	0.677	2.13636363636	-4.76167664671	1.83404255319	-0.263636363636
1355	0.6775	9.36363636364	0.88622754491	1.83404255319	2.60909090909
1356	0.678	9.36363636364	-0.525748502994	1.83404255319	-1.7
1357	0.6785	-7.98181818182	-3.3497005988	0.420567375887	-1.7
1358	0.679	-2.2	-4.76167664671	3.2475177305	8.35454545455
1359	0.6795	-0.754545454545	-1.9377245509	1.83404255319	4.04545454545
1360	0.68	-0.754545454545	-4.76167664671	-3.81985815603	2.60909090909
1361	0.6805	-0.754545454545	-1.9377245509	-2.40638297872	1.17272727273
1362	0.681	3.58181818182	-14.645508982	1.83404255319	2.60909090909
1363	0.6815	-2.2	12.1820359281	1.83404255319	5.48181818182
1364	0.682	3.58181818182	-4.76167664671	3.2475177305	2.60909090909
1365	0.6825	-10.8727272727	-6.17365269461	4.6609929078	4.04545454545
1366	0.683	-2.2	-6.17365269461	3.2475177305	2.60909090909
1367	0.6835	-0.754545454545	-1.9377245509	3.2475177305	14.1
1368	0.684	-0.754545454545	-4.76167664671	1.83404255319	6.91818181818
1369	0.6845	-0.754545454545	-6.17365269461	-0.992907801418	4.04545454545
1370	0.685	0.690909090909	-0.525748502994	0.420567375887	4.04545454545
1371	0.6855	0.690909090909	0.88622754491	-3.81985815603	4.04545454545
1372	0.686	0.690909090909	-7.58562874251	3.2475177305	2.60909090909
1373	0.6865	-5.09090909091	2.29820359281	1.83404255319	2.60909090909
1374	0.687	-3.64545454545	0.88622754491	4.6609929078	4.04545454545
1375	0.6875	-12.3181818182	2.29820359281	6.07446808511	1.17272727273
1376	0.688	-7.98181818182	-1.9377245509	4.6609929078	-3.13636363636
1377	0.6885	-0.754545454545	2.29820359281	6.07446808511	4.04545454545
1378	0.689	-0.754545454545	-0.525748502994	15.9687943262	2.60909090909
1379	0.6895	-5.09090909091	-0.525748502994	-0.992907801418	2.60909090909
1380	0.69	-2.2	-4.76167664671	6.07446808511	-0.263636363636
1381	0.6905	-5.09090909091	-11.8215568862	3.2475177305	-0.263636363636
1382	0.691	-2.2	5.12215568862	4.6609929078	2.60909090909
1383	0.6915	3.58181818182	-1.9377245509	7.48794326241	-1.7
1384	0.692	-13.7636363636	-1.9377245509	6.07446808511	-1.7
1385	0.6925	20.9272727273	-3.3497005988	7.48794326241	1.17272727273
1386	0.693	-2.2	-1.9377245509	4.6609929078	-8.88181818182
1387	0.6935	-2.2	-3.3497005988	4.6609929078	1.17272727273
1388	0.694	-3.64545454545	-1.9377245509	4.6609929078	-7.44545454545
1389	0.6945	-5.09090909091	-3.3497005988	20.2092198582	1.17272727273
1390	0.695	0.690909090909	-7.58562874251	11.7283687943	4.04545454545
1391	0.6955	-2.2	-0.525748502994	4.6609929078	4.04545454545
1392	0.696	-2.2	-0.525748502994	13.1418439716	2.60909090909
1393	0.6965	3.58181818182	-4.76167664671	13.1418439716	-0.263636363636
1394	0.697	15.1454545455	-0.525748502994	14.5553191489	-0.263636363636
1395	0.6975	-10.8727272727	-1.9377245509	15.9687943262	-11.7545454545
1396	0.698	-2.2	-3.3497005988	14.5553191489	16.9727272727
1397	0.6985	2.13636363636	-1.9377245509	25.8631205674	-0.263636363636
1398	0.699	-0.754545454545	-1.9377245509	10.314893617	2.60909090909
1399	0.6995	-0.754545454545	0.88622754491	18.7957446809	1.17272727273
1400	0.7	-0.754545454545	-4.76167664671	13.1418439716	-0.263636363636
1401	0.7005	0.690909090909	7.94610778443	18.7957446809	2.60909090909
1402	0.701	-10.8727272727	-1.9377245509	17.3822695035	1.17272727273
1403	0.7015	16.5909090909	-6.17365269461	14.5553191489	5.48181818182
1404	0.702	-10.8727272727	-4.76167664671	17.3822695035	-6.00909090909
1405	0.7025	-3.64545454545	-6.17365269461	14.5553191489	18.4090909091
1406	0.703	-2.2	-1.9377245509	7.48794326241	-3.13636363636
1407	0.7035	-3.64545454545	-0.525748502994	25.8631205674	2.60909090909
1408	0.704	0.690909090909	-3.3497005988	27.2765957447	4.04545454545
1409	0.7045	0.690909090909	-13.2335329341	14.5553191489	1.17272727273
1410	0.705	2.13636363636	10.7700598802	15.9687943262	-0.263636363636
1411	0.7055	0.690909090909	-10.4095808383	11.7283687943	-0.263636363636
1412	0.706	-0.754545454545	-4.76167664671	8.90141843972	1.17272727273
1413	0.7065	-6.53636363636	-4.76167664671	11.7283687943	-11.7545454545
1414	0.707	-0.754545454545	-4.76167664671	6.07446808511	15.5363636364
1415	0.7075	0.690909090909	-3.3497005988	11.7283687943	-4.57272727273
1416	0.708	2.13636363636	-3.3497005988	-2.40638297872	2.60909090909
1417	0.7085	0.690909090909	-3.3497005988	11.7283687943	-10.3181818182
1418	0.709	0.690909090909	-6.17365269461	15.9687943262	-0.263636363636
1419	0.7095	-2.2	3.71017964072	6.07446808511	-1.7
1420	0.71	0.690909090909	-13.2335329341	6.07446808511	1.17272727273
1421	0.7105	-12.3181818182	-6.17365269461	6.07446808511	-3.13636363636
1422	0.711	18.0363636364	-4.76167664671	7.48794326241	1.17272727273
1423	0.7115	-7.98181818182	-1.9377245509	8.90141843972	5.48181818182
1424	0.712	-3.64545454545	-3.3497005988	13.1418439716	1.17272727273
1425	0.7125	0.690909090909	-0.525748502994	-3.81985815603	2.60909090909
1426	0.713	-0.754545454545	-4.76167664671	27.2765957447	4.04545454545
1427	0.7135	0.690909090909	-6.17365269461	8.90141843972	4.04545454545
1428	0.714	-2.2	-0.525748502994	13.1418439716	1.17272727273
1429	0.7145	-2.2	3.71017964072	8.90141843972	1.17272727273
1430	0.715	-3.64545454545	-16.0574850299	7.48794326241	-0.263636363636
1431	0.7155	-7.98181818182	-8.99760479042	7.48794326241	2.60909090909
1432	0.716	-2.2	-3.3497005988	8.90141843972	-6.00909090909
1433	0.7165	-3.64545454545	-6.17365269461	6.07446808511	18.4090909091
1434	0.717	-3.64545454545	-6.17365269461	4.6609929078	-8.88181818182
1435	0.7175	-3.64545454545	-6.17365269461	14.5553191489	5.48181818182
1436	0.718	-0.754545454545	-7.58562874251	20.2092198582	4.04545454545
1437	0.7185	-0.754545454545	15.005988024	8.90141843972	-0.263636363636
1438	0.719	-2.2	-14.645508982	7.48794326241	1.17272727273
1439	0.7195	-5.09090909091	-14.645508982	11.7283687943	1.17272727273
1440	0.72	9.36363636364	-8.99760479042	14.5553191489	-3.13636363636
1441	0.7205	-10.8727272727	-8.99760479042	11.7283687943	2.60909090909
1442	0.721	-0.754545454545	-10.4095808383	17.3822695035	2.60909090909
1443	0.7215	-2.2	-11.8215568862	6.07446808511	-1.7
1444	0.722	-2.2	-13.2335329341	32.9304964539	1.17272727273
1445	0.7225	-2.2	-8.99760479042	8.90141843972	-0.263636363636
1446	0.723	-2.2	-18.8814371257	18.7957446809	1.17272727273
1447	0.7235	-2.2	6.53413173653	18.7957446809	4.04545454545
1448	0.724	-2.2	-11.8215568862	18.7957446809	2.60909090909
1449	0.7245	-5.09090909091	-6.17365269461	18.7957446809	4.04545454545
1450	0.725	5.02727272727	-6.17365269461	18.7957446809	-8.88181818182
1451	0.7255	-3.64545454545	-10.4095808383	15.9687943262	14.1
1452	0.726	-5.09090909091	-3.3497005988	24.4496453901	-7.44545454545
1453	0.7265	-6.53636363636	-3.3497005988	8.90141843972	-1.7
1454	0.727	-2.2	-1.9377245509	20.2092198582	1.17272727273
1455	0.7275	0.690909090909	-0.525748502994	20.2092198582	-0.263636363636
1456	0.728	-3.64545454545	6.53413173653	21.6226950355	-0.263636363636
1457	0.7285	-2.2	-6.17365269461	20.2092198582	-0.263636363636
1458	0.729	2.13636363636	-7.58562874251	21.6226950355	1.17272727273
1459	0.7295	-12.3181818182	-7.58562874251	23.0361702128	-0.263636363636
1460	0.73	-10.8727272727	-6.17365269461	21.6226950355	-0.263636363636
1461	0.7305	-2.2	-6.17365269461	23.0361702128	2.60909090909
1462	0.731	-0.754545454545	-4.76167664671	4.6609929078	1.17272727273
1463	0.7315	0.690909090909	-4.76167664671	34.3439716312	1.17272727273
1464	0.732	-0.754545454545	-1.9377245509	15.9687943262	1.17272727273
1465	0.7325	-0.754545454545	-7.58562874251	15.9687943262	1.17272727273
1466	0.733	-5.09090909091	0.88622754491	17.3822695035	1.17272727273
1467	0.7335	2.13636363636	-6.17365269461	14.5553191489	1.17272727273
1468	0.734	-12.3181818182	-1.9377245509	11.7283687943	-0.263636363636
1469	0.7345	19.4818181818	-0.525748502994	15.9687943262	4.04545454545
1470	0.735	-0.754545454545	0.88622754491	13.1418439716	-10.3181818182
1471	0.7355	-2.2	-0.525748502994	14.5553191489	-6.00909090909
1472	0.736	-0.754545454545	-1.9377245509	14.5553191489	-0.263636363636
1473	0.7365	0.690909090909	2.29820359281	8.90141843972	-3.13636363636
1474	0.737	-3.64545454545	-13.2335329341	17.3822695035	-0.263636363636
1475	0.7375	-3.64545454545	10.7700598802	18.7957446809	-3.13636363636
1476	0.738	-0.754545454545	5.12215568862	20.2092198582	-1.7
1477	0.7385	-9.42727272727	-13.2335329341	15.9687943262	-1.7
1478	0.739	-0.754545454545	-10.4095808383	14.5553191489	-6.00909090909
1479	0.7395	2.13636363636	-6.17365269461	17.3822695035	1.17272727273
1480	0.74	-2.2	-4.76167664671	7.48794326241	-3.13636363636
1481	0.7405	-3.64545454545	-3.3497005988	31.5170212766	1.17272727273
1482	0.741	-0.754545454545	-4.76167664671	8.90141843972	-1.7
1483	0.7415	2.13636363636	0.88622754491	15.9687943262	-0.263636363636
1484	0.742	0.690909090909	16.4179640719	18.7957446809	-1.7
1485	0.7425	-3.64545454545	-6.17365269461	21.6226950355	2.60909090909
1486	0.743	-5.09090909091	5.12215568862	17.3822695035	-0.263636363636
1487	0.7435	-5.09090909091	5.12215568862	18.7957446809	4.04545454545
1488	0.744	5.02727272727	3.71017964072	15.9687943262	-0.263636363636
1489	0.7445	-0.754545454545	0.88622754491	18.7957446809	6.91818181818
1490	0.745	0.690909090909	2.29820359281	3.2475177305	-3.13636363636
1491	0.7455	0.690909090909	5.12215568862	20.2092198582	-6.00909090909
1492	0.746	-0.754545454545	5.12215568862	14.5553191489	-0.263636363636
1493	0.7465	-0.754545454545	-1.9377245509	15.9687943262	-0.263636363636
1494	0.747	-0.754545454545	3.71017964072	13.1418439716	-0.263636363636
1495	0.7475	2.13636363636	3.71017964072	11.7283687943	1.17272727273
1496	0.748	-12.3181818182	3.71017964072	13.1418439716	1.17272727273
1497	0.7485	18.0363636364	-1.9377245509	7.48794326241	2.60909090909
1498	0.749	-3.64545454545	-1.9377245509	14.5553191489	-8.88181818182
1499	0.7495	-2.2	-1.9377245509	1.83404255319	1.17272727273
1500	0.75	0.690909090909	0.88622754491	4.6609929078	-4.57272727273
1501	0.7505	2.13636363636	-0.525748502994	3.2475177305	1.17272727273
1502	0.751	0.690909090909	2.29820359281	7.48794326241	1.17272727273
1503	0.7515	-3.64545454545	-6.17365269461	11.7283687943	-0.263636363636
1504	0.752	-2.2	-1.9377245509	11.7283687943	1.17272727273
1505	0.7525	2.13636363636	0.88622754491	11.7283687943	1.17272727273
1506	0.753	-2.2	-1.9377245509	10.314893617	9.79090909091
1507	0.7535	0.690909090909	-0.525748502994	7.48794326241	5.48181818182
1508	0.754	2.13636363636	-3.3497005988	13.1418439716	-6.00909090909
1509	0.7545	0.690909090909	0.88622754491	3.2475177305	5.48181818182
1510	0.755	-0.754545454545	0.88622754491	8.90141843972	4.04545454545
1511	0.7555	-2.2	-10.4095808383	7.48794326241	-0.263636363636
1512	0.756	-0.754545454545	16.4179640719	8.90141843972	2.60909090909
1513	0.7565	-5.09090909091	-13.2335329341	8.90141843972	2.60909090909
1514	0.757	-6.53636363636	-6.17365269461	13.1418439716	2.60909090909
1515	0.7575	0.690909090909	-7.58562874251	13.1418439716	1.17272727273
1516	0.758	-0.754545454545	-6.17365269461	17.3822695035	-3.13636363636
1517	0.7585	2.13636363636	-1.9377245509	1.83404255319	2.60909090909
1518	0.759	-0.754545454545	-1.9377245509	27.2765957447	1.17272727273
1519	0.7595	0.690909090909	0.88622754491	6.07446808511	-0.263636363636
1520	0.76	-0.754545454545	2.29820359281	15.9687943262	1.17272727273
1521	0.7605	-2.2	-10.4095808383	17.3822695035	2.60909090909
1522	0.761	-0.754545454545	-3.3497005988	13.1418439716	2.60909090909
1523	0.7615	-10.8727272727	-4.76167664671	11.7283687943	-0.263636363636
1524	0.762	10.8090909091	-0.525748502994	14.5553191489	-0.263636363636
1525	0.7625	-5.09090909091	-1.9377245509	13.1418439716	9.79090909091
1526	0.763	0.690909090909	-3.3497005988	15.9687943262	-4.57272727273
1527	0.7635	0.690909090909	-7.58562874251	3.2475177305	5.48181818182
1528	0.764	-5.09090909091	-8.99760479042	3.2475177305	4.04545454545
1529	0.7645	-3.64545454545	-11.8215568862	11.7283687943	2.60909090909
1530	0.765	0.690909090909	-14.645508982	11.7283687943	1.17272727273
1531	0.7655	0.690909090909	-7.58562874251	15.9687943262	4.04545454545
1532	0.766	-13.7636363636	-10.4095808383	18.7957446809	1.17272727273
1533	0.7665	15.1454545455	-7.58562874251	18.7957446809	5.48181818182
1534	0.767	-10.8727272727	-1.9377245509	18.7957446809	-0.263636363636
1535	0.7675	-3.64545454545	-3.3497005988	15.9687943262	21.2818181818
1536	0.768	-3.64545454545	-4.76167664671	34.3439716312	1.17272727273
1537	0.7685	-0.754545454545	-1.9377245509	13.1418439716	2.60909090909
1538	0.769	-2.2	-3.3497005988	21.6226950355	4.04545454545
1539	0.7695	-3.64545454545	-4.76167664671	20.2092198582	1.17272727273
1540	0.77	0.690909090909	3.71017964072	21.6226950355	1.17272727273
1541	0.7705	-7.98181818182	-0.525748502994	21.6226950355	2.60909090909
1542	0.771	-9.42727272727	-10.4095808383	21.6226950355	-0.263636363636
1543	0.7715	12.2545454545	-8.99760479042	23.0361702128	4.04545454545
1544	0.772	-2.2	-6.17365269461	25.8631205674	-4.57272727273
1545	0.7725	-0.754545454545	-8.99760479042	8.90141843972	1.17272727273
1546	0.773	-2.2	-4.76167664671	37.1709219858	-0.263636363636
1547	0.7735	-2.2	-4.76167664671	15.9687943262	4.04545454545
1548	0.774	-0.754545454545	-4.76167664671	21.6226950355	2.60909090909
1549	0.7745	0.690909090909	-0.525748502994	23.0361702128	-0.263636363636
1550	0.775	-2.2	-6.17365269461	21.6226950355	1.17272727273
1551	0.7755	5.02727272727	-7.58562874251	23.0361702128	-0.263636363636
1552	0.776	-9.42727272727	-3.3497005988	21.6226950355	-4.57272727273
1553	0.7765	-10.8727272727	-8.99760479042	23.0361702128	16.9727272727
1554	0.777	-3.64545454545	-7.58562874251	21.6226950355	-10.3181818182
1555	0.7775	0.690909090909	-6.17365269461	23.0361702128	-8.88181818182
1556	0.778	-2.2	-8.99760479042	17.3822695035	-0.263636363636
1557	0.7785	-0.754545454545	-8.99760479042	20.2092198582	-0.263636363636
1558	0.779	-0.754545454545	-13.2335329341	13.1418439716	-0.263636363636
1559	0.7795	-0.754545454545	-11.8215568862	21.6226950355	-0.263636363636
1560	0.78	-12.3181818182	-10.4095808383	21.6226950355	1.17272727273
1561	0.7805	10.8090909091	-10.4095808383	21.6226950355	2.60909090909
1562	0.781	-6.53636363636	-10.4095808383	24.4496453901	-8.88181818182
1563	0.7815	-5.09090909091	-10.4095808383	24.4496453901	4.04545454545
1564	0.782	-3.64545454545	-8.99760479042	25.8631205674	-4.57272727273
1565	0.7825	-3.64545454545	-4.76167664671	37.1709219858	1.17272727273
1566	0.783	-2.2	-4.76167664671	14.5553191489	-0.263636363636
1567	0.7835	-2.2	-3.3497005988	34.3439716312	1.17272727273
1568	0.784	-0.754545454545	-16.0574850299	21.6226950355	-0.263636363636
1569	0.7845	-3.64545454545	-8.99760479042	23.0361702128	2.60909090909
1570	0.785	2.13636363636	-7.58562874251	21.6226950355	2.60909090909
1571	0.7855	-12.3181818182	-4.76167664671	21.6226950355	-0.263636363636
1572	0.786	-2.2	-4.76167664671	20.2092198582	-3.13636363636
1573	0.7865	-2.2	-6.17365269461	23.0361702128	2.60909090909
1574	0.787	-2.2	-4.76167664671	13.1418439716	-0.263636363636
1575	0.7875	-2.2	-1.9377245509	38.5843971631	1.17272727273
1576	0.788	-3.64545454545	-6.17365269461	17.3822695035	1.17272727273
1577	0.7885	-5.09090909091	0.88622754491	23.0361702128	-0.263636363636
1578	0.789	-0.754545454545	-3.3497005988	23.0361702128	1.17272727273
1579	0.7895	0.690909090909	-3.3497005988	24.4496453901	1.17272727273
1580	0.79	-16.6545454545	-4.76167664671	25.8631205674	-0.263636363636
1581	0.7905	18.0363636364	-8.99760479042	27.2765957447	-0.263636363636
1582	0.791	-2.2	-10.4095808383	27.2765957447	-6.00909090909
1583	0.7915	2.13636363636	-6.17365269461	30.1035460993	-6.00909090909
1584	0.792	2.13636363636	-3.3497005988	27.2765957447	1.17272727273
1585	0.7925	0.690909090909	-1.9377245509	30.1035460993	-0.263636363636
1586	0.793	2.13636363636	-10.4095808383	30.1035460993	1.17272727273
1587	0.7935	7.91818181818	9.35808383234	28.690070922	2.60909090909
1588	0.794	-0.754545454545	-6.17365269461	30.1035460993	2.60909090909
1589	0.7945	0.690909090909	-4.76167664671	31.5170212766	5.48181818182
1590	0.795	-10.8727272727	-3.3497005988	32.9304964539	-6.00909090909
1591	0.7955	-3.64545454545	-1.9377245509	27.2765957447	15.5363636364
1592	0.796	-0.754545454545	-1.9377245509	28.690070922	-6.00909090909
1593	0.7965	-2.2	-1.9377245509	37.1709219858	2.60909090909
1594	0.797	-2.2	-1.9377245509	25.8631205674	-0.263636363636
1595	0.7975	-2.2	-6.17365269461	30.1035460993	-1.7
1596	0.798	-0.754545454545	16.4179640719	28.690070922	1.17272727273
1597	0.7985	-3.64545454545	-11.8215568862	28.690070922	1.17272727273
1598	0.799	0.690909090909	-0.525748502994	30.1035460993	-0.263636363636
1599	0.7995	-5.09090909091	-0.525748502994	25.8631205674	-0.263636363636
1600	0.8	5.02727272727	-3.3497005988	27.2765957447	-10.3181818182
1601	0.8005	-3.64545454545	-7.58562874251	7.48794326241	-0.263636363636
1602	0.801	-5.09090909091	-7.58562874251	39.9978723404	-0.263636363636
1603	0.8015	-5.09090909091	-4.76167664671	13.1418439716	1.17272727273
1604	0.802	-3.64545454545	-3.3497005988	32.9304964539	-0.263636363636
1605	0.8025	-2.2	-6.17365269461	17.3822695035	2.60909090909
1606	0.803	-0.754545454545	-7.58562874251	15.9687943262	1.17272727273
1607	0.8035	-7.98181818182	-0.525748502994	18.7957446809	-1.7
1608	0.804	7.91818181818	-0.525748502994	15.9687943262	1.17272727273
1609	0.8045	-6.53636363636	2.29820359281	18.7957446809	-10.3181818182
1610	0.805	0.690909090909	0.88622754491	17.3822695035	2.60909090909
1611	0.8055	-2.2	-6.17365269461	17.3822695035	-10.3181818182
1612	0.806	-3.64545454545	-6.17365269461	28.690070922	-0.263636363636
1613	0.8065	0.690909090909	-7.58562874251	13.1418439716	1.17272727273
1614	0.807	0.690909090909	0.88622754491	20.2092198582	2.60909090909
1615	0.8075	-2.2	-8.99760479042	14.5553191489	2.60909090909
1616	0.808	3.58181818182	-11.8215568862	15.9687943262	4.04545454545
1617	0.8085	-15.2090909091	-8.99760479042	15.9687943262	1.17272727273
1618	0.809	-12.3181818182	-8.99760479042	11.7283687943	2.60909090909
1619	0.8095	-5.09090909091	-7.58562874251	11.7283687943	18.4090909091
1620	0.81	-2.2	-8.99760479042	17.3822695035	-6.00909090909
1621	0.8105	-0.754545454545	-7.58562874251	11.7283687943	1.17272727273
1622	0.811	-2.2	-4.76167664671	15.9687943262	2.60909090909
1623	0.8115	-2.2	-11.8215568862	17.3822695035	4.04545454545
1624	0.812	-0.754545454545	2.29820359281	14.5553191489	2.60909090909
1625	0.8125	-6.53636363636	-0.525748502994	15.9687943262	2.60909090909
1626	0.813	16.5909090909	-1.9377245509	14.5553191489	2.60909090909
1627	0.8135	16.5909090909	-1.9377245509	14.5553191489	4.04545454545
1628	0.814	-12.3181818182	-1.9377245509	15.9687943262	-10.3181818182
1629	0.8145	-2.2	-3.3497005988	8.90141843972	18.4090909091
1630	0.815	0.690909090909	-1.9377245509	15.9687943262	-7.44545454545
1631	0.8155	0.690909090909	-1.9377245509	10.314893617	-1.7
1632	0.816	-2.2	-1.9377245509	32.9304964539	1.17272727273
1633	0.8165	-0.754545454545	-0.525748502994	17.3822695035	1.17272727273
1634	0.817	-3.64545454545	-10.4095808383	20.2092198582	1.17272727273
1635	0.8175	-6.53636363636	-4.76167664671	18.7957446809	1.17272727273
1636	0.818	-5.09090909091	-8.99760479042	20.2092198582	-0.263636363636
1637	0.8185	10.8090909091	-10.4095808383	15.9687943262	-0.263636363636
1638	0.819	-7.98181818182	-4.76167664671	18.7957446809	1.17272727273
1639	0.8195	-2.2	-4.76167664671	15.9687943262	1.17272727273
1640	0.82	-0.754545454545	-4.76167664671	25.8631205674	1.17272727273
1641	0.8205	0.690909090909	-6.17365269461	11.7283687943	-0.263636363636
1642	0.821	-0.754545454545	-4.76167664671	17.3822695035	1.17272727273
1643	0.8215	-2.2	-11.8215568862	14.5553191489	-0.263636363636
1644	0.822	-2.2	-13.2335329341	24.4496453901	-0.263636363636
1645	0.8225	-2.2	7.94610778443	27.2765957447	2.60909090909
1646	0.823	-9.42727272727	-3.3497005988	25.8631205674	2.60909090909
1647	0.8235	-10.8727272727	-4.76167664671	27.2765957447	-1.7
1648	0.824	-2.2	-1.9377245509	30.1035460993	1.17272727273
1649	0.8245	-0.754545454545	-1.9377245509	24.4496453901	-3.13636363636
1650	0.825	-0.754545454545	-4.76167664671	31.5170212766	15.5363636364
1651	0.8255	-0.754545454545	-0.525748502994	30.1035460993	4.04545454545
1652	0.826	-0.754545454545	-8.99760479042	28.690070922	2.60909090909
1653	0.8265	-2.2	7.94610778443	25.8631205674	2.60909090909
1654	0.827	-5.09090909091	-1.9377245509	25.8631205674	4.04545454545
1655	0.8275	15.1454545455	-3.3497005988	23.0361702128	5.48181818182
1656	0.828	-7.98181818182	-3.3497005988	24.4496453901	-6.00909090909
1657	0.8285	-2.2	-4.76167664671	24.4496453901	6.91818181818
1658	0.829	-0.754545454545	-0.525748502994	28.690070922	1.17272727273
1659	0.8295	0.690909090909	-1.9377245509	17.3822695035	1.17272727273
1660	0.83	2.13636363636	-1.9377245509	27.2765957447	4.04545454545
1661	0.8305	2.13636363636	0.88622754491	30.1035460993	-0.263636363636
1662	0.831	0.690909090909	-11.8215568862	25.8631205674	1.17272727273
1663	0.8315	-3.64545454545	3.71017964072	27.2765957447	2.60909090909
1664	0.832	-2.2	-10.4095808383	27.2765957447	1.17272727273
1665	0.8325	-0.754545454545	-4.76167664671	27.2765957447	-1.7
1666	0.833	-5.09090909091	-4.76167664671	27.2765957447	9.79090909091
1667	0.8335	-0.754545454545	-6.17365269461	30.1035460993	2.60909090909
1668	0.834	0.690909090909	-4.76167664671	14.5553191489	1.17272727273
1669	0.8345	0.690909090909	-6.17365269461	34.3439716312	4.04545454545
1670	0.835	2.13636363636	-4.76167664671	13.1418439716	4.04545454545
1671	0.8355	0.690909090909	-17.4694610778	21.6226950355	1.17272727273
1672	0.836	0.690909090909	13.594011976	20.2092198582	-1.7
1673	0.8365	-3.64545454545	-13.2335329341	18.7957446809	-0.263636363636
1674	0.837	2.13636363636	-1.9377245509	20.2092198582	1.17272727273
1675	0.8375	-12.3181818182	-1.9377245509	20.2092198582	-0.263636363636
1676	0.838	-2.2	-1.9377245509	21.6226950355	2.60909090909
1677	0.8385	-2.2	-1.9377245509	24.4496453901	-4.57272727273
1678	0.839	-2.2	-1.9377245509	20.2092198582	-0.263636363636
1679	0.8395	-2.2	-8.99760479042	15.9687943262	-0.263636363636
1680	0.84	0.690909090909	-4.76167664671	20.2092198582	1.17272727273
1681	0.8405	-2.2	-20.2934131737	20.2092198582	-0.263636363636
1682	0.841	2.13636363636	9.35808383234	18.7957446809	-0.263636363636
1683	0.8415	-2.2	-14.645508982	23.0361702128	1.17272727273
1684	0.842	-3.64545454545	-11.8215568862	23.0361702128	1.17272727273
1685	0.8425	2.13636363636	-8.99760479042	21.6226950355	1.17272727273
1686	0.843	-9.42727272727	-8.99760479042	20.2092198582	14.1
1687	0.8435	-5.09090909091	-7.58562874251	23.0361702128	-8.88181818182
1688	0.844	-3.64545454545	-1.9377245509	34.3439716312	4.04545454545
1689	0.8445	-3.64545454545	-3.3497005988	7.48794326241	4.04545454545
1690	0.845	-5.09090909091	2.29820359281	15.9687943262	2.60909090909
1691	0.8455	-5.09090909091	-6.17365269461	14.5553191489	2.60909090909
1692	0.846	-3.64545454545	-6.17365269461	14.5553191489	1.17272727273
1693	0.8465	-5.09090909091	0.88622754491	8.90141843972	2.60909090909
1694	0.847	-5.09090909091	-1.9377245509	10.314893617	6.91818181818
1695	0.8475	9.36363636364	-3.3497005988	8.90141843972	2.60909090909
1696	0.848	-5.09090909091	-1.9377245509	14.5553191489	5.48181818182
1697	0.8485	-5.09090909091	0.88622754491	-5.23333333333	2.60909090909
1698	0.849	-2.2	2.29820359281	27.2765957447	4.04545454545
1699	0.8495	-0.754545454545	-3.3497005988	-0.992907801418	4.04545454545
1700	0.85	-3.64545454545	0.88622754491	15.9687943262	1.17272727273
1701	0.8505	-3.64545454545	0.88622754491	4.6609929078	2.60909090909
1702	0.851	-3.64545454545	-1.9377245509	3.2475177305	6.91818181818
1703	0.8515	3.58181818182	0.88622754491	6.07446808511	5.48181818182
1704	0.852	-9.42727272727	0.88622754491	7.48794326241	4.04545454545
1705	0.8525	-7.98181818182	-3.3497005988	14.5553191489	4.04545454545
1706	0.853	-2.2	-3.3497005988	15.9687943262	-6.00909090909
1707	0.8535	-5.09090909091	-6.17365269461	20.2092198582	1.17272727273
1708	0.854	-2.2	-11.8215568862	8.90141843972	2.60909090909
1709	0.8545	-2.2	-8.99760479042	32.9304964539	2.60909090909
1710	0.855	-5.09090909091	-11.8215568862	23.0361702128	2.60909090909
1711	0.8555	-7.98181818182	-8.99760479042	21.6226950355	2.60909090909
1712	0.856	-2.2	-7.58562874251	21.6226950355	2.60909090909
1713	0.8565	0.690909090909	-3.3497005988	18.7957446809	4.04545454545
1714	0.857	-0.754545454545	0.88622754491	25.8631205674	-10.3181818182
1715	0.8575	0.690909090909	-1.9377245509	23.0361702128	15.5363636364
1716	0.858	-2.2	-3.3497005988	23.0361702128	4.04545454545
1717	0.8585	-0.754545454545	0.88622754491	15.9687943262	-4.57272727273
1718	0.859	-0.754545454545	-8.99760479042	23.0361702128	1.17272727273
1719	0.8595	-0.754545454545	16.4179640719	21.6226950355	2.60909090909
1720	0.86	-5.09090909091	-14.645508982	20.2092198582	1.17272727273
1721	0.8605	0.690909090909	-7.58562874251	20.2092198582	2.60909090909
1722	0.861	-10.8727272727	-8.99760479042	20.2092198582	1.17272727273
1723	0.8615	-0.754545454545	-10.4095808383	27.2765957447	1.17272727273
1724	0.862	-2.2	-8.99760479042	8.90141843972	1.17272727273
1725	0.8625	-0.754545454545	-7.58562874251	37.1709219858	-1.7
1726	0.863	-2.2	-4.76167664671	14.5553191489	-1.7
1727	0.8635	-3.64545454545	-0.525748502994	23.0361702128	-0.263636363636
1728	0.864	2.13636363636	-11.8215568862	21.6226950355	-0.263636363636
1729	0.8645	-5.09090909091	-4.76167664671	18.7957446809	-0.263636363636
1730	0.865	-3.64545454545	-3.3497005988	20.2092198582	1.17272727273
1731	0.8655	-3.64545454545	-4.76167664671	21.6226950355	1.17272727273
1732	0.866	-3.64545454545	-4.76167664671	23.0361702128	-10.3181818182
1733	0.8665	-3.64545454545	-0.525748502994	11.7283687943	-1.7
1734	0.867	-0.754545454545	-0.525748502994	32.9304964539	-1.7
1735	0.8675	-0.754545454545	-0.525748502994	20.2092198582	-0.263636363636
1736	0.868	-5.09090909091	2.29820359281	21.6226950355	-0.263636363636
1737	0.8685	-5.09090909091	-8.99760479042	20.2092198582	-1.7
1738	0.869	-5.09090909091	-4.76167664671	20.2092198582	-0.263636363636
1739	0.8695	-5.09090909091	-6.17365269461	24.4496453901	-0.263636363636
1740	0.87	-13.7636363636	-3.3497005988	23.0361702128	-3.13636363636
1741	0.8705	-5.09090909091	-3.3497005988	24.4496453901	5.48181818182
1742	0.871	-5.09090909091	-6.17365269461	13.1418439716	-1.7
1743	0.8715	-5.09090909091	-7.58562874251	24.4496453901	-6.00909090909
1744	0.872	-3.64545454545	-3.3497005988	37.1709219858	-1.7
1745	0.8725	-0.754545454545	-10.4095808383	21.6226950355	-0.263636363636
1746	0.873	-6.53636363636	-8.99760479042	23.0361702128	-1.7
1747	0.8735	-10.8727272727	-10.4095808383	24.4496453901	-1.7
1748	0.874	-18.1	-8.99760479042	24.4496453901	1.17272727273
1749	0.8745	13.7	-8.99760479042	24.4496453901	-1.7
1750	0.875	-12.3181818182	-4.76167664671	24.4496453901	-11.7545454545
1751	0.8755	-5.09090909091	-1.9377245509	17.3822695035	-1.7
1752	0.876	-3.64545454545	-1.9377245509	21.6226950355	-8.88181818182
1753	0.8765	-3.64545454545	-6.17365269461	18.7957446809	-0.263636363636
1754	0.877	-3.64545454545	-1.9377245509	24.4496453901	-0.263636363636
1755	0.8775	-5.09090909091	-13.2335329341	21.6226950355	2.60909090909
1756	0.878	3.58181818182	-6.17365269461	21.6226950355	4.04545454545
1757	0.8785	-10.8727272727	-6.17365269461	20.2092198582	4.04545454545
1758	0.879	13.7	-3.3497005988	15.9687943262	6.91818181818
1759	0.8795	-9.42727272727	-1.9377245509	13.1418439716	9.79090909091
1760	0.88	-2.2	-3.3497005988	0.420567375887	15.5363636364
1761	0.8805	-0.754545454545	0.88622754491	8.90141843972	9.79090909091
1762	0.881	2.13636363636	0.88622754491	-0.992907801418	12.6636363636
1763	0.8815	2.13636363636	-13.2335329341	1.83404255319	12.6636363636
1764	0.882	0.690909090909	15.005988024	-0.992907801418	9.79090909091
1765	0.8825	5.02727272727	-4.76167664671	-0.992907801418	14.1
1766	0.883	-6.53636363636	5.12215568862	-3.81985815603	15.5363636364
1767	0.8835	12.2545454545	3.71017964072	-5.23333333333	21.2818181818
1768	0.884	3.58181818182	2.29820359281	-9.47375886525	2.60909090909
1769	0.8845	2.13636363636	0.88622754491	-6.64680851064	4.04545454545
1770	0.885	2.13636363636	3.71017964072	-17.9546099291	18.4090909091
1771	0.8855	0.690909090909	3.71017964072	-12.3007092199	15.5363636364
1772	0.886	3.58181818182	-3.3497005988	-13.7141843972	18.4090909091
1773	0.8865	5.02727272727	16.4179640719	-17.9546099291	19.8454545455
1774	0.887	0.690909090909	2.29820359281	-17.9546099291	19.8454545455
1775	0.8875	5.02727272727	6.53413173653	-23.6085106383	21.2818181818
1776	0.888	-3.64545454545	9.35808383234	-26.4354609929	21.2818181818
1777	0.8885	-6.53636363636	10.7700598802	-30.6758865248	15.5363636364
1778	0.889	3.58181818182	9.35808383234	-33.5028368794	37.0818181818
1779	0.8895	2.13636363636	7.94610778443	-37.7432624113	19.8454545455
1780	0.89	3.58181818182	9.35808383234	-41.9836879433	25.5909090909
1781	0.8905	7.91818181818	13.594011976	-37.7432624113	24.1545454545
1782	0.891	5.02727272727	0.88622754491	-43.3971631206	27.0272727273
1783	0.8915	3.58181818182	29.125748503	-43.3971631206	24.1545454545
1784	0.892	-2.2	13.594011976	-46.2241134752	24.1545454545
1785	0.8925	20.9272727273	15.005988024	-49.0510638298	21.2818181818
1786	0.893	0.690909090909	16.4179640719	-50.4645390071	28.4636363636
1787	0.8935	5.02727272727	15.005988024	-49.0510638298	24.1545454545
1788	0.894	3.58181818182	16.4179640719	-64.5992907801	25.5909090909
1789	0.8945	3.58181818182	15.005988024	-44.8106382979	29.9
1790	0.895	3.58181818182	9.35808383234	-56.1184397163	28.4636363636
1791	0.8955	3.58181818182	17.8299401198	-58.9453900709	27.0272727273
1792	0.896	3.58181818182	13.594011976	-60.3588652482	27.0272727273
1793	0.8965	12.2545454545	9.35808383234	-63.1858156028	24.1545454545
1794	0.897	-6.53636363636	13.594011976	-63.1858156028	22.7181818182
1795	0.8975	5.02727272727	7.94610778443	-70.2531914894	38.5181818182
1796	0.898	9.36363636364	10.7700598802	-68.8397163121	8.35454545455
1797	0.8985	3.58181818182	3.71017964072	-71.6666666667	34.2090909091
1798	0.899	0.690909090909	6.53413173653	-60.3588652482	19.8454545455
1799	0.8995	0.690909090909	2.29820359281	-74.4936170213	16.9727272727
1800	0.9	3.58181818182	17.8299401198	-70.2531914894	19.8454545455
1801	0.9005	2.13636363636	-1.9377245509	-70.2531914894	18.4090909091
1802	0.901	7.91818181818	3.71017964072	-68.8397163121	21.2818181818
1803	0.9015	0.690909090909	6.53413173653	-68.8397163121	21.2818181818
1804	0.902	0.690909090909	2.29820359281	-63.1858156028	5.48181818182
1805	0.9025	-0.754545454545	6.53413173653	-64.5992907801	31.3363636364
1806	0.903	0.690909090909	6.53413173653	-66.0127659574	6.91818181818
1807	0.9035	2.13636363636	7.94610778443	-54.704964539	18.4090909091
1808	0.904	0.690909090909	5.12215568862	-49.0510638298	16.9727272727
