	Time	Channel 1	Channel 2	Channel 3	Channel 4
0	0.0	3.66829268293	-14.7534883721	22.7956896552	28.4333333333
1	0.0005	-9.26097560976	-14.7534883721	17.1301724138	22.7888888889
2	0.001	2.23170731707	-16.1906976744	28.4612068966	24.2
3	0.0015	-4.9512195122	-13.3162790698	11.4646551724	22.7888888889
4	0.002	-0.641463414634	-17.6279069767	14.2974137931	22.7888888889
5	0.0025	-2.07804878049	-19.0651162791	12.8810344828	14.3222222222
6	0.003	0.79512195122	-9.00465116279	17.1301724138	38.3111111111
7	0.0035	-2.07804878049	-0.381395348837	15.7137931034	29.8444444444
8	0.004	0.79512195122	-23.376744186	15.7137931034	24.2
9	0.0045	3.66829268293	-10.4418604651	15.7137931034	27.0222222222
10	0.005	2.23170731707	-6.13023255814	14.2974137931	28.4333333333
11	0.0055	2.23170731707	-21.9395348837	8.63189655172	28.4333333333
12	0.006	2.23170731707	-20.5023255814	7.21551724138	25.6111111111
13	0.0065	2.23170731707	-16.1906976744	12.8810344828	27.0222222222
14	0.007	-0.641463414634	-27.688372093	14.2974137931	25.6111111111
15	0.0075	9.41463414634	-21.9395348837	15.7137931034	25.6111111111
16	0.008	-0.641463414634	-13.3162790698	17.1301724138	24.2
17	0.0085	-7.8243902439	-14.7534883721	15.7137931034	22.7888888889
18	0.009	3.66829268293	-17.6279069767	14.2974137931	36.9
19	0.0095	3.66829268293	-16.1906976744	24.2120689655	21.3777777778
20	0.01	3.66829268293	-14.7534883721	31.2939655172	24.2
21	0.0105	3.66829268293	-16.1906976744	5.79913793103	24.2
22	0.011	2.23170731707	-20.5023255814	31.2939655172	21.3777777778
23	0.0115	2.23170731707	-6.13023255814	18.5465517241	19.9666666667
24	0.012	5.10487804878	-16.1906976744	17.1301724138	17.1444444444
25	0.0125	16.5975609756	-14.7534883721	19.9629310345	15.7333333333
26	0.013	-0.641463414634	-16.1906976744	18.5465517241	11.5
27	0.0135	-0.641463414634	-14.7534883721	7.21551724138	8.67777777778
28	0.014	3.66829268293	-16.1906976744	35.5431034483	5.85555555556
29	0.0145	0.79512195122	-16.1906976744	18.5465517241	1.62222222222
30	0.015	-0.641463414634	-16.1906976744	11.4646551724	-6.84444444444
31	0.0155	-2.07804878049	-9.00465116279	19.9629310345	-15.3111111111
32	0.016	-9.26097560976	-11.8790697674	19.9629310345	-28.0111111111
33	0.0165	7.97804878049	-11.8790697674	19.9629310345	-35.0666666667
34	0.017	-9.26097560976	-10.4418604651	24.2120689655	-43.5333333333
35	0.0175	-4.9512195122	-11.8790697674	8.63189655172	-49.1777777778
36	0.018	-4.9512195122	-9.00465116279	36.9594827586	-54.8222222222
37	0.0185	-4.9512195122	-11.8790697674	21.3793103448	-63.2888888889
38	0.019	-6.38780487805	-9.00465116279	11.4646551724	-70.3444444444
39	0.0195	-7.8243902439	-16.1906976744	18.5465517241	-74.5777777778
40	0.02	-7.8243902439	-9.00465116279	18.5465517241	-78.8111111111
41	0.0205	-17.8804878049	-9.00465116279	19.9629310345	-87.2777777778
42	0.021	5.10487804878	-6.13023255814	21.3793103448	-91.5111111111
43	0.0215	-7.8243902439	-7.56744186047	17.1301724138	-83.0444444444
44	0.022	-9.26097560976	-9.00465116279	22.7956896552	-94.3333333333
45	0.0225	-7.8243902439	-4.69302325581	14.2974137931	-87.2777777778
46	0.023	-9.26097560976	-17.6279069767	19.9629310345	-92.9222222222
47	0.0235	-9.26097560976	-14.7534883721	21.3793103448	-90.1
48	0.024	-12.1341463415	-6.13023255814	22.7956896552	-92.9222222222
49	0.0245	10.8512195122	-7.56744186047	21.3793103448	-91.5111111111
50	0.025	-17.8804878049	-6.13023255814	18.5465517241	-95.7444444444
51	0.0255	-10.6975609756	-6.13023255814	18.5465517241	-77.4
52	0.026	-7.8243902439	-4.69302325581	17.1301724138	-87.2777777778
53	0.0265	-9.26097560976	-4.69302325581	12.8810344828	-78.8111111111
54	0.027	-6.38780487805	-13.3162790698	14.2974137931	-77.4
55	0.0275	-10.6975609756	-9.00465116279	14.2974137931	-73.1666666667
56	0.028	-22.1902439024	-6.13023255814	14.2974137931	-70.3444444444
57	0.0285	10.8512195122	-9.00465116279	14.2974137931	-61.8777777778
58	0.029	-16.443902439	-4.69302325581	8.63189655172	-43.5333333333
59	0.0295	-9.26097560976	-4.69302325581	11.4646551724	-63.2888888889
60	0.03	-6.38780487805	-3.25581395349	-2.69913793103	-52.0
61	0.0305	-9.26097560976	-3.25581395349	5.79913793103	-49.1777777778
62	0.031	-9.26097560976	-13.3162790698	7.21551724138	-44.9444444444
63	0.0315	-6.38780487805	8.24186046512	4.38275862069	-40.7111111111
64	0.032	-6.38780487805	-13.3162790698	7.21551724138	-40.7111111111
65	0.0325	0.79512195122	-4.69302325581	8.63189655172	-42.1222222222
66	0.033	-13.5707317073	-4.69302325581	7.21551724138	-28.0111111111
67	0.0335	-6.38780487805	-4.69302325581	-1.28275862069	-36.4777777778
68	0.034	-7.8243902439	-1.81860465116	7.21551724138	-32.2444444444
69	0.0345	-7.8243902439	-4.69302325581	2.96637931034	-30.8333333333
70	0.035	-4.9512195122	6.80465116279	4.38275862069	-28.0111111111
71	0.0355	-6.38780487805	-6.13023255814	2.96637931034	-22.3666666667
72	0.036	0.79512195122	-6.13023255814	4.38275862069	-22.3666666667
73	0.0365	-10.6975609756	-6.13023255814	4.38275862069	-29.4222222222
74	0.037	-9.26097560976	-4.69302325581	1.55	-16.7222222222
75	0.0375	-4.9512195122	-3.25581395349	-6.94827586207	-15.3111111111
76	0.038	-3.51463414634	-0.381395348837	15.7137931034	-12.4888888889
77	0.0385	-3.51463414634	-7.56744186047	0.133620689655	-9.66666666667
78	0.039	-4.9512195122	-1.81860465116	-1.28275862069	-9.66666666667
79	0.0395	-2.07804878049	-7.56744186047	1.55	-8.25555555556
80	0.04	-0.641463414634	-9.00465116279	0.133620689655	-5.43333333333
81	0.0405	-16.443902439	-6.13023255814	-2.69913793103	-1.2
82	0.041	-7.8243902439	-6.13023255814	-1.28275862069	1.62222222222
83	0.0415	-6.38780487805	-4.69302325581	0.133620689655	-2.61111111111
84	0.042	-4.9512195122	-4.69302325581	-8.36465517241	5.85555555556
85	0.0425	-4.9512195122	-3.25581395349	0.133620689655	0.211111111111
86	0.043	-4.9512195122	-6.13023255814	-5.53189655172	1.62222222222
87	0.0435	-4.9512195122	13.9906976744	0.133620689655	4.44444444444
88	0.044	-0.641463414634	-11.8790697674	0.133620689655	5.85555555556
89	0.0445	-19.3170731707	-3.25581395349	1.55	12.9111111111
90	0.045	12.287804878	-4.69302325581	1.55	10.0888888889
91	0.0455	-4.9512195122	-9.00465116279	1.55	0.211111111111
92	0.046	-4.9512195122	-6.13023255814	2.96637931034	19.9666666667
93	0.0465	-7.8243902439	-3.25581395349	0.133620689655	8.67777777778
94	0.047	-7.8243902439	-0.381395348837	1.55	7.26666666667
95	0.0475	-9.26097560976	-4.69302325581	1.55	7.26666666667
96	0.048	-2.07804878049	-4.69302325581	1.55	5.85555555556
97	0.0485	-15.0073170732	-6.13023255814	1.55	4.44444444444
98	0.049	-12.1341463415	-4.69302325581	0.133620689655	8.67777777778
99	0.0495	-6.38780487805	-6.13023255814	5.79913793103	5.85555555556
100	0.05	-3.51463414634	-6.13023255814	-8.36465517241	5.85555555556
101	0.0505	-6.38780487805	-9.00465116279	15.7137931034	7.26666666667
102	0.051	-4.9512195122	-3.25581395349	-6.94827586207	4.44444444444
103	0.0515	-4.9512195122	11.1162790698	1.55	8.67777777778
104	0.052	-0.641463414634	-6.13023255814	-2.69913793103	11.5
105	0.0525	-13.5707317073	-6.13023255814	-1.28275862069	10.0888888889
106	0.053	13.7243902439	-4.69302325581	1.55	10.0888888889
107	0.0535	-4.9512195122	-4.69302325581	-1.28275862069	5.85555555556
108	0.054	-4.9512195122	-6.13023255814	0.133620689655	17.1444444444
109	0.0545	-6.38780487805	-3.25581395349	-6.94827586207	7.26666666667
110	0.055	-9.26097560976	-16.1906976744	1.55	10.0888888889
111	0.0555	-4.9512195122	-13.3162790698	0.133620689655	10.0888888889
112	0.056	-7.8243902439	-4.69302325581	-1.28275862069	12.9111111111
113	0.0565	-6.38780487805	-10.4418604651	-1.28275862069	12.9111111111
114	0.057	-16.443902439	-4.69302325581	-1.28275862069	8.67777777778
115	0.0575	-6.38780487805	-4.69302325581	1.55	7.26666666667
116	0.058	-7.8243902439	-6.13023255814	5.79913793103	12.9111111111
117	0.0585	-6.38780487805	-1.81860465116	1.55	14.3222222222
118	0.059	-4.9512195122	6.80465116279	1.55	14.3222222222
119	0.0595	-7.8243902439	-10.4418604651	-1.28275862069	11.5
120	0.06	-2.07804878049	-1.81860465116	2.96637931034	14.3222222222
121	0.0605	-15.0073170732	-3.25581395349	-1.28275862069	15.7333333333
122	0.061	-6.38780487805	-6.13023255814	4.38275862069	22.7888888889
123	0.0615	-9.26097560976	-6.13023255814	-6.94827586207	12.9111111111
124	0.062	-4.9512195122	-3.25581395349	14.2974137931	15.7333333333
125	0.0625	-4.9512195122	-4.69302325581	-8.36465517241	15.7333333333
126	0.063	-4.9512195122	9.67906976744	-1.28275862069	17.1444444444
127	0.0635	-6.38780487805	-10.4418604651	0.133620689655	18.5555555556
128	0.064	-0.641463414634	-6.13023255814	0.133620689655	24.2
129	0.0645	-4.9512195122	-7.56744186047	1.55	12.9111111111
130	0.065	-9.26097560976	-6.13023255814	-2.69913793103	28.4333333333
131	0.0655	-6.38780487805	-4.69302325581	2.96637931034	15.7333333333
132	0.066	-6.38780487805	-6.13023255814	-5.53189655172	19.9666666667
133	0.0665	-6.38780487805	-1.81860465116	15.7137931034	17.1444444444
134	0.067	-7.8243902439	-6.13023255814	-9.78103448276	18.5555555556
135	0.0675	-7.8243902439	-14.7534883721	-1.28275862069	17.1444444444
136	0.068	-7.8243902439	-6.13023255814	0.133620689655	18.5555555556
137	0.0685	-13.5707317073	-7.56744186047	0.133620689655	17.1444444444
138	0.069	-10.6975609756	-9.00465116279	2.96637931034	25.6111111111
139	0.0695	-6.38780487805	-9.00465116279	-5.53189655172	15.7333333333
140	0.07	-7.8243902439	-6.13023255814	2.96637931034	21.3777777778
141	0.0705	-7.8243902439	-16.1906976744	-1.28275862069	18.5555555556
142	0.071	-4.9512195122	11.1162790698	0.133620689655	19.9666666667
143	0.0715	-6.38780487805	-13.3162790698	0.133620689655	19.9666666667
144	0.072	-15.0073170732	-6.13023255814	0.133620689655	18.5555555556
145	0.0725	9.41463414634	-7.56744186047	0.133620689655	17.1444444444
146	0.073	-12.1341463415	-6.13023255814	0.133620689655	21.3777777778
147	0.0735	-9.26097560976	-7.56744186047	4.38275862069	15.7333333333
148	0.074	-4.9512195122	-7.56744186047	-1.28275862069	19.9666666667
149	0.0745	-6.38780487805	-4.69302325581	1.55	19.9666666667
150	0.075	-6.38780487805	-17.6279069767	-1.28275862069	22.7888888889
151	0.0755	-3.51463414634	-10.4418604651	-4.11551724138	21.3777777778
152	0.076	-19.3170731707	-4.69302325581	-1.28275862069	19.9666666667
153	0.0765	10.8512195122	-4.69302325581	-4.11551724138	21.3777777778
154	0.077	-15.0073170732	-6.13023255814	-2.69913793103	15.7333333333
155	0.0775	-12.1341463415	-7.56744186047	-4.11551724138	35.4888888889
156	0.078	-7.8243902439	-3.25581395349	-4.11551724138	8.67777777778
157	0.0785	-7.8243902439	-6.13023255814	-11.1974137931	18.5555555556
158	0.079	-4.9512195122	-7.56744186047	-1.28275862069	18.5555555556
159	0.0795	-4.9512195122	-11.8790697674	-2.69913793103	15.7333333333
160	0.08	-6.38780487805	-6.13023255814	-4.11551724138	19.9666666667
161	0.0805	-4.9512195122	-6.13023255814	-4.11551724138	17.1444444444
162	0.081	-12.1341463415	-4.69302325581	-5.53189655172	19.9666666667
163	0.0815	-9.26097560976	-4.69302325581	-2.69913793103	14.3222222222
164	0.082	-10.6975609756	-4.69302325581	1.55	15.7333333333
165	0.0825	-10.6975609756	-3.25581395349	-4.11551724138	15.7333333333
166	0.083	-9.26097560976	2.49302325581	-2.69913793103	17.1444444444
167	0.0835	-9.26097560976	-6.13023255814	-1.28275862069	15.7333333333
168	0.084	-4.9512195122	-6.13023255814	0.133620689655	12.9111111111
169	0.0845	-15.0073170732	-4.69302325581	1.55	14.3222222222
170	0.085	-7.8243902439	-4.69302325581	4.38275862069	17.1444444444
171	0.0855	-4.9512195122	-4.69302325581	4.38275862069	8.67777777778
172	0.086	-6.38780487805	-4.69302325581	11.4646551724	14.3222222222
173	0.0865	-7.8243902439	-7.56744186047	0.133620689655	11.5
174	0.087	-9.26097560976	-16.1906976744	0.133620689655	10.0888888889
175	0.0875	-4.9512195122	-10.4418604651	-2.69913793103	8.67777777778
176	0.088	-10.6975609756	-9.00465116279	0.133620689655	14.3222222222
177	0.0885	7.97804878049	-7.56744186047	0.133620689655	14.3222222222
178	0.089	-15.0073170732	-3.25581395349	4.38275862069	22.7888888889
179	0.0895	-4.9512195122	-9.00465116279	1.55	10.0888888889
180	0.09	-4.9512195122	-6.13023255814	-1.28275862069	22.7888888889
181	0.0905	-7.8243902439	-7.56744186047	0.133620689655	10.0888888889
182	0.091	-4.9512195122	-16.1906976744	0.133620689655	8.67777777778
183	0.0915	-9.26097560976	12.5534883721	0.133620689655	12.9111111111
184	0.092	-9.26097560976	-13.3162790698	0.133620689655	7.26666666667
185	0.0925	-13.5707317073	-4.69302325581	0.133620689655	5.85555555556
186	0.093	3.66829268293	-4.69302325581	2.96637931034	8.67777777778
187	0.0935	-7.8243902439	-6.13023255814	2.96637931034	15.7333333333
188	0.094	-6.38780487805	-7.56744186047	1.55	7.26666666667
189	0.0945	-7.8243902439	-7.56744186047	-4.11551724138	11.5
190	0.095	-6.38780487805	-16.1906976744	2.96637931034	14.3222222222
191	0.0955	-7.8243902439	11.1162790698	1.55	15.7333333333
192	0.096	-7.8243902439	-7.56744186047	1.55	14.3222222222
193	0.0965	-20.7536585366	-6.13023255814	-1.28275862069	14.3222222222
194	0.097	12.287804878	-7.56744186047	0.133620689655	15.7333333333
195	0.0975	-7.8243902439	-9.00465116279	1.55	4.44444444444
196	0.098	-7.8243902439	-6.13023255814	-11.1974137931	15.7333333333
197	0.0985	-7.8243902439	-4.69302325581	17.1301724138	15.7333333333
198	0.099	-4.9512195122	-4.69302325581	-6.94827586207	17.1444444444
199	0.0995	-3.51463414634	-17.6279069767	0.133620689655	15.7333333333
200	0.1	-4.9512195122	13.9906976744	-2.69913793103	17.1444444444
201	0.1005	-20.7536585366	-7.56744186047	-1.28275862069	19.9666666667
202	0.101	13.7243902439	-6.13023255814	-2.69913793103	19.9666666667
203	0.1015	-16.443902439	-7.56744186047	-2.69913793103	15.7333333333
204	0.102	-7.8243902439	-6.13023255814	-9.78103448276	14.3222222222
205	0.1025	-10.6975609756	-4.69302325581	17.1301724138	15.7333333333
206	0.103	-4.9512195122	-6.13023255814	-6.94827586207	18.5555555556
207	0.1035	-6.38780487805	-0.381395348837	1.55	12.9111111111
208	0.104	-7.8243902439	-13.3162790698	2.96637931034	15.7333333333
209	0.1045	-10.6975609756	-7.56744186047	0.133620689655	17.1444444444
210	0.105	-17.8804878049	-9.00465116279	1.55	12.9111111111
211	0.1055	5.10487804878	-9.00465116279	0.133620689655	18.5555555556
212	0.106	-4.9512195122	-7.56744186047	2.96637931034	17.1444444444
213	0.1065	-7.8243902439	-4.69302325581	-8.36465517241	15.7333333333
214	0.107	-6.38780487805	-3.25581395349	4.38275862069	12.9111111111
215	0.1075	-4.9512195122	-6.13023255814	8.63189655172	12.9111111111
216	0.108	-4.9512195122	1.05581395349	0.133620689655	14.3222222222
217	0.1085	-9.26097560976	-13.3162790698	-1.28275862069	12.9111111111
218	0.109	-12.1341463415	-6.13023255814	1.55	10.0888888889
219	0.1095	0.79512195122	-9.00465116279	1.55	14.3222222222
220	0.11	-6.38780487805	-7.56744186047	-1.28275862069	5.85555555556
221	0.1105	-4.9512195122	-7.56744186047	-4.11551724138	21.3777777778
222	0.111	-4.9512195122	-6.13023255814	0.133620689655	7.26666666667
223	0.1115	-4.9512195122	-7.56744186047	-9.78103448276	15.7333333333
224	0.112	-4.9512195122	-17.6279069767	-1.28275862069	14.3222222222
225	0.1125	-4.9512195122	11.1162790698	-1.28275862069	10.0888888889
226	0.113	-7.8243902439	-6.13023255814	-2.69913793103	12.9111111111
227	0.1135	16.5975609756	-6.13023255814	0.133620689655	8.67777777778
228	0.114	-12.1341463415	-6.13023255814	-1.28275862069	0.211111111111
229	0.1145	-3.51463414634	-9.00465116279	1.55	1.62222222222
230	0.115	-3.51463414634	-9.00465116279	-1.28275862069	27.0222222222
231	0.1155	-7.8243902439	-9.00465116279	-6.94827586207	12.9111111111
232	0.116	-6.38780487805	-9.00465116279	8.63189655172	10.0888888889
233	0.1165	-4.9512195122	-13.3162790698	-1.28275862069	8.67777777778
234	0.117	-3.51463414634	-6.13023255814	-2.69913793103	7.26666666667
235	0.1175	3.66829268293	-4.69302325581	-2.69913793103	10.0888888889
236	0.118	-3.51463414634	-6.13023255814	-2.69913793103	5.85555555556
237	0.1185	-3.51463414634	-4.69302325581	-12.6137931034	8.67777777778
238	0.119	-3.51463414634	-6.13023255814	15.7137931034	12.9111111111
239	0.1195	-4.9512195122	-9.00465116279	-4.11551724138	10.0888888889
240	0.12	-6.38780487805	-19.0651162791	-4.11551724138	12.9111111111
241	0.1205	-7.8243902439	-10.4418604651	-1.28275862069	12.9111111111
242	0.121	-3.51463414634	-6.13023255814	-1.28275862069	8.67777777778
243	0.1215	-17.8804878049	-7.56744186047	-4.11551724138	8.67777777778
244	0.122	-4.9512195122	-6.13023255814	-4.11551724138	28.4333333333
245	0.1225	-3.51463414634	-6.13023255814	-6.94827586207	12.9111111111
246	0.123	-4.9512195122	-6.13023255814	-8.36465517241	3.03333333333
247	0.1235	-3.51463414634	-6.13023255814	-5.53189655172	12.9111111111
248	0.124	-3.51463414634	9.67906976744	0.133620689655	10.0888888889
249	0.1245	-7.8243902439	-6.13023255814	-1.28275862069	12.9111111111
250	0.125	-17.8804878049	-3.25581395349	-1.28275862069	8.67777777778
251	0.1255	18.0341463415	-10.4418604651	1.55	14.3222222222
252	0.126	-9.26097560976	-7.56744186047	-1.28275862069	12.9111111111
253	0.1265	-6.38780487805	-7.56744186047	-2.69913793103	24.2
254	0.127	-7.8243902439	-7.56744186047	4.38275862069	10.0888888889
255	0.1275	-4.9512195122	-9.00465116279	-1.28275862069	10.0888888889
256	0.128	-3.51463414634	-19.0651162791	-1.28275862069	12.9111111111
257	0.1285	-6.38780487805	9.67906976744	0.133620689655	10.0888888889
258	0.129	-6.38780487805	-14.7534883721	-1.28275862069	10.0888888889
259	0.1295	-2.07804878049	-9.00465116279	-1.28275862069	-1.2
260	0.13	-9.26097560976	-7.56744186047	-4.11551724138	22.7888888889
261	0.1305	-4.9512195122	-7.56744186047	-1.28275862069	5.85555555556
262	0.131	-7.8243902439	-0.381395348837	-15.4465517241	10.0888888889
263	0.1315	-6.38780487805	-3.25581395349	-5.53189655172	10.0888888889
264	0.132	-7.8243902439	-17.6279069767	-2.69913793103	10.0888888889
265	0.1325	-6.38780487805	-14.7534883721	-4.11551724138	7.26666666667
266	0.133	-7.8243902439	-4.69302325581	-4.11551724138	10.0888888889
267	0.1335	-2.07804878049	-6.13023255814	-1.28275862069	7.26666666667
268	0.134	-4.9512195122	-6.13023255814	-2.69913793103	-1.2
269	0.1345	-7.8243902439	-4.69302325581	-12.6137931034	0.211111111111
270	0.135	-7.8243902439	-3.25581395349	8.63189655172	4.44444444444
271	0.1355	-6.38780487805	-1.81860465116	-6.94827586207	4.44444444444
272	0.136	-4.9512195122	-20.5023255814	-1.28275862069	4.44444444444
273	0.1365	-4.9512195122	-14.7534883721	1.55	4.44444444444
274	0.137	-16.443902439	-6.13023255814	-2.69913793103	5.85555555556
275	0.1375	7.97804878049	-7.56744186047	0.133620689655	3.03333333333
276	0.138	-13.5707317073	-6.13023255814	-1.28275862069	0.211111111111
277	0.1385	-7.8243902439	-9.00465116279	4.38275862069	3.03333333333
278	0.139	-4.9512195122	-9.00465116279	7.21551724138	1.62222222222
279	0.1395	-4.9512195122	-6.13023255814	15.7137931034	0.211111111111
280	0.14	-4.9512195122	-19.0651162791	1.55	4.44444444444
281	0.1405	-6.38780487805	-16.1906976744	0.133620689655	5.85555555556
282	0.141	-6.38780487805	-10.4418604651	0.133620689655	4.44444444444
283	0.1415	3.66829268293	-9.00465116279	0.133620689655	5.85555555556
284	0.142	-4.9512195122	-6.13023255814	4.38275862069	-1.2
285	0.1425	-2.07804878049	-9.00465116279	-9.78103448276	3.03333333333
286	0.143	-4.9512195122	-6.13023255814	12.8810344828	4.44444444444
287	0.1435	-3.51463414634	-9.00465116279	-8.36465517241	3.03333333333
288	0.144	-2.07804878049	-3.25581395349	0.133620689655	3.03333333333
289	0.1445	-6.38780487805	-10.4418604651	-1.28275862069	3.03333333333
290	0.145	9.41463414634	-9.00465116279	0.133620689655	4.44444444444
291	0.1455	-9.26097560976	-6.13023255814	-2.69913793103	1.62222222222
292	0.146	-3.51463414634	-6.13023255814	0.133620689655	5.85555555556
293	0.1465	-4.9512195122	-6.13023255814	11.4646551724	5.85555555556
294	0.147	-4.9512195122	-6.13023255814	-9.78103448276	5.85555555556
295	0.1475	-4.9512195122	-7.56744186047	5.79913793103	7.26666666667
296	0.148	-3.51463414634	2.49302325581	-1.28275862069	7.26666666667
297	0.1485	-0.641463414634	-6.13023255814	-1.28275862069	7.26666666667
298	0.149	-13.5707317073	-6.13023255814	-2.69913793103	8.67777777778
299	0.1495	-13.5707317073	-7.56744186047	0.133620689655	-1.2
300	0.15	-6.38780487805	-6.13023255814	-1.28275862069	8.67777777778
301	0.1505	-4.9512195122	-6.13023255814	7.21551724138	7.26666666667
302	0.151	-6.38780487805	-3.25581395349	-4.11551724138	4.44444444444
303	0.1515	-6.38780487805	-13.3162790698	0.133620689655	3.03333333333
304	0.152	-4.9512195122	15.4279069767	-2.69913793103	4.44444444444
305	0.1525	-13.5707317073	-7.56744186047	-1.28275862069	4.44444444444
306	0.153	10.8512195122	-10.4418604651	0.133620689655	1.62222222222
307	0.1535	-10.6975609756	-7.56744186047	-1.28275862069	10.0888888889
308	0.154	-6.38780487805	-9.00465116279	4.38275862069	7.26666666667
309	0.1545	-4.9512195122	-6.13023255814	-12.6137931034	10.0888888889
310	0.155	-3.51463414634	-9.00465116279	15.7137931034	8.67777777778
311	0.1555	-7.8243902439	-11.8790697674	0.133620689655	10.0888888889
312	0.156	-3.51463414634	-11.8790697674	1.55	12.9111111111
313	0.1565	-16.443902439	-6.13023255814	1.55	8.67777777778
314	0.157	10.8512195122	-10.4418604651	0.133620689655	14.3222222222
315	0.1575	-9.26097560976	-6.13023255814	0.133620689655	-2.61111111111
316	0.158	-4.9512195122	-7.56744186047	-1.28275862069	24.2
317	0.1585	-7.8243902439	-6.13023255814	-4.11551724138	0.211111111111
318	0.159	-4.9512195122	-14.7534883721	1.55	7.26666666667
319	0.1595	-0.641463414634	-10.4418604651	-1.28275862069	7.26666666667
320	0.16	-7.8243902439	-6.13023255814	1.55	10.0888888889
321	0.1605	-16.443902439	-4.69302325581	1.55	8.67777777778
322	0.161	-3.51463414634	-7.56744186047	0.133620689655	27.0222222222
323	0.1615	-4.9512195122	-9.00465116279	-2.69913793103	4.44444444444
324	0.162	-2.07804878049	-6.13023255814	2.96637931034	10.0888888889
325	0.1625	-3.51463414634	-7.56744186047	0.133620689655	12.9111111111
326	0.163	-4.9512195122	1.05581395349	-1.28275862069	14.3222222222
327	0.1635	-2.07804878049	-17.6279069767	-2.69913793103	8.67777777778
328	0.164	-7.8243902439	-7.56744186047	-2.69913793103	14.3222222222
329	0.1645	13.7243902439	-6.13023255814	-4.11551724138	10.0888888889
330	0.165	-16.443902439	-7.56744186047	-2.69913793103	28.4333333333
331	0.1655	-4.9512195122	-9.00465116279	-6.94827586207	4.44444444444
332	0.166	-4.9512195122	-6.13023255814	-8.36465517241	12.9111111111
333	0.1665	-3.51463414634	-6.13023255814	-6.94827586207	14.3222222222
334	0.167	-6.38780487805	-3.25581395349	-6.94827586207	14.3222222222
335	0.1675	-4.9512195122	-4.69302325581	-2.69913793103	12.9111111111
336	0.168	-16.443902439	-6.13023255814	-2.69913793103	15.7333333333
337	0.1685	15.1609756098	-7.56744186047	-1.28275862069	18.5555555556
338	0.169	-10.6975609756	-6.13023255814	2.96637931034	5.85555555556
339	0.1695	-4.9512195122	-6.13023255814	-4.11551724138	35.4888888889
340	0.17	-3.51463414634	-6.13023255814	4.38275862069	12.9111111111
341	0.1705	-4.9512195122	-9.00465116279	-6.94827586207	18.5555555556
342	0.171	-4.9512195122	-19.0651162791	-1.28275862069	19.9666666667
343	0.1715	-4.9512195122	15.4279069767	0.133620689655	19.9666666667
344	0.172	-4.9512195122	-7.56744186047	0.133620689655	21.3777777778
345	0.1725	10.8512195122	-7.56744186047	0.133620689655	17.1444444444
346	0.173	-9.26097560976	-9.00465116279	1.55	27.0222222222
347	0.1735	-0.641463414634	-6.13023255814	-4.11551724138	12.9111111111
348	0.174	-3.51463414634	-6.13023255814	5.79913793103	18.5555555556
349	0.1745	-4.9512195122	-9.00465116279	-1.28275862069	18.5555555556
350	0.175	-3.51463414634	-16.1906976744	0.133620689655	17.1444444444
351	0.1755	-2.07804878049	11.1162790698	1.55	19.9666666667
352	0.176	-3.51463414634	-16.1906976744	-1.28275862069	19.9666666667
353	0.1765	2.23170731707	-7.56744186047	4.38275862069	17.1444444444
354	0.177	-6.38780487805	-9.00465116279	-1.28275862069	24.2
355	0.1775	-4.9512195122	-6.13023255814	4.38275862069	12.9111111111
356	0.178	-2.07804878049	-6.13023255814	-9.78103448276	17.1444444444
357	0.1785	-3.51463414634	-9.00465116279	17.1301724138	17.1444444444
358	0.179	-9.26097560976	-4.69302325581	-5.53189655172	22.7888888889
359	0.1795	-3.51463414634	-13.3162790698	4.38275862069	19.9666666667
360	0.18	-7.8243902439	-7.56744186047	1.55	18.5555555556
361	0.1805	-2.07804878049	-6.13023255814	1.55	19.9666666667
362	0.181	-3.51463414634	-6.13023255814	-1.28275862069	18.5555555556
363	0.1815	-3.51463414634	-4.69302325581	-11.1974137931	17.1444444444
364	0.182	-3.51463414634	-4.69302325581	15.7137931034	18.5555555556
365	0.1825	-4.9512195122	-7.56744186047	0.133620689655	17.1444444444
366	0.183	-4.9512195122	-3.25581395349	-8.36465517241	15.7333333333
367	0.1835	-7.8243902439	-14.7534883721	-1.28275862069	18.5555555556
368	0.184	-7.8243902439	-7.56744186047	-2.69913793103	15.7333333333
369	0.1845	10.8512195122	-4.69302325581	-2.69913793103	18.5555555556
370	0.185	-15.0073170732	-6.13023255814	-1.28275862069	17.1444444444
371	0.1855	-6.38780487805	-6.13023255814	-1.28275862069	12.9111111111
372	0.186	-7.8243902439	-4.69302325581	-1.28275862069	15.7333333333
373	0.1865	-4.9512195122	-4.69302325581	-5.53189655172	14.3222222222
374	0.187	-4.9512195122	-16.1906976744	-1.28275862069	15.7333333333
375	0.1875	-9.26097560976	-10.4418604651	-1.28275862069	15.7333333333
376	0.188	-0.641463414634	-6.13023255814	-2.69913793103	12.9111111111
377	0.1885	-16.443902439	-3.25581395349	-1.28275862069	11.5
378	0.189	-3.51463414634	-4.69302325581	-4.11551724138	28.4333333333
379	0.1895	-3.51463414634	-6.13023255814	-2.69913793103	5.85555555556
380	0.19	-7.8243902439	-6.13023255814	-5.53189655172	15.7333333333
381	0.1905	-6.38780487805	-6.13023255814	-6.94827586207	12.9111111111
382	0.191	-6.38780487805	-7.56744186047	-1.28275862069	10.0888888889
383	0.1915	-6.38780487805	6.80465116279	1.55	12.9111111111
384	0.192	-7.8243902439	-13.3162790698	0.133620689655	11.5
385	0.1925	-10.6975609756	-7.56744186047	-1.28275862069	12.9111111111
386	0.193	-9.26097560976	-4.69302325581	0.133620689655	12.9111111111
387	0.1935	-4.9512195122	-7.56744186047	-1.28275862069	21.3777777778
388	0.194	-3.51463414634	-7.56744186047	-5.53189655172	14.3222222222
389	0.1945	-4.9512195122	-6.13023255814	0.133620689655	12.9111111111
390	0.195	-6.38780487805	-16.1906976744	-1.28275862069	8.67777777778
391	0.1955	-2.07804878049	6.80465116279	-1.28275862069	10.0888888889
392	0.196	-7.8243902439	-9.00465116279	-1.28275862069	10.0888888889
393	0.1965	-2.07804878049	-9.00465116279	-1.28275862069	11.5
394	0.197	-16.443902439	-9.00465116279	-2.69913793103	10.0888888889
395	0.1975	-6.38780487805	-7.56744186047	-2.69913793103	12.9111111111
396	0.198	-6.38780487805	-7.56744186047	-2.69913793103	14.3222222222
397	0.1985	-4.9512195122	-6.13023255814	-8.36465517241	15.7333333333
398	0.199	-3.51463414634	-17.6279069767	-5.53189655172	15.7333333333
399	0.1995	-0.641463414634	3.93023255814	-2.69913793103	12.9111111111
400	0.2	-6.38780487805	-7.56744186047	-2.69913793103	14.3222222222
401	0.2005	12.287804878	-6.13023255814	-4.11551724138	14.3222222222
402	0.201	-6.38780487805	-6.13023255814	-1.28275862069	12.9111111111
403	0.2015	-7.8243902439	-6.13023255814	-4.11551724138	22.7888888889
404	0.202	-4.9512195122	-6.13023255814	1.55	8.67777777778
405	0.2025	-4.9512195122	-7.56744186047	-6.94827586207	11.5
406	0.203	-4.9512195122	-3.25581395349	-1.28275862069	15.7333333333
407	0.2035	-3.51463414634	-7.56744186047	-8.36465517241	17.1444444444
408	0.204	-4.9512195122	-4.69302325581	-1.28275862069	17.1444444444
409	0.2045	-2.07804878049	-4.69302325581	-1.28275862069	18.5555555556
410	0.205	-13.5707317073	-4.69302325581	2.96637931034	17.1444444444
411	0.2055	-3.51463414634	-7.56744186047	1.55	17.1444444444
412	0.206	-4.9512195122	-4.69302325581	0.133620689655	4.44444444444
413	0.2065	-3.51463414634	-6.13023255814	-5.53189655172	15.7333333333
414	0.207	-3.51463414634	-11.8790697674	1.55	15.7333333333
415	0.2075	-2.07804878049	-4.69302325581	2.96637931034	12.9111111111
416	0.208	-3.51463414634	-4.69302325581	-1.28275862069	15.7333333333
417	0.2085	0.79512195122	-10.4418604651	-1.28275862069	15.7333333333
418	0.209	-6.38780487805	-4.69302325581	-4.11551724138	17.1444444444
419	0.2095	-6.38780487805	-3.25581395349	-2.69913793103	22.7888888889
420	0.21	-3.51463414634	-9.00465116279	1.55	17.1444444444
421	0.2105	-4.9512195122	-9.00465116279	-15.4465517241	19.9666666667
422	0.211	-2.07804878049	-3.25581395349	-2.69913793103	19.9666666667
423	0.2115	-4.9512195122	-19.0651162791	-2.69913793103	19.9666666667
424	0.212	-7.8243902439	9.67906976744	-1.28275862069	15.7333333333
425	0.2125	-0.641463414634	-6.13023255814	0.133620689655	15.7333333333
426	0.213	12.287804878	-9.00465116279	-1.28275862069	19.9666666667
427	0.2135	-12.1341463415	-7.56744186047	-1.28275862069	15.7333333333
428	0.214	-3.51463414634	-9.00465116279	-9.78103448276	14.3222222222
429	0.2145	-6.38780487805	-6.13023255814	19.9629310345	15.7333333333
430	0.215	-4.9512195122	-9.00465116279	0.133620689655	15.7333333333
431	0.2155	-0.641463414634	-3.25581395349	-6.94827586207	15.7333333333
432	0.216	-3.51463414634	-13.3162790698	2.96637931034	17.1444444444
433	0.2165	-2.07804878049	-6.13023255814	1.55	10.0888888889
434	0.217	16.5975609756	-9.00465116279	1.55	17.1444444444
435	0.2175	-12.1341463415	-6.13023255814	0.133620689655	31.2555555556
436	0.218	-4.9512195122	-9.00465116279	2.96637931034	15.7333333333
437	0.2185	-3.51463414634	-9.00465116279	-2.69913793103	25.6111111111
438	0.219	-4.9512195122	-10.4418604651	8.63189655172	15.7333333333
439	0.2195	-3.51463414634	-19.0651162791	1.55	17.1444444444
440	0.22	-4.9512195122	3.93023255814	0.133620689655	19.9666666667
441	0.2205	-2.07804878049	-7.56744186047	2.96637931034	21.3777777778
442	0.221	-12.1341463415	-11.8790697674	5.79913793103	17.1444444444
443	0.2215	9.41463414634	-10.4418604651	4.38275862069	15.7333333333
444	0.222	-0.641463414634	-9.00465116279	7.21551724138	12.9111111111
445	0.2225	-0.641463414634	-6.13023255814	18.5465517241	17.1444444444
446	0.223	-2.07804878049	-6.13023255814	-11.1974137931	12.9111111111
447	0.2235	-0.641463414634	-10.4418604651	14.2974137931	15.7333333333
448	0.224	0.79512195122	9.67906976744	-1.28275862069	18.5555555556
449	0.2245	-3.51463414634	-7.56744186047	-1.28275862069	17.1444444444
450	0.225	0.79512195122	-6.13023255814	-1.28275862069	15.7333333333
451	0.2255	19.4707317073	-10.4418604651	-2.69913793103	19.9666666667
452	0.226	-0.641463414634	-6.13023255814	-1.28275862069	4.44444444444
453	0.2265	-3.51463414634	-7.56744186047	-11.1974137931	17.1444444444
454	0.227	-0.641463414634	-6.13023255814	12.8810344828	15.7333333333
455	0.2275	-0.641463414634	-4.69302325581	-8.36465517241	14.3222222222
456	0.228	-3.51463414634	-6.13023255814	-5.53189655172	15.7333333333
457	0.2285	-4.9512195122	-3.25581395349	-1.28275862069	12.9111111111
458	0.229	-2.07804878049	-6.13023255814	-2.69913793103	17.1444444444
459	0.2295	-10.6975609756	-6.13023255814	-4.11551724138	15.7333333333
460	0.23	-4.9512195122	-7.56744186047	-1.28275862069	17.1444444444
461	0.2305	-0.641463414634	-6.13023255814	0.133620689655	1.62222222222
462	0.231	-2.07804878049	-1.81860465116	-8.36465517241	8.67777777778
463	0.2315	-4.9512195122	-3.25581395349	-1.28275862069	10.0888888889
464	0.232	-6.38780487805	-10.4418604651	0.133620689655	8.67777777778
465	0.2325	-4.9512195122	-11.8790697674	0.133620689655	12.9111111111
466	0.233	-7.8243902439	-6.13023255814	0.133620689655	11.5
467	0.2335	3.66829268293	-3.25581395349	0.133620689655	8.67777777778
468	0.234	-6.38780487805	-6.13023255814	-1.28275862069	1.62222222222
469	0.2345	-3.51463414634	-6.13023255814	-9.78103448276	14.3222222222
470	0.235	-3.51463414634	-3.25581395349	-2.69913793103	11.5
471	0.2355	-6.38780487805	-6.13023255814	7.21551724138	12.9111111111
472	0.236	-3.51463414634	3.93023255814	1.55	12.9111111111
473	0.2365	-6.38780487805	-6.13023255814	-2.69913793103	8.67777777778
474	0.237	2.23170731707	-6.13023255814	-2.69913793103	8.67777777778
475	0.2375	-7.8243902439	-6.13023255814	-1.28275862069	7.26666666667
476	0.238	-7.8243902439	-6.13023255814	-1.28275862069	12.9111111111
477	0.2385	-6.38780487805	-6.13023255814	-1.28275862069	4.44444444444
478	0.239	-3.51463414634	-7.56744186047	-12.6137931034	8.67777777778
479	0.2395	-6.38780487805	-6.13023255814	10.0482758621	5.85555555556
480	0.24	-3.51463414634	-3.25581395349	-2.69913793103	7.26666666667
481	0.2405	-0.641463414634	-6.13023255814	-2.69913793103	8.67777777778
482	0.241	-10.6975609756	-7.56744186047	0.133620689655	8.67777777778
483	0.2415	-0.641463414634	-6.13023255814	2.96637931034	3.03333333333
484	0.242	-4.9512195122	-6.13023255814	1.55	12.9111111111
485	0.2425	0.79512195122	-9.00465116279	2.96637931034	14.3222222222
486	0.243	-2.07804878049	-4.69302325581	-12.6137931034	8.67777777778
487	0.2435	-4.9512195122	-3.25581395349	-2.69913793103	12.9111111111
488	0.244	-3.51463414634	-19.0651162791	-2.69913793103	15.7333333333
489	0.2445	-0.641463414634	-4.69302325581	-2.69913793103	15.7333333333
490	0.245	-13.5707317073	-3.25581395349	-1.28275862069	18.5555555556
491	0.2455	-12.1341463415	-4.69302325581	-4.11551724138	1.62222222222
492	0.246	-4.9512195122	-4.69302325581	-5.53189655172	31.2555555556
493	0.2465	-3.51463414634	-6.13023255814	-4.11551724138	17.1444444444
494	0.247	-4.9512195122	-4.69302325581	-14.0301724138	15.7333333333
495	0.2475	-3.51463414634	-9.00465116279	14.2974137931	11.5
496	0.248	-0.641463414634	-19.0651162791	0.133620689655	15.7333333333
497	0.2485	-6.38780487805	11.1162790698	-1.28275862069	15.7333333333
498	0.249	-0.641463414634	-6.13023255814	-1.28275862069	15.7333333333
499	0.2495	-13.5707317073	-7.56744186047	-1.28275862069	15.7333333333
500	0.25	-4.9512195122	-6.13023255814	-2.69913793103	31.2555555556
501	0.2505	-3.51463414634	-4.69302325581	0.133620689655	17.1444444444
502	0.251	-3.51463414634	-7.56744186047	18.5465517241	14.3222222222
503	0.2515	-4.9512195122	-4.69302325581	-6.94827586207	14.3222222222
504	0.252	-4.9512195122	9.67906976744	0.133620689655	11.5
505	0.2525	-3.51463414634	-17.6279069767	0.133620689655	10.0888888889
506	0.253	-13.5707317073	-6.13023255814	0.133620689655	8.67777777778
507	0.2535	15.1609756098	-6.13023255814	1.55	10.0888888889
508	0.254	-12.1341463415	-4.69302325581	2.96637931034	8.67777777778
509	0.2545	-4.9512195122	-7.56744186047	1.55	12.9111111111
510	0.255	-4.9512195122	-7.56744186047	4.38275862069	7.26666666667
511	0.2555	-0.641463414634	-3.25581395349	-1.28275862069	10.0888888889
512	0.256	-2.07804878049	-19.0651162791	-1.28275862069	8.67777777778
513	0.2565	-4.9512195122	-10.4418604651	1.55	10.0888888889
514	0.257	3.66829268293	-6.13023255814	2.96637931034	14.3222222222
515	0.2575	-10.6975609756	-6.13023255814	4.38275862069	14.3222222222
516	0.258	-0.641463414634	-4.69302325581	2.96637931034	12.9111111111
517	0.2585	-3.51463414634	-6.13023255814	2.96637931034	15.7333333333
518	0.259	-3.51463414634	-7.56744186047	8.63189655172	15.7333333333
519	0.2595	-2.07804878049	-9.00465116279	7.21551724138	14.3222222222
520	0.26	-4.9512195122	-16.1906976744	2.96637931034	15.7333333333
521	0.2605	0.79512195122	-14.7534883721	4.38275862069	14.3222222222
522	0.261	-16.443902439	-6.13023255814	4.38275862069	14.3222222222
523	0.2615	18.0341463415	-6.13023255814	2.96637931034	15.7333333333
524	0.262	-12.1341463415	-7.56744186047	4.38275862069	1.62222222222
525	0.2625	0.79512195122	-7.56744186047	4.38275862069	22.7888888889
526	0.263	-0.641463414634	-6.13023255814	14.2974137931	10.0888888889
527	0.2635	-4.9512195122	-7.56744186047	-1.28275862069	8.67777777778
528	0.264	-0.641463414634	-10.4418604651	1.55	7.26666666667
529	0.2645	-3.51463414634	-13.3162790698	1.55	10.0888888889
530	0.265	-10.6975609756	-9.00465116279	1.55	10.0888888889
531	0.2655	3.66829268293	-7.56744186047	2.96637931034	3.03333333333
532	0.266	-4.9512195122	-7.56744186047	1.55	11.5
533	0.2665	-3.51463414634	-6.13023255814	2.96637931034	10.0888888889
534	0.267	-0.641463414634	-4.69302325581	-9.78103448276	4.44444444444
535	0.2675	-3.51463414634	-1.81860465116	0.133620689655	4.44444444444
536	0.268	-3.51463414634	-16.1906976744	0.133620689655	5.85555555556
537	0.2685	-3.51463414634	-13.3162790698	0.133620689655	8.67777777778
538	0.269	2.23170731707	-6.13023255814	1.55	7.26666666667
539	0.2695	-13.5707317073	-10.4418604651	2.96637931034	1.62222222222
540	0.27	-3.51463414634	-6.13023255814	1.55	4.44444444444
541	0.2705	-2.07804878049	-6.13023255814	0.133620689655	-5.43333333333
542	0.271	-3.51463414634	-7.56744186047	-1.28275862069	0.211111111111
543	0.2715	-3.51463414634	-7.56744186047	8.63189655172	3.03333333333
544	0.272	-2.07804878049	-14.7534883721	-2.69913793103	-1.2
545	0.2725	0.79512195122	-9.00465116279	1.55	-1.2
546	0.273	-15.0073170732	-6.13023255814	2.96637931034	0.211111111111
547	0.2735	12.287804878	-6.13023255814	2.96637931034	0.211111111111
548	0.274	-7.8243902439	-6.13023255814	4.38275862069	10.0888888889
549	0.2745	-4.9512195122	-9.00465116279	-1.28275862069	-9.66666666667
550	0.275	-3.51463414634	-6.13023255814	18.5465517241	0.211111111111
551	0.2755	-7.8243902439	-9.00465116279	2.96637931034	1.62222222222
552	0.276	-4.9512195122	-16.1906976744	2.96637931034	-2.61111111111
553	0.2765	-7.8243902439	-16.1906976744	1.55	-4.02222222222
554	0.277	-3.51463414634	-6.13023255814	2.96637931034	-2.61111111111
555	0.2775	-12.1341463415	-9.00465116279	1.55	0.211111111111
556	0.278	-2.07804878049	-6.13023255814	1.55	-4.02222222222
557	0.2785	-4.9512195122	-6.13023255814	4.38275862069	-4.02222222222
558	0.279	-3.51463414634	-4.69302325581	1.55	5.85555555556
559	0.2795	-2.07804878049	-1.81860465116	2.96637931034	-1.2
560	0.28	-3.51463414634	8.24186046512	2.96637931034	-2.61111111111
561	0.2805	-4.9512195122	-13.3162790698	2.96637931034	0.211111111111
562	0.281	2.23170731707	-6.13023255814	4.38275862069	0.211111111111
563	0.2815	-12.1341463415	-3.25581395349	1.55	-6.84444444444
564	0.282	-3.51463414634	-6.13023255814	0.133620689655	-2.61111111111
565	0.2825	-3.51463414634	-4.69302325581	-4.11551724138	3.03333333333
566	0.283	-0.641463414634	-7.56744186047	21.3793103448	5.85555555556
567	0.2835	-4.9512195122	-6.13023255814	-2.69913793103	4.44444444444
568	0.284	-4.9512195122	-4.69302325581	4.38275862069	8.67777777778
569	0.2845	-4.9512195122	-14.7534883721	4.38275862069	10.0888888889
570	0.285	-4.9512195122	-4.69302325581	7.21551724138	14.3222222222
571	0.2855	13.7243902439	-7.56744186047	2.96637931034	12.9111111111
572	0.286	-12.1341463415	-6.13023255814	4.38275862069	10.0888888889
573	0.2865	-3.51463414634	-6.13023255814	1.55	5.85555555556
574	0.287	-0.641463414634	-6.13023255814	22.7956896552	10.0888888889
575	0.2875	-0.641463414634	-10.4418604651	-1.28275862069	11.5
576	0.288	-3.51463414634	-3.25581395349	0.133620689655	10.0888888889
577	0.2885	-4.9512195122	-10.4418604651	1.55	14.3222222222
578	0.289	-0.641463414634	-7.56744186047	1.55	18.5555555556
579	0.2895	-16.443902439	-6.13023255814	1.55	19.9666666667
580	0.29	-9.26097560976	-7.56744186047	2.96637931034	4.44444444444
581	0.2905	-3.51463414634	-6.13023255814	-1.28275862069	24.2
582	0.291	-4.9512195122	-6.13023255814	2.96637931034	12.9111111111
583	0.2915	-3.51463414634	-9.00465116279	-2.69913793103	14.3222222222
584	0.292	-3.51463414634	-17.6279069767	0.133620689655	14.3222222222
585	0.2925	-2.07804878049	-13.3162790698	0.133620689655	15.7333333333
586	0.293	-6.38780487805	-6.13023255814	0.133620689655	18.5555555556
587	0.2935	16.5975609756	-6.13023255814	0.133620689655	17.1444444444
588	0.294	-13.5707317073	-6.13023255814	2.96637931034	12.9111111111
589	0.2945	-4.9512195122	-4.69302325581	2.96637931034	7.26666666667
590	0.295	-3.51463414634	-3.25581395349	7.21551724138	5.85555555556
591	0.2955	-4.9512195122	-1.81860465116	-1.28275862069	5.85555555556
592	0.296	-3.51463414634	-16.1906976744	2.96637931034	5.85555555556
593	0.2965	-3.51463414634	5.36744186047	1.55	3.03333333333
594	0.297	2.23170731707	-6.13023255814	4.38275862069	0.211111111111
595	0.2975	-13.5707317073	-6.13023255814	2.96637931034	3.03333333333
596	0.298	-7.8243902439	-4.69302325581	2.96637931034	-9.66666666667
597	0.2985	-3.51463414634	-6.13023255814	1.55	0.211111111111
598	0.299	-6.38780487805	-3.25581395349	24.2120689655	-1.2
599	0.2995	-4.9512195122	-7.56744186047	-6.94827586207	-2.61111111111
600	0.3	-2.07804878049	-4.69302325581	21.3793103448	-2.61111111111
601	0.3005	-2.07804878049	-13.3162790698	2.96637931034	-4.02222222222
602	0.301	-3.51463414634	-4.69302325581	2.96637931034	-1.2
603	0.3015	-10.6975609756	-6.13023255814	4.38275862069	-2.61111111111
604	0.302	-4.9512195122	-6.13023255814	4.38275862069	-11.0777777778
605	0.3025	-3.51463414634	-6.13023255814	-9.78103448276	-2.61111111111
606	0.303	-3.51463414634	-3.25581395349	19.9629310345	-2.61111111111
607	0.3035	-4.9512195122	-7.56744186047	-8.36465517241	-2.61111111111
608	0.304	-3.51463414634	-4.69302325581	2.96637931034	-2.61111111111
609	0.3045	-2.07804878049	5.36744186047	-1.28275862069	-4.02222222222
610	0.305	-0.641463414634	-11.8790697674	1.55	-1.2
611	0.3055	-9.26097560976	-6.13023255814	1.55	-1.2
612	0.306	-4.9512195122	-6.13023255814	2.96637931034	18.5555555556
613	0.3065	-0.641463414634	-7.56744186047	5.79913793103	-11.0777777778
614	0.307	-0.641463414634	-6.13023255814	-2.69913793103	0.211111111111
615	0.3075	-3.51463414634	-4.69302325581	15.7137931034	0.211111111111
616	0.308	-2.07804878049	-9.00465116279	-4.11551724138	0.211111111111
617	0.3085	-2.07804878049	1.05581395349	4.38275862069	0.211111111111
618	0.309	-10.6975609756	-6.13023255814	7.21551724138	0.211111111111
619	0.3095	10.8512195122	-7.56744186047	4.38275862069	1.62222222222
620	0.31	-9.26097560976	-6.13023255814	4.38275862069	-1.2
621	0.3105	-4.9512195122	-4.69302325581	-6.94827586207	0.211111111111
622	0.311	-3.51463414634	-3.25581395349	22.7956896552	0.211111111111
623	0.3115	-4.9512195122	-6.13023255814	2.96637931034	-1.2
624	0.312	-4.9512195122	-7.56744186047	-1.28275862069	-1.2
625	0.3125	-4.9512195122	-9.00465116279	2.96637931034	1.62222222222
626	0.313	-13.5707317073	-9.00465116279	2.96637931034	0.211111111111
627	0.3135	2.23170731707	-4.69302325581	0.133620689655	-2.61111111111
628	0.314	-12.1341463415	-6.13023255814	2.96637931034	4.44444444444
629	0.3145	-7.8243902439	-4.69302325581	5.79913793103	-6.84444444444
630	0.315	-4.9512195122	-3.25581395349	-1.28275862069	-6.84444444444
631	0.3155	-4.9512195122	-1.81860465116	5.79913793103	-9.66666666667
632	0.316	-6.38780487805	-11.8790697674	7.21551724138	-12.4888888889
633	0.3165	-6.38780487805	8.24186046512	4.38275862069	-11.0777777778
634	0.317	-6.38780487805	-6.13023255814	5.79913793103	-11.0777777778
635	0.3175	3.66829268293	-9.00465116279	4.38275862069	-15.3111111111
636	0.318	-6.38780487805	-9.00465116279	4.38275862069	-6.84444444444
637	0.3185	-2.07804878049	-6.13023255814	7.21551724138	-18.1333333333
638	0.319	-0.641463414634	-6.13023255814	-2.69913793103	-9.66666666667
639	0.3195	-0.641463414634	-6.13023255814	4.38275862069	-11.0777777778
640	0.32	-4.9512195122	-7.56744186047	7.21551724138	-9.66666666667
641	0.3205	-4.9512195122	2.49302325581	7.21551724138	-8.25555555556
642	0.321	-9.26097560976	-6.13023255814	5.79913793103	-4.02222222222
643	0.3215	-3.51463414634	-3.25581395349	2.96637931034	-6.84444444444
644	0.322	0.79512195122	-6.13023255814	1.55	0.211111111111
645	0.3225	-4.9512195122	-4.69302325581	1.55	-6.84444444444
646	0.323	-4.9512195122	-4.69302325581	7.21551724138	-5.43333333333
647	0.3235	-7.8243902439	-9.00465116279	-4.11551724138	-6.84444444444
648	0.324	-3.51463414634	-14.7534883721	0.133620689655	-5.43333333333
649	0.3245	-4.9512195122	-1.81860465116	-1.28275862069	-4.02222222222
650	0.325	-0.641463414634	-10.4418604651	0.133620689655	-6.84444444444
651	0.3255	9.41463414634	-7.56744186047	4.38275862069	-2.61111111111
652	0.326	-7.8243902439	-9.00465116279	4.38275862069	1.62222222222
653	0.3265	-3.51463414634	-6.13023255814	4.38275862069	-13.9
654	0.327	-6.38780487805	-1.81860465116	15.7137931034	-9.66666666667
655	0.3275	-2.07804878049	-6.13023255814	2.96637931034	1.62222222222
656	0.328	-4.9512195122	1.05581395349	7.21551724138	-6.84444444444
657	0.3285	-4.9512195122	1.05581395349	7.21551724138	-6.84444444444
658	0.329	-0.641463414634	-13.3162790698	11.4646551724	-11.0777777778
659	0.3295	-2.07804878049	-4.69302325581	11.4646551724	-16.7222222222
660	0.33	-9.26097560976	-9.00465116279	8.63189655172	-5.43333333333
661	0.3305	-6.38780487805	-9.00465116279	-1.28275862069	-15.3111111111
662	0.331	-4.9512195122	-7.56744186047	15.7137931034	-9.66666666667
663	0.3315	-4.9512195122	-11.8790697674	15.7137931034	-11.0777777778
664	0.332	-3.51463414634	3.93023255814	14.2974137931	-9.66666666667
665	0.3325	-2.07804878049	-6.13023255814	15.7137931034	-11.0777777778
666	0.333	0.79512195122	-10.4418604651	12.8810344828	-9.66666666667
667	0.3335	-15.0073170732	-7.56744186047	8.63189655172	-6.84444444444
668	0.334	-3.51463414634	-6.13023255814	5.79913793103	5.85555555556
669	0.3345	-2.07804878049	-7.56744186047	12.8810344828	-16.7222222222
670	0.335	0.79512195122	-6.13023255814	-1.28275862069	-6.84444444444
671	0.3355	-4.9512195122	-6.13023255814	22.7956896552	-4.02222222222
672	0.336	-4.9512195122	-10.4418604651	-1.28275862069	-2.61111111111
673	0.3365	-4.9512195122	1.05581395349	5.79913793103	0.211111111111
674	0.337	-16.443902439	-6.13023255814	5.79913793103	-1.2
675	0.3375	3.66829268293	-7.56744186047	2.96637931034	-2.61111111111
676	0.338	-3.51463414634	-4.69302325581	2.96637931034	-11.0777777778
677	0.3385	-6.38780487805	-6.13023255814	-5.53189655172	-6.84444444444
678	0.339	-4.9512195122	-6.13023255814	18.5465517241	-5.43333333333
679	0.3395	-4.9512195122	-11.8790697674	0.133620689655	-5.43333333333
680	0.34	-4.9512195122	-19.0651162791	4.38275862069	-4.02222222222
681	0.3405	-3.51463414634	9.67906976744	8.63189655172	-8.25555555556
682	0.341	-4.9512195122	-7.56744186047	7.21551724138	-8.25555555556
683	0.3415	18.0341463415	-7.56744186047	7.21551724138	-4.02222222222
684	0.342	-12.1341463415	-7.56744186047	7.21551724138	-13.9
685	0.3425	-3.51463414634	-7.56744186047	7.21551724138	3.03333333333
686	0.343	-2.07804878049	-6.13023255814	0.133620689655	-12.4888888889
687	0.3435	-6.38780487805	-10.4418604651	7.21551724138	-6.84444444444
688	0.344	-4.9512195122	-16.1906976744	4.38275862069	-5.43333333333
689	0.3445	-6.38780487805	-13.3162790698	2.96637931034	-5.43333333333
690	0.345	-2.07804878049	-7.56744186047	5.79913793103	-4.02222222222
691	0.3455	-19.3170731707	-6.13023255814	2.96637931034	-4.02222222222
692	0.346	-4.9512195122	-4.69302325581	2.96637931034	3.03333333333
693	0.3465	-3.51463414634	-9.00465116279	8.63189655172	-2.61111111111
694	0.347	-3.51463414634	-7.56744186047	-8.36465517241	-2.61111111111
695	0.3475	-4.9512195122	-13.3162790698	18.5465517241	-1.2
696	0.348	-4.9512195122	-21.9395348837	1.55	3.03333333333
697	0.3485	-3.51463414634	5.36744186047	4.38275862069	0.211111111111
698	0.349	-6.38780487805	-10.4418604651	1.55	1.62222222222
699	0.3495	15.1609756098	-6.13023255814	-1.28275862069	0.211111111111
700	0.35	-9.26097560976	-7.56744186047	1.55	-9.66666666667
701	0.3505	-6.38780487805	-6.13023255814	-1.28275862069	-1.2
702	0.351	-3.51463414634	-9.00465116279	-9.78103448276	0.211111111111
703	0.3515	-3.51463414634	-7.56744186047	5.79913793103	0.211111111111
704	0.352	-3.51463414634	-1.81860465116	1.55	8.67777777778
705	0.3525	-6.38780487805	9.67906976744	2.96637931034	4.44444444444
706	0.353	-0.641463414634	-16.1906976744	4.38275862069	4.44444444444
707	0.3535	-2.07804878049	-7.56744186047	4.38275862069	4.44444444444
708	0.354	-13.5707317073	-6.13023255814	4.38275862069	-2.61111111111
709	0.3545	-2.07804878049	-7.56744186047	2.96637931034	17.1444444444
710	0.355	-2.07804878049	-6.13023255814	1.55	0.211111111111
711	0.3555	-4.9512195122	-7.56744186047	14.2974137931	0.211111111111
712	0.356	-4.9512195122	-7.56744186047	-4.11551724138	1.62222222222
713	0.3565	-6.38780487805	-13.3162790698	1.55	1.62222222222
714	0.357	-3.51463414634	5.36744186047	5.79913793103	4.44444444444
715	0.3575	-7.8243902439	-10.4418604651	4.38275862069	3.03333333333
716	0.358	2.23170731707	-6.13023255814	5.79913793103	3.03333333333
717	0.3585	-10.6975609756	-7.56744186047	4.38275862069	3.03333333333
718	0.359	-4.9512195122	-9.00465116279	5.79913793103	0.211111111111
719	0.3595	-3.51463414634	-6.13023255814	0.133620689655	0.211111111111
720	0.36	-6.38780487805	-4.69302325581	4.38275862069	-2.61111111111
721	0.3605	-4.9512195122	-19.0651162791	5.79913793103	-2.61111111111
722	0.361	-4.9512195122	-6.13023255814	4.38275862069	-2.61111111111
723	0.3615	-2.07804878049	-7.56744186047	4.38275862069	-2.61111111111
724	0.362	-10.6975609756	-10.4418604651	4.38275862069	-5.43333333333
725	0.3625	-2.07804878049	-9.00465116279	5.79913793103	-2.61111111111
726	0.363	-4.9512195122	-9.00465116279	4.38275862069	-8.25555555556
727	0.3635	-2.07804878049	-6.13023255814	8.63189655172	-6.84444444444
728	0.364	-4.9512195122	-4.69302325581	12.8810344828	-5.43333333333
729	0.3645	-4.9512195122	-14.7534883721	0.133620689655	-5.43333333333
730	0.365	-3.51463414634	-9.00465116279	5.79913793103	-4.02222222222
731	0.3655	-16.443902439	-7.56744186047	7.21551724138	-2.61111111111
732	0.366	12.287804878	-9.00465116279	8.63189655172	-2.61111111111
733	0.3665	-13.5707317073	-6.13023255814	8.63189655172	-16.7222222222
734	0.367	-4.9512195122	-9.00465116279	1.55	5.85555555556
735	0.3675	-4.9512195122	-6.13023255814	21.3793103448	-2.61111111111
736	0.368	-6.38780487805	-11.8790697674	-4.11551724138	-1.2
737	0.3685	-6.38780487805	-4.69302325581	4.38275862069	-1.2
738	0.369	-4.9512195122	-19.0651162791	0.133620689655	-2.61111111111
739	0.3695	-4.9512195122	-9.00465116279	1.55	-1.2
740	0.37	-12.1341463415	-9.00465116279	1.55	-1.2
741	0.3705	-13.5707317073	-9.00465116279	4.38275862069	-5.43333333333
742	0.371	-2.07804878049	-9.00465116279	1.55	17.1444444444
743	0.3715	-3.51463414634	-4.69302325581	1.55	-6.84444444444
744	0.372	-4.9512195122	-6.13023255814	-4.11551724138	-2.61111111111
745	0.3725	-3.51463414634	-6.13023255814	15.7137931034	0.211111111111
746	0.373	-3.51463414634	1.05581395349	1.55	-1.2
747	0.3735	-3.51463414634	-6.13023255814	0.133620689655	0.211111111111
748	0.374	-4.9512195122	-6.13023255814	2.96637931034	-5.43333333333
749	0.3745	12.287804878	-4.69302325581	1.55	-1.2
750	0.375	-0.641463414634	-6.13023255814	5.79913793103	-11.0777777778
751	0.3755	-3.51463414634	-6.13023255814	1.55	10.0888888889
752	0.376	-4.9512195122	-4.69302325581	21.3793103448	-5.43333333333
753	0.3765	-3.51463414634	-7.56744186047	-4.11551724138	-2.61111111111
754	0.377	-3.51463414634	8.24186046512	2.96637931034	-5.43333333333
755	0.3775	-2.07804878049	-17.6279069767	4.38275862069	-4.02222222222
756	0.378	-2.07804878049	-9.00465116279	2.96637931034	0.211111111111
757	0.3785	-12.1341463415	-6.13023255814	4.38275862069	-2.61111111111
758	0.379	-3.51463414634	-10.4418604651	4.38275862069	4.44444444444
759	0.3795	-3.51463414634	-7.56744186047	4.38275862069	-6.84444444444
760	0.38	-4.9512195122	-4.69302325581	-6.94827586207	1.62222222222
761	0.3805	-3.51463414634	-3.25581395349	5.79913793103	1.62222222222
762	0.381	-3.51463414634	-16.1906976744	4.38275862069	3.03333333333
763	0.3815	-3.51463414634	8.24186046512	4.38275862069	3.03333333333
764	0.382	-19.3170731707	-9.00465116279	1.55	3.03333333333
765	0.3825	7.97804878049	-7.56744186047	1.55	5.85555555556
766	0.383	-3.51463414634	-6.13023255814	1.55	0.211111111111
767	0.3835	-4.9512195122	-9.00465116279	1.55	12.9111111111
768	0.384	-6.38780487805	-6.13023255814	0.133620689655	-6.84444444444
769	0.3845	-7.8243902439	-7.56744186047	-1.28275862069	0.211111111111
770	0.385	-4.9512195122	-11.8790697674	7.21551724138	3.03333333333
771	0.3855	-4.9512195122	-9.00465116279	5.79913793103	-2.61111111111
772	0.386	-2.07804878049	-9.00465116279	4.38275862069	-1.2
773	0.3865	-16.443902439	-7.56744186047	2.96637931034	-5.43333333333
774	0.387	-3.51463414634	-9.00465116279	2.96637931034	0.211111111111
775	0.3875	-2.07804878049	-7.56744186047	1.55	-8.25555555556
776	0.388	-3.51463414634	-6.13023255814	-1.28275862069	0.211111111111
777	0.3885	-4.9512195122	-6.13023255814	4.38275862069	4.44444444444
778	0.389	-4.9512195122	-19.0651162791	-1.28275862069	5.85555555556
779	0.3895	-2.07804878049	-13.3162790698	0.133620689655	7.26666666667
780	0.39	-17.8804878049	-10.4418604651	-1.28275862069	4.44444444444
781	0.3905	13.7243902439	-10.4418604651	0.133620689655	7.26666666667
782	0.391	-13.5707317073	-7.56744186047	1.55	5.85555555556
783	0.3915	-4.9512195122	-6.13023255814	-4.11551724138	4.44444444444
784	0.392	-3.51463414634	-7.56744186047	17.1301724138	5.85555555556
785	0.3925	-2.07804878049	-6.13023255814	-1.28275862069	7.26666666667
786	0.393	-6.38780487805	-11.8790697674	4.38275862069	8.67777777778
787	0.3935	-7.8243902439	-6.13023255814	0.133620689655	5.85555555556
788	0.394	-3.51463414634	-10.4418604651	2.96637931034	8.67777777778
789	0.3945	-19.3170731707	-7.56744186047	1.55	4.44444444444
790	0.395	-6.38780487805	-9.00465116279	2.96637931034	8.67777777778
791	0.3955	-3.51463414634	-7.56744186047	4.38275862069	-2.61111111111
792	0.396	-3.51463414634	-7.56744186047	-6.94827586207	8.67777777778
793	0.3965	-2.07804878049	-10.4418604651	19.9629310345	10.0888888889
794	0.397	-3.51463414634	-6.13023255814	-11.1974137931	8.67777777778
795	0.3975	-4.9512195122	3.93023255814	-1.28275862069	3.03333333333
796	0.398	-13.5707317073	-9.00465116279	-1.28275862069	4.44444444444
797	0.3985	2.23170731707	-7.56744186047	1.55	5.85555555556
798	0.399	-12.1341463415	-9.00465116279	1.55	4.44444444444
799	0.3995	-4.9512195122	-9.00465116279	-8.36465517241	1.62222222222
800	0.4	-4.9512195122	-9.00465116279	14.2974137931	4.44444444444
801	0.4005	-4.9512195122	-10.4418604651	2.96637931034	3.03333333333
802	0.401	-6.38780487805	-10.4418604651	-5.53189655172	3.03333333333
803	0.4015	-0.641463414634	-10.4418604651	0.133620689655	4.44444444444
804	0.402	-13.5707317073	-9.00465116279	0.133620689655	7.26666666667
805	0.4025	12.287804878	-4.69302325581	0.133620689655	12.9111111111
806	0.403	-15.0073170732	-9.00465116279	1.55	27.0222222222
807	0.4035	-4.9512195122	-7.56744186047	-6.94827586207	12.9111111111
808	0.404	-6.38780487805	-7.56744186047	-4.11551724138	12.9111111111
809	0.4045	-4.9512195122	-6.13023255814	5.79913793103	12.9111111111
810	0.405	-3.51463414634	-19.0651162791	-2.69913793103	12.9111111111
811	0.4055	0.79512195122	-10.4418604651	1.55	15.7333333333
812	0.406	-17.8804878049	-6.13023255814	-2.69913793103	17.1444444444
813	0.4065	-13.5707317073	-9.00465116279	-1.28275862069	1.62222222222
814	0.407	-7.8243902439	-9.00465116279	-1.28275862069	12.9111111111
815	0.4075	-4.9512195122	-7.56744186047	0.133620689655	3.03333333333
816	0.408	-6.38780487805	-7.56744186047	-8.36465517241	12.9111111111
817	0.4085	-3.51463414634	-13.3162790698	-1.28275862069	14.3222222222
818	0.409	-0.641463414634	-0.381395348837	0.133620689655	8.67777777778
819	0.4095	0.79512195122	-10.4418604651	0.133620689655	4.44444444444
820	0.41	-16.443902439	-7.56744186047	0.133620689655	3.03333333333
821	0.4105	12.287804878	-10.4418604651	1.55	4.44444444444
822	0.411	-3.51463414634	-7.56744186047	1.55	-12.4888888889
823	0.4115	-3.51463414634	-9.00465116279	0.133620689655	18.5555555556
824	0.412	-3.51463414634	-9.00465116279	15.7137931034	1.62222222222
825	0.4125	-3.51463414634	-9.00465116279	-6.94827586207	3.03333333333
826	0.413	-4.9512195122	1.05581395349	1.55	3.03333333333
827	0.4135	-3.51463414634	-14.7534883721	4.38275862069	3.03333333333
828	0.414	5.10487804878	-7.56744186047	2.96637931034	3.03333333333
829	0.4145	-0.641463414634	-7.56744186047	4.38275862069	0.211111111111
830	0.415	-6.38780487805	-6.13023255814	2.96637931034	3.03333333333
831	0.4155	-4.9512195122	-7.56744186047	17.1301724138	0.211111111111
832	0.416	-4.9512195122	-7.56744186047	-6.94827586207	0.211111111111
833	0.4165	-2.07804878049	-4.69302325581	4.38275862069	-1.2
834	0.417	-4.9512195122	-10.4418604651	4.38275862069	-5.43333333333
835	0.4175	-3.51463414634	-11.8790697674	5.79913793103	-4.02222222222
836	0.418	-9.26097560976	-9.00465116279	2.96637931034	-5.43333333333
837	0.4185	-0.641463414634	-4.69302325581	2.96637931034	-2.61111111111
838	0.419	-3.51463414634	-10.4418604651	5.79913793103	-2.61111111111
839	0.4195	-4.9512195122	-7.56744186047	-6.94827586207	-2.61111111111
840	0.42	-6.38780487805	-6.13023255814	21.3793103448	-2.61111111111
841	0.4205	-6.38780487805	-6.13023255814	-4.11551724138	0.211111111111
842	0.421	-3.51463414634	6.80465116279	2.96637931034	0.211111111111
843	0.4215	-2.07804878049	-14.7534883721	4.38275862069	3.03333333333
844	0.422	-12.1341463415	-7.56744186047	4.38275862069	5.85555555556
845	0.4225	-2.07804878049	-7.56744186047	5.79913793103	5.85555555556
846	0.423	-3.51463414634	-7.56744186047	4.38275862069	0.211111111111
847	0.4235	-2.07804878049	-6.13023255814	-8.36465517241	3.03333333333
848	0.424	0.79512195122	-9.00465116279	19.9629310345	0.211111111111
849	0.4245	-2.07804878049	-10.4418604651	-1.28275862069	0.211111111111
850	0.425	-3.51463414634	-6.13023255814	-2.69913793103	1.62222222222
851	0.4255	-4.9512195122	-9.00465116279	-1.28275862069	0.211111111111
852	0.426	2.23170731707	-6.13023255814	-2.69913793103	4.44444444444
853	0.4265	-10.6975609756	-6.13023255814	1.55	-5.43333333333
854	0.427	-4.9512195122	-4.69302325581	0.133620689655	10.0888888889
855	0.4275	-3.51463414634	-6.13023255814	-8.36465517241	3.03333333333
856	0.428	-4.9512195122	-4.69302325581	1.55	7.26666666667
857	0.4285	-4.9512195122	-3.25581395349	-6.94827586207	0.211111111111
858	0.429	-3.51463414634	-14.7534883721	-1.28275862069	-1.2
859	0.4295	-4.9512195122	-7.56744186047	-1.28275862069	3.03333333333
860	0.43	-6.38780487805	-4.69302325581	-2.69913793103	-1.2
861	0.4305	-10.6975609756	-6.13023255814	-2.69913793103	5.85555555556
862	0.431	-3.51463414634	-7.56744186047	1.55	3.03333333333
863	0.4315	-4.9512195122	-7.56744186047	-12.6137931034	0.211111111111
864	0.432	-4.9512195122	-3.25581395349	-2.69913793103	1.62222222222
865	0.4325	-2.07804878049	-10.4418604651	-9.78103448276	3.03333333333
866	0.433	-0.641463414634	9.67906976744	-1.28275862069	3.03333333333
867	0.4335	-0.641463414634	-14.7534883721	-1.28275862069	4.44444444444
868	0.434	-12.1341463415	-6.13023255814	-5.53189655172	1.62222222222
869	0.4345	-12.1341463415	-6.13023255814	-1.28275862069	-2.61111111111
870	0.435	-3.51463414634	-6.13023255814	-2.69913793103	17.1444444444
871	0.4355	-3.51463414634	-9.00465116279	-4.11551724138	-5.43333333333
872	0.436	-3.51463414634	-9.00465116279	-8.36465517241	3.03333333333
873	0.4365	-0.641463414634	-11.8790697674	0.133620689655	0.211111111111
874	0.437	-2.07804878049	-1.81860465116	0.133620689655	0.211111111111
875	0.4375	0.79512195122	-9.00465116279	0.133620689655	0.211111111111
876	0.438	9.41463414634	-7.56744186047	-4.11551724138	0.211111111111
877	0.4385	-4.9512195122	-9.00465116279	-4.11551724138	-11.0777777778
878	0.439	-0.641463414634	-7.56744186047	-5.53189655172	4.44444444444
879	0.4395	-3.51463414634	-6.13023255814	15.7137931034	-6.84444444444
880	0.44	-3.51463414634	-10.4418604651	-9.78103448276	-4.02222222222
881	0.4405	-0.641463414634	8.24186046512	-4.11551724138	-6.84444444444
882	0.441	-4.9512195122	-17.6279069767	-4.11551724138	-9.66666666667
883	0.4415	-4.9512195122	-7.56744186047	-2.69913793103	-9.66666666667
884	0.442	10.8512195122	-9.00465116279	-1.28275862069	-9.66666666667
885	0.4425	-10.6975609756	-7.56744186047	0.133620689655	-6.84444444444
886	0.443	-3.51463414634	-6.13023255814	-1.28275862069	-13.9
887	0.4435	-3.51463414634	-7.56744186047	-8.36465517241	-1.2
888	0.444	-4.9512195122	-0.381395348837	-2.69913793103	-5.43333333333
889	0.4445	-0.641463414634	-19.0651162791	-1.28275862069	-6.84444444444
890	0.445	-0.641463414634	-14.7534883721	0.133620689655	-4.02222222222
891	0.4455	-16.443902439	-4.69302325581	1.55	-4.02222222222
892	0.446	16.5975609756	-6.13023255814	0.133620689655	-1.2
893	0.4465	-10.6975609756	-6.13023255814	0.133620689655	-11.0777777778
894	0.447	-2.07804878049	-7.56744186047	1.55	14.3222222222
895	0.4475	-3.51463414634	-7.56744186047	12.8810344828	-1.2
896	0.448	-6.38780487805	-9.00465116279	-2.69913793103	-2.61111111111
897	0.4485	0.79512195122	-11.8790697674	4.38275862069	-4.02222222222
898	0.449	-3.51463414634	-10.4418604651	0.133620689655	0.211111111111
899	0.4495	-13.5707317073	-4.69302325581	0.133620689655	-2.61111111111
900	0.45	10.8512195122	-4.69302325581	-1.28275862069	0.211111111111
901	0.4505	-3.51463414634	-4.69302325581	4.38275862069	-12.4888888889
902	0.451	-4.9512195122	-9.00465116279	-2.69913793103	12.9111111111
903	0.4515	-4.9512195122	-6.13023255814	2.96637931034	-6.84444444444
904	0.452	-2.07804878049	-6.13023255814	1.55	0.211111111111
905	0.4525	-2.07804878049	1.05581395349	0.133620689655	0.211111111111
906	0.453	-2.07804878049	-9.00465116279	0.133620689655	0.211111111111
907	0.4535	7.97804878049	-6.13023255814	-2.69913793103	1.62222222222
908	0.454	-4.9512195122	-3.25581395349	-1.28275862069	0.211111111111
909	0.4545	-3.51463414634	-4.69302325581	-5.53189655172	14.3222222222
910	0.455	-3.51463414634	-4.69302325581	-1.28275862069	-8.25555555556
911	0.4555	-4.9512195122	-7.56744186047	-11.1974137931	0.211111111111
912	0.456	-2.07804878049	-6.13023255814	-1.28275862069	-1.2
913	0.4565	-2.07804878049	6.80465116279	-1.28275862069	0.211111111111
914	0.457	-2.07804878049	-11.8790697674	-1.28275862069	-1.2
915	0.4575	-9.26097560976	-4.69302325581	-1.28275862069	-4.02222222222
916	0.458	-2.07804878049	-6.13023255814	-1.28275862069	10.0888888889
917	0.4585	-0.641463414634	-7.56744186047	2.96637931034	-2.61111111111
918	0.459	-2.07804878049	-6.13023255814	-4.11551724138	-11.0777777778
919	0.4595	-3.51463414634	-6.13023255814	14.2974137931	-1.2
920	0.46	-3.51463414634	-7.56744186047	-9.78103448276	-1.2
921	0.4605	-3.51463414634	-7.56744186047	0.133620689655	3.03333333333
922	0.461	-3.51463414634	-3.25581395349	-2.69913793103	0.211111111111
923	0.4615	10.8512195122	-9.00465116279	-4.11551724138	0.211111111111
924	0.462	-10.6975609756	-7.56744186047	-2.69913793103	-5.43333333333
925	0.4625	-0.641463414634	-7.56744186047	-1.28275862069	-2.61111111111
926	0.463	-0.641463414634	-7.56744186047	4.38275862069	-4.02222222222
927	0.4635	-3.51463414634	-9.00465116279	1.55	-2.61111111111
928	0.464	-3.51463414634	-16.1906976744	-2.69913793103	-2.61111111111
929	0.4645	-2.07804878049	6.80465116279	-1.28275862069	-4.02222222222
930	0.465	-6.38780487805	-13.3162790698	-2.69913793103	-2.61111111111
931	0.4655	18.0341463415	-6.13023255814	-5.53189655172	0.211111111111
932	0.466	-13.5707317073	-6.13023255814	-5.53189655172	-5.43333333333
933	0.4665	-2.07804878049	-10.4418604651	-2.69913793103	0.211111111111
934	0.467	-0.641463414634	-7.56744186047	7.21551724138	-2.61111111111
935	0.4675	-0.641463414634	-9.00465116279	-14.0301724138	-1.2
936	0.468	-0.641463414634	-10.4418604651	-8.36465517241	-2.61111111111
937	0.4685	-3.51463414634	-6.13023255814	-12.6137931034	-2.61111111111
938	0.469	-0.641463414634	-11.8790697674	-4.11551724138	-4.02222222222
939	0.4695	-16.443902439	-6.13023255814	-4.11551724138	-5.43333333333
940	0.47	15.1609756098	-11.8790697674	-6.94827586207	-4.02222222222
941	0.4705	-4.9512195122	-7.56744186047	-4.11551724138	-16.7222222222
942	0.471	-2.07804878049	-4.69302325581	-12.6137931034	-6.84444444444
943	0.4715	-0.641463414634	-6.13023255814	4.38275862069	-6.84444444444
944	0.472	-4.9512195122	-10.4418604651	-11.1974137931	-6.84444444444
945	0.4725	-0.641463414634	-1.81860465116	-2.69913793103	-5.43333333333
946	0.473	-6.38780487805	-10.4418604651	-2.69913793103	-5.43333333333
947	0.4735	15.1609756098	-9.00465116279	0.133620689655	-1.2
948	0.474	-12.1341463415	-10.4418604651	-1.28275862069	-1.2
949	0.4745	-3.51463414634	-10.4418604651	0.133620689655	-2.61111111111
950	0.475	-0.641463414634	-6.13023255814	1.55	1.62222222222
951	0.4755	-0.641463414634	-3.25581395349	-6.94827586207	1.62222222222
952	0.476	-2.07804878049	-17.6279069767	-1.28275862069	1.62222222222
953	0.4765	0.79512195122	8.24186046512	-1.28275862069	4.44444444444
954	0.477	-16.443902439	-7.56744186047	-4.11551724138	4.44444444444
955	0.4775	13.7243902439	-7.56744186047	-1.28275862069	5.85555555556
956	0.478	-10.6975609756	-7.56744186047	-1.28275862069	8.67777777778
957	0.4785	-2.07804878049	-6.13023255814	1.55	12.9111111111
958	0.479	-0.641463414634	-7.56744186047	-1.28275862069	-1.2
959	0.4795	-2.07804878049	-3.25581395349	-2.69913793103	4.44444444444
960	0.48	-3.51463414634	-20.5023255814	0.133620689655	3.03333333333
961	0.4805	-4.9512195122	-14.7534883721	0.133620689655	5.85555555556
962	0.481	-0.641463414634	-9.00465116279	2.96637931034	4.44444444444
963	0.4815	-7.8243902439	-7.56744186047	2.96637931034	5.85555555556
964	0.482	-0.641463414634	-7.56744186047	4.38275862069	5.85555555556
965	0.4825	-3.51463414634	-6.13023255814	1.55	14.3222222222
966	0.483	-4.9512195122	-7.56744186047	11.4646551724	-5.43333333333
967	0.4835	-3.51463414634	-3.25581395349	4.38275862069	-1.2
968	0.484	-3.51463414634	-11.8790697674	5.79913793103	-5.43333333333
969	0.4845	0.79512195122	6.80465116279	5.79913793103	-2.61111111111
970	0.485	-0.641463414634	-16.1906976744	1.55	0.211111111111
971	0.4855	2.23170731707	-9.00465116279	5.79913793103	-5.43333333333
972	0.486	-6.38780487805	-7.56744186047	4.38275862069	11.5
973	0.4865	-2.07804878049	-6.13023255814	4.38275862069	1.62222222222
974	0.487	-2.07804878049	-3.25581395349	-9.78103448276	5.85555555556
975	0.4875	-0.641463414634	-7.56744186047	-1.28275862069	3.03333333333
976	0.488	-0.641463414634	-13.3162790698	-1.28275862069	3.03333333333
977	0.4885	-2.07804878049	6.80465116279	-2.69913793103	0.211111111111
978	0.489	-3.51463414634	-13.3162790698	-1.28275862069	0.211111111111
979	0.4895	7.97804878049	-6.13023255814	-1.28275862069	-1.2
980	0.49	-6.38780487805	-6.13023255814	-4.11551724138	12.9111111111
981	0.4905	-2.07804878049	-7.56744186047	-9.78103448276	-1.2
982	0.491	-3.51463414634	-9.00465116279	0.133620689655	14.3222222222
983	0.4915	-4.9512195122	-6.13023255814	4.38275862069	4.44444444444
984	0.492	-0.641463414634	-16.1906976744	-6.94827586207	4.44444444444
985	0.4925	3.66829268293	2.49302325581	-1.28275862069	10.0888888889
986	0.493	-15.0073170732	-6.13023255814	-2.69913793103	3.03333333333
987	0.4935	18.0341463415	-9.00465116279	1.55	10.0888888889
988	0.494	-10.6975609756	-9.00465116279	0.133620689655	-5.43333333333
989	0.4945	-2.07804878049	-9.00465116279	-5.53189655172	22.7888888889
990	0.495	-0.641463414634	-7.56744186047	-1.28275862069	-4.02222222222
991	0.4955	-3.51463414634	-6.13023255814	-4.11551724138	5.85555555556
992	0.496	-0.641463414634	-14.7534883721	-1.28275862069	7.26666666667
993	0.4965	-4.9512195122	-4.69302325581	0.133620689655	5.85555555556
994	0.497	0.79512195122	-13.3162790698	-1.28275862069	5.85555555556
995	0.4975	-10.6975609756	-7.56744186047	-2.69913793103	7.26666666667
996	0.498	-4.9512195122	-7.56744186047	-6.94827586207	17.1444444444
997	0.4985	-3.51463414634	-6.13023255814	-2.69913793103	5.85555555556
998	0.499	-2.07804878049	-7.56744186047	-15.4465517241	3.03333333333
999	0.4995	-0.641463414634	-6.13023255814	-9.78103448276	0.211111111111
1000	0.5	-3.51463414634	-10.4418604651	5.79913793103	-1.2
1001	0.5005	2.23170731707	9.67906976744	-8.36465517241	-4.02222222222
1002	0.501	-3.51463414634	-7.56744186047	-8.36465517241	-4.02222222222
1003	0.5015	-13.5707317073	-6.13023255814	-8.36465517241	-9.66666666667
1004	0.502	18.0341463415	-6.13023255814	-4.11551724138	-4.02222222222
1005	0.5025	-2.07804878049	-4.69302325581	-1.28275862069	-22.3666666667
1006	0.503	-0.641463414634	-1.81860465116	-6.94827586207	0.211111111111
1007	0.5035	-0.641463414634	-4.69302325581	-5.53189655172	-19.5444444444
1008	0.504	-2.07804878049	-14.7534883721	-4.11551724138	-13.9
1009	0.5045	-0.641463414634	5.36744186047	1.55	-8.25555555556
1010	0.505	-4.9512195122	-9.00465116279	-1.28275862069	-8.25555555556
1011	0.5055	16.5975609756	-7.56744186047	-2.69913793103	-2.61111111111
1012	0.506	-10.6975609756	-6.13023255814	-1.28275862069	-12.4888888889
1013	0.5065	-4.9512195122	-7.56744186047	-1.28275862069	-5.43333333333
1014	0.507	-2.07804878049	-7.56744186047	-12.6137931034	-2.61111111111
1015	0.5075	-0.641463414634	-7.56744186047	15.7137931034	0.211111111111
1016	0.508	-2.07804878049	-17.6279069767	-2.69913793103	-1.2
1017	0.5085	-2.07804878049	3.93023255814	-1.28275862069	-1.2
1018	0.509	-3.51463414634	-13.3162790698	0.133620689655	0.211111111111
1019	0.5095	18.0341463415	-9.00465116279	-4.11551724138	5.85555555556
1020	0.51	-7.8243902439	-6.13023255814	2.96637931034	17.1444444444
1021	0.5105	-2.07804878049	-7.56744186047	1.55	-4.02222222222
1022	0.511	-3.51463414634	-7.56744186047	-2.69913793103	14.3222222222
1023	0.5115	-2.07804878049	-4.69302325581	17.1301724138	-4.02222222222
1024	0.512	-4.9512195122	-4.69302325581	-6.94827586207	-1.2
1025	0.5125	-2.07804878049	8.24186046512	-1.28275862069	0.211111111111
1026	0.513	-2.07804878049	-13.3162790698	-1.28275862069	1.62222222222
1027	0.5135	-12.1341463415	-6.13023255814	-4.11551724138	5.85555555556
1028	0.514	19.4707317073	-6.13023255814	-1.28275862069	-5.43333333333
1029	0.5145	-0.641463414634	-7.56744186047	-2.69913793103	21.3777777778
1030	0.515	-2.07804878049	-6.13023255814	-4.11551724138	-8.25555555556
1031	0.5155	-2.07804878049	-7.56744186047	-14.0301724138	-1.2
1032	0.516	-0.641463414634	-9.00465116279	15.7137931034	-1.2
1033	0.5165	-3.51463414634	-17.6279069767	-2.69913793103	-2.61111111111
1034	0.517	-4.9512195122	-17.6279069767	-4.11551724138	0.211111111111
1035	0.5175	-6.38780487805	-6.13023255814	0.133620689655	0.211111111111
1036	0.518	-10.6975609756	-6.13023255814	0.133620689655	4.44444444444
1037	0.5185	-3.51463414634	-6.13023255814	1.55	4.44444444444
1038	0.519	-3.51463414634	-6.13023255814	0.133620689655	-4.02222222222
1039	0.5195	-3.51463414634	-4.69302325581	-5.53189655172	7.26666666667
1040	0.52	-2.07804878049	-6.13023255814	7.21551724138	7.26666666667
1041	0.5205	-0.641463414634	-11.8790697674	-9.78103448276	8.67777777778
1042	0.521	-0.641463414634	-6.13023255814	-1.28275862069	8.67777777778
1043	0.5215	-12.1341463415	-6.13023255814	-2.69913793103	5.85555555556
1044	0.522	16.5975609756	-9.00465116279	0.133620689655	5.85555555556
1045	0.5225	-10.6975609756	-4.69302325581	0.133620689655	-5.43333333333
1046	0.523	-4.9512195122	-9.00465116279	-4.11551724138	24.2
1047	0.5235	-2.07804878049	-6.13023255814	1.55	-2.61111111111
1048	0.524	-4.9512195122	-10.4418604651	-9.78103448276	5.85555555556
1049	0.5245	-4.9512195122	9.67906976744	-2.69913793103	5.85555555556
1050	0.525	-0.641463414634	-20.5023255814	-1.28275862069	5.85555555556
1051	0.5255	-6.38780487805	-9.00465116279	0.133620689655	8.67777777778
1052	0.526	13.7243902439	-7.56744186047	-2.69913793103	8.67777777778
1053	0.5265	-10.6975609756	-7.56744186047	-2.69913793103	17.1444444444
1054	0.527	-2.07804878049	-10.4418604651	-8.36465517241	-1.2
1055	0.5275	-3.51463414634	-6.13023255814	1.55	5.85555555556
1056	0.528	-3.51463414634	-20.5023255814	-2.69913793103	3.03333333333
1057	0.5285	-3.51463414634	-6.13023255814	-8.36465517241	4.44444444444
1058	0.529	-0.641463414634	-13.3162790698	-4.11551724138	3.03333333333
1059	0.5295	-12.1341463415	-9.00465116279	-6.94827586207	4.44444444444
1060	0.53	-3.51463414634	-7.56744186047	-4.11551724138	-4.02222222222
1061	0.5305	-4.9512195122	-4.69302325581	-9.78103448276	10.0888888889
1062	0.531	-0.641463414634	-7.56744186047	-4.11551724138	-1.2
1063	0.5315	-0.641463414634	-10.4418604651	-9.78103448276	4.44444444444
1064	0.532	-0.641463414634	-4.69302325581	-6.94827586207	-1.2
1065	0.5325	-0.641463414634	-16.1906976744	-2.69913793103	1.62222222222
1066	0.533	0.79512195122	-6.13023255814	-2.69913793103	-1.2
1067	0.5335	-15.0073170732	-9.00465116279	-1.28275862069	-1.2
1068	0.534	16.5975609756	-4.69302325581	1.55	3.03333333333
1069	0.5345	-3.51463414634	-9.00465116279	1.55	-1.2
1070	0.535	-3.51463414634	-7.56744186047	-6.94827586207	4.44444444444
1071	0.5355	-2.07804878049	-4.69302325581	-6.94827586207	0.211111111111
1072	0.536	-0.641463414634	-4.69302325581	5.79913793103	-1.2
1073	0.5365	-0.641463414634	8.24186046512	1.55	0.211111111111
1074	0.537	-2.07804878049	-6.13023255814	2.96637931034	0.211111111111
1075	0.5375	-0.641463414634	-7.56744186047	1.55	1.62222222222
1076	0.538	15.1609756098	-7.56744186047	0.133620689655	3.03333333333
1077	0.5385	0.79512195122	-9.00465116279	0.133620689655	-8.25555555556
1078	0.539	-2.07804878049	-4.69302325581	-8.36465517241	1.62222222222
1079	0.5395	0.79512195122	-4.69302325581	-9.78103448276	5.85555555556
1080	0.54	0.79512195122	-3.25581395349	-2.69913793103	1.62222222222
1081	0.5405	0.79512195122	8.24186046512	-5.53189655172	0.211111111111
1082	0.541	-0.641463414634	-7.56744186047	-4.11551724138	0.211111111111
1083	0.5415	-2.07804878049	-7.56744186047	-6.94827586207	-4.02222222222
1084	0.542	10.8512195122	-6.13023255814	-6.94827586207	-1.2
1085	0.5425	0.79512195122	-3.25581395349	-4.11551724138	-2.61111111111
1086	0.543	0.79512195122	-4.69302325581	-1.28275862069	1.62222222222
1087	0.5435	-0.641463414634	-6.13023255814	-5.53189655172	5.85555555556
1088	0.544	-2.07804878049	-1.81860465116	-6.94827586207	5.85555555556
1089	0.5445	-2.07804878049	-13.3162790698	-5.53189655172	14.3222222222
1090	0.545	2.23170731707	-6.13023255814	-4.11551724138	15.7333333333
1091	0.5455	-13.5707317073	-7.56744186047	-5.53189655172	15.7333333333
1092	0.546	-7.8243902439	-7.56744186047	-1.28275862069	4.44444444444
1093	0.5465	-3.51463414634	-6.13023255814	-1.28275862069	15.7333333333
1094	0.547	-3.51463414634	-6.13023255814	4.38275862069	14.3222222222
1095	0.5475	-4.9512195122	-4.69302325581	-5.53189655172	15.7333333333
1096	0.548	-3.51463414634	-19.0651162791	1.55	14.3222222222
1097	0.5485	-6.38780487805	-17.6279069767	0.133620689655	10.0888888889
1098	0.549	-0.641463414634	-7.56744186047	0.133620689655	12.9111111111
1099	0.5495	-7.8243902439	-7.56744186047	-1.28275862069	1.62222222222
1100	0.55	-7.8243902439	-4.69302325581	-2.69913793103	5.85555555556
1101	0.5505	-0.641463414634	-4.69302325581	1.55	4.44444444444
1102	0.551	-0.641463414634	-7.56744186047	0.133620689655	4.44444444444
1103	0.5515	0.79512195122	-4.69302325581	-2.69913793103	3.03333333333
1104	0.552	2.23170731707	5.36744186047	-4.11551724138	3.03333333333
1105	0.5525	2.23170731707	-10.4418604651	-6.94827586207	4.44444444444
1106	0.553	-15.0073170732	-6.13023255814	-5.53189655172	-1.2
1107	0.5535	18.0341463415	-3.25581395349	-8.36465517241	-1.2
1108	0.554	-10.6975609756	-6.13023255814	-6.94827586207	-15.3111111111
1109	0.5545	-0.641463414634	-6.13023255814	-8.36465517241	3.03333333333
1110	0.555	2.23170731707	-7.56744186047	2.96637931034	-8.25555555556
1111	0.5555	-0.641463414634	-4.69302325581	-9.78103448276	-6.84444444444
1112	0.556	0.79512195122	-16.1906976744	-1.28275862069	-4.02222222222
1113	0.5565	-4.9512195122	-6.13023255814	-1.28275862069	1.62222222222
1114	0.557	2.23170731707	-13.3162790698	0.133620689655	0.211111111111
1115	0.5575	-12.1341463415	-9.00465116279	0.133620689655	-6.84444444444
1116	0.558	-3.51463414634	-7.56744186047	-1.28275862069	4.44444444444
1117	0.5585	0.79512195122	-9.00465116279	0.133620689655	-18.1333333333
1118	0.559	-2.07804878049	-7.56744186047	5.79913793103	-13.9
1119	0.5595	-4.9512195122	-4.69302325581	2.96637931034	-16.7222222222
1120	0.56	-0.641463414634	-16.1906976744	-4.11551724138	-13.9
1121	0.5605	0.79512195122	-10.4418604651	-2.69913793103	-13.9
1122	0.561	-13.5707317073	-7.56744186047	-6.94827586207	-19.5444444444
1123	0.5615	16.5975609756	-9.00465116279	-8.36465517241	-25.1888888889
1124	0.562	-12.1341463415	-6.13023255814	-5.53189655172	-12.4888888889
1125	0.5625	-2.07804878049	-9.00465116279	-6.94827586207	-12.4888888889
1126	0.563	-4.9512195122	-9.00465116279	1.55	-9.66666666667
1127	0.5635	-2.07804878049	-14.7534883721	-11.1974137931	-4.02222222222
1128	0.564	0.79512195122	1.05581395349	-6.94827586207	-2.61111111111
1129	0.5645	-0.641463414634	-10.4418604651	-6.94827586207	-2.61111111111
1130	0.565	18.0341463415	-7.56744186047	-4.11551724138	0.211111111111
1131	0.5655	-9.26097560976	-7.56744186047	-1.28275862069	-15.3111111111
1132	0.566	0.79512195122	-4.69302325581	0.133620689655	-11.0777777778
1133	0.5665	0.79512195122	-6.13023255814	4.38275862069	0.211111111111
1134	0.567	2.23170731707	-6.13023255814	-4.11551724138	3.03333333333
1135	0.5675	0.79512195122	-11.8790697674	4.38275862069	1.62222222222
1136	0.568	-2.07804878049	9.67906976744	4.38275862069	-2.61111111111
1137	0.5685	-2.07804878049	-14.7534883721	1.55	-5.43333333333
1138	0.569	12.287804878	-9.00465116279	4.38275862069	-9.66666666667
1139	0.5695	-4.9512195122	-9.00465116279	-2.69913793103	5.85555555556
1140	0.57	0.79512195122	-6.13023255814	0.133620689655	-8.25555555556
1141	0.5705	-2.07804878049	-7.56744186047	-1.28275862069	-15.3111111111
1142	0.571	-4.9512195122	-9.00465116279	0.133620689655	-4.02222222222
1143	0.5715	-0.641463414634	-1.81860465116	0.133620689655	0.211111111111
1144	0.572	-0.641463414634	-3.25581395349	-1.28275862069	0.211111111111
1145	0.5725	3.66829268293	-10.4418604651	0.133620689655	-1.2
1146	0.573	-6.38780487805	-6.13023255814	4.38275862069	-12.4888888889
1147	0.5735	2.23170731707	-3.25581395349	-2.69913793103	-4.02222222222
1148	0.574	2.23170731707	-3.25581395349	-8.36465517241	3.03333333333
1149	0.5745	0.79512195122	-4.69302325581	19.9629310345	4.44444444444
1150	0.575	2.23170731707	-4.69302325581	-1.28275862069	5.85555555556
1151	0.5755	0.79512195122	1.05581395349	10.0482758621	1.62222222222
1152	0.576	2.23170731707	-6.13023255814	1.55	4.44444444444
1153	0.5765	2.23170731707	-6.13023255814	-2.69913793103	3.03333333333
1154	0.577	-0.641463414634	-6.13023255814	-1.28275862069	5.85555555556
1155	0.5775	-4.9512195122	-6.13023255814	0.133620689655	3.03333333333
1156	0.578	0.79512195122	-6.13023255814	-1.28275862069	5.85555555556
1157	0.5785	0.79512195122	-6.13023255814	-12.6137931034	0.211111111111
1158	0.579	0.79512195122	-6.13023255814	-2.69913793103	14.3222222222
1159	0.5795	0.79512195122	-10.4418604651	-6.94827586207	17.1444444444
1160	0.58	-2.07804878049	-1.81860465116	-6.94827586207	15.7333333333
1161	0.5805	13.7243902439	-7.56744186047	-6.94827586207	15.7333333333
1162	0.581	-3.51463414634	-4.69302325581	-2.69913793103	3.03333333333
1163	0.5815	0.79512195122	-6.13023255814	-6.94827586207	28.4333333333
1164	0.582	-3.51463414634	-6.13023255814	-1.28275862069	3.03333333333
1165	0.5825	-4.9512195122	-3.25581395349	-12.6137931034	11.5
1166	0.583	-4.9512195122	-4.69302325581	-5.53189655172	10.0888888889
1167	0.5835	-2.07804878049	3.93023255814	-6.94827586207	10.0888888889
1168	0.584	-0.641463414634	-4.69302325581	-4.11551724138	14.3222222222
1169	0.5845	-13.5707317073	-1.81860465116	-6.94827586207	14.3222222222
1170	0.585	18.0341463415	-9.00465116279	-2.69913793103	21.3777777778
1171	0.5855	0.79512195122	-6.13023255814	-2.69913793103	5.85555555556
1172	0.586	-3.51463414634	-10.4418604651	-14.0301724138	18.5555555556
1173	0.5865	-0.641463414634	-4.69302325581	7.21551724138	14.3222222222
1174	0.587	-0.641463414634	-9.00465116279	-12.6137931034	15.7333333333
1175	0.5875	0.79512195122	-6.13023255814	-5.53189655172	19.9666666667
1176	0.588	-2.07804878049	-9.00465116279	-5.53189655172	17.1444444444
1177	0.5885	16.5975609756	-6.13023255814	-6.94827586207	12.9111111111
1178	0.589	-7.8243902439	-6.13023255814	-6.94827586207	15.7333333333
1179	0.5895	-2.07804878049	-6.13023255814	-8.36465517241	5.85555555556
1180	0.59	0.79512195122	-1.81860465116	14.2974137931	10.0888888889
1181	0.5905	-0.641463414634	-6.13023255814	-15.4465517241	3.03333333333
1182	0.591	-3.51463414634	-6.13023255814	-5.53189655172	14.3222222222
1183	0.5915	-4.9512195122	-6.13023255814	-6.94827586207	8.67777777778
1184	0.592	-3.51463414634	-6.13023255814	-6.94827586207	10.0888888889
1185	0.5925	3.66829268293	-6.13023255814	-8.36465517241	17.1444444444
1186	0.593	-3.51463414634	-6.13023255814	-6.94827586207	17.1444444444
1187	0.5935	-0.641463414634	-4.69302325581	-15.4465517241	17.1444444444
1188	0.594	0.79512195122	-1.81860465116	5.79913793103	22.7888888889
1189	0.5945	-3.51463414634	-7.56744186047	-9.78103448276	21.3777777778
1190	0.595	-3.51463414634	-4.69302325581	5.79913793103	19.9666666667
1191	0.5955	2.23170731707	-14.7534883721	-5.53189655172	18.5555555556
1192	0.596	-3.51463414634	-6.13023255814	-6.94827586207	22.7888888889
1193	0.5965	15.1609756098	-4.69302325581	-5.53189655172	21.3777777778
1194	0.597	-7.8243902439	-6.13023255814	-4.11551724138	14.3222222222
1195	0.5975	-2.07804878049	-4.69302325581	-5.53189655172	34.0777777778
1196	0.598	-3.51463414634	-7.56744186047	-8.36465517241	12.9111111111
1197	0.5985	-3.51463414634	-9.00465116279	-2.69913793103	18.5555555556
1198	0.599	-4.9512195122	-14.7534883721	-6.94827586207	18.5555555556
1199	0.5995	-6.38780487805	-4.69302325581	-5.53189655172	19.9666666667
1200	0.6	-2.07804878049	-13.3162790698	-4.11551724138	19.9666666667
1201	0.6005	-12.1341463415	-7.56744186047	-4.11551724138	18.5555555556
1202	0.601	-4.9512195122	-7.56744186047	-5.53189655172	19.9666666667
1203	0.6015	-4.9512195122	-6.13023255814	-2.69913793103	5.85555555556
1204	0.602	-2.07804878049	-4.69302325581	-12.6137931034	15.7333333333
1205	0.6025	-2.07804878049	-6.13023255814	17.1301724138	19.9666666667
1206	0.603	-2.07804878049	-7.56744186047	-5.53189655172	18.5555555556
1207	0.6035	0.79512195122	-9.00465116279	1.55	14.3222222222
1208	0.604	-3.51463414634	-7.56744186047	1.55	17.1444444444
1209	0.6045	0.79512195122	-7.56744186047	1.55	12.9111111111
1210	0.605	10.8512195122	-7.56744186047	0.133620689655	12.9111111111
1211	0.6055	-0.641463414634	-7.56744186047	-2.69913793103	12.9111111111
1212	0.606	-2.07804878049	-1.81860465116	5.79913793103	7.26666666667
1213	0.6065	-0.641463414634	-4.69302325581	-4.11551724138	5.85555555556
1214	0.607	-0.641463414634	-16.1906976744	-5.53189655172	8.67777777778
1215	0.6075	0.79512195122	-10.4418604651	-1.28275862069	8.67777777778
1216	0.608	-4.9512195122	-10.4418604651	-2.69913793103	7.26666666667
1217	0.6085	0.79512195122	-13.3162790698	-1.28275862069	10.0888888889
1218	0.609	-4.9512195122	-6.13023255814	0.133620689655	-2.61111111111
1219	0.6095	-3.51463414634	-9.00465116279	-4.11551724138	5.85555555556
1220	0.61	0.79512195122	-6.13023255814	0.133620689655	5.85555555556
1221	0.6105	0.79512195122	-10.4418604651	-2.69913793103	1.62222222222
1222	0.611	-0.641463414634	-1.81860465116	-2.69913793103	-5.43333333333
1223	0.6115	0.79512195122	-19.0651162791	-4.11551724138	-8.25555555556
1224	0.612	3.66829268293	-6.13023255814	-2.69913793103	-8.25555555556
1225	0.6125	-12.1341463415	-6.13023255814	-5.53189655172	-9.66666666667
1226	0.613	18.0341463415	-6.13023255814	-5.53189655172	-13.9
1227	0.6135	-3.51463414634	-6.13023255814	-6.94827586207	14.3222222222
1228	0.614	-0.641463414634	-4.69302325581	-2.69913793103	-12.4888888889
1229	0.6145	-2.07804878049	-4.69302325581	-12.6137931034	0.211111111111
1230	0.615	0.79512195122	-9.00465116279	-6.94827586207	5.85555555556
1231	0.6155	-2.07804878049	-11.8790697674	-8.36465517241	4.44444444444
1232	0.616	-0.641463414634	1.05581395349	-6.94827586207	5.85555555556
1233	0.6165	10.8512195122	-6.13023255814	-6.94827586207	8.67777777778
1234	0.617	-4.9512195122	-9.00465116279	-2.69913793103	-2.61111111111
1235	0.6175	-3.51463414634	-6.13023255814	-8.36465517241	17.1444444444
1236	0.618	-3.51463414634	-6.13023255814	1.55	-5.43333333333
1237	0.6185	0.79512195122	-4.69302325581	-12.6137931034	0.211111111111
1238	0.619	0.79512195122	-6.13023255814	0.133620689655	-1.2
1239	0.6195	0.79512195122	-6.13023255814	5.79913793103	0.211111111111
1240	0.62	3.66829268293	-6.13023255814	7.21551724138	0.211111111111
1241	0.6205	-12.1341463415	-4.69302325581	4.38275862069	0.211111111111
1242	0.621	20.9073170732	-4.69302325581	1.55	1.62222222222
1243	0.6215	0.79512195122	-6.13023255814	2.96637931034	-9.66666666667
1244	0.622	-2.07804878049	-7.56744186047	-8.36465517241	1.62222222222
1245	0.6225	0.79512195122	-6.13023255814	-1.28275862069	17.1444444444
1246	0.623	-0.641463414634	-4.69302325581	2.96637931034	4.44444444444
1247	0.6235	0.79512195122	-1.81860465116	0.133620689655	4.44444444444
1248	0.624	-0.641463414634	-7.56744186047	0.133620689655	5.85555555556
1249	0.6245	-10.6975609756	-6.13023255814	-1.28275862069	1.62222222222
1250	0.625	-2.07804878049	-7.56744186047	-4.11551724138	7.26666666667
1251	0.6255	-0.641463414634	-4.69302325581	0.133620689655	-5.43333333333
1252	0.626	0.79512195122	-6.13023255814	14.2974137931	-1.2
1253	0.6265	-0.641463414634	-6.13023255814	-12.6137931034	-1.2
1254	0.627	-0.641463414634	-9.00465116279	0.133620689655	0.211111111111
1255	0.6275	-0.641463414634	-10.4418604651	-1.28275862069	-2.61111111111
1256	0.628	3.66829268293	-9.00465116279	-1.28275862069	-2.61111111111
1257	0.6285	-15.0073170732	-6.13023255814	-2.69913793103	3.03333333333
1258	0.629	-4.9512195122	-7.56744186047	-2.69913793103	-1.2
1259	0.6295	-2.07804878049	-6.13023255814	0.133620689655	1.62222222222
1260	0.63	-0.641463414634	-6.13023255814	12.8810344828	0.211111111111
1261	0.6305	-0.641463414634	-9.00465116279	-1.28275862069	-1.2
1262	0.631	2.23170731707	3.93023255814	-1.28275862069	0.211111111111
1263	0.6315	-2.07804878049	-9.00465116279	-1.28275862069	0.211111111111
1264	0.632	-10.6975609756	-7.56744186047	-1.28275862069	-2.61111111111
1265	0.6325	13.7243902439	-7.56744186047	1.55	1.62222222222
1266	0.633	-3.51463414634	-9.00465116279	-4.11551724138	-6.84444444444
1267	0.6335	2.23170731707	-6.13023255814	12.8810344828	-6.84444444444
1268	0.634	3.66829268293	-10.4418604651	-4.11551724138	-6.84444444444
1269	0.6345	-0.641463414634	-1.81860465116	-6.94827586207	-1.2
1270	0.635	0.79512195122	-11.8790697674	-1.28275862069	1.62222222222
1271	0.6355	-3.51463414634	-4.69302325581	-2.69913793103	3.03333333333
1272	0.636	9.41463414634	-7.56744186047	-6.94827586207	5.85555555556
1273	0.6365	-7.8243902439	-4.69302325581	-1.28275862069	5.85555555556
1274	0.637	0.79512195122	-7.56744186047	0.133620689655	25.6111111111
1275	0.6375	-3.51463414634	-4.69302325581	2.96637931034	3.03333333333
1276	0.638	0.79512195122	-9.00465116279	-1.28275862069	8.67777777778
1277	0.6385	-0.641463414634	-4.69302325581	4.38275862069	4.44444444444
1278	0.639	-4.9512195122	-4.69302325581	2.96637931034	5.85555555556
1279	0.6395	3.66829268293	-7.56744186047	4.38275862069	4.44444444444
1280	0.64	-9.26097560976	-6.13023255814	2.96637931034	0.211111111111
1281	0.6405	-0.641463414634	-7.56744186047	1.55	3.03333333333
1282	0.641	-0.641463414634	-7.56744186047	1.55	-9.66666666667
1283	0.6415	-0.641463414634	-6.13023255814	-2.69913793103	0.211111111111
1284	0.642	-2.07804878049	-7.56744186047	2.96637931034	-1.2
1285	0.6425	-0.641463414634	-10.4418604651	2.96637931034	1.62222222222
1286	0.643	-0.641463414634	-7.56744186047	1.55	0.211111111111
1287	0.6435	-4.9512195122	-10.4418604651	4.38275862069	-1.2
1288	0.644	2.23170731707	-7.56744186047	4.38275862069	-5.43333333333
1289	0.6445	-0.641463414634	-6.13023255814	4.38275862069	-4.02222222222
1290	0.645	0.79512195122	-10.4418604651	1.55	-5.43333333333
1291	0.6455	2.23170731707	-6.13023255814	4.38275862069	-6.84444444444
1292	0.646	-2.07804878049	-7.56744186047	8.63189655172	-5.43333333333
1293	0.6465	0.79512195122	6.80465116279	-2.69913793103	-6.84444444444
1294	0.647	-4.9512195122	-7.56744186047	-2.69913793103	-5.43333333333
1295	0.6475	0.79512195122	-10.4418604651	-1.28275862069	-1.2
1296	0.648	-13.5707317073	-10.4418604651	-1.28275862069	-2.61111111111
1297	0.6485	-0.641463414634	-9.00465116279	-1.28275862069	7.26666666667
1298	0.649	-4.9512195122	-7.56744186047	-6.94827586207	-1.2
1299	0.6495	-2.07804878049	-4.69302325581	0.133620689655	-2.61111111111
1300	0.65	-3.51463414634	-17.6279069767	-1.28275862069	-2.61111111111
1301	0.6505	5.10487804878	-11.8790697674	-2.69913793103	-1.2
1302	0.651	-2.07804878049	-6.13023255814	-5.53189655172	0.211111111111
1303	0.6515	-2.07804878049	-7.56744186047	-4.11551724138	-1.2
1304	0.652	-7.8243902439	-6.13023255814	-1.28275862069	-2.61111111111
1305	0.6525	0.79512195122	-6.13023255814	0.133620689655	-5.43333333333
1306	0.653	3.66829268293	-6.13023255814	-5.53189655172	-15.3111111111
1307	0.6535	-0.641463414634	-9.00465116279	5.79913793103	-8.25555555556
1308	0.654	-0.641463414634	-1.81860465116	-6.94827586207	-8.25555555556
1309	0.6545	-0.641463414634	-19.0651162791	-4.11551724138	-5.43333333333
1310	0.655	0.79512195122	-4.69302325581	-5.53189655172	-5.43333333333
1311	0.6555	-13.5707317073	-6.13023255814	-4.11551724138	-5.43333333333
1312	0.656	12.287804878	-6.13023255814	-5.53189655172	-6.84444444444
1313	0.6565	-3.51463414634	-9.00465116279	-1.28275862069	4.44444444444
1314	0.657	-3.51463414634	-4.69302325581	-5.53189655172	-1.2
1315	0.6575	-3.51463414634	-3.25581395349	-2.69913793103	0.211111111111
1316	0.658	-2.07804878049	-19.0651162791	-4.11551724138	-2.61111111111
1317	0.6585	-0.641463414634	9.67906976744	-5.53189655172	-1.2
1318	0.659	-2.07804878049	-16.1906976744	-2.69913793103	-2.61111111111
1319	0.6595	12.287804878	-7.56744186047	-5.53189655172	-2.61111111111
1320	0.66	-7.8243902439	-6.13023255814	-5.53189655172	10.0888888889
1321	0.6605	-2.07804878049	-6.13023255814	-6.94827586207	-8.25555555556
1322	0.661	-0.641463414634	-6.13023255814	-9.78103448276	-2.61111111111
1323	0.6615	-2.07804878049	-13.3162790698	-6.94827586207	0.211111111111
1324	0.662	-3.51463414634	-11.8790697674	-4.11551724138	0.211111111111
1325	0.6625	2.23170731707	6.80465116279	-4.11551724138	0.211111111111
1326	0.663	0.79512195122	-9.00465116279	-2.69913793103	3.03333333333
1327	0.6635	15.1609756098	-6.13023255814	-1.28275862069	3.03333333333
1328	0.664	-6.38780487805	-6.13023255814	-2.69913793103	0.211111111111
1329	0.6645	0.79512195122	-6.13023255814	-2.69913793103	-6.84444444444
1330	0.665	2.23170731707	-4.69302325581	0.133620689655	-1.2
1331	0.6655	2.23170731707	-6.13023255814	-1.28275862069	-1.2
1332	0.666	-2.07804878049	5.36744186047	-5.53189655172	-5.43333333333
1333	0.6665	-4.9512195122	-10.4418604651	0.133620689655	-5.43333333333
1334	0.667	0.79512195122	-6.13023255814	2.96637931034	-6.84444444444
1335	0.6675	-13.5707317073	-9.00465116279	5.79913793103	-5.43333333333
1336	0.668	-0.641463414634	-7.56744186047	0.133620689655	1.62222222222
1337	0.6685	-0.641463414634	-7.56744186047	-2.69913793103	-9.66666666667
1338	0.669	-0.641463414634	-10.4418604651	-6.94827586207	-4.02222222222
1339	0.6695	-4.9512195122	-6.13023255814	12.8810344828	-5.43333333333
1340	0.67	-3.51463414634	-7.56744186047	1.55	-5.43333333333
1341	0.6705	-3.51463414634	-6.13023255814	0.133620689655	1.62222222222
1342	0.671	-13.5707317073	-9.00465116279	0.133620689655	4.44444444444
1343	0.6715	16.5975609756	-7.56744186047	-1.28275862069	1.62222222222
1344	0.672	-12.1341463415	-6.13023255814	-2.69913793103	-9.66666666667
1345	0.6725	-2.07804878049	-10.4418604651	-6.94827586207	-1.2
1346	0.673	-0.641463414634	-7.56744186047	7.21551724138	1.62222222222
1347	0.6735	-0.641463414634	-4.69302325581	-6.94827586207	0.211111111111
1348	0.674	-2.07804878049	-14.7534883721	-4.11551724138	0.211111111111
1349	0.6745	2.23170731707	-9.00465116279	-5.53189655172	3.03333333333
1350	0.675	-12.1341463415	-3.25581395349	-4.11551724138	-1.2
1351	0.6755	10.8512195122	-9.00465116279	-4.11551724138	-2.61111111111
1352	0.676	-6.38780487805	-4.69302325581	-1.28275862069	-1.2
1353	0.6765	-3.51463414634	-4.69302325581	17.1301724138	-2.61111111111
1354	0.677	-2.07804878049	-9.00465116279	-8.36465517241	0.211111111111
1355	0.6775	-0.641463414634	-1.81860465116	-1.28275862069	-4.02222222222
1356	0.678	-2.07804878049	-13.3162790698	2.96637931034	-1.2
1357	0.6785	-7.8243902439	-7.56744186047	-1.28275862069	-4.02222222222
1358	0.679	0.79512195122	-6.13023255814	-1.28275862069	-2.61111111111
1359	0.6795	-6.38780487805	-7.56744186047	1.55	-19.5444444444
1360	0.68	-4.9512195122	-6.13023255814	-2.69913793103	10.0888888889
1361	0.6805	-2.07804878049	-4.69302325581	2.96637931034	-11.0777777778
1362	0.681	0.79512195122	-3.25581395349	-6.94827586207	-2.61111111111
1363	0.6815	-2.07804878049	-7.56744186047	11.4646551724	-4.02222222222
1364	0.682	-0.641463414634	-1.81860465116	-2.69913793103	-2.61111111111
1365	0.6825	0.79512195122	-6.13023255814	-2.69913793103	-1.2
1366	0.683	-16.443902439	-6.13023255814	-1.28275862069	-4.02222222222
1367	0.6835	18.0341463415	-4.69302325581	0.133620689655	-8.25555555556
1368	0.684	0.79512195122	-6.13023255814	-2.69913793103	8.67777777778
1369	0.6845	0.79512195122	-3.25581395349	12.8810344828	3.03333333333
1370	0.685	-2.07804878049	-7.56744186047	1.55	-1.2
1371	0.6855	-2.07804878049	-0.381395348837	-5.53189655172	-4.02222222222
1372	0.686	-0.641463414634	-9.00465116279	2.96637931034	0.211111111111
1373	0.6865	-10.6975609756	-1.81860465116	2.96637931034	-2.61111111111
1374	0.687	16.5975609756	-3.25581395349	2.96637931034	0.211111111111
1375	0.6875	-13.5707317073	-3.25581395349	-1.28275862069	15.7333333333
1376	0.688	-0.641463414634	-1.81860465116	-1.28275862069	-5.43333333333
1377	0.6885	-2.07804878049	-0.381395348837	-1.28275862069	0.211111111111
1378	0.689	-4.9512195122	-16.1906976744	4.38275862069	4.44444444444
1379	0.6895	-3.51463414634	13.9906976744	2.96637931034	3.03333333333
1380	0.69	-0.641463414634	-11.8790697674	4.38275862069	-1.2
1381	0.6905	-7.8243902439	-3.25581395349	-1.28275862069	0.211111111111
1382	0.691	5.10487804878	-1.81860465116	0.133620689655	1.62222222222
1383	0.6915	-10.6975609756	-6.13023255814	0.133620689655	5.85555555556
1384	0.692	-4.9512195122	-3.25581395349	11.4646551724	5.85555555556
1385	0.6925	-4.9512195122	-4.69302325581	4.38275862069	7.26666666667
1386	0.693	-2.07804878049	2.49302325581	4.38275862069	5.85555555556
1387	0.6935	-3.51463414634	13.9906976744	4.38275862069	8.67777777778
1388	0.694	-4.9512195122	-6.13023255814	2.96637931034	7.26666666667
1389	0.6945	-7.8243902439	-6.13023255814	5.79913793103	7.26666666667
1390	0.695	-2.07804878049	-4.69302325581	4.38275862069	-1.2
1391	0.6955	-3.51463414634	-4.69302325581	-8.36465517241	5.85555555556
1392	0.696	-2.07804878049	-3.25581395349	19.9629310345	12.9111111111
1393	0.6965	-4.9512195122	-6.13023255814	-4.11551724138	12.9111111111
1394	0.697	-6.38780487805	-9.00465116279	4.38275862069	12.9111111111
1395	0.6975	-4.9512195122	-0.381395348837	2.96637931034	8.67777777778
1396	0.698	-0.641463414634	-9.00465116279	-1.28275862069	8.67777777778
1397	0.6985	-16.443902439	-7.56744186047	-2.69913793103	7.26666666667
1398	0.699	-4.9512195122	-6.13023255814	-5.53189655172	28.4333333333
1399	0.6995	-2.07804878049	-7.56744186047	-2.69913793103	-1.2
1400	0.7	-2.07804878049	-6.13023255814	-2.69913793103	4.44444444444
1401	0.7005	-0.641463414634	-9.00465116279	-6.94827586207	0.211111111111
1402	0.701	-2.07804878049	-1.81860465116	-12.6137931034	1.62222222222
1403	0.7015	-3.51463414634	-13.3162790698	-6.94827586207	1.62222222222
1404	0.702	-2.07804878049	-6.13023255814	-4.11551724138	1.62222222222
1405	0.7025	-3.51463414634	-4.69302325581	-1.28275862069	5.85555555556
1406	0.703	-0.641463414634	-6.13023255814	2.96637931034	-2.61111111111
1407	0.7035	-3.51463414634	-6.13023255814	-1.28275862069	12.9111111111
1408	0.704	-4.9512195122	-6.13023255814	2.96637931034	-5.43333333333
1409	0.7045	-4.9512195122	-3.25581395349	1.55	3.03333333333
1410	0.705	-0.641463414634	2.49302325581	1.55	3.03333333333
1411	0.7055	-3.51463414634	-9.00465116279	2.96637931034	-1.2
1412	0.706	-12.1341463415	-3.25581395349	2.96637931034	-9.66666666667
1413	0.7065	6.54146341463	-7.56744186047	0.133620689655	-12.4888888889
1414	0.707	-3.51463414634	-6.13023255814	-1.28275862069	-22.3666666667
1415	0.7075	-3.51463414634	-3.25581395349	-4.11551724138	-1.2
1416	0.708	-6.38780487805	-7.56744186047	14.2974137931	-8.25555555556
1417	0.7085	-6.38780487805	-9.00465116279	-9.78103448276	-1.2
1418	0.709	-2.07804878049	-10.4418604651	-2.69913793103	-1.2
1419	0.7095	-2.07804878049	-13.3162790698	-2.69913793103	1.62222222222
1420	0.71	9.41463414634	-6.13023255814	-5.53189655172	1.62222222222
1421	0.7105	-4.9512195122	-6.13023255814	-2.69913793103	-9.66666666667
1422	0.711	-4.9512195122	-4.69302325581	-6.94827586207	5.85555555556
1423	0.7115	0.79512195122	-7.56744186047	-1.28275862069	-12.4888888889
1424	0.712	-2.07804878049	-4.69302325581	-19.6956896552	-5.43333333333
1425	0.7125	0.79512195122	-4.69302325581	-9.78103448276	-5.43333333333
1426	0.713	-2.07804878049	6.80465116279	-8.36465517241	-4.02222222222
1427	0.7135	-2.07804878049	-13.3162790698	-5.53189655172	-1.2
1428	0.714	-7.8243902439	-6.13023255814	-4.11551724138	3.03333333333
1429	0.7145	-6.38780487805	-4.69302325581	-1.28275862069	1.62222222222
1430	0.715	-2.07804878049	-6.13023255814	2.96637931034	-5.43333333333
1431	0.7155	-0.641463414634	-7.56744186047	-2.69913793103	17.1444444444
1432	0.716	-3.51463414634	-7.56744186047	-1.28275862069	3.03333333333
1433	0.7165	0.79512195122	-11.8790697674	-2.69913793103	0.211111111111
1434	0.717	-2.07804878049	-0.381395348837	-5.53189655172	-1.2
1435	0.7175	0.79512195122	-6.13023255814	-4.11551724138	1.62222222222
1436	0.718	-15.0073170732	-3.25581395349	-8.36465517241	-1.2
1437	0.7185	-4.9512195122	-6.13023255814	-5.53189655172	12.9111111111
1438	0.719	-4.9512195122	-6.13023255814	-2.69913793103	-4.02222222222
1439	0.7195	-2.07804878049	-4.69302325581	4.38275862069	0.211111111111
1440	0.72	-4.9512195122	-4.69302325581	-2.69913793103	0.211111111111
1441	0.7205	-4.9512195122	-17.6279069767	-4.11551724138	4.44444444444
1442	0.721	-0.641463414634	9.67906976744	0.133620689655	3.03333333333
1443	0.7215	-13.5707317073	-9.00465116279	-1.28275862069	3.03333333333
1444	0.722	16.5975609756	-7.56744186047	-1.28275862069	5.85555555556
1445	0.7225	-10.6975609756	-9.00465116279	1.55	0.211111111111
1446	0.723	-3.51463414634	-7.56744186047	5.79913793103	3.03333333333
1447	0.7235	-2.07804878049	-6.13023255814	4.38275862069	0.211111111111
1448	0.724	-2.07804878049	-4.69302325581	0.133620689655	-1.2
1449	0.7245	-4.9512195122	-16.1906976744	1.55	-2.61111111111
1450	0.725	-7.8243902439	-4.69302325581	1.55	3.03333333333
1451	0.7255	-6.38780487805	-4.69302325581	1.55	1.62222222222
1452	0.726	3.66829268293	-6.13023255814	1.55	1.62222222222
1453	0.7265	-6.38780487805	-4.69302325581	5.79913793103	7.26666666667
1454	0.727	-0.641463414634	-6.13023255814	-4.11551724138	-6.84444444444
1455	0.7275	-2.07804878049	-7.56744186047	-1.28275862069	-1.2
1456	0.728	-3.51463414634	-16.1906976744	4.38275862069	0.211111111111
1457	0.7285	2.23170731707	11.1162790698	4.38275862069	0.211111111111
1458	0.729	-4.9512195122	-7.56744186047	4.38275862069	3.03333333333
1459	0.7295	-16.443902439	-6.13023255814	5.79913793103	0.211111111111
1460	0.73	16.5975609756	-4.69302325581	7.21551724138	8.67777777778
1461	0.7305	-2.07804878049	-6.13023255814	7.21551724138	-2.61111111111
1462	0.731	-2.07804878049	-4.69302325581	5.79913793103	21.3777777778
1463	0.7315	-3.51463414634	-6.13023255814	7.21551724138	4.44444444444
1464	0.732	-2.07804878049	-16.1906976744	5.79913793103	7.26666666667
1465	0.7325	0.79512195122	11.1162790698	4.38275862069	5.85555555556
1466	0.733	-3.51463414634	-4.69302325581	8.63189655172	7.26666666667
1467	0.7335	-7.8243902439	-1.81860465116	5.79913793103	12.9111111111
1468	0.734	-3.51463414634	-3.25581395349	7.21551724138	4.44444444444
1469	0.7345	-0.641463414634	-4.69302325581	8.63189655172	27.0222222222
1470	0.735	-3.51463414634	-4.69302325581	4.38275862069	10.0888888889
1471	0.7355	-0.641463414634	-4.69302325581	4.38275862069	24.2
1472	0.736	0.79512195122	-9.00465116279	2.96637931034	27.0222222222
1473	0.7365	-3.51463414634	-1.81860465116	2.96637931034	31.2555555556
1474	0.737	2.23170731707	-6.13023255814	-1.28275862069	31.2555555556
1475	0.7375	-10.6975609756	-3.25581395349	-2.69913793103	21.3777777778
1476	0.738	-0.641463414634	-6.13023255814	-4.11551724138	24.2
1477	0.7385	-0.641463414634	-1.81860465116	-14.0301724138	32.6666666667
1478	0.739	0.79512195122	-3.25581395349	-12.6137931034	28.4333333333
1479	0.7395	-0.641463414634	-4.69302325581	-1.28275862069	34.0777777778
1480	0.74	3.66829268293	5.36744186047	-4.11551724138	35.4888888889
1481	0.7405	2.23170731707	-7.56744186047	-6.94827586207	35.4888888889
1482	0.741	-7.8243902439	-3.25581395349	-9.78103448276	29.8444444444
1483	0.7415	16.5975609756	-6.13023255814	-9.78103448276	21.3777777778
1484	0.742	-0.641463414634	-6.13023255814	-8.36465517241	41.1333333333
1485	0.7425	0.79512195122	-6.13023255814	-2.69913793103	31.2555555556
1486	0.743	0.79512195122	-4.69302325581	-6.94827586207	35.4888888889
1487	0.7435	-0.641463414634	-1.81860465116	-5.53189655172	36.9
1488	0.744	-2.07804878049	-16.1906976744	-4.11551724138	35.4888888889
1489	0.7445	5.10487804878	-4.69302325581	-2.69913793103	31.2555555556
1490	0.745	-12.1341463415	-6.13023255814	-2.69913793103	34.0777777778
1491	0.7455	-3.51463414634	-6.13023255814	-1.28275862069	21.3777777778
1492	0.746	-0.641463414634	-7.56744186047	-2.69913793103	27.0222222222
1493	0.7465	0.79512195122	-9.00465116279	-14.0301724138	31.2555555556
1494	0.747	0.79512195122	-10.4418604651	-1.28275862069	35.4888888889
1495	0.7475	2.23170731707	-19.0651162791	-4.11551724138	38.3111111111
1496	0.748	0.79512195122	-1.81860465116	-5.53189655172	42.5444444444
1497	0.7485	9.41463414634	-11.8790697674	-5.53189655172	42.5444444444
1498	0.749	18.0341463415	-10.4418604651	-6.94827586207	45.3666666667
1499	0.7495	-9.26097560976	-10.4418604651	-1.28275862069	42.5444444444
1500	0.75	0.79512195122	-10.4418604651	-2.69913793103	35.4888888889
1501	0.7505	0.79512195122	-10.4418604651	-16.8629310345	39.7222222222
1502	0.751	-0.641463414634	-14.7534883721	8.63189655172	41.1333333333
1503	0.7515	0.79512195122	-21.9395348837	-4.11551724138	38.3111111111
1504	0.752	-0.641463414634	3.93023255814	-11.1974137931	42.5444444444
1505	0.7525	5.10487804878	-11.8790697674	-8.36465517241	41.1333333333
1506	0.753	-9.26097560976	-10.4418604651	-12.6137931034	39.7222222222
1507	0.7535	18.0341463415	-14.7534883721	-9.78103448276	34.0777777778
1508	0.754	0.79512195122	-16.1906976744	-12.6137931034	49.6
1509	0.7545	3.66829268293	-11.8790697674	-1.28275862069	38.3111111111
1510	0.755	3.66829268293	-11.8790697674	-15.4465517241	38.3111111111
1511	0.7555	2.23170731707	-19.0651162791	-11.1974137931	41.1333333333
1512	0.756	5.10487804878	-6.13023255814	-9.78103448276	35.4888888889
1513	0.7565	5.10487804878	-13.3162790698	-11.1974137931	27.0222222222
1514	0.757	-2.07804878049	-10.4418604651	-11.1974137931	19.9666666667
1515	0.7575	2.23170731707	-11.8790697674	-6.94827586207	25.6111111111
1516	0.758	3.66829268293	-11.8790697674	-11.1974137931	15.7333333333
1517	0.7585	2.23170731707	-10.4418604651	-19.6956896552	27.0222222222
1518	0.759	3.66829268293	-14.7534883721	5.79913793103	28.4333333333
1519	0.7595	5.10487804878	-14.7534883721	-6.94827586207	29.8444444444
1520	0.76	7.97804878049	-9.00465116279	-6.94827586207	31.2555555556
1521	0.7605	-4.9512195122	-13.3162790698	-5.53189655172	34.0777777778
1522	0.761	-2.07804878049	-13.3162790698	-6.94827586207	25.6111111111
1523	0.7615	2.23170731707	-13.3162790698	-5.53189655172	34.0777777778
1524	0.762	7.97804878049	-13.3162790698	-12.6137931034	35.4888888889
1525	0.7625	9.41463414634	-11.8790697674	4.38275862069	38.3111111111
1526	0.763	9.41463414634	-9.00465116279	0.133620689655	38.3111111111
1527	0.7635	10.8512195122	-1.81860465116	0.133620689655	35.4888888889
1528	0.764	7.97804878049	-16.1906976744	1.55	41.1333333333
1529	0.7645	12.287804878	-16.1906976744	1.55	43.9555555556
1530	0.765	-6.38780487805	-16.1906976744	4.38275862069	49.6
1531	0.7655	9.41463414634	-14.7534883721	1.55	42.5444444444
1532	0.766	10.8512195122	-14.7534883721	-2.69913793103	45.3666666667
1533	0.7665	10.8512195122	-13.3162790698	19.9629310345	45.3666666667
1534	0.767	9.41463414634	-17.6279069767	1.55	39.7222222222
1535	0.7675	9.41463414634	-13.3162790698	19.9629310345	38.3111111111
1536	0.768	9.41463414634	-23.376744186	7.21551724138	38.3111111111
1537	0.7685	5.10487804878	-17.6279069767	12.8810344828	32.6666666667
1538	0.769	-2.07804878049	-16.1906976744	12.8810344828	27.0222222222
1539	0.7695	9.41463414634	-17.6279069767	12.8810344828	39.7222222222
1540	0.77	5.10487804878	-14.7534883721	15.7137931034	18.5555555556
1541	0.7705	5.10487804878	-14.7534883721	31.2939655172	12.9111111111
1542	0.771	5.10487804878	-14.7534883721	11.4646551724	10.0888888889
1543	0.7715	7.97804878049	-16.1906976744	21.3793103448	5.85555555556
1544	0.772	2.23170731707	-13.3162790698	21.3793103448	-2.61111111111
1545	0.7725	7.97804878049	-16.1906976744	19.9629310345	-12.4888888889
1546	0.773	-10.6975609756	-11.8790697674	19.9629310345	-23.7777777778
1547	0.7735	2.23170731707	-11.8790697674	14.2974137931	-18.1333333333
1548	0.774	-2.07804878049	-10.4418604651	21.3793103448	-43.5333333333
1549	0.7745	0.79512195122	-11.8790697674	34.1267241379	-52.0
1550	0.775	-0.641463414634	-10.4418604651	12.8810344828	-64.7
1551	0.7755	-0.641463414634	-9.00465116279	17.1301724138	-68.9333333333
1552	0.776	-4.9512195122	-21.9395348837	18.5465517241	-71.7555555556
1553	0.7765	-9.26097560976	-13.3162790698	11.4646551724	-74.5777777778
1554	0.777	-4.9512195122	-13.3162790698	15.7137931034	-78.8111111111
1555	0.7775	2.23170731707	-9.00465116279	15.7137931034	-90.1
1556	0.778	-3.51463414634	-10.4418604651	12.8810344828	-94.3333333333
1557	0.7785	-2.07804878049	-10.4418604651	22.7956896552	-104.211111111
1558	0.779	-0.641463414634	-11.8790697674	17.1301724138	-109.855555556
1559	0.7795	-4.9512195122	6.80465116279	17.1301724138	-121.144444444
1560	0.78	-7.8243902439	-13.3162790698	14.2974137931	-129.611111111
1561	0.7805	0.79512195122	-6.13023255814	18.5465517241	-139.488888889
1562	0.781	-16.443902439	-7.56744186047	18.5465517241	-139.488888889
1563	0.7815	-16.443902439	-6.13023255814	15.7137931034	-155.011111111
1564	0.782	-4.9512195122	-7.56744186047	4.38275862069	-145.133333333
1565	0.7825	-4.9512195122	-6.13023255814	22.7956896552	-140.9
1566	0.783	-4.9512195122	-4.69302325581	11.4646551724	-132.433333333
1567	0.7835	-4.9512195122	-19.0651162791	15.7137931034	-125.377777778
1568	0.784	-4.9512195122	9.67906976744	8.63189655172	-118.322222222
1569	0.7845	-12.1341463415	-6.13023255814	11.4646551724	-114.088888889
1570	0.785	7.97804878049	-6.13023255814	7.21551724138	-108.444444444
1571	0.7855	-4.9512195122	-6.13023255814	7.21551724138	-99.9777777778
1572	0.786	-4.9512195122	-7.56744186047	0.133620689655	-91.5111111111
1573	0.7865	-7.8243902439	-7.56744186047	1.55	-98.5666666667
1574	0.787	-3.51463414634	-14.7534883721	-1.28275862069	-90.1
1575	0.7875	-2.07804878049	11.1162790698	-5.53189655172	-80.2222222222
1576	0.788	-4.9512195122	-11.8790697674	-4.11551724138	-75.9888888889
1577	0.7885	-7.8243902439	-3.25581395349	-5.53189655172	-71.7555555556
1578	0.789	-9.26097560976	-1.81860465116	-8.36465517241	-67.5222222222
1579	0.7895	-3.51463414634	-6.13023255814	-8.36465517241	-67.5222222222
1580	0.79	-4.9512195122	-4.69302325581	-16.8629310345	-53.4111111111
1581	0.7905	-3.51463414634	-9.00465116279	-5.53189655172	-44.9444444444
1582	0.791	-2.07804878049	-10.4418604651	-2.69913793103	-42.1222222222
1583	0.7915	-2.07804878049	2.49302325581	-1.28275862069	-37.8888888889
1584	0.792	-2.07804878049	-10.4418604651	1.55	-33.6555555556
1585	0.7925	-4.9512195122	-4.69302325581	0.133620689655	-47.7666666667
1586	0.793	-6.38780487805	-4.69302325581	-4.11551724138	-29.4222222222
1587	0.7935	-3.51463414634	-4.69302325581	-6.94827586207	-37.8888888889
1588	0.794	-3.51463414634	-3.25581395349	-4.11551724138	-23.7777777778
1589	0.7945	-2.07804878049	1.05581395349	-2.69913793103	-26.6
1590	0.795	-3.51463414634	6.80465116279	-2.69913793103	-23.7777777778
1591	0.7955	-0.641463414634	-13.3162790698	0.133620689655	-25.1888888889
1592	0.796	0.79512195122	-4.69302325581	2.96637931034	-28.0111111111
1593	0.7965	-10.6975609756	-6.13023255814	5.79913793103	-36.4777777778
1594	0.797	-0.641463414634	-6.13023255814	2.96637931034	-11.0777777778
1595	0.7975	-2.07804878049	-4.69302325581	4.38275862069	-22.3666666667
1596	0.798	-2.07804878049	-4.69302325581	14.2974137931	-19.5444444444
1597	0.7985	-3.51463414634	-7.56744186047	10.0482758621	-16.7222222222
1598	0.799	-0.641463414634	6.80465116279	5.79913793103	-11.0777777778
1599	0.7995	-4.9512195122	-6.13023255814	4.38275862069	-6.84444444444
1600	0.8	-16.443902439	-6.13023255814	4.38275862069	-9.66666666667
1601	0.8005	12.287804878	-4.69302325581	0.133620689655	-12.4888888889
1602	0.801	-3.51463414634	-1.81860465116	-8.36465517241	-20.9555555556
1603	0.8015	-4.9512195122	-6.13023255814	8.63189655172	-12.4888888889
1604	0.802	-0.641463414634	-11.8790697674	-12.6137931034	-11.0777777778
1605	0.8025	-3.51463414634	-7.56744186047	-6.94827586207	-9.66666666667
1606	0.803	-2.07804878049	9.67906976744	-9.78103448276	-4.02222222222
1607	0.8035	-0.641463414634	-9.00465116279	-11.1974137931	-2.61111111111
1608	0.804	-3.51463414634	-9.00465116279	-9.78103448276	-8.25555555556
1609	0.8045	3.66829268293	-9.00465116279	-12.6137931034	-6.84444444444
1610	0.805	-2.07804878049	-9.00465116279	-22.5284482759	-6.84444444444
1611	0.8055	-3.51463414634	-6.13023255814	-16.8629310345	-5.43333333333
1612	0.806	-0.641463414634	-4.69302325581	-18.2793103448	0.211111111111
1613	0.8065	2.23170731707	-20.5023255814	-15.4465517241	1.62222222222
1614	0.807	5.10487804878	-10.4418604651	-14.0301724138	-1.2
1615	0.8075	-13.5707317073	-9.00465116279	-14.0301724138	-4.02222222222
1616	0.808	13.7243902439	-9.00465116279	-9.78103448276	-2.61111111111
1617	0.8085	-0.641463414634	-9.00465116279	-2.69913793103	-6.84444444444
1618	0.809	-0.641463414634	-10.4418604651	2.96637931034	-9.66666666667
1619	0.8095	-2.07804878049	-11.8790697674	-22.5284482759	-11.0777777778
1620	0.81	-2.07804878049	-6.13023255814	-14.0301724138	-12.4888888889
1621	0.8105	0.79512195122	-20.5023255814	-11.1974137931	-9.66666666667
1622	0.811	-2.07804878049	-11.8790697674	-8.36465517241	-9.66666666667
1623	0.8115	-3.51463414634	-9.00465116279	-14.0301724138	-9.66666666667
1624	0.812	5.10487804878	-10.4418604651	-11.1974137931	-12.4888888889
1625	0.8125	-0.641463414634	-10.4418604651	-11.1974137931	0.211111111111
1626	0.813	-0.641463414634	-9.00465116279	-6.94827586207	10.0888888889
1627	0.8135	-3.51463414634	-11.8790697674	-11.1974137931	5.85555555556
1628	0.814	-2.07804878049	5.36744186047	-1.28275862069	8.67777777778
1629	0.8145	-0.641463414634	-17.6279069767	4.38275862069	10.0888888889
1630	0.815	-3.51463414634	-10.4418604651	2.96637931034	17.1444444444
1631	0.8155	-3.51463414634	-1.81860465116	0.133620689655	19.9666666667
1632	0.816	-2.07804878049	-4.69302325581	-1.28275862069	8.67777777778
1633	0.8165	-4.9512195122	-10.4418604651	-4.11551724138	21.3777777778
1634	0.817	-4.9512195122	-4.69302325581	5.79913793103	11.5
1635	0.8175	-4.9512195122	-4.69302325581	-8.36465517241	15.7333333333
1636	0.818	-3.51463414634	8.24186046512	-2.69913793103	12.9111111111
1637	0.8185	-2.07804878049	-16.1906976744	-4.11551724138	7.26666666667
1638	0.819	-4.9512195122	-9.00465116279	-4.11551724138	4.44444444444
1639	0.8195	9.41463414634	-9.00465116279	-5.53189655172	-5.43333333333
1640	0.82	-9.26097560976	-9.00465116279	-4.11551724138	-1.2
1641	0.8205	-3.51463414634	-9.00465116279	-12.6137931034	-5.43333333333
1642	0.821	-3.51463414634	-7.56744186047	-2.69913793103	-2.61111111111
1643	0.8215	-3.51463414634	-21.9395348837	-2.69913793103	0.211111111111
1644	0.822	-3.51463414634	8.24186046512	2.96637931034	-1.2
1645	0.8225	-3.51463414634	-11.8790697674	0.133620689655	-5.43333333333
1646	0.823	2.23170731707	-3.25581395349	0.133620689655	-16.7222222222
1647	0.8235	-4.9512195122	-7.56744186047	-1.28275862069	5.85555555556
1648	0.824	-3.51463414634	-6.13023255814	2.96637931034	-12.4888888889
1649	0.8245	-2.07804878049	-4.69302325581	-2.69913793103	3.03333333333
1650	0.825	-3.51463414634	-6.13023255814	7.21551724138	7.26666666667
1651	0.8255	-4.9512195122	-16.1906976744	-6.94827586207	5.85555555556
1652	0.826	-3.51463414634	-11.8790697674	0.133620689655	8.67777777778
1653	0.8265	-2.07804878049	-4.69302325581	-1.28275862069	12.9111111111
1654	0.827	-12.1341463415	-6.13023255814	1.55	3.03333333333
1655	0.8275	-4.9512195122	-4.69302325581	-1.28275862069	7.26666666667
1656	0.828	-4.9512195122	-6.13023255814	-2.69913793103	21.3777777778
1657	0.8285	-2.07804878049	-6.13023255814	-8.36465517241	17.1444444444
1658	0.829	-6.38780487805	-3.25581395349	-2.69913793103	25.6111111111
1659	0.8295	-3.51463414634	3.93023255814	0.133620689655	24.2
1660	0.83	-4.9512195122	-13.3162790698	-1.28275862069	24.2
1661	0.8305	0.79512195122	-4.69302325581	0.133620689655	24.2
1662	0.831	-10.6975609756	-7.56744186047	1.55	29.8444444444
1663	0.8315	-4.9512195122	-4.69302325581	2.96637931034	21.3777777778
1664	0.832	-4.9512195122	-7.56744186047	11.4646551724	15.7333333333
1665	0.8325	-3.51463414634	-6.13023255814	-1.28275862069	10.0888888889
1666	0.833	-0.641463414634	-6.13023255814	24.2120689655	7.26666666667
1667	0.8335	-3.51463414634	-14.7534883721	7.21551724138	8.67777777778
1668	0.834	-3.51463414634	6.80465116279	1.55	8.67777777778
1669	0.8345	-6.38780487805	-6.13023255814	1.55	8.67777777778
1670	0.835	-3.51463414634	-9.00465116279	4.38275862069	5.85555555556
1671	0.8355	-2.07804878049	-6.13023255814	1.55	17.1444444444
1672	0.836	-3.51463414634	-7.56744186047	19.9629310345	8.67777777778
1673	0.8365	0.79512195122	-9.00465116279	-11.1974137931	14.3222222222
1674	0.837	-2.07804878049	-6.13023255814	0.133620689655	8.67777777778
1675	0.8375	-4.9512195122	1.05581395349	0.133620689655	10.0888888889
1676	0.838	-4.9512195122	-16.1906976744	-2.69913793103	8.67777777778
1677	0.8385	-7.8243902439	-6.13023255814	1.55	8.67777777778
1678	0.839	-10.6975609756	-7.56744186047	-4.11551724138	8.67777777778
1679	0.8395	-4.9512195122	-7.56744186047	-1.28275862069	5.85555555556
1680	0.84	-4.9512195122	-7.56744186047	-2.69913793103	19.9666666667
1681	0.8405	-4.9512195122	-6.13023255814	-5.53189655172	10.0888888889
1682	0.841	-3.51463414634	-16.1906976744	-2.69913793103	12.9111111111
1683	0.8415	-3.51463414634	6.80465116279	-2.69913793103	15.7333333333
1684	0.842	-3.51463414634	-11.8790697674	-2.69913793103	15.7333333333
1685	0.8425	-2.07804878049	-6.13023255814	-1.28275862069	17.1444444444
1686	0.843	18.0341463415	-4.69302325581	-4.11551724138	14.3222222222
1687	0.8435	0.79512195122	-4.69302325581	-6.94827586207	7.26666666667
1688	0.844	-3.51463414634	-7.56744186047	-2.69913793103	17.1444444444
1689	0.8445	-3.51463414634	-3.25581395349	-14.0301724138	18.5555555556
1690	0.845	-4.9512195122	-3.25581395349	-4.11551724138	28.4333333333
1691	0.8455	-2.07804878049	9.67906976744	-6.94827586207	27.0222222222
1692	0.846	-4.9512195122	-14.7534883721	-6.94827586207	29.8444444444
1693	0.8465	0.79512195122	-1.81860465116	-2.69913793103	25.6111111111
1694	0.847	-10.6975609756	-3.25581395349	-4.11551724138	24.2
1695	0.8475	0.79512195122	-3.25581395349	-5.53189655172	27.0222222222
1696	0.848	-3.51463414634	-4.69302325581	-5.53189655172	19.9666666667
1697	0.8485	-3.51463414634	-4.69302325581	-12.6137931034	34.0777777778
1698	0.849	-3.51463414634	-9.00465116279	-4.11551724138	32.6666666667
1699	0.8495	-4.9512195122	2.49302325581	-2.69913793103	32.6666666667
1700	0.85	0.79512195122	-9.00465116279	-5.53189655172	34.0777777778
1701	0.8505	-10.6975609756	-1.81860465116	-5.53189655172	34.0777777778
1702	0.851	20.9073170732	-1.81860465116	-5.53189655172	42.5444444444
1703	0.8515	0.79512195122	-3.25581395349	-2.69913793103	31.2555555556
1704	0.852	-2.07804878049	-1.81860465116	-2.69913793103	56.6555555556
1705	0.8525	-3.51463414634	-1.81860465116	2.96637931034	32.6666666667
1706	0.853	-4.9512195122	-4.69302325581	-2.69913793103	35.4888888889
1707	0.8535	-2.07804878049	3.93023255814	-4.11551724138	29.8444444444
1708	0.854	-3.51463414634	-6.13023255814	-5.53189655172	27.0222222222
1709	0.8545	12.287804878	-4.69302325581	-5.53189655172	25.6111111111
1710	0.855	-9.26097560976	-3.25581395349	-5.53189655172	8.67777777778
1711	0.8555	-2.07804878049	-3.25581395349	-12.6137931034	35.4888888889
1712	0.856	-2.07804878049	-1.81860465116	-11.1974137931	18.5555555556
1713	0.8565	-3.51463414634	-0.381395348837	-22.5284482759	18.5555555556
1714	0.857	-6.38780487805	-0.381395348837	-2.69913793103	17.1444444444
1715	0.8575	-7.8243902439	-1.81860465116	-21.1120689655	12.9111111111
1716	0.858	-4.9512195122	-6.13023255814	-21.1120689655	12.9111111111
1717	0.8585	-12.1341463415	-1.81860465116	-21.1120689655	14.3222222222
1718	0.859	-0.641463414634	-3.25581395349	-18.2793103448	8.67777777778
1719	0.8595	-6.38780487805	-6.13023255814	-12.6137931034	12.9111111111
1720	0.86	-6.38780487805	-3.25581395349	-2.69913793103	18.5555555556
1721	0.8605	-7.8243902439	-4.69302325581	-14.0301724138	19.9666666667
1722	0.861	-7.8243902439	-4.69302325581	-6.94827586207	21.3777777778
1723	0.8615	-4.9512195122	11.1162790698	-1.28275862069	21.3777777778
1724	0.862	-7.8243902439	-6.13023255814	1.55	18.5555555556
1725	0.8625	-6.38780487805	-6.13023255814	2.96637931034	19.9666666667
1726	0.863	10.8512195122	-7.56744186047	4.38275862069	21.3777777778
1727	0.8635	-4.9512195122	-6.13023255814	-5.53189655172	15.7333333333
1728	0.864	-3.51463414634	-6.13023255814	8.63189655172	21.3777777778
1729	0.8645	-4.9512195122	-10.4418604651	4.38275862069	19.9666666667
1730	0.865	-6.38780487805	-6.13023255814	1.55	17.1444444444
1731	0.8655	-2.07804878049	-17.6279069767	0.133620689655	17.1444444444
1732	0.866	2.23170731707	-9.00465116279	-1.28275862069	21.3777777778
1733	0.8665	-13.5707317073	-7.56744186047	1.55	22.7888888889
1734	0.867	-10.6975609756	-6.13023255814	1.55	11.5
1735	0.8675	0.79512195122	-9.00465116279	4.38275862069	25.6111111111
1736	0.868	2.23170731707	-3.25581395349	18.5465517241	27.0222222222
1737	0.8685	0.79512195122	-7.56744186047	-2.69913793103	27.0222222222
1738	0.869	3.66829268293	-6.13023255814	4.38275862069	31.2555555556
1739	0.8695	5.10487804878	-10.4418604651	7.21551724138	31.2555555556
1740	0.87	3.66829268293	-14.7534883721	7.21551724138	29.8444444444
1741	0.8705	5.10487804878	-6.13023255814	7.21551724138	25.6111111111
1742	0.871	10.8512195122	-9.00465116279	7.21551724138	27.0222222222
1743	0.8715	-0.641463414634	-6.13023255814	8.63189655172	31.2555555556
1744	0.872	2.23170731707	-6.13023255814	5.79913793103	32.6666666667
1745	0.8725	2.23170731707	-9.00465116279	0.133620689655	29.8444444444
1746	0.873	2.23170731707	-3.25581395349	1.55	28.4333333333
1747	0.8735	5.10487804878	-11.8790697674	0.133620689655	28.4333333333
1748	0.874	-0.641463414634	8.24186046512	2.96637931034	28.4333333333
1749	0.8745	5.10487804878	-6.13023255814	2.96637931034	27.0222222222
1750	0.875	-6.38780487805	-7.56744186047	1.55	25.6111111111
1751	0.8755	3.66829268293	-6.13023255814	0.133620689655	15.7333333333
1752	0.876	9.41463414634	-4.69302325581	-5.53189655172	22.7888888889
1753	0.8765	-3.51463414634	-3.25581395349	18.5465517241	18.5555555556
1754	0.877	-4.9512195122	-4.69302325581	-4.11551724138	15.7333333333
1755	0.8775	-3.51463414634	8.24186046512	1.55	10.0888888889
1756	0.878	-2.07804878049	-10.4418604651	1.55	12.9111111111
1757	0.8785	-7.8243902439	-3.25581395349	1.55	8.67777777778
1758	0.879	-6.38780487805	-3.25581395349	2.96637931034	4.44444444444
1759	0.8795	-2.07804878049	-0.381395348837	1.55	-11.0777777778
1760	0.88	-3.51463414634	-3.25581395349	-1.28275862069	5.85555555556
1761	0.8805	-2.07804878049	-9.00465116279	19.9629310345	-11.0777777778
1762	0.881	-0.641463414634	-4.69302325581	-8.36465517241	-16.7222222222
1763	0.8815	-3.51463414634	-4.69302325581	-1.28275862069	-12.4888888889
1764	0.882	-10.6975609756	-6.13023255814	-6.94827586207	-15.3111111111
1765	0.8825	10.8512195122	-3.25581395349	-12.6137931034	-16.7222222222
1766	0.883	-7.8243902439	-3.25581395349	-15.4465517241	1.62222222222
1767	0.8835	-3.51463414634	-4.69302325581	-18.2793103448	-9.66666666667
1768	0.884	-3.51463414634	-4.69302325581	-35.275862069	-1.2
1769	0.8845	-2.07804878049	-0.381395348837	-38.1086206897	0.211111111111
1770	0.885	-0.641463414634	-7.56744186047	-40.9413793103	1.62222222222
