	Time	Channel 1	Channel 2	Channel 3	Channel 4
0	0.0	-6.58709677419	4.14478330658	142.225147929	-3.01111111111
1	0.0005	-8.0	4.14478330658	92.9455621302	-1.56666666667
2	0.001	-6.58709677419	5.5507223114	35.2180473373	-11.6777777778
3	0.0015	-10.8258064516	-2.8849117175	0.0183431952663	-3.01111111111
4	0.002	1.89032258065	1.33290529695	-25.325443787	-0.122222222222
5	0.0025	-15.064516129	1.33290529695	-30.9573964497	-3.01111111111
6	0.003	-5.17419354839	4.14478330658	-23.9174556213	-0.122222222222
7	0.0035	-8.0	4.14478330658	-25.325443787	-11.6777777778
8	0.004	-3.76129032258	18.2041733547	-2.79763313609	-1.56666666667
9	0.0045	-5.17419354839	8.36260032103	15.5062130178	-3.01111111111
10	0.005	-3.76129032258	22.4219903692	35.2180473373	-1.56666666667
11	0.0055	1.89032258065	-0.0730337078652	40.85	-0.122222222222
12	0.006	-5.17419354839	-2.8849117175	47.8899408284	-1.56666666667
13	0.0065	-5.17419354839	1.33290529695	70.4177514793	-1.56666666667
14	0.007	-6.58709677419	13.9863563403	81.6816568047	-0.122222222222
15	0.0075	-8.0	-4.29085072231	84.4976331361	-3.01111111111
16	0.008	-15.064516129	2.73884430177	60.5618343195	-1.56666666667
17	0.0085	4.71612903226	5.5507223114	18.3221893491	-0.122222222222
18	0.009	-15.064516129	8.36260032103	-1.38964497041	-11.6777777778
19	0.0095	-10.8258064516	8.36260032103	-15.4695266272	-3.01111111111
20	0.01	-8.0	11.1744783307	29.5860946746	-1.56666666667
21	0.0105	-8.0	11.1744783307	18.3221893491	-3.01111111111
22	0.011	-8.0	6.95666131621	36.626035503	-1.56666666667
23	0.0115	-9.41290322581	1.33290529695	36.626035503	-1.56666666667
24	0.012	-5.17419354839	-0.0730337078652	25.3621301775	-0.122222222222
25	0.0125	-22.1290322581	4.14478330658	7.05828402367	-4.45555555556
26	0.013	13.1935483871	5.5507223114	-5.61360946746	1.32222222222
27	0.0135	-16.4774193548	6.95666131621	-14.0615384615	-3.01111111111
28	0.014	-8.0	8.36260032103	-21.1014792899	9.98888888889
29	0.0145	-8.0	11.1744783307	-12.6535502959	-4.45555555556
30	0.015	-5.17419354839	11.1744783307	-1.38964497041	-3.01111111111
31	0.0155	-5.17419354839	6.95666131621	32.4020710059	1.32222222222
32	0.016	-2.34838709677	25.2338683788	32.4020710059	-3.01111111111
33	0.0165	-5.17419354839	-4.29085072231	40.85	-3.01111111111
34	0.017	-8.0	2.73884430177	45.073964497	-3.01111111111
35	0.0175	-9.41290322581	4.14478330658	52.1139053254	-3.01111111111
36	0.018	-13.6516129032	2.73884430177	57.7458579882	-3.01111111111
37	0.0185	-9.41290322581	2.73884430177	63.3778106509	8.54444444444
38	0.019	-9.41290322581	2.73884430177	67.6017751479	-8.78888888889
39	0.0195	-6.58709677419	-1.47897271268	63.3778106509	-4.45555555556
40	0.02	-6.58709677419	5.5507223114	63.3778106509	-3.01111111111
41	0.0205	-6.58709677419	-2.8849117175	61.9698224852	-1.56666666667
42	0.021	-6.58709677419	18.2041733547	49.2979289941	-3.01111111111
43	0.0215	-8.0	6.95666131621	39.4420118343	-0.122222222222
44	0.022	-2.34838709677	15.3922953451	40.85	-3.01111111111
45	0.0225	-9.41290322581	21.0160513644	50.7059171598	-0.122222222222
46	0.023	-12.2387096774	23.827929374	54.9298816568	-10.2333333333
47	0.0235	-12.2387096774	19.6101123596	53.5218934911	-0.122222222222
48	0.024	-10.8258064516	19.6101123596	71.825739645	-3.01111111111
49	0.0245	-12.2387096774	21.0160513644	42.2579881657	-0.122222222222
50	0.025	-10.8258064516	16.7982343499	45.073964497	-3.01111111111
51	0.0255	-8.0	9.76853932584	36.626035503	-3.01111111111
52	0.026	-10.8258064516	5.5507223114	35.2180473373	-1.56666666667
53	0.0265	-8.0	11.1744783307	39.4420118343	-3.01111111111
54	0.027	-13.6516129032	-7.10272873194	43.6659763314	-1.56666666667
55	0.0275	1.89032258065	1.33290529695	49.2979289941	-3.01111111111
56	0.028	8.95483870968	1.33290529695	54.9298816568	-5.9
57	0.0285	8.95483870968	-1.47897271268	59.1538461538	-5.9
58	0.029	1.89032258065	4.14478330658	74.6417159763	4.21111111111
59	0.0295	0.477419354839	6.95666131621	78.8656804734	-3.01111111111
60	0.03	-5.17419354839	9.76853932584	71.825739645	-0.122222222222
61	0.0305	-5.17419354839	11.1744783307	63.3778106509	-1.56666666667
62	0.031	-9.41290322581	16.7982343499	66.1937869822	-1.56666666667
63	0.0315	-10.8258064516	21.0160513644	69.0097633136	-1.56666666667
64	0.032	-8.0	9.76853932584	74.6417159763	-4.45555555556
65	0.0325	-12.2387096774	9.76853932584	81.6816568047	-8.78888888889
66	0.033	-10.8258064516	2.73884430177	78.8656804734	1.32222222222
67	0.0335	-13.6516129032	1.33290529695	77.4576923077	-10.2333333333
68	0.034	-20.7161290323	1.33290529695	69.0097633136	-0.122222222222
69	0.0345	-26.3677419355	-0.0730337078652	83.0896449704	-3.01111111111
70	0.035	-27.7806451613	-9.91460674157	104.209467456	-3.01111111111
71	0.0355	-23.5419354839	-12.7264847512	122.513313609	-5.9
72	0.036	-15.064516129	-2.8849117175	128.145266272	-3.01111111111
73	0.0365	-10.8258064516	-2.8849117175	118.289349112	-3.01111111111
74	0.037	-8.0	-1.47897271268	109.841420118	-0.122222222222
75	0.0375	0.477419354839	4.14478330658	104.209467456	-8.78888888889
76	0.038	3.30322580645	8.36260032103	115.473372781	-7.34444444444
77	0.0385	0.477419354839	19.6101123596	128.145266272	17.2111111111
78	0.039	0.477419354839	22.4219903692	138.001183432	-0.122222222222
79	0.0395	4.71612903226	15.3922953451	153.489053254	-0.122222222222
80	0.04	4.71612903226	6.95666131621	142.225147929	-1.56666666667
81	0.0405	10.3677419355	-0.0730337078652	133.777218935	-1.56666666667
82	0.041	13.1935483871	-7.10272873194	119.697337278	-0.122222222222
83	0.0415	-5.17419354839	-8.50866773676	105.617455621	-1.56666666667
84	0.042	3.30322580645	-15.5383627608	94.3535502959	18.6555555556
85	0.0425	0.477419354839	-15.5383627608	81.6816568047	-7.34444444444
86	0.043	-2.34838709677	-16.9443017657	40.85	21.5444444444
87	0.0435	-0.935483870968	-11.3205457464	23.9541420118	-0.122222222222
88	0.044	-3.76129032258	-1.47897271268	-9.8375739645	2.76666666667
89	0.0445	-6.58709677419	15.3922953451	-2.79763313609	1.32222222222
90	0.045	-2.34838709677	16.7982343499	14.0982248521	4.21111111111
91	0.0455	-5.17419354839	32.2635634029	26.7701183432	5.65555555556
92	0.046	0.477419354839	33.6695024077	38.0340236686	2.76666666667
93	0.0465	-9.41290322581	32.2635634029	49.2979289941	2.76666666667
94	0.047	-13.6516129032	23.827929374	64.7857988166	-3.01111111111
95	0.0475	-0.935483870968	23.827929374	71.825739645	7.1
96	0.048	-0.935483870968	19.6101123596	83.0896449704	5.65555555556
97	0.0485	0.477419354839	16.7982343499	67.6017751479	7.1
98	0.049	1.89032258065	16.7982343499	77.4576923077	7.1
99	0.0495	-0.935483870968	9.76853932584	71.825739645	4.21111111111
100	0.05	3.30322580645	29.4516853933	64.7857988166	2.76666666667
101	0.0505	3.30322580645	26.6398073836	71.825739645	5.65555555556
102	0.051	-5.17419354839	42.1051364366	77.4576923077	7.1
103	0.0515	25.9096774194	49.1348314607	81.6816568047	11.4333333333
104	0.052	8.95483870968	42.1051364366	84.4976331361	-1.56666666667
105	0.0525	4.71612903226	28.0457463884	76.049704142	-0.122222222222
106	0.053	3.30322580645	22.4219903692	54.9298816568	5.65555555556
107	0.0535	1.89032258065	25.2338683788	56.3378698225	8.54444444444
108	0.054	0.477419354839	18.2041733547	35.2180473373	8.54444444444
109	0.0545	3.30322580645	29.4516853933	28.1781065089	9.98888888889
110	0.055	-0.935483870968	23.827929374	11.2822485207	12.8777777778
111	0.0555	7.54193548387	23.827929374	-12.6535502959	12.8777777778
112	0.056	-0.935483870968	29.4516853933	-35.1813609467	-1.56666666667
113	0.0565	-2.34838709677	26.6398073836	-57.7091715976	20.1
114	0.057	3.30322580645	28.0457463884	-60.525147929	2.76666666667
115	0.0575	3.30322580645	29.4516853933	-64.749112426	22.9888888889
116	0.058	3.30322580645	32.2635634029	-42.2213017751	5.65555555556
117	0.0585	4.71612903226	33.6695024077	-43.6292899408	4.21111111111
118	0.059	3.30322580645	30.8576243981	-56.301183432	2.76666666667
119	0.0595	3.30322580645	32.2635634029	-45.0372781065	4.21111111111
120	0.06	-6.58709677419	29.4516853933	-35.1813609467	4.21111111111
121	0.0605	-8.0	29.4516853933	-29.549408284	5.65555555556
122	0.061	14.6064516129	29.4516853933	-23.9174556213	4.21111111111
123	0.0615	-2.34838709677	30.8576243981	-12.6535502959	-4.45555555556
124	0.062	0.477419354839	30.8576243981	-21.1014792899	4.21111111111
125	0.0625	3.30322580645	28.0457463884	11.2822485207	5.65555555556
126	0.063	1.89032258065	29.4516853933	-8.42958579882	5.65555555556
127	0.0635	-0.935483870968	26.6398073836	15.5062130178	4.21111111111
128	0.064	4.71612903226	43.5110754414	29.5860946746	1.32222222222
129	0.0645	0.477419354839	18.2041733547	35.2180473373	-0.122222222222
130	0.065	-3.76129032258	23.827929374	38.0340236686	2.76666666667
131	0.0655	7.54193548387	25.2338683788	39.4420118343	2.76666666667
132	0.066	4.71612903226	21.0160513644	46.4819526627	-10.2333333333
133	0.0665	-2.34838709677	21.0160513644	53.5218934911	12.8777777778
134	0.067	-0.935483870968	19.6101123596	36.626035503	-0.122222222222
135	0.0675	-0.935483870968	23.827929374	52.1139053254	1.32222222222
136	0.068	0.477419354839	21.0160513644	26.7701183432	-0.122222222222
137	0.0685	-0.935483870968	22.4219903692	46.4819526627	-0.122222222222
138	0.069	-2.34838709677	26.6398073836	50.7059171598	-0.122222222222
139	0.0695	0.477419354839	19.6101123596	49.2979289941	-0.122222222222
140	0.07	-16.4774193548	22.4219903692	50.7059171598	-0.122222222222
141	0.0705	17.4322580645	22.4219903692	59.1538461538	1.32222222222
142	0.071	-3.76129032258	22.4219903692	53.5218934911	-7.34444444444
143	0.0715	-2.34838709677	18.2041733547	45.073964497	-5.9
144	0.072	-2.34838709677	15.3922953451	53.5218934911	1.32222222222
145	0.0725	-5.17419354839	16.7982343499	43.6659763314	-0.122222222222
146	0.073	-3.76129032258	13.9863563403	40.85	-0.122222222222
147	0.0735	-2.34838709677	9.76853932584	49.2979289941	-3.01111111111
148	0.074	-5.17419354839	15.3922953451	30.9940828402	-3.01111111111
149	0.0745	-0.935483870968	4.14478330658	19.7301775148	-3.01111111111
150	0.075	14.6064516129	4.14478330658	15.5062130178	-3.01111111111
151	0.0755	-16.4774193548	5.5507223114	26.7701183432	-11.6777777778
152	0.076	-5.17419354839	4.14478330658	36.626035503	14.3222222222
153	0.0765	-6.58709677419	4.14478330658	43.6659763314	-10.2333333333
154	0.077	-6.58709677419	4.14478330658	52.1139053254	-3.01111111111
155	0.0775	-5.17419354839	5.5507223114	54.9298816568	-1.56666666667
156	0.078	-6.58709677419	-9.91460674157	50.7059171598	-1.56666666667
157	0.0785	-6.58709677419	22.4219903692	46.4819526627	-0.122222222222
158	0.079	-6.58709677419	1.33290529695	42.2579881657	-1.56666666667
159	0.0795	-5.17419354839	6.95666131621	42.2579881657	-0.122222222222
160	0.08	-10.8258064516	5.5507223114	46.4819526627	-16.0111111111
161	0.0805	-6.58709677419	6.95666131621	52.1139053254	14.3222222222
162	0.081	-6.58709677419	4.14478330658	70.4177514793	-10.2333333333
163	0.0815	-6.58709677419	6.95666131621	77.4576923077	-3.01111111111
164	0.082	-5.17419354839	5.5507223114	111.249408284	-1.56666666667
165	0.0825	-5.17419354839	-0.0730337078652	143.633136095	-3.01111111111
166	0.083	-5.17419354839	19.6101123596	166.160946746	-3.01111111111
167	0.0835	-9.41290322581	-2.8849117175	188.688757396	-5.9
168	0.084	-3.76129032258	5.5507223114	194.320710059	-1.56666666667
169	0.0845	-16.4774193548	6.95666131621	188.688757396	-5.9
170	0.085	-6.58709677419	5.5507223114	181.648816568	-1.56666666667
171	0.0855	-3.76129032258	8.36260032103	146.449112426	-8.78888888889
172	0.086	-5.17419354839	5.5507223114	154.89704142	-4.45555555556
173	0.0865	-6.58709677419	6.95666131621	114.065384615	-5.9
174	0.087	-9.41290322581	2.73884430177	87.3136094675	-4.45555555556
175	0.0875	-8.0	6.95666131621	59.1538461538	-5.9
176	0.088	-6.58709677419	-0.0730337078652	45.073964497	-3.01111111111
177	0.0885	-17.8903225806	2.73884430177	42.2579881657	-5.9
178	0.089	11.7806451613	2.73884430177	35.2180473373	-1.56666666667
179	0.0895	-15.064516129	2.73884430177	19.7301775148	-0.122222222222
180	0.09	-9.41290322581	5.5507223114	8.46627218935	-5.9
181	0.0905	-10.8258064516	2.73884430177	-1.38964497041	-1.56666666667
182	0.091	-8.0	1.33290529695	26.7701183432	-4.45555555556
183	0.0915	-10.8258064516	1.33290529695	59.1538461538	-4.45555555556
184	0.092	-6.58709677419	9.76853932584	88.7215976331	-4.45555555556
185	0.0925	-8.0	-2.8849117175	105.617455621	-7.34444444444
186	0.093	-2.34838709677	5.5507223114	118.289349112	-1.56666666667
187	0.0935	-13.6516129032	4.14478330658	126.737278107	-7.34444444444
188	0.094	-5.17419354839	5.5507223114	132.369230769	-4.45555555556
189	0.0945	-6.58709677419	1.33290529695	126.737278107	-3.01111111111
190	0.095	-8.0	-4.29085072231	161.936982249	-4.45555555556
191	0.0955	-6.58709677419	-5.69678972713	142.225147929	-1.56666666667
192	0.096	-6.58709677419	-4.29085072231	149.265088757	-3.01111111111
193	0.0965	-6.58709677419	-11.3205457464	153.489053254	-0.122222222222
194	0.097	-9.41290322581	-7.10272873194	160.528994083	-0.122222222222
195	0.0975	-5.17419354839	-4.29085072231	183.056804734	-4.45555555556
196	0.098	-2.34838709677	4.14478330658	209.808579882	-0.122222222222
197	0.0985	-5.17419354839	4.14478330658	229.520414201	-13.1222222222
198	0.099	-5.17419354839	2.73884430177	214.032544379	-3.01111111111
199	0.0995	-6.58709677419	2.73884430177	201.360650888	-4.45555555556
200	0.1	-8.0	4.14478330658	152.081065089	-7.34444444444
201	0.1005	-6.58709677419	6.95666131621	118.289349112	-4.45555555556
202	0.101	-9.41290322581	-5.69678972713	87.3136094675	-4.45555555556
203	0.1015	-16.4774193548	-2.8849117175	69.0097633136	-5.9
204	0.102	4.71612903226	-5.69678972713	53.5218934911	-3.01111111111
205	0.1025	-19.3032258065	-7.10272873194	46.4819526627	-5.9
206	0.103	-10.8258064516	-9.91460674157	36.626035503	9.98888888889
207	0.1035	-9.41290322581	-5.69678972713	22.5461538462	-10.2333333333
208	0.104	-10.8258064516	-5.69678972713	21.1381656805	-3.01111111111
209	0.1045	-9.41290322581	-4.29085072231	26.7701183432	-3.01111111111
210	0.105	-9.41290322581	-14.132423756	42.2579881657	-1.56666666667
211	0.1055	-10.8258064516	-8.50866773676	66.1937869822	-1.56666666667
212	0.106	-6.58709677419	-8.50866773676	81.6816568047	-3.01111111111
213	0.1065	-20.7161290323	-9.91460674157	87.3136094675	-4.45555555556
214	0.107	7.54193548387	-9.91460674157	90.1295857988	-0.122222222222
215	0.1075	-6.58709677419	-4.29085072231	87.3136094675	-16.0111111111
216	0.108	-6.58709677419	2.73884430177	80.2736686391	-3.01111111111
217	0.1085	-8.0	6.95666131621	85.9056213018	-11.6777777778
218	0.109	-8.0	8.36260032103	69.0097633136	-5.9
219	0.1095	-8.0	9.76853932584	70.4177514793	-3.01111111111
220	0.11	-8.0	23.827929374	64.7857988166	-4.45555555556
221	0.1105	-5.17419354839	4.14478330658	71.825739645	-4.45555555556
222	0.111	-13.6516129032	9.76853932584	84.4976331361	-5.9
223	0.1115	-13.6516129032	6.95666131621	88.7215976331	-0.122222222222
224	0.112	-10.8258064516	4.14478330658	88.7215976331	-11.6777777778
225	0.1125	-9.41290322581	1.33290529695	90.1295857988	-5.9
226	0.113	-10.8258064516	1.33290529695	77.4576923077	-1.56666666667
227	0.1135	-8.0	-4.29085072231	108.433431953	-3.01111111111
228	0.114	-10.8258064516	1.33290529695	109.841420118	-5.9
229	0.1145	-9.41290322581	-8.50866773676	128.145266272	-1.56666666667
230	0.115	-12.2387096774	-9.91460674157	135.185207101	-3.01111111111
231	0.1155	-15.064516129	-18.3502407705	133.777218935	-3.01111111111
232	0.116	-8.0	-22.5680577849	125.329289941	-1.56666666667
233	0.1165	-3.76129032258	-19.7561797753	115.473372781	-11.6777777778
234	0.117	-10.8258064516	-21.1621187801	104.209467456	-5.9
235	0.1175	-8.0	-19.7561797753	133.777218935	-3.01111111111
236	0.118	-5.17419354839	-9.91460674157	105.617455621	-3.01111111111
237	0.1185	-9.41290322581	-11.3205457464	135.185207101	-3.01111111111
238	0.119	-9.41290322581	4.14478330658	166.160946746	-4.45555555556
239	0.1195	-6.58709677419	-4.29085072231	195.728698225	-4.45555555556
240	0.12	-5.17419354839	8.36260032103	202.768639053	-1.56666666667
241	0.1205	-19.3032258065	22.4219903692	198.544674556	-3.01111111111
242	0.121	-10.8258064516	29.4516853933	195.728698225	17.2111111111
243	0.1215	-8.0	28.0457463884	185.872781065	-11.6777777778
244	0.122	-8.0	22.4219903692	161.936982249	5.65555555556
245	0.1225	-8.0	13.9863563403	130.961242604	-1.56666666667
246	0.123	-8.0	-2.8849117175	121.105325444	-3.01111111111
247	0.1235	-9.41290322581	8.36260032103	122.513313609	-3.01111111111
248	0.124	-9.41290322581	-4.29085072231	133.777218935	-3.01111111111
249	0.1245	-13.6516129032	8.36260032103	142.225147929	-0.122222222222
250	0.125	-0.935483870968	9.76853932584	142.225147929	-3.01111111111
251	0.1255	-10.8258064516	18.2041733547	128.145266272	5.65555555556
252	0.126	-6.58709677419	25.2338683788	123.921301775	-10.2333333333
253	0.1265	-8.0	22.4219903692	98.5775147929	-5.9
254	0.127	-8.0	21.0160513644	98.5775147929	-4.45555555556
255	0.1275	-8.0	16.7982343499	77.4576923077	-4.45555555556
256	0.128	-6.58709677419	21.0160513644	46.4819526627	-4.45555555556
257	0.1285	-12.2387096774	16.7982343499	28.1781065089	-5.9
258	0.129	-3.76129032258	9.76853932584	38.0340236686	-4.45555555556
259	0.1295	-16.4774193548	8.36260032103	60.5618343195	-14.5666666667
260	0.13	-9.41290322581	6.95666131621	64.7857988166	7.1
261	0.1305	-9.41290322581	6.95666131621	73.2337278107	-0.122222222222
262	0.131	-9.41290322581	1.33290529695	87.3136094675	-4.45555555556
263	0.1315	-8.0	6.95666131621	67.6017751479	-5.9
264	0.132	-3.76129032258	-5.69678972713	80.2736686391	-7.34444444444
265	0.1325	-5.17419354839	18.2041733547	88.7215976331	-4.45555555556
266	0.133	-5.17419354839	-1.47897271268	102.80147929	-3.01111111111
267	0.1335	-19.3032258065	1.33290529695	115.473372781	-4.45555555556
268	0.134	-9.41290322581	2.73884430177	121.105325444	11.4333333333
269	0.1345	-10.8258064516	4.14478330658	130.961242604	-13.1222222222
270	0.135	-8.0	2.73884430177	123.921301775	-4.45555555556
271	0.1355	-5.17419354839	5.5507223114	123.921301775	-10.2333333333
272	0.136	-8.0	-2.8849117175	109.841420118	-0.122222222222
273	0.1365	-5.17419354839	11.1744783307	90.1295857988	-1.56666666667
274	0.137	-13.6516129032	-1.47897271268	90.1295857988	-0.122222222222
275	0.1375	-2.34838709677	-2.8849117175	91.5375739645	-1.56666666667
276	0.138	-20.7161290323	-0.0730337078652	85.9056213018	-0.122222222222
277	0.1385	-9.41290322581	-0.0730337078652	67.6017751479	15.7666666667
278	0.139	-12.2387096774	1.33290529695	52.1139053254	-11.6777777778
279	0.1395	-9.41290322581	-2.8849117175	40.85	9.98888888889
280	0.14	-10.8258064516	-0.0730337078652	35.2180473373	2.76666666667
281	0.1405	-12.2387096774	-16.9443017657	32.4020710059	-3.01111111111
282	0.141	-6.58709677419	-5.69678972713	35.2180473373	-1.56666666667
283	0.1415	-10.8258064516	5.5507223114	39.4420118343	-5.9
284	0.142	-5.17419354839	-2.8849117175	46.4819526627	-4.45555555556
285	0.1425	-0.935483870968	-1.47897271268	45.073964497	-3.01111111111
286	0.143	-12.2387096774	-1.47897271268	43.6659763314	-3.01111111111
287	0.1435	-6.58709677419	-2.8849117175	52.1139053254	-3.01111111111
288	0.144	-5.17419354839	-4.29085072231	49.2979289941	-3.01111111111
289	0.1445	-5.17419354839	-11.3205457464	60.5618343195	-4.45555555556
290	0.145	-5.17419354839	-23.9739967897	60.5618343195	-3.01111111111
291	0.1455	-5.17419354839	1.33290529695	63.3778106509	-3.01111111111
292	0.146	-5.17419354839	-16.9443017657	77.4576923077	-3.01111111111
293	0.1465	-10.8258064516	-5.69678972713	97.1695266272	-0.122222222222
294	0.147	-5.17419354839	-8.50866773676	119.697337278	-1.56666666667
295	0.1475	-10.8258064516	-14.132423756	136.593195266	9.98888888889
296	0.148	-8.0	-16.9443017657	149.265088757	-4.45555555556
297	0.1485	-8.0	-15.5383627608	146.449112426	-3.01111111111
298	0.149	-6.58709677419	-18.3502407705	181.648816568	-3.01111111111
299	0.1495	-8.0	-11.3205457464	163.344970414	-3.01111111111
300	0.15	-5.17419354839	-16.9443017657	167.568934911	-5.9
301	0.1505	-15.064516129	-9.91460674157	150.673076923	-5.9
302	0.151	0.477419354839	-11.3205457464	121.105325444	-0.122222222222
303	0.1515	-8.0	-5.69678972713	99.9855029586	-5.9
304	0.152	-6.58709677419	-1.47897271268	90.1295857988	1.32222222222
305	0.1525	-5.17419354839	1.33290529695	69.0097633136	-10.2333333333
306	0.153	-5.17419354839	6.95666131621	53.5218934911	-3.01111111111
307	0.1535	-3.76129032258	6.95666131621	33.8100591716	-0.122222222222
308	0.154	-3.76129032258	16.7982343499	42.2579881657	-3.01111111111
309	0.1545	-9.41290322581	-4.29085072231	56.3378698225	-4.45555555556
310	0.155	-8.0	2.73884430177	70.4177514793	-1.56666666667
311	0.1555	-10.8258064516	-5.69678972713	78.8656804734	-3.01111111111
312	0.156	-9.41290322581	-5.69678972713	97.1695266272	-3.01111111111
313	0.1565	-9.41290322581	-5.69678972713	101.393491124	-4.45555555556
314	0.157	-8.0	-1.47897271268	139.409171598	-11.6777777778
315	0.1575	-5.17419354839	-2.8849117175	139.409171598	-1.56666666667
316	0.158	-6.58709677419	-12.7264847512	149.265088757	-3.01111111111
317	0.1585	-8.0	-18.3502407705	145.04112426	-5.9
318	0.159	-0.935483870968	-21.1621187801	147.857100592	-3.01111111111
319	0.1595	-13.6516129032	-21.1621187801	160.528994083	-4.45555555556
320	0.16	0.477419354839	-21.1621187801	163.344970414	-11.6777777778
321	0.1605	-10.8258064516	-23.9739967897	143.633136095	14.3222222222
322	0.161	-12.2387096774	-18.3502407705	121.105325444	-4.45555555556
323	0.1615	-12.2387096774	-19.7561797753	84.4976331361	-3.01111111111
324	0.162	-12.2387096774	-14.132423756	59.1538461538	-3.01111111111
325	0.1625	-12.2387096774	-23.9739967897	70.4177514793	-3.01111111111
326	0.163	-12.2387096774	-4.29085072231	88.7215976331	-4.45555555556
327	0.1635	3.30322580645	-4.29085072231	101.393491124	2.76666666667
328	0.164	-22.1290322581	-9.91460674157	109.841420118	-8.78888888889
329	0.1645	-13.6516129032	-12.7264847512	119.697337278	-0.122222222222
330	0.165	-9.41290322581	-9.91460674157	104.209467456	-3.01111111111
331	0.1655	-2.34838709677	1.33290529695	105.617455621	-1.56666666667
332	0.166	-6.58709677419	8.36260032103	57.7458579882	-3.01111111111
333	0.1665	-5.17419354839	29.4516853933	30.9940828402	-7.34444444444
334	0.167	-9.41290322581	-1.47897271268	15.5062130178	-5.9
335	0.1675	-13.6516129032	6.95666131621	19.7301775148	-4.45555555556
336	0.168	0.477419354839	5.5507223114	30.9940828402	-0.122222222222
337	0.1685	-17.8903225806	-1.47897271268	30.9940828402	-5.9
338	0.169	-9.41290322581	-4.29085072231	33.8100591716	1.32222222222
339	0.1695	-5.17419354839	-1.47897271268	56.3378698225	-4.45555555556
340	0.17	-6.58709677419	-7.10272873194	47.8899408284	-1.56666666667
341	0.1705	-10.8258064516	-2.8849117175	60.5618343195	-7.34444444444
342	0.171	-13.6516129032	-4.29085072231	57.7458579882	-4.45555555556
343	0.1715	-9.41290322581	-18.3502407705	56.3378698225	-1.56666666667
344	0.172	-20.7161290323	-16.9443017657	63.3778106509	-3.01111111111
345	0.1725	14.6064516129	-15.5383627608	67.6017751479	-1.56666666667
346	0.173	-2.34838709677	-15.5383627608	69.0097633136	-8.78888888889
347	0.1735	0.477419354839	-12.7264847512	73.2337278107	1.32222222222
348	0.174	0.477419354839	-8.50866773676	80.2736686391	-1.56666666667
349	0.1745	-5.17419354839	-7.10272873194	74.6417159763	-0.122222222222
350	0.175	-5.17419354839	-19.7561797753	74.6417159763	-4.45555555556
351	0.1755	-10.8258064516	-0.0730337078652	77.4576923077	-4.45555555556
352	0.176	-8.0	-12.7264847512	78.8656804734	-4.45555555556
353	0.1765	-23.5419354839	-9.91460674157	84.4976331361	-7.34444444444
354	0.177	-10.8258064516	-7.10272873194	94.3535502959	-3.01111111111
355	0.1775	-9.41290322581	-5.69678972713	112.65739645	-8.78888888889
356	0.178	-12.2387096774	-2.8849117175	132.369230769	-3.01111111111
357	0.1785	-12.2387096774	-2.8849117175	159.121005917	-1.56666666667
358	0.179	-12.2387096774	-2.8849117175	149.265088757	-4.45555555556
359	0.1795	-5.17419354839	-9.91460674157	150.673076923	-1.56666666667
360	0.18	1.89032258065	-5.69678972713	149.265088757	-4.45555555556
361	0.1805	8.95483870968	-11.3205457464	160.528994083	-1.56666666667
362	0.181	-8.0	-7.10272873194	176.016863905	-11.6777777778
363	0.1815	3.30322580645	-5.69678972713	180.240828402	4.21111111111
364	0.182	-5.17419354839	-4.29085072231	154.89704142	-5.9
365	0.1825	-6.58709677419	-0.0730337078652	156.305029586	-11.6777777778
366	0.183	-3.76129032258	4.14478330658	156.305029586	-7.34444444444
367	0.1835	-0.935483870968	-4.29085072231	190.096745562	-3.01111111111
368	0.184	-2.34838709677	21.0160513644	209.808579882	-5.9
369	0.1845	-5.17419354839	-5.69678972713	202.768639053	-3.01111111111
370	0.185	-16.4774193548	-2.8849117175	188.688757396	-7.34444444444
371	0.1855	11.7806451613	-4.29085072231	171.792899408	-4.45555555556
372	0.186	-5.17419354839	-4.29085072231	149.265088757	-11.6777777778
373	0.1865	-2.34838709677	-2.8849117175	130.961242604	-1.56666666667
374	0.187	-3.76129032258	5.5507223114	114.065384615	-5.9
375	0.1875	-2.34838709677	-0.0730337078652	128.145266272	-3.01111111111
376	0.188	-2.34838709677	4.14478330658	140.817159763	-4.45555555556
377	0.1885	-8.0	-5.69678972713	146.449112426	-5.9
378	0.189	0.477419354839	-1.47897271268	139.409171598	-1.56666666667
379	0.1895	-15.064516129	2.73884430177	133.777218935	-4.45555555556
380	0.19	13.1935483871	1.33290529695	128.145266272	-3.01111111111
381	0.1905	-5.17419354839	-1.47897271268	116.881360947	-8.78888888889
382	0.191	-5.17419354839	-2.8849117175	139.409171598	-5.9
383	0.1915	-3.76129032258	-1.47897271268	146.449112426	-5.9
384	0.192	-5.17419354839	-2.8849117175	206.99260355	-5.9
385	0.1925	-5.17419354839	-1.47897271268	223.888461538	-3.01111111111
386	0.193	-3.76129032258	-8.50866773676	235.152366864	-5.9
387	0.1935	-10.8258064516	-2.8849117175	235.152366864	-5.9
388	0.194	4.71612903226	-5.69678972713	237.968343195	-3.01111111111
389	0.1945	-2.34838709677	-5.69678972713	242.192307692	-7.34444444444
390	0.195	-0.935483870968	-1.47897271268	212.624556213	-11.6777777778
391	0.1955	-2.34838709677	-2.8849117175	173.200887574	-0.122222222222
392	0.196	-5.17419354839	-1.47897271268	101.393491124	-10.2333333333
393	0.1965	-0.935483870968	-7.10272873194	49.2979289941	-5.9
394	0.197	-0.935483870968	2.73884430177	29.5860946746	-5.9
395	0.1975	-5.17419354839	-9.91460674157	43.6659763314	-4.45555555556
396	0.198	3.30322580645	-8.50866773676	38.0340236686	-5.9
397	0.1985	-16.4774193548	-5.69678972713	4.24230769231	-1.56666666667
398	0.199	-0.935483870968	-4.29085072231	-4.20562130178	15.7666666667
399	0.1995	-3.76129032258	-1.47897271268	22.5461538462	-14.5666666667
400	0.2	-5.17419354839	-1.47897271268	47.8899408284	8.54444444444
401	0.2005	-2.34838709677	-0.0730337078652	81.6816568047	-5.9
402	0.201	-2.34838709677	-7.10272873194	85.9056213018	-5.9
403	0.2015	-2.34838709677	18.2041733547	98.5775147929	-5.9
404	0.202	-2.34838709677	-9.91460674157	99.9855029586	-5.9
405	0.2025	-3.76129032258	-2.8849117175	88.7215976331	-4.45555555556
406	0.203	-3.76129032258	-4.29085072231	56.3378698225	-4.45555555556
407	0.2035	-3.76129032258	-4.29085072231	32.4020710059	-7.34444444444
408	0.204	-5.17419354839	-4.29085072231	15.5062130178	-3.01111111111
409	0.2045	-3.76129032258	-4.29085072231	36.626035503	-11.6777777778
410	0.205	-5.17419354839	-5.69678972713	42.2579881657	-3.01111111111
411	0.2055	-5.17419354839	-1.47897271268	45.073964497	-1.56666666667
412	0.206	-5.17419354839	-11.3205457464	36.626035503	-1.56666666667
413	0.2065	-5.17419354839	-4.29085072231	26.7701183432	-1.56666666667
414	0.207	-10.8258064516	-1.47897271268	26.7701183432	-3.01111111111
415	0.2075	0.477419354839	-1.47897271268	43.6659763314	-8.78888888889
416	0.208	-8.0	-4.29085072231	59.1538461538	-3.01111111111
417	0.2085	-5.17419354839	-4.29085072231	85.9056213018	-4.45555555556
418	0.209	-3.76129032258	-2.8849117175	74.6417159763	-5.9
419	0.2095	-3.76129032258	-5.69678972713	109.841420118	-5.9
420	0.21	-5.17419354839	-5.69678972713	99.9855029586	-5.9
421	0.2105	-3.76129032258	-11.3205457464	105.617455621	-3.01111111111
422	0.211	-15.064516129	-7.10272873194	107.025443787	-5.9
423	0.2115	14.6064516129	-8.50866773676	98.5775147929	-1.56666666667
424	0.212	-13.6516129032	-7.10272873194	77.4576923077	-3.01111111111
425	0.2125	-5.17419354839	-7.10272873194	53.5218934911	11.4333333333
426	0.213	-8.0	-5.69678972713	46.4819526627	-5.9
427	0.2135	-6.58709677419	-7.10272873194	39.4420118343	-3.01111111111
428	0.214	-5.17419354839	-0.0730337078652	16.9142011834	-4.45555555556
429	0.2145	-6.58709677419	-15.5383627608	19.7301775148	-3.01111111111
430	0.215	-8.0	-5.69678972713	26.7701183432	-1.56666666667
431	0.2155	3.30322580645	-7.10272873194	33.8100591716	-0.122222222222
432	0.216	-13.6516129032	-8.50866773676	39.4420118343	-7.34444444444
433	0.2165	-6.58709677419	-7.10272873194	42.2579881657	8.54444444444
434	0.217	-6.58709677419	-5.69678972713	50.7059171598	-11.6777777778
435	0.2175	-6.58709677419	-5.69678972713	54.9298816568	-3.01111111111
436	0.218	-6.58709677419	-5.69678972713	67.6017751479	-1.56666666667
437	0.2185	-6.58709677419	-19.7561797753	67.6017751479	-4.45555555556
438	0.219	-3.76129032258	6.95666131621	71.825739645	-3.01111111111
439	0.2195	-13.6516129032	-15.5383627608	71.825739645	-3.01111111111
440	0.22	10.3677419355	-19.7561797753	77.4576923077	-7.34444444444
441	0.2205	-10.8258064516	-18.3502407705	77.4576923077	-0.122222222222
442	0.221	-6.58709677419	-16.9443017657	69.0097633136	-13.1222222222
443	0.2215	-5.17419354839	-15.5383627608	38.0340236686	-1.56666666667
444	0.222	-5.17419354839	-16.9443017657	33.8100591716	-4.45555555556
445	0.2225	-3.76129032258	-11.3205457464	22.5461538462	-4.45555555556
446	0.223	-5.17419354839	-9.91460674157	33.8100591716	-5.9
447	0.2235	-6.58709677419	1.33290529695	39.4420118343	-3.01111111111
448	0.224	10.3677419355	1.33290529695	54.9298816568	-3.01111111111
449	0.2245	-13.6516129032	6.95666131621	64.7857988166	-13.1222222222
450	0.225	-5.17419354839	9.76853932584	67.6017751479	-7.34444444444
451	0.2255	-0.935483870968	9.76853932584	73.2337278107	-0.122222222222
452	0.226	-3.76129032258	-1.47897271268	84.4976331361	-3.01111111111
453	0.2265	-6.58709677419	-4.29085072231	109.841420118	-5.9
454	0.227	-5.17419354839	-19.7561797753	133.777218935	-3.01111111111
455	0.2275	-8.0	-5.69678972713	145.04112426	-4.45555555556
456	0.228	4.71612903226	-11.3205457464	149.265088757	-0.122222222222
457	0.2285	-12.2387096774	-11.3205457464	146.449112426	-4.45555555556
458	0.229	-5.17419354839	-11.3205457464	139.409171598	15.7666666667
459	0.2295	-3.76129032258	-12.7264847512	133.777218935	-5.9
460	0.23	-5.17419354839	-15.5383627608	108.433431953	-3.01111111111
461	0.2305	-6.58709677419	-7.10272873194	76.049704142	-3.01111111111
462	0.231	-6.58709677419	-11.3205457464	30.9940828402	-4.45555555556
463	0.2315	-5.17419354839	-16.9443017657	26.7701183432	-3.01111111111
464	0.232	-16.4774193548	-12.7264847512	38.0340236686	-5.9
465	0.2325	11.7806451613	-16.9443017657	60.5618343195	-1.56666666667
466	0.233	-15.064516129	-15.5383627608	78.8656804734	-5.9
467	0.2335	-3.76129032258	-15.5383627608	84.4976331361	5.65555555556
468	0.234	-5.17419354839	-14.132423756	84.4976331361	-11.6777777778
469	0.2345	-3.76129032258	-8.50866773676	81.6816568047	-5.9
470	0.235	-3.76129032258	-1.47897271268	87.3136094675	-4.45555555556
471	0.2355	-0.935483870968	11.1744783307	78.8656804734	-4.45555555556
472	0.236	-5.17419354839	-16.9443017657	87.3136094675	-5.9
473	0.2365	-9.41290322581	-11.3205457464	97.1695266272	-4.45555555556
474	0.237	11.7806451613	-1.47897271268	95.7615384615	-0.122222222222
475	0.2375	-3.76129032258	1.33290529695	97.1695266272	-14.5666666667
476	0.238	-5.17419354839	4.14478330658	94.3535502959	-3.01111111111
477	0.2385	-6.58709677419	4.14478330658	105.617455621	-7.34444444444
478	0.239	-5.17419354839	6.95666131621	101.393491124	-3.01111111111
479	0.2395	-3.76129032258	-5.69678972713	108.433431953	-3.01111111111
480	0.24	-3.76129032258	15.3922953451	109.841420118	-5.9
481	0.2405	-6.58709677419	-2.8849117175	114.065384615	-4.45555555556
482	0.241	-15.064516129	1.33290529695	119.697337278	-14.5666666667
483	0.2415	-5.17419354839	-1.47897271268	132.369230769	4.21111111111
484	0.242	-2.34838709677	-0.0730337078652	150.673076923	-5.9
485	0.2425	-5.17419354839	2.73884430177	156.305029586	-4.45555555556
486	0.243	-3.76129032258	2.73884430177	122.513313609	-7.34444444444
487	0.2435	-0.935483870968	-11.3205457464	108.433431953	-5.9
488	0.244	-3.76129032258	13.9863563403	98.5775147929	-5.9
489	0.2445	-8.0	-5.69678972713	84.4976331361	-5.9
490	0.245	-0.935483870968	-4.29085072231	67.6017751479	-3.01111111111
491	0.2455	-13.6516129032	-4.29085072231	64.7857988166	-10.2333333333
492	0.246	-3.76129032258	-5.69678972713	85.9056213018	-8.78888888889
493	0.2465	-9.41290322581	-8.50866773676	95.7615384615	-7.34444444444
494	0.247	-6.58709677419	-9.91460674157	126.737278107	-1.56666666667
495	0.2475	-6.58709677419	-9.91460674157	84.4976331361	-4.45555555556
496	0.248	-3.76129032258	-9.91460674157	59.1538461538	-4.45555555556
497	0.2485	-5.17419354839	-15.5383627608	43.6659763314	-5.9
498	0.249	0.477419354839	-12.7264847512	54.9298816568	-7.34444444444
499	0.2495	-16.4774193548	-14.132423756	76.049704142	-5.9
500	0.25	8.95483870968	-12.7264847512	99.9855029586	-5.9
501	0.2505	-6.58709677419	-8.50866773676	115.473372781	-0.122222222222
502	0.251	-6.58709677419	-9.91460674157	112.65739645	-4.45555555556
503	0.2515	-6.58709677419	-7.10272873194	116.881360947	-5.9
504	0.252	-6.58709677419	-19.7561797753	90.1295857988	-4.45555555556
505	0.2525	-5.17419354839	-7.10272873194	84.4976331361	-4.45555555556
506	0.253	-5.17419354839	-16.9443017657	87.3136094675	-3.01111111111
507	0.2535	-0.935483870968	-9.91460674157	104.209467456	-1.56666666667
508	0.254	-12.2387096774	-9.91460674157	128.145266272	-3.01111111111
509	0.2545	-5.17419354839	-12.7264847512	126.737278107	-4.45555555556
510	0.255	-5.17419354839	-9.91460674157	111.249408284	-10.2333333333
511	0.2555	-8.0	-8.50866773676	109.841420118	5.65555555556
512	0.256	-5.17419354839	-5.69678972713	114.065384615	-3.01111111111
513	0.2565	-3.76129032258	-12.7264847512	122.513313609	-1.56666666667
514	0.257	-5.17419354839	9.76853932584	135.185207101	-1.56666666667
515	0.2575	-9.41290322581	-14.132423756	142.225147929	-5.9
516	0.258	11.7806451613	-8.50866773676	130.961242604	-5.9
517	0.2585	-17.8903225806	-12.7264847512	105.617455621	-16.0111111111
518	0.259	-10.8258064516	-12.7264847512	77.4576923077	5.65555555556
519	0.2595	-6.58709677419	-18.3502407705	71.825739645	-8.78888888889
520	0.26	-8.0	-19.7561797753	98.5775147929	-3.01111111111
521	0.2605	-6.58709677419	-14.132423756	136.593195266	-5.9
522	0.261	-5.17419354839	-23.9739967897	168.976923077	-4.45555555556
523	0.2615	-2.34838709677	-1.47897271268	192.912721893	-4.45555555556
524	0.262	-10.8258064516	-14.132423756	191.504733728	-7.34444444444
525	0.2625	16.0193548387	-14.132423756	184.464792899	-3.01111111111
526	0.263	-13.6516129032	-11.3205457464	180.240828402	-13.1222222222
527	0.2635	-6.58709677419	-7.10272873194	157.713017751	-3.01111111111
528	0.264	-5.17419354839	-0.0730337078652	108.433431953	-10.2333333333
529	0.2645	-3.76129032258	-2.8849117175	59.1538461538	-7.34444444444
530	0.265	-2.34838709677	-2.8849117175	22.5461538462	-5.9
531	0.2655	-3.76129032258	11.1744783307	-2.79763313609	-1.56666666667
532	0.266	-6.58709677419	-14.132423756	1.42633136095	-5.9
533	0.2665	0.477419354839	-2.8849117175	19.7301775148	-5.9
534	0.267	-9.41290322581	-5.69678972713	32.4020710059	-7.34444444444
535	0.2675	0.477419354839	-8.50866773676	36.626035503	-8.78888888889
536	0.268	-8.0	-5.69678972713	28.1781065089	-7.34444444444
537	0.2685	-3.76129032258	-1.47897271268	40.85	-11.6777777778
538	0.269	-8.0	-1.47897271268	30.9940828402	-7.34444444444
539	0.2695	-3.76129032258	-4.29085072231	50.7059171598	-3.01111111111
540	0.27	-3.76129032258	-4.29085072231	53.5218934911	-4.45555555556
541	0.2705	-2.34838709677	-11.3205457464	66.1937869822	-3.01111111111
542	0.271	-15.064516129	-9.91460674157	80.2736686391	-4.45555555556
543	0.2715	17.4322580645	-11.3205457464	88.7215976331	-0.122222222222
544	0.272	-8.0	-9.91460674157	92.9455621302	-7.34444444444
545	0.2725	3.30322580645	-8.50866773676	104.209467456	-5.9
546	0.273	4.71612903226	-4.29085072231	95.7615384615	-4.45555555556
547	0.2735	1.89032258065	-5.69678972713	98.5775147929	-5.9
548	0.274	-2.34838709677	-2.8849117175	74.6417159763	-5.9
549	0.2745	-5.17419354839	-9.91460674157	60.5618343195	-4.45555555556
550	0.275	-10.8258064516	-5.69678972713	45.073964497	-7.34444444444
551	0.2755	7.54193548387	-9.91460674157	39.4420118343	-1.56666666667
552	0.276	-9.41290322581	-11.3205457464	29.5860946746	-3.01111111111
553	0.2765	-5.17419354839	-14.132423756	16.9142011834	8.54444444444
554	0.277	-5.17419354839	-9.91460674157	32.4020710059	-13.1222222222
555	0.2775	-2.34838709677	-9.91460674157	52.1139053254	-4.45555555556
556	0.278	-3.76129032258	-12.7264847512	74.6417159763	-7.34444444444
557	0.2785	-0.935483870968	-31.0036918138	78.8656804734	-3.01111111111
558	0.279	-2.34838709677	-11.3205457464	61.9698224852	-1.56666666667
559	0.2795	-0.935483870968	-31.0036918138	47.8899408284	-5.9
560	0.28	-5.17419354839	-28.1918138042	40.85	-7.34444444444
561	0.2805	-5.17419354839	-22.5680577849	42.2579881657	-1.56666666667
562	0.281	-3.76129032258	-22.5680577849	43.6659763314	14.3222222222
563	0.2815	-5.17419354839	-19.7561797753	71.825739645	-5.9
564	0.282	-6.58709677419	-16.9443017657	60.5618343195	-3.01111111111
565	0.2825	-2.34838709677	-14.132423756	71.825739645	-4.45555555556
566	0.283	-5.17419354839	-12.7264847512	71.825739645	-5.9
567	0.2835	-3.76129032258	-7.10272873194	80.2736686391	-3.01111111111
568	0.284	-0.935483870968	1.33290529695	71.825739645	-4.45555555556
569	0.2845	-16.4774193548	-0.0730337078652	66.1937869822	-4.45555555556
570	0.285	-5.17419354839	-2.8849117175	61.9698224852	9.98888888889
571	0.2855	-3.76129032258	-2.8849117175	49.2979289941	-17.4555555556
572	0.286	-6.58709677419	-4.29085072231	14.0982248521	12.8777777778
573	0.2865	-3.76129032258	-1.47897271268	-1.38964497041	-3.01111111111
574	0.287	-3.76129032258	-9.91460674157	-14.0615384615	-5.9
575	0.2875	-0.935483870968	9.76853932584	2.83431952663	-3.01111111111
576	0.288	-5.17419354839	-5.69678972713	25.3621301775	-3.01111111111
577	0.2885	4.71612903226	-2.8849117175	39.4420118343	-0.122222222222
578	0.289	-13.6516129032	-8.50866773676	52.1139053254	-3.01111111111
579	0.2895	-2.34838709677	-11.3205457464	69.0097633136	-0.122222222222
580	0.29	-2.34838709677	-16.9443017657	81.6816568047	-13.1222222222
581	0.2905	-2.34838709677	-21.1621187801	99.9855029586	-3.01111111111
582	0.291	-3.76129032258	-25.3799357945	87.3136094675	-0.122222222222
583	0.2915	-3.76129032258	-26.7858747994	92.9455621302	-3.01111111111
584	0.292	-6.58709677419	-35.2215088283	69.0097633136	-1.56666666667
585	0.2925	-5.17419354839	-38.0333868379	80.2736686391	-3.01111111111
586	0.293	-17.8903225806	-28.1918138042	99.9855029586	-4.45555555556
587	0.2935	-0.935483870968	-21.1621187801	121.105325444	-3.01111111111
588	0.294	-0.935483870968	-16.9443017657	128.145266272	-11.6777777778
589	0.2945	-9.41290322581	-15.5383627608	135.185207101	8.54444444444
590	0.295	-6.58709677419	-11.3205457464	146.449112426	-8.78888888889
591	0.2955	-5.17419354839	2.73884430177	129.553254438	-0.122222222222
592	0.296	-3.76129032258	16.7982343499	149.265088757	-0.122222222222
593	0.2965	-2.34838709677	15.3922953451	125.329289941	-4.45555555556
594	0.297	1.89032258065	15.3922953451	107.025443787	-3.01111111111
595	0.2975	-10.8258064516	15.3922953451	71.825739645	-3.01111111111
596	0.298	11.7806451613	8.36260032103	35.2180473373	2.76666666667
597	0.2985	-8.0	4.14478330658	15.5062130178	-4.45555555556
598	0.299	-3.76129032258	1.33290529695	5.65029585799	-3.01111111111
599	0.2995	-3.76129032258	-2.8849117175	35.2180473373	-1.56666666667
600	0.3	-5.17419354839	-0.0730337078652	4.24230769231	-3.01111111111
601	0.3005	-5.17419354839	-1.47897271268	1.42633136095	-3.01111111111
602	0.301	-5.17419354839	-8.50866773676	-12.6535502959	-4.45555555556
603	0.3015	0.477419354839	-12.7264847512	-22.5094674556	-0.122222222222
604	0.302	-13.6516129032	-14.132423756	-22.5094674556	-7.34444444444
605	0.3025	16.0193548387	-14.132423756	-16.8775147929	-3.01111111111
606	0.303	-12.2387096774	-12.7264847512	-7.02159763314	-11.6777777778
607	0.3035	-2.34838709677	-11.3205457464	-1.38964497041	5.65555555556
608	0.304	-3.76129032258	-12.7264847512	21.1381656805	-4.45555555556
609	0.3045	-5.17419354839	-8.50866773676	21.1381656805	-1.56666666667
610	0.305	-5.17419354839	-22.5680577849	33.8100591716	-3.01111111111
611	0.3055	-0.935483870968	-8.50866773676	26.7701183432	-3.01111111111
612	0.306	0.477419354839	-21.1621187801	12.6902366864	-3.01111111111
613	0.3065	-13.6516129032	-18.3502407705	15.5062130178	-5.9
614	0.307	16.0193548387	-18.3502407705	22.5461538462	-3.01111111111
615	0.3075	-2.34838709677	-16.9443017657	32.4020710059	-11.6777777778
616	0.308	-0.935483870968	-12.7264847512	46.4819526627	9.98888888889
617	0.3085	0.477419354839	-8.50866773676	77.4576923077	-13.1222222222
618	0.309	-2.34838709677	-7.10272873194	98.5775147929	-4.45555555556
619	0.3095	-2.34838709677	-7.10272873194	118.289349112	-5.9
620	0.31	-2.34838709677	21.0160513644	128.145266272	-4.45555555556
621	0.3105	0.477419354839	6.95666131621	133.777218935	-4.45555555556
622	0.311	3.30322580645	11.1744783307	123.921301775	-5.9
623	0.3115	-5.17419354839	1.33290529695	95.7615384615	-3.01111111111
624	0.312	-2.34838709677	-1.47897271268	77.4576923077	-3.01111111111
625	0.3125	-0.935483870968	1.33290529695	54.9298816568	7.1
626	0.313	-2.34838709677	-1.47897271268	38.0340236686	-3.01111111111
627	0.3135	-0.935483870968	2.73884430177	23.9541420118	-0.122222222222
628	0.314	-3.76129032258	-15.5383627608	40.85	-1.56666666667
629	0.3145	-2.34838709677	6.95666131621	67.6017751479	-1.56666666667
630	0.315	-12.2387096774	-14.132423756	87.3136094675	-5.9
631	0.3155	11.7806451613	-18.3502407705	98.5775147929	-0.122222222222
632	0.316	-10.8258064516	-15.5383627608	105.617455621	-7.34444444444
633	0.3165	-3.76129032258	-19.7561797753	104.209467456	-5.9
634	0.317	-5.17419354839	-21.1621187801	102.80147929	-4.45555555556
635	0.3175	-6.58709677419	-23.9739967897	80.2736686391	-1.56666666667
636	0.318	-3.76129032258	-19.7561797753	63.3778106509	-4.45555555556
637	0.3185	-3.76129032258	-32.4096308186	40.85	-1.56666666667
638	0.319	-2.34838709677	-26.7858747994	18.3221893491	-5.9
639	0.3195	-13.6516129032	-16.9443017657	-2.79763313609	-3.01111111111
640	0.32	10.3677419355	-11.3205457464	5.65029585799	-4.45555555556
641	0.3205	-9.41290322581	-11.3205457464	32.4020710059	-1.56666666667
642	0.321	-2.34838709677	-8.50866773676	61.9698224852	-1.56666666667
643	0.3215	-0.935483870968	-2.8849117175	81.6816568047	-4.45555555556
644	0.322	-0.935483870968	-1.47897271268	116.881360947	-4.45555555556
645	0.3225	-2.34838709677	5.5507223114	105.617455621	-5.9
646	0.323	-3.76129032258	21.0160513644	94.3535502959	-4.45555555556
647	0.3235	0.477419354839	2.73884430177	84.4976331361	-4.45555555556
648	0.324	7.54193548387	15.3922953451	66.1937869822	-3.01111111111
649	0.3245	-8.0	16.7982343499	39.4420118343	-14.5666666667
650	0.325	-3.76129032258	15.3922953451	7.05828402367	-1.56666666667
651	0.3255	-5.17419354839	6.95666131621	-11.2455621302	-11.6777777778
652	0.326	-5.17419354839	5.5507223114	-7.02159763314	-3.01111111111
653	0.3265	-3.76129032258	5.5507223114	23.9541420118	-3.01111111111
654	0.327	-5.17419354839	-11.3205457464	40.85	-3.01111111111
655	0.3275	-2.34838709677	18.2041733547	52.1139053254	-3.01111111111
656	0.328	-6.58709677419	-11.3205457464	61.9698224852	-1.56666666667
657	0.3285	14.6064516129	-5.69678972713	71.825739645	-0.122222222222
658	0.329	-9.41290322581	-0.0730337078652	66.1937869822	-3.01111111111
659	0.3295	-2.34838709677	-0.0730337078652	54.9298816568	-7.34444444444
660	0.33	-2.34838709677	-1.47897271268	28.1781065089	-3.01111111111
661	0.3305	-0.935483870968	-0.0730337078652	16.9142011834	-5.9
662	0.331	-2.34838709677	4.14478330658	4.24230769231	-0.122222222222
663	0.3315	-0.935483870968	-7.10272873194	15.5062130178	-3.01111111111
664	0.332	-0.935483870968	11.1744783307	26.7701183432	-3.01111111111
665	0.3325	-3.76129032258	-9.91460674157	33.8100591716	-5.9
666	0.333	7.54193548387	-1.47897271268	47.8899408284	-7.34444444444
667	0.3335	-13.6516129032	-1.47897271268	60.5618343195	-10.2333333333
668	0.334	-5.17419354839	-2.8849117175	66.1937869822	-3.01111111111
669	0.3345	-3.76129032258	-5.69678972713	71.825739645	-11.6777777778
670	0.335	-8.0	-5.69678972713	69.0097633136	-5.9
671	0.3355	-5.17419354839	-4.29085072231	77.4576923077	-4.45555555556
672	0.336	-6.58709677419	-16.9443017657	71.825739645	-5.9
673	0.3365	-5.17419354839	11.1744783307	66.1937869822	-3.01111111111
674	0.337	-13.6516129032	-2.8849117175	60.5618343195	-4.45555555556
675	0.3375	10.3677419355	-4.29085072231	69.0097633136	-4.45555555556
676	0.338	-9.41290322581	-5.69678972713	85.9056213018	-1.56666666667
677	0.3385	-6.58709677419	-4.29085072231	107.025443787	-0.122222222222
678	0.339	-6.58709677419	-7.10272873194	118.289349112	-1.56666666667
679	0.3395	-8.0	-8.50866773676	130.961242604	-4.45555555556
680	0.34	-6.58709677419	-4.29085072231	132.369230769	-3.01111111111
681	0.3405	-5.17419354839	-21.1621187801	142.225147929	-5.9
682	0.341	-5.17419354839	2.73884430177	128.145266272	-4.45555555556
683	0.3415	-2.34838709677	-8.50866773676	99.9855029586	-1.56666666667
684	0.342	-6.58709677419	-4.29085072231	63.3778106509	-3.01111111111
685	0.3425	-5.17419354839	-8.50866773676	49.2979289941	15.7666666667
686	0.343	0.477419354839	-2.8849117175	63.3778106509	-8.78888888889
687	0.3435	-0.935483870968	-2.8849117175	71.825739645	9.98888888889
688	0.344	-5.17419354839	-0.0730337078652	71.825739645	-1.56666666667
689	0.3445	-5.17419354839	-9.91460674157	59.1538461538	-4.45555555556
690	0.345	-3.76129032258	15.3922953451	53.5218934911	-0.122222222222
691	0.3455	-5.17419354839	-15.5383627608	60.5618343195	-4.45555555556
692	0.346	11.7806451613	-4.29085072231	77.4576923077	-0.122222222222
693	0.3465	-9.41290322581	-4.29085072231	91.5375739645	-1.56666666667
694	0.347	-0.935483870968	-7.10272873194	91.5375739645	-1.56666666667
695	0.3475	-2.34838709677	-2.8849117175	74.6417159763	9.98888888889
696	0.348	-5.17419354839	-7.10272873194	45.073964497	-3.01111111111
697	0.3485	-5.17419354839	-2.8849117175	60.5618343195	-4.45555555556
698	0.349	-3.76129032258	-12.7264847512	52.1139053254	-0.122222222222
699	0.3495	-5.17419354839	5.5507223114	76.049704142	-1.56666666667
700	0.35	4.71612903226	-7.10272873194	105.617455621	-5.9
701	0.3505	-0.935483870968	-4.29085072231	132.369230769	-10.2333333333
702	0.351	-8.0	-5.69678972713	146.449112426	-1.56666666667
703	0.3515	-6.58709677419	-5.69678972713	164.75295858	-5.9
704	0.352	-3.76129032258	-8.50866773676	146.449112426	-5.9
705	0.3525	-5.17419354839	-5.69678972713	140.817159763	-0.122222222222
706	0.353	-5.17419354839	-12.7264847512	115.473372781	-3.01111111111
707	0.3535	-3.76129032258	-9.91460674157	87.3136094675	-0.122222222222
708	0.354	-5.17419354839	-9.91460674157	54.9298816568	-3.01111111111
709	0.3545	-5.17419354839	-9.91460674157	49.2979289941	-0.122222222222
710	0.355	-0.935483870968	-8.50866773676	59.1538461538	-3.01111111111
711	0.3555	-10.8258064516	-7.10272873194	77.4576923077	-1.56666666667
712	0.356	-6.58709677419	-9.91460674157	83.0896449704	-3.01111111111
713	0.3565	-5.17419354839	-9.91460674157	39.4420118343	-5.9
714	0.357	-6.58709677419	-12.7264847512	18.3221893491	-0.122222222222
715	0.3575	-2.34838709677	-5.69678972713	-11.2455621302	-3.01111111111
716	0.358	-3.76129032258	-14.132423756	-22.5094674556	-4.45555555556
717	0.3585	0.477419354839	-9.91460674157	-36.5893491124	-1.56666666667
718	0.359	-13.6516129032	-8.50866773676	-32.3653846154	-1.56666666667
719	0.3595	10.3677419355	-9.91460674157	-11.2455621302	-1.56666666667
720	0.36	-16.4774193548	-8.50866773676	11.2822485207	-5.9
721	0.3605	-6.58709677419	-9.91460674157	23.9541420118	-4.45555555556
722	0.361	-8.0	-9.91460674157	8.46627218935	-7.34444444444
723	0.3615	-9.41290322581	-11.3205457464	12.6902366864	-1.56666666667
724	0.362	-10.8258064516	-11.3205457464	30.9940828402	-3.01111111111
725	0.3625	-9.41290322581	-14.132423756	40.85	-0.122222222222
726	0.363	-3.76129032258	-15.5383627608	47.8899408284	-1.56666666667
727	0.3635	-19.3032258065	-16.9443017657	49.2979289941	-0.122222222222
728	0.364	4.71612903226	-16.9443017657	47.8899408284	1.32222222222
729	0.3645	-17.8903225806	-16.9443017657	43.6659763314	-5.9
730	0.365	-9.41290322581	-16.9443017657	35.2180473373	-0.122222222222
731	0.3655	-8.0	-19.7561797753	64.7857988166	-1.56666666667
732	0.366	-6.58709677419	-15.5383627608	33.8100591716	-5.9
733	0.3665	-3.76129032258	-16.9443017657	40.85	-3.01111111111
734	0.367	-2.34838709677	2.73884430177	35.2180473373	-1.56666666667
735	0.3675	-2.34838709677	-19.7561797753	22.5461538462	-4.45555555556
736	0.368	-5.17419354839	-5.69678972713	4.24230769231	-1.56666666667
737	0.3685	-2.34838709677	-1.47897271268	4.24230769231	-3.01111111111
738	0.369	-5.17419354839	-5.69678972713	18.3221893491	-11.6777777778
739	0.3695	-6.58709677419	-9.91460674157	36.626035503	-4.45555555556
740	0.37	-8.0	-12.7264847512	80.2736686391	-1.56666666667
741	0.3705	-9.41290322581	-18.3502407705	69.0097633136	-3.01111111111
742	0.371	-10.8258064516	-16.9443017657	73.2337278107	-1.56666666667
743	0.3715	-8.0	-23.9739967897	66.1937869822	-1.56666666667
744	0.372	-5.17419354839	-23.9739967897	71.825739645	-3.01111111111
745	0.3725	-8.0	-12.7264847512	74.6417159763	-0.122222222222
746	0.373	-0.935483870968	-7.10272873194	71.825739645	-0.122222222222
747	0.3735	-5.17419354839	-7.10272873194	60.5618343195	-0.122222222222
748	0.374	-0.935483870968	-4.29085072231	42.2579881657	5.65555555556
749	0.3745	-2.34838709677	-4.29085072231	36.626035503	-8.78888888889
750	0.375	-3.76129032258	-2.8849117175	35.2180473373	-5.9
751	0.3755	-2.34838709677	-14.132423756	67.6017751479	-4.45555555556
752	0.376	-2.34838709677	11.1744783307	84.4976331361	-3.01111111111
753	0.3765	-5.17419354839	-15.5383627608	91.5375739645	-3.01111111111
754	0.377	-8.0	-7.10272873194	85.9056213018	-4.45555555556
755	0.3775	3.30322580645	-5.69678972713	78.8656804734	-7.34444444444
756	0.378	-6.58709677419	-4.29085072231	80.2736686391	-5.9
757	0.3785	-5.17419354839	-5.69678972713	76.049704142	-5.9
758	0.379	-3.76129032258	-4.29085072231	95.7615384615	-3.01111111111
759	0.3795	-2.34838709677	-8.50866773676	74.6417159763	-4.45555555556
760	0.38	-8.0	8.36260032103	84.4976331361	-3.01111111111
761	0.3805	-8.0	-12.7264847512	78.8656804734	-4.45555555556
762	0.381	-5.17419354839	-8.50866773676	63.3778106509	-4.45555555556
763	0.3815	-16.4774193548	-5.69678972713	46.4819526627	-3.01111111111
764	0.382	-10.8258064516	-2.8849117175	36.626035503	8.54444444444
765	0.3825	-5.17419354839	-2.8849117175	30.9940828402	-7.34444444444
766	0.383	-5.17419354839	-7.10272873194	0.0183431952663	-3.01111111111
767	0.3835	-5.17419354839	-7.10272873194	-4.20562130178	8.54444444444
768	0.384	-3.76129032258	-4.29085072231	-23.9174556213	-7.34444444444
769	0.3845	-2.34838709677	-14.132423756	-14.0615384615	-3.01111111111
770	0.385	-3.76129032258	1.33290529695	-15.4695266272	-5.9
771	0.3855	1.89032258065	-9.91460674157	-23.9174556213	-0.122222222222
772	0.386	-10.8258064516	-16.9443017657	-25.325443787	-10.2333333333
773	0.3865	-6.58709677419	-22.5680577849	-11.2455621302	12.8777777778
774	0.387	-5.17419354839	-29.597752809	25.3621301775	-13.1222222222
775	0.3875	-8.0	-31.0036918138	46.4819526627	15.7666666667
776	0.388	-6.58709677419	-32.4096308186	70.4177514793	-4.45555555556
777	0.3885	-6.58709677419	-26.7858747994	87.3136094675	-1.56666666667
778	0.389	-5.17419354839	-23.9739967897	94.3535502959	-3.01111111111
779	0.3895	-9.41290322581	-9.91460674157	99.9855029586	-4.45555555556
780	0.39	1.89032258065	-12.7264847512	83.0896449704	-3.01111111111
781	0.3905	-0.935483870968	-9.91460674157	35.2180473373	-3.01111111111
782	0.391	-3.76129032258	-16.9443017657	-2.79763313609	-0.122222222222
783	0.3915	-8.0	-22.5680577849	-15.4695266272	-7.34444444444
784	0.392	-8.0	-22.5680577849	28.1781065089	-5.9
785	0.3925	-8.0	-28.1918138042	19.7301775148	-7.34444444444
786	0.393	-9.41290322581	-39.4393258427	28.1781065089	-4.45555555556
787	0.3935	-6.58709677419	-19.7561797753	11.2822485207	-4.45555555556
788	0.394	-10.8258064516	-26.7858747994	-7.02159763314	-4.45555555556
789	0.3945	-0.935483870968	-23.9739967897	-12.6535502959	-3.01111111111
790	0.395	-17.8903225806	-19.7561797753	1.42633136095	-4.45555555556
791	0.3955	-5.17419354839	-12.7264847512	21.1381656805	-0.122222222222
792	0.396	-3.76129032258	-9.91460674157	29.5860946746	-10.2333333333
793	0.3965	-3.76129032258	4.14478330658	30.9940828402	-3.01111111111
794	0.397	-2.34838709677	11.1744783307	38.0340236686	-5.9
795	0.3975	-0.935483870968	5.5507223114	26.7701183432	-1.56666666667
796	0.398	-3.76129032258	33.6695024077	18.3221893491	-4.45555555556
797	0.3985	-5.17419354839	12.5804173355	2.83431952663	-5.9
798	0.399	-0.935483870968	16.7982343499	-8.42958579882	-4.45555555556
799	0.3995	-12.2387096774	4.14478330658	0.0183431952663	-4.45555555556
800	0.4	-9.41290322581	-0.0730337078652	7.05828402367	-4.45555555556
801	0.4005	-5.17419354839	5.5507223114	21.1381656805	4.21111111111
802	0.401	-8.0	6.95666131621	19.7301775148	-7.34444444444
803	0.4015	-5.17419354839	1.33290529695	36.626035503	-4.45555555556
804	0.402	-3.76129032258	2.73884430177	29.5860946746	-5.9
805	0.4025	-3.76129032258	-1.47897271268	39.4420118343	-4.45555555556
806	0.403	-5.17419354839	11.1744783307	46.4819526627	-4.45555555556
807	0.4035	3.30322580645	1.33290529695	33.8100591716	-1.56666666667
808	0.404	-10.8258064516	1.33290529695	18.3221893491	-17.4555555556
809	0.4045	-8.0	1.33290529695	16.9142011834	12.8777777778
810	0.405	-8.0	-0.0730337078652	26.7701183432	-11.6777777778
811	0.4055	-5.17419354839	-4.29085072231	25.3621301775	-3.01111111111
812	0.406	-8.0	-5.69678972713	26.7701183432	-0.122222222222
813	0.4065	-8.0	-15.5383627608	28.1781065089	-4.45555555556
814	0.407	-5.17419354839	-0.0730337078652	35.2180473373	-1.56666666667
815	0.4075	-6.58709677419	-11.3205457464	38.0340236686	-4.45555555556
816	0.408	-3.76129032258	-12.7264847512	47.8899408284	-4.45555555556
817	0.4085	-12.2387096774	-11.3205457464	46.4819526627	-5.9
818	0.409	-15.064516129	-11.3205457464	46.4819526627	-1.56666666667
819	0.4095	-5.17419354839	-9.91460674157	56.3378698225	-13.1222222222
820	0.41	-6.58709677419	-11.3205457464	92.9455621302	-4.45555555556
821	0.4105	-9.41290322581	-11.3205457464	77.4576923077	-11.6777777778
822	0.411	-12.2387096774	-11.3205457464	83.0896449704	-4.45555555556
823	0.4115	-9.41290322581	-21.1621187801	73.2337278107	-4.45555555556
824	0.412	-9.41290322581	-21.1621187801	54.9298816568	-1.56666666667
825	0.4125	-9.41290322581	-19.7561797753	39.4420118343	-4.45555555556
826	0.413	-8.0	-19.7561797753	32.4020710059	-1.56666666667
827	0.4135	-10.8258064516	-15.5383627608	26.7701183432	-4.45555555556
828	0.414	-9.41290322581	-15.5383627608	26.7701183432	-0.122222222222
829	0.4145	-6.58709677419	-11.3205457464	21.1381656805	-4.45555555556
830	0.415	-3.76129032258	-15.5383627608	39.4420118343	-3.01111111111
831	0.4155	0.477419354839	-12.7264847512	45.073964497	-3.01111111111
832	0.416	-0.935483870968	-5.69678972713	46.4819526627	-3.01111111111
833	0.4165	-6.58709677419	-8.50866773676	38.0340236686	-7.34444444444
834	0.417	-0.935483870968	-1.47897271268	26.7701183432	-4.45555555556
835	0.4175	-15.064516129	-1.47897271268	19.7301775148	-4.45555555556
836	0.418	-13.6516129032	-7.10272873194	16.9142011834	-10.2333333333
837	0.4185	-6.58709677419	-5.69678972713	21.1381656805	5.65555555556
838	0.419	-5.17419354839	-11.3205457464	22.5461538462	-7.34444444444
839	0.4195	-8.0	-12.7264847512	35.2180473373	-3.01111111111
840	0.42	-6.58709677419	-12.7264847512	54.9298816568	-4.45555555556
841	0.4205	-8.0	-26.7858747994	64.7857988166	-4.45555555556
842	0.421	-6.58709677419	-1.47897271268	67.6017751479	-4.45555555556
843	0.4215	-16.4774193548	-15.5383627608	60.5618343195	-3.01111111111
844	0.422	-12.2387096774	-11.3205457464	57.7458579882	-4.45555555556
845	0.4225	0.477419354839	-11.3205457464	49.2979289941	-11.6777777778
846	0.423	-8.0	-12.7264847512	22.5461538462	-4.45555555556
847	0.4235	-6.58709677419	-7.10272873194	28.1781065089	-5.9
848	0.424	-5.17419354839	-4.29085072231	-1.38964497041	-5.9
849	0.4245	-3.76129032258	2.73884430177	26.7701183432	-5.9
850	0.425	-3.76129032258	-5.69678972713	42.2579881657	-5.9
851	0.4255	-2.34838709677	11.1744783307	52.1139053254	-3.01111111111
852	0.426	0.477419354839	-15.5383627608	52.1139053254	-5.9
853	0.4265	-15.064516129	-9.91460674157	50.7059171598	-7.34444444444
854	0.427	7.54193548387	-9.91460674157	57.7458579882	-8.78888888889
855	0.4275	-0.935483870968	-11.3205457464	50.7059171598	-7.34444444444
856	0.428	-5.17419354839	-9.91460674157	67.6017751479	-7.34444444444
857	0.4285	-6.58709677419	-8.50866773676	54.9298816568	-0.122222222222
858	0.429	-9.41290322581	-11.3205457464	64.7857988166	-3.01111111111
859	0.4295	-8.0	-8.50866773676	76.049704142	-3.01111111111
860	0.43	-9.41290322581	-18.3502407705	85.9056213018	-4.45555555556
861	0.4305	-10.8258064516	-9.91460674157	88.7215976331	-1.56666666667
862	0.431	-8.0	-9.91460674157	83.0896449704	-1.56666666667
863	0.4315	-2.34838709677	-5.69678972713	74.6417159763	-1.56666666667
864	0.432	-8.0	-7.10272873194	59.1538461538	2.76666666667
865	0.4325	-5.17419354839	-5.69678972713	60.5618343195	-4.45555555556
866	0.433	-8.0	-2.8849117175	36.626035503	-7.34444444444
867	0.4335	-6.58709677419	-4.29085072231	32.4020710059	-3.01111111111
868	0.434	-6.58709677419	-1.47897271268	8.46627218935	-1.56666666667
869	0.4345	-6.58709677419	-12.7264847512	-4.20562130178	-1.56666666667
870	0.435	-13.6516129032	-9.91460674157	-12.6535502959	-7.34444444444
871	0.4355	-2.34838709677	-9.91460674157	8.46627218935	-4.45555555556
872	0.436	-8.0	-12.7264847512	35.2180473373	-11.6777777778
873	0.4365	-8.0	-11.3205457464	49.2979289941	1.32222222222
874	0.437	-6.58709677419	-14.132423756	59.1538461538	-11.6777777778
875	0.4375	-6.58709677419	-9.91460674157	64.7857988166	-3.01111111111
876	0.438	-5.17419354839	-8.50866773676	43.6659763314	-3.01111111111
877	0.4385	-5.17419354839	-14.132423756	22.5461538462	-1.56666666667
878	0.439	-8.0	-7.10272873194	1.42633136095	-3.01111111111
879	0.4395	-2.34838709677	-7.10272873194	-15.4695266272	-3.01111111111
880	0.44	-17.8903225806	-7.10272873194	-18.2855029586	-4.45555555556
881	0.4405	11.7806451613	-8.50866773676	-2.79763313609	-1.56666666667
882	0.441	-17.8903225806	-5.69678972713	23.9541420118	-8.78888888889
883	0.4415	-8.0	-5.69678972713	49.2979289941	7.1
884	0.442	-6.58709677419	-9.91460674157	76.049704142	-5.9
885	0.4425	-5.17419354839	-9.91460674157	85.9056213018	-4.45555555556
886	0.443	-8.0	-1.47897271268	95.7615384615	-5.9
887	0.4435	-5.17419354839	-18.3502407705	87.3136094675	-5.9
888	0.444	-8.0	-18.3502407705	77.4576923077	-3.01111111111
889	0.4445	-3.76129032258	-19.7561797753	70.4177514793	-5.9
890	0.445	-16.4774193548	-18.3502407705	66.1937869822	-13.1222222222
891	0.4455	-9.41290322581	-21.1621187801	53.5218934911	15.7666666667
892	0.446	-5.17419354839	-19.7561797753	30.9940828402	-13.1222222222
893	0.4465	-8.0	-18.3502407705	8.46627218935	7.1
894	0.447	-5.17419354839	-14.132423756	2.83431952663	-3.01111111111
895	0.4475	-8.0	-28.1918138042	22.5461538462	-3.01111111111
896	0.448	-8.0	-1.47897271268	45.073964497	-3.01111111111
897	0.4485	-3.76129032258	2.73884430177	61.9698224852	-5.9
898	0.449	-12.2387096774	-11.3205457464	64.7857988166	-3.01111111111
899	0.4495	-10.8258064516	-5.69678972713	71.825739645	-5.9
900	0.45	-2.34838709677	-0.0730337078652	70.4177514793	-5.9
901	0.4505	-6.58709677419	1.33290529695	54.9298816568	1.32222222222
902	0.451	-6.58709677419	-4.29085072231	32.4020710059	-5.9
903	0.4515	-6.58709677419	-7.10272873194	40.85	-13.1222222222
904	0.452	-9.41290322581	-5.69678972713	42.2579881657	-7.34444444444
905	0.4525	-8.0	-12.7264847512	38.0340236686	-5.9
906	0.453	-8.0	4.14478330658	29.5860946746	-4.45555555556
907	0.4535	-10.8258064516	-16.9443017657	28.1781065089	-3.01111111111
908	0.454	-8.0	-11.3205457464	33.8100591716	-5.9
909	0.4545	-6.58709677419	-12.7264847512	33.8100591716	-8.78888888889
910	0.455	-13.6516129032	-14.132423756	19.7301775148	4.21111111111
911	0.4555	-6.58709677419	-15.5383627608	12.6902366864	-4.45555555556
912	0.456	-5.17419354839	-16.9443017657	-7.02159763314	-8.78888888889
913	0.4565	-6.58709677419	-18.3502407705	1.42633136095	-5.9
914	0.457	-5.17419354839	-12.7264847512	25.3621301775	-3.01111111111
915	0.4575	-3.76129032258	-23.9739967897	22.5461538462	-4.45555555556
916	0.458	-6.58709677419	-5.69678972713	32.4020710059	-5.9
917	0.4585	-5.17419354839	-7.10272873194	33.8100591716	-3.01111111111
918	0.459	-22.1290322581	-12.7264847512	30.9940828402	-5.9
919	0.4595	8.95483870968	-11.3205457464	21.1381656805	-1.56666666667
920	0.46	-22.1290322581	-12.7264847512	29.5860946746	-18.9
921	0.4605	-12.2387096774	-11.3205457464	29.5860946746	-7.34444444444
922	0.461	-19.3032258065	-12.7264847512	67.6017751479	-4.45555555556
923	0.4615	-22.1290322581	-9.91460674157	59.1538461538	-4.45555555556
924	0.462	-23.5419354839	-15.5383627608	81.6816568047	-5.9
925	0.4625	-19.3032258065	-12.7264847512	91.5375739645	-5.9
926	0.463	-17.8903225806	-28.1918138042	95.7615384615	-3.01111111111
927	0.4635	-19.3032258065	-25.3799357945	95.7615384615	-4.45555555556
928	0.464	-5.17419354839	-31.0036918138	97.1695266272	-4.45555555556
929	0.4645	-13.6516129032	-26.7858747994	83.0896449704	-13.1222222222
930	0.465	-12.2387096774	-26.7858747994	59.1538461538	8.54444444444
931	0.4655	-9.41290322581	-26.7858747994	45.073964497	-11.6777777778
932	0.466	-5.17419354839	-19.7561797753	25.3621301775	-7.34444444444
933	0.4665	0.477419354839	-21.1621187801	22.5461538462	-7.34444444444
934	0.467	4.71612903226	-22.5680577849	-4.20562130178	-7.34444444444
935	0.4675	10.3677419355	-1.47897271268	-35.1813609467	-4.45555555556
936	0.468	4.71612903226	-9.91460674157	-61.9331360947	-7.34444444444
937	0.4685	7.54193548387	-9.91460674157	-52.0772189349	-5.9
938	0.469	-5.17419354839	-4.29085072231	-30.9573964497	-8.78888888889
939	0.4695	-8.0	-8.50866773676	2.83431952663	-17.4555555556
940	0.47	-2.34838709677	-5.69678972713	36.626035503	9.98888888889
941	0.4705	-6.58709677419	-8.50866773676	67.6017751479	-14.5666666667
942	0.471	-10.8258064516	-4.29085072231	94.3535502959	-7.34444444444
943	0.4715	-9.41290322581	-0.0730337078652	119.697337278	-4.45555555556
944	0.472	-9.41290322581	-14.132423756	126.737278107	-3.01111111111
945	0.4725	-3.76129032258	15.3922953451	121.105325444	-5.9
946	0.473	-12.2387096774	-1.47897271268	105.617455621	-4.45555555556
947	0.4735	-0.935483870968	-0.0730337078652	87.3136094675	-13.1222222222
948	0.474	-10.8258064516	-1.47897271268	63.3778106509	9.98888888889
949	0.4745	-8.0	-5.69678972713	49.2979289941	-18.9
950	0.475	-8.0	-7.10272873194	28.1781065089	-4.45555555556
951	0.4755	-6.58709677419	-5.69678972713	33.8100591716	-4.45555555556
952	0.476	-2.34838709677	-16.9443017657	42.2579881657	-3.01111111111
953	0.4765	1.89032258065	4.14478330658	49.2979289941	-5.9
954	0.477	-2.34838709677	-16.9443017657	49.2979289941	-4.45555555556
955	0.4775	1.89032258065	-9.91460674157	30.9940828402	-3.01111111111
956	0.478	-12.2387096774	-12.7264847512	1.42633136095	-5.9
957	0.4785	-9.41290322581	-11.3205457464	-5.61360946746	-0.122222222222
958	0.479	-5.17419354839	-12.7264847512	18.3221893491	-3.01111111111
959	0.4795	-5.17419354839	-9.91460674157	26.7701183432	-7.34444444444
960	0.48	-5.17419354839	-12.7264847512	60.5618343195	-5.9
961	0.4805	-5.17419354839	-8.50866773676	49.2979289941	-3.01111111111
962	0.481	-3.76129032258	-18.3502407705	64.7857988166	-4.45555555556
963	0.4815	-3.76129032258	9.76853932584	83.0896449704	-3.01111111111
964	0.482	-5.17419354839	-14.132423756	83.0896449704	-7.34444444444
965	0.4825	-13.6516129032	-12.7264847512	77.4576923077	-4.45555555556
966	0.483	7.54193548387	-15.5383627608	70.4177514793	-10.2333333333
967	0.4835	-10.8258064516	-15.5383627608	54.9298816568	-4.45555555556
968	0.484	-5.17419354839	-15.5383627608	36.626035503	-1.56666666667
969	0.4845	-6.58709677419	-9.91460674157	7.05828402367	-4.45555555556
970	0.485	-5.17419354839	-12.7264847512	7.05828402367	-4.45555555556
971	0.4855	-5.17419354839	-7.10272873194	-4.20562130178	-4.45555555556
972	0.486	-8.0	-18.3502407705	5.65029585799	-4.45555555556
973	0.4865	-5.17419354839	-9.91460674157	18.3221893491	-1.56666666667
974	0.487	-16.4774193548	-9.91460674157	25.3621301775	-4.45555555556
975	0.4875	3.30322580645	-7.10272873194	32.4020710059	-10.2333333333
976	0.488	-10.8258064516	-8.50866773676	33.8100591716	7.1
977	0.4885	-5.17419354839	-8.50866773676	46.4819526627	-1.56666666667
978	0.489	-6.58709677419	-5.69678972713	8.46627218935	-3.01111111111
979	0.4895	-6.58709677419	-8.50866773676	-1.38964497041	-0.122222222222
980	0.49	-8.0	-18.3502407705	-14.0615384615	-4.45555555556
981	0.4905	-6.58709677419	5.5507223114	-30.9573964497	-3.01111111111
982	0.491	-8.0	-21.1621187801	-30.9573964497	-3.01111111111
983	0.4915	-16.4774193548	-9.91460674157	-19.6934911243	-3.01111111111
984	0.492	0.477419354839	-8.50866773676	-2.79763313609	-7.34444444444
985	0.4925	-10.8258064516	-8.50866773676	15.5062130178	-0.122222222222
986	0.493	-8.0	-12.7264847512	22.5461538462	-8.78888888889
987	0.4935	-9.41290322581	-11.3205457464	54.9298816568	-4.45555555556
988	0.494	-12.2387096774	-8.50866773676	43.6659763314	-3.01111111111
989	0.4945	-6.58709677419	-9.91460674157	32.4020710059	-3.01111111111
990	0.495	-5.17419354839	1.33290529695	36.626035503	-4.45555555556
991	0.4955	-5.17419354839	-19.7561797753	49.2979289941	-3.01111111111
992	0.496	10.3677419355	-5.69678972713	60.5618343195	-4.45555555556
993	0.4965	1.89032258065	-8.50866773676	61.9698224852	-10.2333333333
994	0.497	-9.41290322581	-9.91460674157	42.2579881657	-3.01111111111
995	0.4975	-5.17419354839	-14.132423756	21.1381656805	-11.6777777778
996	0.498	-8.0	-16.9443017657	40.85	-5.9
997	0.4985	-6.58709677419	-21.1621187801	36.626035503	-4.45555555556
998	0.499	-8.0	-15.5383627608	59.1538461538	-5.9
999	0.4995	-9.41290322581	-21.1621187801	70.4177514793	-8.78888888889
1000	0.5	-3.76129032258	-15.5383627608	66.1937869822	-7.34444444444
1001	0.5005	-19.3032258065	-12.7264847512	52.1139053254	-8.78888888889
1002	0.501	-6.58709677419	-11.3205457464	33.8100591716	7.1
1003	0.5015	-8.0	-2.8849117175	26.7701183432	-8.78888888889
1004	0.502	-8.0	-2.8849117175	39.4420118343	-5.9
1005	0.5025	-9.41290322581	4.14478330658	32.4020710059	-3.01111111111
1006	0.503	-5.17419354839	-4.29085072231	39.4420118343	-4.45555555556
1007	0.5035	-5.17419354839	13.9863563403	38.0340236686	-1.56666666667
1008	0.504	-6.58709677419	19.6101123596	36.626035503	-3.01111111111
1009	0.5045	-10.8258064516	-0.0730337078652	43.6659763314	-0.122222222222
1010	0.505	-0.935483870968	-4.29085072231	54.9298816568	-7.34444444444
1011	0.5055	-8.0	-5.69678972713	53.5218934911	9.98888888889
1012	0.506	-6.58709677419	-4.29085072231	49.2979289941	-14.5666666667
1013	0.5065	-6.58709677419	-8.50866773676	22.5461538462	-5.9
1014	0.507	-8.0	-8.50866773676	-5.61360946746	-4.45555555556
1015	0.5075	-6.58709677419	-15.5383627608	-30.9573964497	-4.45555555556
1016	0.508	-8.0	-5.69678972713	-42.2213017751	-4.45555555556
1017	0.5085	-6.58709677419	-2.8849117175	-29.549408284	-3.01111111111
1018	0.509	-5.17419354839	-11.3205457464	-14.0615384615	-4.45555555556
1019	0.5095	-10.8258064516	-9.91460674157	2.83431952663	-4.45555555556
1020	0.51	-12.2387096774	-12.7264847512	7.05828402367	-3.01111111111
1021	0.5105	-8.0	-18.3502407705	7.05828402367	-10.2333333333
1022	0.511	-8.0	-18.3502407705	30.9940828402	-4.45555555556
1023	0.5115	-6.58709677419	-23.9739967897	4.24230769231	-10.2333333333
1024	0.512	-9.41290322581	-26.7858747994	11.2822485207	-3.01111111111
1025	0.5125	-9.41290322581	-35.2215088283	5.65029585799	-3.01111111111
1026	0.513	-10.8258064516	-29.597752809	8.46627218935	-3.01111111111
1027	0.5135	-8.0	-29.597752809	14.0982248521	-1.56666666667
1028	0.514	-9.41290322581	-35.2215088283	19.7301775148	-1.56666666667
1029	0.5145	-5.17419354839	-31.0036918138	26.7701183432	1.32222222222
1030	0.515	-6.58709677419	-26.7858747994	25.3621301775	-0.122222222222
1031	0.5155	-6.58709677419	-21.1621187801	39.4420118343	-1.56666666667
1032	0.516	-5.17419354839	-9.91460674157	22.5461538462	-4.45555555556
1033	0.5165	-6.58709677419	-16.9443017657	42.2579881657	-4.45555555556
1034	0.517	-6.58709677419	9.76853932584	46.4819526627	-3.01111111111
1035	0.5175	-5.17419354839	-12.7264847512	49.2979289941	-1.56666666667
1036	0.518	-16.4774193548	-7.10272873194	45.073964497	-4.45555555556
1037	0.5185	3.30322580645	1.33290529695	36.626035503	-0.122222222222
1038	0.519	-5.17419354839	15.3922953451	33.8100591716	-13.1222222222
1039	0.5195	-8.0	11.1744783307	19.7301775148	-1.56666666667
1040	0.52	-9.41290322581	-7.10272873194	22.5461538462	-7.34444444444
1041	0.5205	-10.8258064516	-29.597752809	39.4420118343	-1.56666666667
1042	0.521	-8.0	-33.8155698234	59.1538461538	-3.01111111111
1043	0.5215	-9.41290322581	-56.3105939005	64.7857988166	-1.56666666667
1044	0.522	-10.8258064516	-54.9046548957	56.3378698225	-0.122222222222
1045	0.5225	-3.76129032258	-56.3105939005	54.9298816568	-3.01111111111
1046	0.523	-8.0	-50.6868378812	43.6659763314	-11.6777777778
1047	0.5235	-9.41290322581	-32.4096308186	36.626035503	-1.56666666667
1048	0.524	-9.41290322581	-14.132423756	43.6659763314	-7.34444444444
1049	0.5245	-8.0	2.73884430177	11.2822485207	-7.34444444444
1050	0.525	-6.58709677419	13.9863563403	26.7701183432	-5.9
1051	0.5255	-8.0	6.95666131621	18.3221893491	-3.01111111111
1052	0.526	-6.58709677419	13.9863563403	19.7301775148	-0.122222222222
1053	0.5265	-19.3032258065	23.827929374	22.5461538462	-3.01111111111
1054	0.527	8.95483870968	21.0160513644	19.7301775148	-4.45555555556
1055	0.5275	-16.4774193548	16.7982343499	22.5461538462	-7.34444444444
1056	0.528	-8.0	11.1744783307	25.3621301775	-10.2333333333
1057	0.5285	-8.0	15.3922953451	21.1381656805	-1.56666666667
1058	0.529	-9.41290322581	1.33290529695	23.9541420118	-1.56666666667
1059	0.5295	-8.0	-0.0730337078652	22.5461538462	-0.122222222222
1060	0.53	-8.0	-12.7264847512	25.3621301775	-3.01111111111
1061	0.5305	-10.8258064516	-2.8849117175	22.5461538462	-3.01111111111
1062	0.531	-2.34838709677	-8.50866773676	25.3621301775	-1.56666666667
1063	0.5315	-2.34838709677	-8.50866773676	32.4020710059	-7.34444444444
1064	0.532	-13.6516129032	-5.69678972713	30.9940828402	5.65555555556
1065	0.5325	-10.8258064516	-4.29085072231	32.4020710059	-13.1222222222
1066	0.533	-8.0	-0.0730337078652	22.5461538462	-3.01111111111
1067	0.5335	-8.0	-1.47897271268	30.9940828402	-7.34444444444
1068	0.534	-9.41290322581	5.5507223114	32.4020710059	-4.45555555556
1069	0.5345	-8.0	-5.69678972713	33.8100591716	-4.45555555556
1070	0.535	-5.17419354839	9.76853932584	35.2180473373	-4.45555555556
1071	0.5355	3.30322580645	-1.47897271268	33.8100591716	-1.56666666667
1072	0.536	-5.17419354839	-4.29085072231	40.85	-16.0111111111
1073	0.5365	-6.58709677419	-0.0730337078652	33.8100591716	15.7666666667
1074	0.537	-5.17419354839	-1.47897271268	36.626035503	-8.78888888889
1075	0.5375	-6.58709677419	1.33290529695	36.626035503	7.1
1076	0.538	-8.0	2.73884430177	33.8100591716	-4.45555555556
1077	0.5385	-8.0	-15.5383627608	38.0340236686	-1.56666666667
1078	0.539	-6.58709677419	-15.5383627608	38.0340236686	-4.45555555556
1079	0.5395	-5.17419354839	-7.10272873194	36.626035503	-3.01111111111
1080	0.54	-9.41290322581	-11.3205457464	35.2180473373	-3.01111111111
1081	0.5405	-0.935483870968	-15.5383627608	36.626035503	-0.122222222222
1082	0.541	-12.2387096774	-14.132423756	50.7059171598	-14.5666666667
1083	0.5415	-9.41290322581	-16.9443017657	53.5218934911	15.7666666667
1084	0.542	-10.8258064516	-16.9443017657	77.4576923077	-3.01111111111
1085	0.5425	-10.8258064516	-16.9443017657	60.5618343195	-1.56666666667
1086	0.543	-10.8258064516	-14.132423756	71.825739645	-3.01111111111
1087	0.5435	-12.2387096774	-21.1621187801	81.6816568047	-5.9
1088	0.544	-8.0	-11.3205457464	87.3136094675	-4.45555555556
1089	0.5445	-5.17419354839	-16.9443017657	92.9455621302	-4.45555555556
1090	0.545	-10.8258064516	-7.10272873194	94.3535502959	-3.01111111111
1091	0.5455	-5.17419354839	-5.69678972713	99.9855029586	-3.01111111111
1092	0.546	-6.58709677419	-12.7264847512	101.393491124	-3.01111111111
1093	0.5465	-9.41290322581	-8.50866773676	142.225147929	-4.45555555556
1094	0.547	-6.58709677419	-12.7264847512	136.593195266	-4.45555555556
1095	0.5475	-5.17419354839	6.95666131621	152.081065089	-0.122222222222
1096	0.548	-5.17419354839	2.73884430177	133.777218935	-4.45555555556
1097	0.5485	-6.58709677419	-9.91460674157	101.393491124	-1.56666666667
1098	0.549	-16.4774193548	-0.0730337078652	70.4177514793	-4.45555555556
1099	0.5495	-12.2387096774	1.33290529695	56.3378698225	-1.56666666667
1100	0.55	-9.41290322581	6.95666131621	45.073964497	-14.5666666667
1101	0.5505	-8.0	1.33290529695	32.4020710059	-11.6777777778
1102	0.551	-6.58709677419	2.73884430177	11.2822485207	-5.9
1103	0.5515	-9.41290322581	-0.0730337078652	22.5461538462	-4.45555555556
1104	0.552	-9.41290322581	-5.69678972713	40.85	-3.01111111111
1105	0.5525	-6.58709677419	6.95666131621	64.7857988166	-4.45555555556
1106	0.553	-17.8903225806	-4.29085072231	71.825739645	-3.01111111111
1107	0.5535	-15.064516129	-5.69678972713	76.049704142	-1.56666666667
1108	0.554	11.7806451613	-1.47897271268	77.4576923077	-0.122222222222
1109	0.5545	-3.76129032258	-1.47897271268	88.7215976331	-13.1222222222
1110	0.555	-5.17419354839	-0.0730337078652	101.393491124	8.54444444444
1111	0.5555	-6.58709677419	-4.29085072231	122.513313609	-1.56666666667
1112	0.556	-8.0	-5.69678972713	122.513313609	-3.01111111111
1113	0.5565	-6.58709677419	-4.29085072231	129.553254438	-1.56666666667
1114	0.557	-10.8258064516	-12.7264847512	123.921301775	-3.01111111111
1115	0.5575	-5.17419354839	-8.50866773676	107.025443787	-3.01111111111
1116	0.558	-22.1290322581	-8.50866773676	102.80147929	-5.9
1117	0.5585	7.54193548387	-8.50866773676	109.841420118	-0.122222222222
1118	0.559	-10.8258064516	-8.50866773676	123.921301775	-11.6777777778
1119	0.5595	-9.41290322581	-8.50866773676	112.65739645	-4.45555555556
1120	0.56	-9.41290322581	-4.29085072231	121.105325444	-4.45555555556
1121	0.5605	-8.0	-5.69678972713	84.4976331361	-3.01111111111
1122	0.561	-9.41290322581	-2.8849117175	78.8656804734	-1.56666666667
1123	0.5615	-10.8258064516	-2.8849117175	40.85	-0.122222222222
1124	0.562	-2.34838709677	-7.10272873194	1.42633136095	-0.122222222222
1125	0.5625	-16.4774193548	-2.8849117175	-21.1014792899	-0.122222222222
1126	0.563	14.6064516129	-2.8849117175	-12.6535502959	1.32222222222
1127	0.5635	-3.76129032258	-5.69678972713	16.9142011834	-10.2333333333
1128	0.564	-9.41290322581	-5.69678972713	7.05828402367	-3.01111111111
1129	0.5645	-8.0	-8.50866773676	8.46627218935	-10.2333333333
1130	0.565	-8.0	-5.69678972713	-11.2455621302	-3.01111111111
1131	0.5655	-5.17419354839	-9.91460674157	14.0982248521	-1.56666666667
1132	0.566	-3.76129032258	6.95666131621	-8.42958579882	-3.01111111111
1133	0.5665	-3.76129032258	-12.7264847512	-21.1014792899	-5.9
1134	0.567	-9.41290322581	-7.10272873194	-30.9573964497	-7.34444444444
1135	0.5675	0.477419354839	-5.69678972713	-39.4053254438	-1.56666666667
1136	0.568	-9.41290322581	-7.10272873194	-39.4053254438	1.32222222222
1137	0.5685	-12.2387096774	-8.50866773676	-30.9573964497	-4.45555555556
1138	0.569	-8.0	-5.69678972713	-14.0615384615	-5.9
1139	0.5695	-12.2387096774	-5.69678972713	-22.5094674556	-5.9
1140	0.57	-12.2387096774	-19.7561797753	-4.20562130178	-4.45555555556
1141	0.5705	-10.8258064516	-7.10272873194	-9.8375739645	-3.01111111111
1142	0.571	-10.8258064516	-14.132423756	-26.7334319527	-3.01111111111
1143	0.5715	-0.935483870968	-5.69678972713	-35.1813609467	-0.122222222222
1144	0.572	-19.3032258065	-5.69678972713	-25.325443787	-11.6777777778
1145	0.5725	-10.8258064516	-5.69678972713	-11.2455621302	-0.122222222222
1146	0.573	-8.0	-5.69678972713	-2.79763313609	-7.34444444444
1147	0.5735	-8.0	-2.8849117175	-8.42958579882	7.1
1148	0.574	-8.0	-5.69678972713	-15.4695266272	-3.01111111111
1149	0.5745	-9.41290322581	-1.47897271268	-12.6535502959	-3.01111111111
1150	0.575	-8.0	-16.9443017657	-4.20562130178	-5.9
1151	0.5755	-5.17419354839	11.1744783307	14.0982248521	-1.56666666667
1152	0.576	-13.6516129032	-5.69678972713	33.8100591716	-3.01111111111
1153	0.5765	14.6064516129	-2.8849117175	49.2979289941	-0.122222222222
1154	0.577	-9.41290322581	-1.47897271268	59.1538461538	-5.9
1155	0.5775	-3.76129032258	-4.29085072231	70.4177514793	-5.9
1156	0.578	-3.76129032258	-4.29085072231	78.8656804734	-1.56666666667
1157	0.5785	-3.76129032258	-5.69678972713	66.1937869822	-3.01111111111
1158	0.579	-3.76129032258	-7.10272873194	61.9698224852	-3.01111111111
1159	0.5795	0.477419354839	-18.3502407705	36.626035503	-1.56666666667
1160	0.58	0.477419354839	-9.91460674157	30.9940828402	-0.122222222222
1161	0.5805	-17.8903225806	-7.10272873194	29.5860946746	-3.01111111111
1162	0.581	13.1935483871	-5.69678972713	32.4020710059	-0.122222222222
1163	0.5815	-13.6516129032	-5.69678972713	28.1781065089	-1.56666666667
1164	0.582	-6.58709677419	-5.69678972713	11.2822485207	-4.45555555556
1165	0.5825	-9.41290322581	-4.29085072231	28.1781065089	-4.45555555556
1166	0.583	-8.0	-7.10272873194	5.65029585799	-7.34444444444
1167	0.5835	-6.58709677419	-1.47897271268	12.6902366864	-3.01111111111
1168	0.584	-6.58709677419	1.33290529695	7.05828402367	-3.01111111111
1169	0.5845	-5.17419354839	-9.91460674157	12.6902366864	-4.45555555556
1170	0.585	-20.7161290323	-5.69678972713	7.05828402367	-5.9
1171	0.5855	10.3677419355	-7.10272873194	-4.20562130178	-1.56666666667
1172	0.586	-8.0	-8.50866773676	-5.61360946746	-5.9
1173	0.5865	-8.0	-8.50866773676	2.83431952663	2.76666666667
1174	0.587	-6.58709677419	-8.50866773676	29.5860946746	-3.01111111111
1175	0.5875	-6.58709677419	-4.29085072231	14.0982248521	-1.56666666667
1176	0.588	-8.0	-8.50866773676	7.05828402367	-1.56666666667
1177	0.5885	-9.41290322581	-2.8849117175	14.0982248521	-1.56666666667
1178	0.589	-5.17419354839	-9.91460674157	18.3221893491	-1.56666666667
1179	0.5895	-19.3032258065	-5.69678972713	21.1381656805	-0.122222222222
1180	0.59	-5.17419354839	-8.50866773676	15.5062130178	-1.56666666667
1181	0.5905	-8.0	-8.50866773676	14.0982248521	2.76666666667
1182	0.591	-6.58709677419	-4.29085072231	8.46627218935	4.21111111111
1183	0.5915	-8.0	-2.8849117175	14.0982248521	-4.45555555556
1184	0.592	-9.41290322581	-0.0730337078652	26.7701183432	-4.45555555556
1185	0.5925	-6.58709677419	-5.69678972713	38.0340236686	-1.56666666667
1186	0.593	-9.41290322581	5.5507223114	47.8899408284	-3.01111111111
1187	0.5935	-2.34838709677	-4.29085072231	45.073964497	-4.45555555556
1188	0.594	-12.2387096774	-7.10272873194	43.6659763314	-5.9
1189	0.5945	-13.6516129032	-8.50866773676	49.2979289941	12.8777777778
1190	0.595	-9.41290322581	-5.69678972713	46.4819526627	-16.0111111111
1191	0.5955	-9.41290322581	-7.10272873194	43.6659763314	-11.6777777778
1192	0.596	-8.0	-7.10272873194	45.073964497	-4.45555555556
1193	0.5965	-6.58709677419	-8.50866773676	78.8656804734	-3.01111111111
1194	0.597	-6.58709677419	-12.7264847512	87.3136094675	-3.01111111111
1195	0.5975	-5.17419354839	-1.47897271268	108.433431953	-1.56666666667
1196	0.598	-2.34838709677	-9.91460674157	116.881360947	-5.9
1197	0.5985	-16.4774193548	-4.29085072231	118.289349112	-4.45555555556
1198	0.599	11.7806451613	-1.47897271268	108.433431953	-7.34444444444
1199	0.5995	-6.58709677419	-2.8849117175	78.8656804734	-8.78888888889
1200	0.6	-6.58709677419	-1.47897271268	52.1139053254	-7.34444444444
1201	0.6005	-9.41290322581	-5.69678972713	18.3221893491	-5.9
1202	0.601	-8.0	-9.91460674157	38.0340236686	-3.01111111111
1203	0.6015	-9.41290322581	-12.7264847512	80.2736686391	-4.45555555556
1204	0.602	-5.17419354839	-9.91460674157	112.65739645	-5.9
1205	0.6025	-3.76129032258	-12.7264847512	133.777218935	-0.122222222222
1206	0.603	-16.4774193548	-4.29085072231	126.737278107	-5.9
1207	0.6035	-6.58709677419	-2.8849117175	97.1695266272	5.65555555556
1208	0.604	-8.0	-1.47897271268	43.6659763314	-5.9
1209	0.6045	-10.8258064516	-2.8849117175	18.3221893491	-0.122222222222
1210	0.605	-10.8258064516	-1.47897271268	-33.7733727811	-0.122222222222
1211	0.6055	-8.0	-5.69678972713	-29.549408284	-1.56666666667
1212	0.606	-2.34838709677	15.3922953451	-18.2855029586	-1.56666666667
1213	0.6065	-8.0	-12.7264847512	-1.38964497041	-4.45555555556
1214	0.607	-8.0	-2.8849117175	26.7701183432	-4.45555555556
1215	0.6075	-5.17419354839	-7.10272873194	50.7059171598	-4.45555555556
1216	0.608	-5.17419354839	-9.91460674157	73.2337278107	-11.6777777778
1217	0.6085	-5.17419354839	-11.3205457464	69.0097633136	-7.34444444444
1218	0.609	-10.8258064516	-9.91460674157	85.9056213018	-3.01111111111
1219	0.6095	-9.41290322581	-8.50866773676	45.073964497	-4.45555555556
1220	0.61	-8.0	-11.3205457464	46.4819526627	-5.9
1221	0.6105	-10.8258064516	-11.3205457464	12.6902366864	-7.34444444444
1222	0.611	-12.2387096774	-5.69678972713	-8.42958579882	-3.01111111111
1223	0.6115	-6.58709677419	-8.50866773676	-11.2455621302	-3.01111111111
1224	0.612	-22.1290322581	-9.91460674157	4.24230769231	-7.34444444444
1225	0.6125	-10.8258064516	-9.91460674157	26.7701183432	-1.56666666667
1226	0.613	-6.58709677419	-14.132423756	40.85	9.98888888889
1227	0.6135	-6.58709677419	-11.3205457464	59.1538461538	-8.78888888889
1228	0.614	-8.0	-9.91460674157	74.6417159763	-1.56666666667
1229	0.6145	-8.0	-12.7264847512	87.3136094675	-1.56666666667
1230	0.615	-6.58709677419	-21.1621187801	84.4976331361	-3.01111111111
1231	0.6155	-6.58709677419	2.73884430177	73.2337278107	-1.56666666667
1232	0.616	-10.8258064516	-8.50866773676	49.2979289941	-3.01111111111
1233	0.6165	6.12903225806	-8.50866773676	18.3221893491	-1.56666666667
1234	0.617	-16.4774193548	-12.7264847512	-14.0615384615	-4.45555555556
1235	0.6175	-6.58709677419	-16.9443017657	-14.0615384615	17.2111111111
1236	0.618	-9.41290322581	-18.3502407705	12.6902366864	-14.5666666667
1237	0.6185	-10.8258064516	-21.1621187801	40.85	5.65555555556
1238	0.619	-10.8258064516	-21.1621187801	60.5618343195	-5.9
1239	0.6195	-8.0	-35.2215088283	66.1937869822	-1.56666666667
1240	0.62	-6.58709677419	-15.5383627608	54.9298816568	-3.01111111111
1241	0.6205	-10.8258064516	-12.7264847512	19.7301775148	-4.45555555556
1242	0.621	-5.17419354839	-11.3205457464	-15.4695266272	1.32222222222
1243	0.6215	-12.2387096774	-8.50866773676	-40.8133136095	-4.45555555556
1244	0.622	-9.41290322581	-8.50866773676	-37.9973372781	12.8777777778
1245	0.6225	-8.0	-4.29085072231	8.46627218935	-3.01111111111
1246	0.623	-6.58709677419	-8.50866773676	15.5062130178	-0.122222222222
1247	0.6235	-6.58709677419	-15.5383627608	32.4020710059	-1.56666666667
1248	0.624	-8.0	-26.7858747994	28.1781065089	-1.56666666667
1249	0.6245	-6.58709677419	-4.29085072231	29.5860946746	-1.56666666667
1250	0.625	-0.935483870968	-9.91460674157	30.9940828402	-4.45555555556
1251	0.6255	-17.8903225806	-2.8849117175	28.1781065089	-1.56666666667
1252	0.626	-5.17419354839	-4.29085072231	33.8100591716	-0.122222222222
1253	0.6265	-6.58709677419	-1.47897271268	40.85	-11.6777777778
1254	0.627	-5.17419354839	2.73884430177	42.2579881657	-1.56666666667
1255	0.6275	-5.17419354839	5.5507223114	26.7701183432	-1.56666666667
1256	0.628	-6.58709677419	8.36260032103	43.6659763314	-1.56666666667
1257	0.6285	-5.17419354839	13.9863563403	16.9142011834	1.32222222222
1258	0.629	-2.34838709677	6.95666131621	4.24230769231	2.76666666667
1259	0.6295	-13.6516129032	6.95666131621	5.65029585799	-0.122222222222
1260	0.63	8.95483870968	1.33290529695	1.42633136095	2.76666666667
1261	0.6305	-10.8258064516	1.33290529695	1.42633136095	-10.2333333333
1262	0.631	-5.17419354839	-1.47897271268	-8.42958579882	4.21111111111
1263	0.6315	-0.935483870968	1.33290529695	-19.6934911243	-4.45555555556
1264	0.632	-5.17419354839	4.14478330658	-2.79763313609	1.32222222222
1265	0.6325	-5.17419354839	-0.0730337078652	-14.0615384615	1.32222222222
1266	0.633	-3.76129032258	22.4219903692	-8.42958579882	-0.122222222222
1267	0.6335	-2.34838709677	-2.8849117175	-14.0615384615	1.32222222222
1268	0.634	-5.17419354839	6.95666131621	-25.325443787	4.21111111111
1269	0.6345	-3.76129032258	-1.47897271268	-37.9973372781	7.1
1270	0.635	-8.0	6.95666131621	-43.6292899408	-0.122222222222
1271	0.6355	-5.17419354839	8.36260032103	-46.4452662722	14.3222222222
1272	0.636	-2.34838709677	6.95666131621	-47.8532544379	-1.56666666667
1273	0.6365	-2.34838709677	8.36260032103	-29.549408284	4.21111111111
1274	0.637	-2.34838709677	13.9863563403	-21.1014792899	4.21111111111
1275	0.6375	-0.935483870968	2.73884430177	-14.0615384615	4.21111111111
1276	0.638	0.477419354839	25.2338683788	-7.02159763314	4.21111111111
1277	0.6385	-2.34838709677	21.0160513644	-2.79763313609	7.1
1278	0.639	3.30322580645	22.4219903692	2.83431952663	2.76666666667
1279	0.6395	-2.34838709677	23.827929374	4.24230769231	-4.45555555556
1280	0.64	-2.34838709677	18.2041733547	1.42633136095	8.54444444444
1281	0.6405	0.477419354839	5.5507223114	-7.02159763314	-3.01111111111
1282	0.641	0.477419354839	2.73884430177	-30.9573964497	20.1
1283	0.6415	-0.935483870968	6.95666131621	-52.0772189349	2.76666666667
1284	0.642	0.477419354839	4.14478330658	-49.2612426036	4.21111111111
1285	0.6425	-2.34838709677	8.36260032103	-53.4852071006	1.32222222222
1286	0.643	0.477419354839	4.14478330658	-50.6692307692	2.76666666667
1287	0.6435	-9.41290322581	6.95666131621	-59.1171597633	2.76666666667
1288	0.644	10.3677419355	9.76853932584	-66.1571005917	2.76666666667
1289	0.6445	-6.58709677419	22.4219903692	-71.7890532544	-0.122222222222
1290	0.645	1.89032258065	25.2338683788	-81.6449704142	2.76666666667
1291	0.6455	3.30322580645	22.4219903692	-57.7091715976	2.76666666667
1292	0.646	-2.34838709677	18.2041733547	-76.0130177515	1.32222222222
1293	0.6465	-0.935483870968	18.2041733547	-54.8931952663	2.76666666667
1294	0.647	0.477419354839	29.4516853933	-63.3411242604	4.21111111111
1295	0.6475	1.89032258065	25.2338683788	-57.7091715976	4.21111111111
1296	0.648	-8.0	30.8576243981	-46.4452662722	-0.122222222222
1297	0.6485	17.4322580645	35.0754414125	-37.9973372781	2.76666666667
1298	0.649	-6.58709677419	35.0754414125	-29.549408284	-11.6777777778
1299	0.6495	1.89032258065	36.4813804173	-25.325443787	17.2111111111
1300	0.65	0.477419354839	30.8576243981	-16.8775147929	-10.2333333333
1301	0.6505	0.477419354839	28.0457463884	-12.6535502959	-1.56666666667
1302	0.651	0.477419354839	28.0457463884	-32.3653846154	-8.78888888889
1303	0.6515	1.89032258065	35.0754414125	-22.5094674556	-1.56666666667
1304	0.652	0.477419354839	29.4516853933	-19.6934911243	-3.01111111111
1305	0.6525	1.89032258065	22.4219903692	-23.9174556213	-0.122222222222
1306	0.653	-8.0	23.827929374	-28.1414201183	-13.1222222222
1307	0.6535	-5.17419354839	21.0160513644	-30.9573964497	-0.122222222222
1308	0.654	-0.935483870968	21.0160513644	-21.1014792899	-10.2333333333
1309	0.6545	-6.58709677419	16.7982343499	-15.4695266272	-3.01111111111
1310	0.655	-5.17419354839	15.3922953451	18.3221893491	-3.01111111111
1311	0.6555	-9.41290322581	6.95666131621	8.46627218935	-3.01111111111
1312	0.656	-3.76129032258	16.7982343499	21.1381656805	-3.01111111111
1313	0.6565	-8.0	6.95666131621	15.5062130178	-1.56666666667
1314	0.657	-0.935483870968	4.14478330658	18.3221893491	-1.56666666667
1315	0.6575	-10.8258064516	6.95666131621	35.2180473373	-13.1222222222
1316	0.658	-6.58709677419	6.95666131621	49.2979289941	-3.01111111111
1317	0.6585	-5.17419354839	6.95666131621	64.7857988166	-10.2333333333
1318	0.659	-6.58709677419	6.95666131621	66.1937869822	9.98888888889
1319	0.6595	-8.0	6.95666131621	60.5618343195	-7.34444444444
1320	0.66	-8.0	4.14478330658	71.825739645	-4.45555555556
1321	0.6605	-8.0	1.33290529695	63.3778106509	-5.9
1322	0.661	-9.41290322581	-8.50866773676	54.9298816568	-4.45555555556
1323	0.6615	-17.8903225806	-4.29085072231	35.2180473373	-3.01111111111
1324	0.662	0.477419354839	-5.69678972713	15.5062130178	-0.122222222222
1325	0.6625	-13.6516129032	-5.69678972713	14.0982248521	-14.5666666667
1326	0.663	-12.2387096774	-2.8849117175	4.24230769231	-1.56666666667
1327	0.6635	-10.8258064516	-4.29085072231	-8.42958579882	-10.2333333333
1328	0.664	-9.41290322581	-4.29085072231	11.2822485207	-7.34444444444
1329	0.6645	-10.8258064516	-7.10272873194	2.83431952663	-4.45555555556
1330	0.665	-8.0	-15.5383627608	23.9541420118	-7.34444444444
1331	0.6655	-6.58709677419	16.7982343499	32.4020710059	-3.01111111111
1332	0.666	-5.17419354839	-7.10272873194	46.4819526627	-3.01111111111
1333	0.6665	-17.8903225806	-0.0730337078652	67.6017751479	-5.9
1334	0.667	-9.41290322581	-4.29085072231	74.6417159763	4.21111111111
1335	0.6675	-8.0	-8.50866773676	83.0896449704	-11.6777777778
1336	0.668	-12.2387096774	-7.10272873194	67.6017751479	-5.9
1337	0.6685	-9.41290322581	-5.69678972713	73.2337278107	-14.5666666667
1338	0.669	-6.58709677419	-5.69678972713	45.073964497	-5.9
1339	0.6695	-8.0	-9.91460674157	43.6659763314	-5.9
1340	0.67	-8.0	-9.91460674157	36.626035503	-5.9
1341	0.6705	-5.17419354839	-15.5383627608	21.1381656805	-4.45555555556
1342	0.671	0.477419354839	-9.91460674157	15.5062130178	-1.56666666667
1343	0.6715	-13.6516129032	-9.91460674157	28.1781065089	-14.5666666667
1344	0.672	-9.41290322581	-8.50866773676	36.626035503	-3.01111111111
1345	0.6725	-8.0	-5.69678972713	49.2979289941	-11.6777777778
1346	0.673	-8.0	-2.8849117175	33.8100591716	8.54444444444
1347	0.6735	-10.8258064516	-8.50866773676	4.24230769231	-4.45555555556
1348	0.674	-12.2387096774	-5.69678972713	-26.7334319527	-5.9
1349	0.6745	-15.064516129	-9.91460674157	-36.5893491124	-7.34444444444
1350	0.675	-12.2387096774	1.33290529695	-14.0615384615	-10.2333333333
1351	0.6755	-5.17419354839	-7.10272873194	21.1381656805	-4.45555555556
1352	0.676	-19.3032258065	-8.50866773676	49.2979289941	-20.3444444444
1353	0.6765	-13.6516129032	-9.91460674157	63.3778106509	-5.9
1354	0.677	-15.064516129	-9.91460674157	70.4177514793	-16.0111111111
1355	0.6775	-10.8258064516	-5.69678972713	84.4976331361	-7.34444444444
1356	0.678	-5.17419354839	-1.47897271268	91.5375739645	-5.9
1357	0.6785	-5.17419354839	-15.5383627608	97.1695266272	-7.34444444444
1358	0.679	-5.17419354839	11.1744783307	95.7615384615	-7.34444444444
1359	0.6795	-10.8258064516	-14.132423756	85.9056213018	-3.01111111111
1360	0.68	-6.58709677419	-5.69678972713	73.2337278107	-5.9
1361	0.6805	-13.6516129032	-5.69678972713	59.1538461538	-8.78888888889
1362	0.681	-8.0	-7.10272873194	46.4819526627	-0.122222222222
1363	0.6815	-8.0	-7.10272873194	5.65029585799	-5.9
1364	0.682	-3.76129032258	-4.29085072231	-22.5094674556	-14.5666666667
1365	0.6825	-5.17419354839	-2.8849117175	-64.749112426	-7.34444444444
1366	0.683	-8.0	-5.69678972713	-78.8289940828	-10.2333333333
1367	0.6835	-6.58709677419	-5.69678972713	-76.0130177515	-7.34444444444
1368	0.684	-12.2387096774	-16.9443017657	-52.0772189349	-5.9
1369	0.6845	1.89032258065	-8.50866773676	-22.5094674556	-5.9
1370	0.685	-6.58709677419	-9.91460674157	0.0183431952663	-7.34444444444
1371	0.6855	-10.8258064516	-12.7264847512	2.83431952663	9.98888888889
1372	0.686	-9.41290322581	-15.5383627608	23.9541420118	-4.45555555556
1373	0.6865	-10.8258064516	-12.7264847512	-1.38964497041	-4.45555555556
1374	0.687	-10.8258064516	-12.7264847512	2.83431952663	-5.9
1375	0.6875	-9.41290322581	-25.3799357945	1.42633136095	-4.45555555556
1376	0.688	-9.41290322581	1.33290529695	4.24230769231	-3.01111111111
1377	0.6885	-19.3032258065	-18.3502407705	11.2822485207	-4.45555555556
1378	0.689	-3.76129032258	-19.7561797753	16.9142011834	-11.6777777778
1379	0.6895	-13.6516129032	-21.1621187801	19.7301775148	-3.01111111111
1380	0.69	-10.8258064516	-23.9739967897	28.1781065089	-13.1222222222
1381	0.6905	-10.8258064516	-23.9739967897	21.1381656805	-7.34444444444
1382	0.691	-9.41290322581	-23.9739967897	35.2180473373	-4.45555555556
1383	0.6915	-10.8258064516	-23.9739967897	38.0340236686	-5.9
1384	0.692	-8.0	-16.9443017657	45.073964497	-5.9
1385	0.6925	-9.41290322581	-15.5383627608	61.9698224852	-5.9
1386	0.693	-5.17419354839	-18.3502407705	73.2337278107	-5.9
1387	0.6935	-17.8903225806	-11.3205457464	77.4576923077	-17.4555555556
1388	0.694	-12.2387096774	-8.50866773676	81.6816568047	9.98888888889
1389	0.6945	-10.8258064516	-4.29085072231	94.3535502959	-11.6777777778
1390	0.695	-10.8258064516	-2.8849117175	94.3535502959	12.8777777778
1391	0.6955	-9.41290322581	-0.0730337078652	88.7215976331	-5.9
1392	0.696	-9.41290322581	-8.50866773676	66.1937869822	-5.9
1393	0.6965	-8.0	1.33290529695	47.8899408284	-5.9
1394	0.697	-8.0	-5.69678972713	38.0340236686	-5.9
1395	0.6975	-6.58709677419	-11.3205457464	49.2979289941	-5.9
1396	0.698	-16.4774193548	-8.50866773676	77.4576923077	-14.5666666667
1397	0.6985	-12.2387096774	-9.91460674157	98.5775147929	-3.01111111111
1398	0.699	-9.41290322581	-5.69678972713	109.841420118	-11.6777777778
1399	0.6995	-8.0	-4.29085072231	94.3535502959	-7.34444444444
1400	0.7	-9.41290322581	-2.8849117175	102.80147929	-7.34444444444
1401	0.7005	-9.41290322581	-2.8849117175	97.1695266272	-5.9
1402	0.701	-6.58709677419	-8.50866773676	88.7215976331	-5.9
1403	0.7015	-9.41290322581	1.33290529695	80.2736686391	-7.34444444444
1404	0.702	-5.17419354839	-11.3205457464	66.1937869822	-5.9
1405	0.7025	-12.2387096774	-5.69678972713	52.1139053254	-14.5666666667
1406	0.703	-8.0	-5.69678972713	38.0340236686	8.54444444444
1407	0.7035	-6.58709677419	-4.29085072231	42.2579881657	-13.1222222222
1408	0.704	-9.41290322581	-5.69678972713	52.1139053254	-4.45555555556
1409	0.7045	-8.0	-11.3205457464	32.4020710059	-3.01111111111
1410	0.705	-9.41290322581	-15.5383627608	22.5461538462	-3.01111111111
1411	0.7055	-10.8258064516	-0.0730337078652	23.9541420118	-4.45555555556
1412	0.706	-8.0	-21.1621187801	28.1781065089	-5.9
1413	0.7065	-9.41290322581	-11.3205457464	38.0340236686	-4.45555555556
1414	0.707	-13.6516129032	-12.7264847512	38.0340236686	-7.34444444444
1415	0.7075	-12.2387096774	-14.132423756	36.626035503	-3.01111111111
1416	0.708	-9.41290322581	-15.5383627608	39.4420118343	-11.6777777778
1417	0.7085	-9.41290322581	-15.5383627608	30.9940828402	4.21111111111
1418	0.709	-12.2387096774	-15.5383627608	29.5860946746	-8.78888888889
1419	0.7095	-10.8258064516	-8.50866773676	-11.2455621302	-7.34444444444
1420	0.71	-13.6516129032	-19.7561797753	-28.1414201183	-3.01111111111
1421	0.7105	-12.2387096774	9.76853932584	-26.7334319527	-5.9
1422	0.711	-13.6516129032	-12.7264847512	-8.42958579882	-5.9
1423	0.7115	-6.58709677419	-2.8849117175	25.3621301775	-4.45555555556
1424	0.712	4.71612903226	1.33290529695	39.4420118343	-5.9
1425	0.7125	-15.064516129	4.14478330658	45.073964497	-5.9
1426	0.713	-9.41290322581	-0.0730337078652	56.3378698225	4.21111111111
1427	0.7135	-8.0	-4.29085072231	64.7857988166	-8.78888888889
1428	0.714	-9.41290322581	-2.8849117175	85.9056213018	-5.9
1429	0.7145	-10.8258064516	1.33290529695	109.841420118	-3.01111111111
1430	0.715	-10.8258064516	-11.3205457464	121.105325444	-4.45555555556
1431	0.7155	-9.41290322581	15.3922953451	115.473372781	-5.9
1432	0.716	-16.4774193548	-4.29085072231	95.7615384615	-7.34444444444
1433	0.7165	-15.064516129	-7.10272873194	77.4576923077	-1.56666666667
1434	0.717	-2.34838709677	-9.91460674157	69.0097633136	-10.2333333333
1435	0.7175	-10.8258064516	-11.3205457464	50.7059171598	-10.2333333333
1436	0.718	-6.58709677419	-5.69678972713	35.2180473373	-5.9
1437	0.7185	-9.41290322581	-5.69678972713	-36.5893491124	-8.78888888889
1438	0.719	-9.41290322581	-7.10272873194	-36.5893491124	-5.9
1439	0.7195	-9.41290322581	6.95666131621	-23.9174556213	-4.45555555556
1440	0.72	-9.41290322581	-11.3205457464	4.24230769231	-1.56666666667
1441	0.7205	-6.58709677419	-5.69678972713	32.4020710059	-1.56666666667
1442	0.721	-9.41290322581	-5.69678972713	52.1139053254	-14.5666666667
1443	0.7215	-10.8258064516	-2.8849117175	57.7458579882	9.98888888889
1444	0.722	-8.0	-4.29085072231	70.4177514793	-14.5666666667
1445	0.7225	-8.0	-0.0730337078652	67.6017751479	-5.9
1446	0.723	-8.0	-0.0730337078652	77.4576923077	-4.45555555556
1447	0.7235	-9.41290322581	-9.91460674157	69.0097633136	-3.01111111111
1448	0.724	-6.58709677419	11.1744783307	64.7857988166	-3.01111111111
1449	0.7245	-12.2387096774	-15.5383627608	64.7857988166	-7.34444444444
1450	0.725	-9.41290322581	-8.50866773676	54.9298816568	-5.9
1451	0.7255	-9.41290322581	-5.69678972713	49.2979289941	-1.56666666667
1452	0.726	-10.8258064516	-8.50866773676	47.8899408284	-3.01111111111
1453	0.7265	-8.0	-5.69678972713	36.626035503	-8.78888888889
1454	0.727	-8.0	-8.50866773676	43.6659763314	-11.6777777778
1455	0.7275	-10.8258064516	-4.29085072231	28.1781065089	-4.45555555556
1456	0.728	-10.8258064516	-9.91460674157	59.1538461538	-1.56666666667
1457	0.7285	-10.8258064516	4.14478330658	53.5218934911	-4.45555555556
1458	0.729	-12.2387096774	-9.91460674157	53.5218934911	-0.122222222222
1459	0.7295	-22.1290322581	-8.50866773676	47.8899408284	-4.45555555556
1460	0.73	-0.935483870968	-8.50866773676	38.0340236686	-0.122222222222
1461	0.7305	-10.8258064516	-8.50866773676	23.9541420118	-14.5666666667
1462	0.731	-10.8258064516	-7.10272873194	22.5461538462	-10.2333333333
1463	0.7315	-6.58709677419	-2.8849117175	22.5461538462	-0.122222222222
1464	0.732	-9.41290322581	-5.69678972713	57.7458579882	-5.9
1465	0.7325	-6.58709677419	-5.69678972713	63.3778106509	-3.01111111111
1466	0.733	-5.17419354839	11.1744783307	59.1538461538	-4.45555555556
1467	0.7335	-10.8258064516	-4.29085072231	45.073964497	-3.01111111111
1468	0.734	-3.76129032258	1.33290529695	23.9541420118	-0.122222222222
1469	0.7345	-17.8903225806	1.33290529695	5.65029585799	-8.78888888889
1470	0.735	-8.0	1.33290529695	-8.42958579882	-10.2333333333
1471	0.7355	-8.0	2.73884430177	-7.02159763314	-7.34444444444
1472	0.736	-9.41290322581	-2.8849117175	38.0340236686	-3.01111111111
1473	0.7365	-9.41290322581	-4.29085072231	30.9940828402	-4.45555555556
1474	0.737	-6.58709677419	-14.132423756	53.5218934911	-4.45555555556
1475	0.7375	-6.58709677419	-1.47897271268	50.7059171598	-3.01111111111
1476	0.738	-5.17419354839	-15.5383627608	46.4819526627	-4.45555555556
1477	0.7385	-13.6516129032	-5.69678972713	29.5860946746	-4.45555555556
1478	0.739	-0.935483870968	-4.29085072231	15.5062130178	-5.9
1479	0.7395	-13.6516129032	-2.8849117175	7.05828402367	4.21111111111
1480	0.74	-8.0	-5.69678972713	18.3221893491	-11.6777777778
1481	0.7405	-6.58709677419	-1.47897271268	36.626035503	-8.78888888889
1482	0.741	-6.58709677419	-2.8849117175	25.3621301775	-5.9
1483	0.7415	-9.41290322581	1.33290529695	29.5860946746	-4.45555555556
1484	0.742	-8.0	11.1744783307	21.1381656805	-3.01111111111
1485	0.7425	-12.2387096774	-12.7264847512	14.0982248521	-4.45555555556
1486	0.743	-6.58709677419	-2.8849117175	2.83431952663	-3.01111111111
1487	0.7435	-16.4774193548	-4.29085072231	-8.42958579882	-5.9
1488	0.744	-6.58709677419	-4.29085072231	-28.1414201183	4.21111111111
1489	0.7445	-6.58709677419	-5.69678972713	-50.6692307692	-8.78888888889
1490	0.745	-8.0	-8.50866773676	-35.1813609467	-3.01111111111
1491	0.7455	-6.58709677419	-5.69678972713	-23.9174556213	-7.34444444444
1492	0.746	-5.17419354839	-16.9443017657	8.46627218935	-3.01111111111
1493	0.7465	-8.0	8.36260032103	21.1381656805	-4.45555555556
1494	0.747	-12.2387096774	-15.5383627608	29.5860946746	-0.122222222222
1495	0.7475	-8.0	-8.50866773676	30.9940828402	-4.45555555556
1496	0.748	-12.2387096774	-9.91460674157	38.0340236686	-0.122222222222
1497	0.7485	-9.41290322581	-8.50866773676	50.7059171598	-3.01111111111
1498	0.749	-8.0	-8.50866773676	52.1139053254	8.54444444444
1499	0.7495	-9.41290322581	-7.10272873194	73.2337278107	-5.9
1500	0.75	-12.2387096774	-5.69678972713	47.8899408284	-4.45555555556
1501	0.7505	-10.8258064516	-9.91460674157	60.5618343195	-3.01111111111
1502	0.751	-12.2387096774	-9.91460674157	64.7857988166	-3.01111111111
1503	0.7515	-10.8258064516	-18.3502407705	74.6417159763	-3.01111111111
1504	0.752	-8.0	-4.29085072231	77.4576923077	-5.9
1505	0.7525	-12.2387096774	-9.91460674157	67.6017751479	-5.9
1506	0.753	-10.8258064516	-8.50866773676	39.4420118343	14.3222222222
1507	0.7535	-10.8258064516	-11.3205457464	0.0183431952663	-13.1222222222
1508	0.754	-12.2387096774	-12.7264847512	-36.5893491124	-0.122222222222
1509	0.7545	-10.8258064516	-12.7264847512	-42.2213017751	-3.01111111111
1510	0.755	-12.2387096774	-14.132423756	-39.4053254438	-4.45555555556
1511	0.7555	-10.8258064516	-7.10272873194	-37.9973372781	-1.56666666667
1512	0.756	-15.064516129	-8.50866773676	-36.5893491124	-0.122222222222
1513	0.7565	4.71612903226	-5.69678972713	-30.9573964497	-0.122222222222
1514	0.757	-17.8903225806	-7.10272873194	-22.5094674556	-14.5666666667
1515	0.7575	-12.2387096774	-5.69678972713	-18.2855029586	14.3222222222
1516	0.758	-10.8258064516	-5.69678972713	-12.6535502959	-14.5666666667
1517	0.7585	-8.0	-4.29085072231	-8.42958579882	7.1
1518	0.759	-6.58709677419	-5.69678972713	-8.42958579882	-1.56666666667
1519	0.7595	-8.0	-14.132423756	-7.02159763314	-3.01111111111
1520	0.76	-5.17419354839	11.1744783307	-7.02159763314	-4.45555555556
1521	0.7605	-8.0	-5.69678972713	-7.02159763314	-3.01111111111
1522	0.761	-5.17419354839	5.5507223114	-7.02159763314	-3.01111111111
1523	0.7615	-15.064516129	1.33290529695	-8.42958579882	-3.01111111111
1524	0.762	-10.8258064516	-7.10272873194	-7.02159763314	-1.56666666667
1525	0.7625	-8.0	-8.50866773676	-18.2855029586	-3.01111111111
1526	0.763	-10.8258064516	-8.50866773676	-7.02159763314	-8.78888888889
1527	0.7635	-12.2387096774	-9.91460674157	-14.0615384615	-1.56666666667
1528	0.764	-9.41290322581	-18.3502407705	-1.38964497041	-4.45555555556
1529	0.7645	-9.41290322581	-12.7264847512	7.05828402367	-4.45555555556
1530	0.765	-3.76129032258	-22.5680577849	4.24230769231	-4.45555555556
1531	0.7655	-17.8903225806	-23.9739967897	5.65029585799	-4.45555555556
1532	0.766	-16.4774193548	-21.1621187801	12.6902366864	-0.122222222222
1533	0.7665	-5.17419354839	-19.7561797753	12.6902366864	7.1
1534	0.767	-6.58709677419	-19.7561797753	0.0183431952663	-8.78888888889
1535	0.7675	-8.0	-12.7264847512	4.24230769231	-0.122222222222
1536	0.768	-10.8258064516	-8.50866773676	-14.0615384615	-4.45555555556
1537	0.7685	-9.41290322581	-16.9443017657	-11.2455621302	-4.45555555556
1538	0.769	-8.0	9.76853932584	-12.6535502959	-4.45555555556
1539	0.7695	-8.0	-11.3205457464	-9.8375739645	-1.56666666667
1540	0.77	-13.6516129032	-1.47897271268	-8.42958579882	-5.9
1541	0.7705	-12.2387096774	-1.47897271268	-4.20562130178	-13.1222222222
1542	0.771	-3.76129032258	-7.10272873194	-1.38964497041	-1.56666666667
1543	0.7715	-3.76129032258	-11.3205457464	0.0183431952663	-10.2333333333
1544	0.772	-6.58709677419	-21.1621187801	2.83431952663	-3.01111111111
1545	0.7725	-9.41290322581	-28.1918138042	29.5860946746	-3.01111111111
1546	0.773	-10.8258064516	-23.9739967897	12.6902366864	-3.01111111111
1547	0.7735	-8.0	-26.7858747994	14.0982248521	-1.56666666667
1548	0.774	-9.41290322581	-22.5680577849	14.0982248521	-1.56666666667
1549	0.7745	-9.41290322581	-11.3205457464	15.5062130178	-5.9
1550	0.775	-16.4774193548	-7.10272873194	21.1381656805	-17.4555555556
1551	0.7755	-9.41290322581	-4.29085072231	19.7301775148	9.98888888889
1552	0.776	-9.41290322581	-1.47897271268	22.5461538462	-11.6777777778
1553	0.7765	-8.0	6.95666131621	26.7701183432	-5.9
1554	0.777	-6.58709677419	22.4219903692	25.3621301775	-3.01111111111
1555	0.7775	-8.0	9.76853932584	23.9541420118	-4.45555555556
1556	0.778	-6.58709677419	32.2635634029	29.5860946746	-4.45555555556
1557	0.7785	-10.8258064516	-4.29085072231	32.4020710059	-3.01111111111
1558	0.779	-3.76129032258	-8.50866773676	35.2180473373	-4.45555555556
1559	0.7795	-6.58709677419	-12.7264847512	38.0340236686	2.76666666667
1560	0.78	-13.6516129032	-15.5383627608	38.0340236686	-8.78888888889
1561	0.7805	-8.0	-14.132423756	56.3378698225	-0.122222222222
1562	0.781	-6.58709677419	-16.9443017657	42.2579881657	-3.01111111111
1563	0.7815	-10.8258064516	-7.10272873194	39.4420118343	-1.56666666667
1564	0.782	-9.41290322581	-15.5383627608	43.6659763314	-1.56666666667
1565	0.7825	-12.2387096774	-11.3205457464	52.1139053254	-3.01111111111
1566	0.783	-12.2387096774	-0.0730337078652	54.9298816568	-5.9
1567	0.7835	-8.0	2.73884430177	56.3378698225	-0.122222222222
1568	0.784	-6.58709677419	4.14478330658	66.1937869822	-14.5666666667
1569	0.7845	-9.41290322581	6.95666131621	67.6017751479	12.8777777778
1570	0.785	-9.41290322581	6.95666131621	87.3136094675	-4.45555555556
1571	0.7855	-10.8258064516	4.14478330658	73.2337278107	-4.45555555556
1572	0.786	-10.8258064516	2.73884430177	71.825739645	-3.01111111111
1573	0.7865	-12.2387096774	-8.50866773676	56.3378698225	-1.56666666667
1574	0.787	-9.41290322581	21.0160513644	45.073964497	-3.01111111111
1575	0.7875	-20.7161290323	-0.0730337078652	38.0340236686	-3.01111111111
1576	0.788	-15.064516129	-0.0730337078652	36.626035503	-1.56666666667
1577	0.7885	-6.58709677419	1.33290529695	26.7701183432	-10.2333333333
1578	0.789	-10.8258064516	-2.8849117175	9.87426035503	-3.01111111111
1579	0.7895	-10.8258064516	1.33290529695	46.4819526627	-5.9
1580	0.79	-10.8258064516	-2.8849117175	30.9940828402	-1.56666666667
1581	0.7905	-9.41290322581	-1.47897271268	46.4819526627	-3.01111111111
1582	0.791	-8.0	-12.7264847512	38.0340236686	-4.45555555556
1583	0.7915	-3.76129032258	-5.69678972713	53.5218934911	-4.45555555556
1584	0.792	-5.17419354839	-8.50866773676	64.7857988166	-4.45555555556
1585	0.7925	-16.4774193548	-1.47897271268	67.6017751479	-3.01111111111
1586	0.793	-0.935483870968	-5.69678972713	71.825739645	-5.9
1587	0.7935	-6.58709677419	-12.7264847512	71.825739645	-7.34444444444
1588	0.794	-9.41290322581	-16.9443017657	80.2736686391	-0.122222222222
1589	0.7945	-8.0	-12.7264847512	59.1538461538	-4.45555555556
1590	0.795	-9.41290322581	-28.1918138042	53.5218934911	-3.01111111111
1591	0.7955	-5.17419354839	1.33290529695	43.6659763314	-1.56666666667
1592	0.796	-9.41290322581	-25.3799357945	32.4020710059	-3.01111111111
1593	0.7965	-9.41290322581	-14.132423756	21.1381656805	-0.122222222222
1594	0.797	-12.2387096774	-9.91460674157	18.3221893491	-1.56666666667
1595	0.7975	-8.0	-9.91460674157	25.3621301775	-10.2333333333
1596	0.798	-8.0	-5.69678972713	43.6659763314	9.98888888889
1597	0.7985	-9.41290322581	1.33290529695	49.2979289941	-1.56666666667
1598	0.799	-8.0	-0.0730337078652	78.8656804734	-5.9
1599	0.7995	-5.17419354839	-5.69678972713	90.1295857988	-7.34444444444
1600	0.8	-8.0	2.73884430177	105.617455621	-5.9
1601	0.8005	-12.2387096774	-12.7264847512	108.433431953	-0.122222222222
1602	0.801	7.54193548387	-9.91460674157	98.5775147929	-0.122222222222
1603	0.8015	-17.8903225806	-8.50866773676	83.0896449704	-14.5666666667
1604	0.802	-10.8258064516	-9.91460674157	66.1937869822	-5.9
1605	0.8025	-9.41290322581	-8.50866773676	49.2979289941	-7.34444444444
1606	0.803	-8.0	-9.91460674157	38.0340236686	-3.01111111111
1607	0.8035	-9.41290322581	-8.50866773676	21.1381656805	-3.01111111111
1608	0.804	-8.0	-19.7561797753	18.3221893491	-5.9
1609	0.8045	-9.41290322581	9.76853932584	16.9142011834	-1.56666666667
1610	0.805	-12.2387096774	-0.0730337078652	12.6902366864	-4.45555555556
1611	0.8055	0.477419354839	1.33290529695	5.65029585799	-1.56666666667
1612	0.806	-12.2387096774	-0.0730337078652	-4.20562130178	5.65555555556
1613	0.8065	-6.58709677419	-1.47897271268	-11.2455621302	-11.6777777778
1614	0.807	-8.0	-0.0730337078652	-30.9573964497	-3.01111111111
1615	0.8075	-5.17419354839	-2.8849117175	-33.7733727811	-5.9
1616	0.808	-8.0	1.33290529695	-63.3411242604	-3.01111111111
1617	0.8085	-9.41290322581	-4.29085072231	-57.7091715976	-3.01111111111
1618	0.809	-13.6516129032	-0.0730337078652	-43.6292899408	-4.45555555556
1619	0.8095	3.30322580645	-4.29085072231	-25.325443787	-1.56666666667
1620	0.81	-16.4774193548	-1.47897271268	-7.02159763314	-7.34444444444
1621	0.8105	-8.0	-1.47897271268	1.42633136095	9.98888888889
1622	0.811	-5.17419354839	2.73884430177	2.83431952663	-7.34444444444
1623	0.8115	-6.58709677419	4.14478330658	1.42633136095	-0.122222222222
1624	0.812	-6.58709677419	6.95666131621	2.83431952663	-3.01111111111
1625	0.8125	-8.0	-1.47897271268	2.83431952663	-3.01111111111
1626	0.813	-8.0	8.36260032103	18.3221893491	-4.45555555556
1627	0.8135	-6.58709677419	-2.8849117175	35.2180473373	-0.122222222222
1628	0.814	-17.8903225806	-2.8849117175	57.7458579882	-11.6777777778
1629	0.8145	-8.0	-4.29085072231	76.049704142	12.8777777778
1630	0.815	-9.41290322581	-2.8849117175	92.9455621302	-5.9
1631	0.8155	-8.0	-5.69678972713	105.617455621	-0.122222222222
1632	0.816	-9.41290322581	-4.29085072231	78.8656804734	-4.45555555556
1633	0.8165	-6.58709677419	-9.91460674157	69.0097633136	-5.9
1634	0.817	-9.41290322581	5.5507223114	53.5218934911	-5.9
1635	0.8175	-8.0	-9.91460674157	40.85	-1.56666666667
1636	0.818	-20.7161290323	-9.91460674157	22.5461538462	-3.01111111111
1637	0.8185	-13.6516129032	-8.50866773676	21.1381656805	14.3222222222
1638	0.819	-10.8258064516	-11.3205457464	39.4420118343	-14.5666666667
1639	0.8195	-10.8258064516	-9.91460674157	56.3378698225	8.54444444444
1640	0.82	-10.8258064516	-5.69678972713	63.3778106509	-3.01111111111
1641	0.8205	-10.8258064516	-9.91460674157	54.9298816568	-1.56666666667
1642	0.821	-10.8258064516	4.14478330658	43.6659763314	-4.45555555556
1643	0.8215	-12.2387096774	-16.9443017657	53.5218934911	-1.56666666667
1644	0.822	-6.58709677419	-7.10272873194	64.7857988166	-3.01111111111
1645	0.8225	-16.4774193548	-9.91460674157	64.7857988166	-3.01111111111
1646	0.823	-10.8258064516	-5.69678972713	54.9298816568	-0.122222222222
1647	0.8235	-8.0	-4.29085072231	29.5860946746	1.32222222222
1648	0.824	-9.41290322581	-7.10272873194	8.46627218935	-1.56666666667
1649	0.8245	-9.41290322581	-4.29085072231	-11.2455621302	-3.01111111111
1650	0.825	-8.0	-16.9443017657	-19.6934911243	-3.01111111111
1651	0.8255	-6.58709677419	9.76853932584	-37.9973372781	-0.122222222222
1652	0.826	-12.2387096774	-14.132423756	-54.8931952663	-3.01111111111
1653	0.8265	-5.17419354839	-5.69678972713	-50.6692307692	-1.56666666667
1654	0.827	-16.4774193548	-5.69678972713	-29.549408284	-3.01111111111
1655	0.8275	-9.41290322581	-7.10272873194	-12.6535502959	-8.78888888889
1656	0.828	-12.2387096774	-4.29085072231	-2.79763313609	7.1
1657	0.8285	-15.064516129	-5.69678972713	4.24230769231	-5.9
1658	0.829	-10.8258064516	-8.50866773676	1.42633136095	-3.01111111111
1659	0.8295	-13.6516129032	-15.5383627608	-9.8375739645	-0.122222222222
1660	0.83	-10.8258064516	6.95666131621	-14.0615384615	-5.9
1661	0.8305	-10.8258064516	-11.3205457464	-19.6934911243	-5.9
1662	0.831	4.71612903226	-2.8849117175	-19.6934911243	-1.56666666667
1663	0.8315	-2.34838709677	-7.10272873194	-23.9174556213	-7.34444444444
1664	0.832	-16.4774193548	-4.29085072231	-29.549408284	-4.45555555556
1665	0.8325	-10.8258064516	-4.29085072231	-23.9174556213	-7.34444444444
1666	0.833	-8.0	-4.29085072231	-26.7334319527	-4.45555555556
1667	0.8335	-6.58709677419	1.33290529695	-21.1014792899	-3.01111111111
1668	0.834	-8.0	-11.3205457464	-23.9174556213	-4.45555555556
1669	0.8345	-6.58709677419	5.5507223114	-29.549408284	-1.56666666667
1670	0.835	-17.8903225806	-4.29085072231	-19.6934911243	-5.9
1671	0.8355	4.71612903226	-4.29085072231	-25.325443787	1.32222222222
1672	0.836	-19.3032258065	-7.10272873194	-26.7334319527	-7.34444444444
1673	0.8365	-9.41290322581	-8.50866773676	-14.0615384615	4.21111111111
1674	0.837	-10.8258064516	-9.91460674157	-9.8375739645	-5.9
1675	0.8375	-10.8258064516	-15.5383627608	11.2822485207	-3.01111111111
1676	0.838	-10.8258064516	-12.7264847512	14.0982248521	-5.9
1677	0.8385	-9.41290322581	-25.3799357945	5.65029585799	-4.45555555556
1678	0.839	-10.8258064516	-11.3205457464	2.83431952663	-5.9
1679	0.8395	-3.76129032258	-21.1621187801	-7.02159763314	-3.01111111111
1680	0.84	10.3677419355	-22.5680577849	-4.20562130178	-16.0111111111
1681	0.8405	-13.6516129032	-16.9443017657	-1.38964497041	4.21111111111
1682	0.841	-10.8258064516	-14.132423756	4.24230769231	-11.6777777778
1683	0.8415	-10.8258064516	-7.10272873194	30.9940828402	-5.9
1684	0.842	-10.8258064516	-4.29085072231	25.3621301775	-4.45555555556
1685	0.8425	-10.8258064516	-4.29085072231	43.6659763314	-5.9
1686	0.843	-10.8258064516	-0.0730337078652	60.5618343195	-3.01111111111
1687	0.8435	-5.17419354839	-0.0730337078652	83.0896449704	-3.01111111111
1688	0.844	-22.1290322581	-2.8849117175	98.5775147929	-5.9
1689	0.8445	1.89032258065	-4.29085072231	104.209467456	-0.122222222222
1690	0.845	-16.4774193548	-5.69678972713	108.433431953	-1.56666666667
1691	0.8455	-6.58709677419	-7.10272873194	112.65739645	-3.01111111111
1692	0.846	-9.41290322581	-1.47897271268	78.8656804734	-7.34444444444
1693	0.8465	-6.58709677419	-4.29085072231	61.9698224852	-1.56666666667
1694	0.847	-3.76129032258	-4.29085072231	29.5860946746	-4.45555555556
1695	0.8475	-5.17419354839	-11.3205457464	26.7701183432	-4.45555555556
1696	0.848	-9.41290322581	-9.91460674157	21.1381656805	-3.01111111111
1697	0.8485	-0.935483870968	-11.3205457464	8.46627218935	-0.122222222222
1698	0.849	-6.58709677419	-12.7264847512	11.2822485207	-11.6777777778
1699	0.8495	-9.41290322581	-11.3205457464	4.24230769231	2.76666666667
1700	0.85	-9.41290322581	-9.91460674157	18.3221893491	-3.01111111111
1701	0.8505	-9.41290322581	-7.10272873194	-1.38964497041	-3.01111111111
1702	0.851	-9.41290322581	-11.3205457464	21.1381656805	-4.45555555556
1703	0.8515	-10.8258064516	-25.3799357945	47.8899408284	-5.9
1704	0.852	-5.17419354839	-15.5383627608	71.825739645	-1.56666666667
1705	0.8525	-20.7161290323	-14.132423756	80.2736686391	-3.01111111111
1706	0.853	0.477419354839	-12.7264847512	71.825739645	-0.122222222222
1707	0.8535	-12.2387096774	-8.50866773676	42.2579881657	1.32222222222
1708	0.854	-10.8258064516	-9.91460674157	4.24230769231	-10.2333333333
1709	0.8545	-8.0	-8.50866773676	-1.38964497041	-3.01111111111
1710	0.855	-8.0	-8.50866773676	-16.8775147929	-1.56666666667
1711	0.8555	-10.8258064516	-7.10272873194	8.46627218935	-3.01111111111
1712	0.856	-9.41290322581	-15.5383627608	11.2822485207	-4.45555555556
1713	0.8565	-8.0	-9.91460674157	0.0183431952663	-3.01111111111
1714	0.857	-20.7161290323	-4.29085072231	1.42633136095	-5.9
1715	0.8575	8.95483870968	-4.29085072231	25.3621301775	-3.01111111111
1716	0.858	-10.8258064516	-8.50866773676	56.3378698225	-14.5666666667
1717	0.8585	-8.0	-7.10272873194	70.4177514793	-4.45555555556
1718	0.859	-6.58709677419	-1.47897271268	71.825739645	-4.45555555556
1719	0.8595	-6.58709677419	-2.8849117175	59.1538461538	-4.45555555556
1720	0.86	-5.17419354839	4.14478330658	56.3378698225	-4.45555555556
1721	0.8605	-10.8258064516	-4.29085072231	52.1139053254	-4.45555555556
1722	0.861	-5.17419354839	8.36260032103	35.2180473373	-0.122222222222
1723	0.8615	-2.34838709677	9.76853932584	7.05828402367	1.32222222222
1724	0.862	-3.76129032258	1.33290529695	-14.0615384615	-11.6777777778
1725	0.8625	-6.58709677419	-1.47897271268	-33.7733727811	2.76666666667
1726	0.863	-5.17419354839	-0.0730337078652	-36.5893491124	-11.6777777778
1727	0.8635	-8.0	-1.47897271268	-23.9174556213	-3.01111111111
1728	0.864	-10.8258064516	-4.29085072231	-29.549408284	-3.01111111111
1729	0.8645	-10.8258064516	-0.0730337078652	-21.1014792899	-0.122222222222
1730	0.865	-9.41290322581	-9.91460674157	-2.79763313609	-1.56666666667
1731	0.8655	-10.8258064516	-2.8849117175	14.0982248521	-4.45555555556
1732	0.866	0.477419354839	-4.29085072231	25.3621301775	-10.2333333333
1733	0.8665	-12.2387096774	-4.29085072231	33.8100591716	7.1
1734	0.867	-9.41290322581	-4.29085072231	43.6659763314	-14.5666666667
1735	0.8675	-5.17419354839	-5.69678972713	15.5062130178	-3.01111111111
1736	0.868	-5.17419354839	-5.69678972713	-23.9174556213	-4.45555555556
1737	0.8685	-6.58709677419	-8.50866773676	-67.5650887574	-3.01111111111
1738	0.869	-6.58709677419	11.1744783307	-87.2769230769	-1.56666666667
1739	0.8695	-5.17419354839	-12.7264847512	-78.8289940828	-1.56666666667
1740	0.87	-8.0	-12.7264847512	-68.9730769231	-4.45555555556
1741	0.8705	-6.58709677419	-9.91460674157	-63.3411242604	-1.56666666667
1742	0.871	-13.6516129032	-9.91460674157	-57.7091715976	-3.01111111111
1743	0.8715	-5.17419354839	-9.91460674157	-56.301183432	12.8777777778
1744	0.872	-9.41290322581	-8.50866773676	-46.4452662722	-3.01111111111
1745	0.8725	-10.8258064516	-12.7264847512	-45.0372781065	-0.122222222222
1746	0.873	-8.0	-4.29085072231	-36.5893491124	-3.01111111111
1747	0.8735	-6.58709677419	-16.9443017657	-37.9973372781	-1.56666666667
1748	0.874	-5.17419354839	-9.91460674157	-36.5893491124	-3.01111111111
1749	0.8745	-8.0	-1.47897271268	-35.1813609467	-1.56666666667
1750	0.875	-2.34838709677	-0.0730337078652	-29.549408284	-11.6777777778
1751	0.8755	-10.8258064516	1.33290529695	-29.549408284	8.54444444444
1752	0.876	-6.58709677419	1.33290529695	-23.9174556213	-4.45555555556
1753	0.8765	-8.0	-4.29085072231	-35.1813609467	-5.9
1754	0.877	-8.0	-5.69678972713	-14.0615384615	-1.56666666667
1755	0.8775	-6.58709677419	-0.0730337078652	-26.7334319527	2.76666666667
1756	0.878	-3.76129032258	16.7982343499	-23.9174556213	-0.122222222222
1757	0.8785	-2.34838709677	-8.50866773676	-18.2855029586	-0.122222222222
1758	0.879	-8.0	18.2041733547	-14.0615384615	-0.122222222222
1759	0.8795	10.3677419355	-0.0730337078652	-11.2455621302	2.76666666667
1760	0.88	-15.064516129	-2.8849117175	-7.02159763314	-5.9
1761	0.8805	-8.0	1.33290529695	-4.20562130178	-1.56666666667
1762	0.881	-10.8258064516	2.73884430177	-7.02159763314	-1.56666666667
1763	0.8815	-9.41290322581	1.33290529695	-8.42958579882	-0.122222222222
1764	0.882	-8.0	-0.0730337078652	-15.4695266272	-0.122222222222
1765	0.8825	-6.58709677419	-22.5680577849	-14.0615384615	-1.56666666667
1766	0.883	-5.17419354839	-2.8849117175	-12.6535502959	-3.01111111111
1767	0.8835	-22.1290322581	-18.3502407705	-12.6535502959	-3.01111111111
1768	0.884	11.7806451613	-19.7561797753	-16.8775147929	1.32222222222
1769	0.8845	-15.064516129	-15.5383627608	-25.325443787	-4.45555555556
1770	0.885	-5.17419354839	-16.9443017657	-25.325443787	17.2111111111
1771	0.8855	-6.58709677419	-12.7264847512	1.42633136095	-1.56666666667
1772	0.886	-6.58709677419	-5.69678972713	-4.20562130178	-1.56666666667
1773	0.8865	-6.58709677419	-1.47897271268	4.24230769231	-0.122222222222
1774	0.887	-9.41290322581	-8.50866773676	7.05828402367	-0.122222222222
1775	0.8875	-2.34838709677	5.5507223114	30.9940828402	1.32222222222
1776	0.888	-16.4774193548	9.76853932584	43.6659763314	-1.56666666667
1777	0.8885	8.95483870968	15.3922953451	60.5618343195	-0.122222222222
1778	0.889	-10.8258064516	6.95666131621	66.1937869822	2.76666666667
1779	0.8895	-8.0	1.33290529695	71.825739645	-16.0111111111
1780	0.89	-6.58709677419	-0.0730337078652	88.7215976331	-0.122222222222
1781	0.8905	-8.0	1.33290529695	64.7857988166	-3.01111111111
1782	0.891	-9.41290322581	1.33290529695	64.7857988166	-1.56666666667
1783	0.8915	-6.58709677419	6.95666131621	46.4819526627	-3.01111111111
1784	0.892	-2.34838709677	-1.47897271268	32.4020710059	-1.56666666667
1785	0.8925	-20.7161290323	1.33290529695	28.1781065089	-1.56666666667
1786	0.893	-6.58709677419	-1.47897271268	18.3221893491	-0.122222222222
1787	0.8935	-9.41290322581	-5.69678972713	7.05828402367	-8.78888888889
1788	0.894	-5.17419354839	-7.10272873194	4.24230769231	-7.34444444444
1789	0.8945	-6.58709677419	-7.10272873194	-4.20562130178	-0.122222222222
1790	0.895	-6.58709677419	-1.47897271268	-21.1014792899	-1.56666666667
1791	0.8955	-5.17419354839	-12.7264847512	-29.549408284	-0.122222222222
1792	0.896	-6.58709677419	11.1744783307	-37.9973372781	-1.56666666667
1793	0.8965	0.477419354839	-2.8849117175	-43.6292899408	-0.122222222222
1794	0.897	10.3677419355	-5.69678972713	-40.8133136095	-13.1222222222
1795	0.8975	-12.2387096774	-7.10272873194	-36.5893491124	2.76666666667
1796	0.898	-6.58709677419	-11.3205457464	-33.7733727811	15.7666666667
1797	0.8985	-8.0	-7.10272873194	-15.4695266272	-3.01111111111
