	Time	Channel 1	Channel 2	Channel 3	Channel 4
0	0.0	9.37659574468	9.4774566474	11.412394958	-7.28620689655
1	0.0005	-4.80425531915	6.65317919075	5.78466386555	14.4896551724
2	0.001	-0.55	10.8895953757	-5.47079831933	-7.28620689655
3	0.0015	0.868085106383	9.4774566474	11.412394958	-4.38275862069
4	0.002	-3.38617021277	6.65317919075	7.19159663866	-2.93103448276
5	0.0025	-4.80425531915	9.4774566474	8.59852941176	-1.47931034483
6	0.003	-4.80425531915	8.06531791908	7.19159663866	-2.93103448276
7	0.0035	-3.38617021277	10.8895953757	10.0054621849	-4.38275862069
8	0.004	-4.80425531915	3.8289017341	7.19159663866	-2.93103448276
9	0.0045	-3.38617021277	6.65317919075	5.78466386555	-13.0931034483
10	0.005	-6.22234042553	5.24104046243	-4.06386554622	-4.38275862069
11	0.0055	-4.80425531915	-0.407514450867	4.37773109244	-2.93103448276
12	0.006	-6.22234042553	6.65317919075	22.6678571429	-5.83448275862
13	0.0065	-3.38617021277	22.1867052023	8.59852941176	-7.28620689655
14	0.007	-3.38617021277	2.41676300578	11.412394958	-2.93103448276
15	0.0075	-17.5670212766	8.06531791908	8.59852941176	-5.83448275862
16	0.008	13.6308510638	10.8895953757	7.19159663866	-0.0275862068966
17	0.0085	-16.1489361702	13.7138728324	5.78466386555	-10.1896551724
18	0.009	-6.22234042553	15.1260115607	0.156932773109	-7.28620689655
19	0.0095	-6.22234042553	17.9502890173	24.074789916	-7.28620689655
20	0.01	-4.80425531915	17.9502890173	4.37773109244	-2.93103448276
21	0.0105	-6.22234042553	10.8895953757	11.412394958	-1.47931034483
22	0.011	-3.38617021277	9.4774566474	17.0401260504	-4.38275862069
23	0.0115	-6.22234042553	13.7138728324	19.8539915966	-5.83448275862
24	0.012	-1.96808510638	15.1260115607	19.8539915966	-1.47931034483
25	0.0125	-13.3127659574	16.538150289	18.4470588235	-7.28620689655
26	0.013	-4.80425531915	13.7138728324	19.8539915966	-5.83448275862
27	0.0135	-7.64042553191	13.7138728324	2.97079831933	-2.93103448276
28	0.014	-6.22234042553	10.8895953757	26.8886554622	-4.38275862069
29	0.0145	-10.4765957447	6.65317919075	12.8193277311	-4.38275862069
30	0.015	-7.64042553191	9.4774566474	18.4470588235	-10.1896551724
31	0.0155	-9.0585106383	-0.407514450867	24.074789916	-5.83448275862
32	0.016	-7.64042553191	9.4774566474	26.8886554622	-5.83448275862
33	0.0165	-10.4765957447	8.06531791908	28.2955882353	-5.83448275862
34	0.017	-4.80425531915	6.65317919075	29.7025210084	-15.9965517241
35	0.0175	-4.80425531915	6.65317919075	26.8886554622	13.0379310345
36	0.018	-7.64042553191	9.4774566474	28.2955882353	-11.6413793103
37	0.0185	-4.80425531915	3.8289017341	24.074789916	-2.93103448276
38	0.019	-4.80425531915	9.4774566474	25.4817226891	-2.93103448276
39	0.0195	-4.80425531915	-1.81965317919	24.074789916	-0.0275862068966
40	0.02	-6.22234042553	16.538150289	18.4470588235	-2.93103448276
41	0.0205	-4.80425531915	1.00462427746	21.2609243697	-1.47931034483
42	0.021	-17.5670212766	8.06531791908	18.4470588235	-4.38275862069
43	0.0215	-6.22234042553	6.65317919075	15.6331932773	-1.47931034483
44	0.022	-6.22234042553	9.4774566474	18.4470588235	7.23103448276
45	0.0225	-4.80425531915	9.4774566474	15.6331932773	-0.0275862068966
46	0.023	-6.22234042553	6.65317919075	8.59852941176	-2.93103448276
47	0.0235	-6.22234042553	10.8895953757	15.6331932773	-7.28620689655
48	0.024	-4.80425531915	10.8895953757	5.78466386555	-8.73793103448
49	0.0245	-4.80425531915	3.8289017341	17.0401260504	-4.38275862069
50	0.025	-4.80425531915	15.1260115607	19.8539915966	-2.93103448276
51	0.0255	-13.3127659574	10.8895953757	21.2609243697	-7.28620689655
52	0.026	-7.64042553191	13.7138728324	24.074789916	-2.93103448276
53	0.0265	-6.22234042553	13.7138728324	22.6678571429	10.1344827586
54	0.027	-6.22234042553	8.06531791908	26.8886554622	-8.73793103448
55	0.0275	-7.64042553191	13.7138728324	28.2955882353	-2.93103448276
56	0.028	-6.22234042553	16.538150289	24.074789916	-2.93103448276
57	0.0285	-7.64042553191	1.00462427746	24.074789916	-2.93103448276
58	0.029	-4.80425531915	26.4231213873	21.2609243697	-2.93103448276
59	0.0295	-4.80425531915	5.24104046243	18.4470588235	-0.0275862068966
60	0.03	-13.3127659574	8.06531791908	14.2262605042	-2.93103448276
61	0.0305	15.0489361702	9.4774566474	14.2262605042	-2.93103448276
62	0.031	-6.22234042553	8.06531791908	11.412394958	-5.83448275862
63	0.0315	-6.22234042553	6.65317919075	-1.25	-11.6413793103
64	0.032	-7.64042553191	8.06531791908	21.2609243697	-7.28620689655
65	0.0325	-7.64042553191	6.65317919075	-6.87773109244	-2.93103448276
66	0.033	-6.22234042553	8.06531791908	8.59852941176	-2.93103448276
67	0.0335	-1.96808510638	-0.407514450867	5.78466386555	-4.38275862069
68	0.034	-4.80425531915	-0.407514450867	4.37773109244	-4.38275862069
69	0.0345	-9.0585106383	9.4774566474	8.59852941176	-2.93103448276
70	0.035	-9.0585106383	10.8895953757	12.8193277311	1.42413793103
71	0.0355	-4.80425531915	9.4774566474	11.412394958	15.9413793103
72	0.036	-6.22234042553	10.8895953757	15.6331932773	-5.83448275862
73	0.0365	-6.22234042553	10.8895953757	4.37773109244	-4.38275862069
74	0.037	-4.80425531915	13.7138728324	11.412394958	-4.38275862069
75	0.0375	-4.80425531915	20.774566474	1.56386554622	-0.0275862068966
76	0.038	-3.38617021277	9.4774566474	17.0401260504	-5.83448275862
77	0.0385	-3.38617021277	15.1260115607	14.2262605042	-2.93103448276
78	0.039	-13.3127659574	15.1260115607	12.8193277311	-5.83448275862
79	0.0395	13.6308510638	16.538150289	14.2262605042	-4.38275862069
80	0.04	-4.80425531915	16.538150289	11.412394958	-15.9965517241
81	0.0405	-4.80425531915	15.1260115607	12.8193277311	-8.73793103448
82	0.041	-4.80425531915	15.1260115607	12.8193277311	-5.83448275862
83	0.0415	-6.22234042553	16.538150289	14.2262605042	-0.0275862068966
84	0.042	-6.22234042553	-0.407514450867	15.6331932773	-4.38275862069
85	0.0425	-1.96808510638	26.4231213873	15.6331932773	-4.38275862069
86	0.043	-6.22234042553	3.8289017341	15.6331932773	-2.93103448276
87	0.0435	10.7946808511	13.7138728324	15.6331932773	1.42413793103
88	0.044	-14.7308510638	12.301734104	15.6331932773	-5.83448275862
89	0.0445	-6.22234042553	8.06531791908	14.2262605042	-4.38275862069
90	0.045	-4.80425531915	8.06531791908	7.19159663866	-8.73793103448
91	0.0455	-6.22234042553	8.06531791908	14.2262605042	2.87586206897
92	0.046	-6.22234042553	15.1260115607	21.2609243697	-5.83448275862
93	0.0465	-4.80425531915	-3.23179190751	11.412394958	-0.0275862068966
94	0.047	-3.38617021277	-0.407514450867	12.8193277311	-1.47931034483
95	0.0475	-4.80425531915	17.9502890173	11.412394958	-2.93103448276
96	0.048	-11.8946808511	8.06531791908	12.8193277311	-5.83448275862
97	0.0485	12.2127659574	10.8895953757	12.8193277311	-4.38275862069
98	0.049	-3.38617021277	13.7138728324	12.8193277311	-13.0931034483
99	0.0495	-6.22234042553	10.8895953757	8.59852941176	-8.73793103448
100	0.05	-6.22234042553	13.7138728324	22.6678571429	-1.47931034483
101	0.0505	-6.22234042553	13.7138728324	15.6331932773	-2.93103448276
102	0.051	-3.38617021277	1.00462427746	15.6331932773	-5.83448275862
103	0.0515	-1.96808510638	22.1867052023	14.2262605042	-2.93103448276
104	0.052	-0.55	8.06531791908	15.6331932773	-2.93103448276
105	0.0525	-14.7308510638	13.7138728324	19.8539915966	-4.38275862069
106	0.053	-4.80425531915	12.301734104	18.4470588235	15.9413793103
107	0.0535	-4.80425531915	10.8895953757	22.6678571429	-11.6413793103
108	0.054	-4.80425531915	15.1260115607	29.7025210084	-2.93103448276
109	0.0545	-6.22234042553	15.1260115607	18.4470588235	-4.38275862069
110	0.055	-3.38617021277	8.06531791908	26.8886554622	-1.47931034483
111	0.0555	-4.80425531915	13.7138728324	26.8886554622	-0.0275862068966
112	0.056	-4.80425531915	5.24104046243	26.8886554622	-5.83448275862
113	0.0565	-4.80425531915	9.4774566474	21.2609243697	-4.38275862069
114	0.057	-16.1489361702	10.8895953757	18.4470588235	-5.83448275862
115	0.0575	-10.4765957447	8.06531791908	12.8193277311	-0.0275862068966
116	0.058	-3.38617021277	8.06531791908	5.78466386555	10.1344827586
117	0.0585	-6.22234042553	10.8895953757	1.56386554622	-10.1896551724
118	0.059	-6.22234042553	10.8895953757	1.56386554622	-4.38275862069
119	0.0595	-6.22234042553	10.8895953757	4.37773109244	-2.93103448276
120	0.06	-6.22234042553	-0.407514450867	4.37773109244	-0.0275862068966
121	0.0605	-6.22234042553	23.5988439306	5.78466386555	-1.47931034483
122	0.061	-1.96808510638	2.41676300578	5.78466386555	-0.0275862068966
123	0.0615	-16.1489361702	9.4774566474	7.19159663866	-1.47931034483
124	0.062	-1.96808510638	8.06531791908	8.59852941176	10.1344827586
125	0.0625	-4.80425531915	6.65317919075	7.19159663866	-8.73793103448
126	0.063	-3.38617021277	8.06531791908	26.8886554622	-0.0275862068966
127	0.0635	-4.80425531915	6.65317919075	8.59852941176	-0.0275862068966
128	0.064	-4.80425531915	8.06531791908	19.8539915966	-2.93103448276
129	0.0645	-0.55	6.65317919075	8.59852941176	-0.0275862068966
130	0.065	-3.38617021277	2.41676300578	18.4470588235	-5.83448275862
131	0.0655	-9.0585106383	8.06531791908	15.6331932773	-4.38275862069
132	0.066	7.9585106383	6.65317919075	12.8193277311	-0.0275862068966
133	0.0665	-9.0585106383	8.06531791908	8.59852941176	-4.38275862069
134	0.067	-3.38617021277	9.4774566474	8.59852941176	15.9413793103
135	0.0675	-3.38617021277	6.65317919075	-4.06386554622	-5.83448275862
136	0.068	-0.55	10.8895953757	-6.87773109244	-0.0275862068966
137	0.0685	-4.80425531915	22.1867052023	-6.87773109244	-0.0275862068966
138	0.069	-1.96808510638	2.41676300578	-8.28466386555	-0.0275862068966
139	0.0695	-3.38617021277	9.4774566474	-8.28466386555	-0.0275862068966
140	0.07	-0.55	12.301734104	-6.87773109244	1.42413793103
141	0.0705	-11.8946808511	9.4774566474	-6.87773109244	-2.93103448276
142	0.071	-3.38617021277	9.4774566474	-1.25	-0.0275862068966
143	0.0715	-4.80425531915	13.7138728324	-15.3193277311	-1.47931034483
144	0.072	-4.80425531915	13.7138728324	-1.25	-10.1896551724
145	0.0725	-4.80425531915	9.4774566474	-8.28466386555	-2.93103448276
146	0.073	-1.96808510638	17.9502890173	-4.06386554622	-5.83448275862
147	0.0735	-6.22234042553	1.00462427746	-1.25	-5.83448275862
148	0.074	-4.80425531915	6.65317919075	1.56386554622	-2.93103448276
149	0.0745	2.28617021277	5.24104046243	4.37773109244	-0.0275862068966
150	0.075	-11.8946808511	8.06531791908	5.78466386555	-2.93103448276
151	0.0755	-4.80425531915	6.65317919075	4.37773109244	8.68275862069
152	0.076	-4.80425531915	5.24104046243	2.97079831933	-10.1896551724
153	0.0765	-1.96808510638	3.8289017341	7.19159663866	-2.93103448276
154	0.077	-3.38617021277	-4.64393063584	4.37773109244	-0.0275862068966
155	0.0775	-3.38617021277	22.1867052023	4.37773109244	-0.0275862068966
156	0.078	-4.80425531915	-4.64393063584	7.19159663866	-2.93103448276
157	0.0785	-4.80425531915	6.65317919075	2.97079831933	1.42413793103
158	0.079	0.868085106383	5.24104046243	2.97079831933	-0.0275862068966
159	0.0795	-3.38617021277	5.24104046243	5.78466386555	-5.83448275862
160	0.08	-0.55	5.24104046243	-9.69159663866	-1.47931034483
161	0.0805	-1.96808510638	3.8289017341	12.8193277311	-2.93103448276
162	0.081	-3.38617021277	-0.407514450867	-4.06386554622	-0.0275862068966
163	0.0815	-3.38617021277	6.65317919075	-1.25	-2.93103448276
164	0.082	-0.55	-7.46820809249	-2.65693277311	-5.83448275862
165	0.0825	-1.96808510638	3.8289017341	-4.06386554622	-2.93103448276
166	0.083	-3.38617021277	2.41676300578	-2.65693277311	-1.47931034483
167	0.0835	-0.55	5.24104046243	-1.25	-13.0931034483
168	0.084	-6.22234042553	2.41676300578	-4.06386554622	8.68275862069
169	0.0845	-0.55	3.8289017341	-1.25	-7.28620689655
170	0.085	-1.96808510638	2.41676300578	-11.0985294118	-4.38275862069
171	0.0855	-4.80425531915	2.41676300578	-2.65693277311	-0.0275862068966
172	0.086	-3.38617021277	-3.23179190751	-1.25	-1.47931034483
173	0.0865	0.868085106383	19.3624277457	-2.65693277311	-1.47931034483
174	0.087	-4.80425531915	-6.05606936416	-2.65693277311	-0.0275862068966
175	0.0875	-3.38617021277	3.8289017341	-1.25	-0.0275862068966
176	0.088	0.868085106383	3.8289017341	-1.25	1.42413793103
177	0.0885	-3.38617021277	3.8289017341	0.156932773109	-7.28620689655
178	0.089	-4.80425531915	3.8289017341	4.37773109244	-5.83448275862
179	0.0895	-4.80425531915	3.8289017341	-13.912394958	-1.47931034483
180	0.09	-3.38617021277	3.8289017341	14.2262605042	-5.83448275862
181	0.0905	-1.96808510638	2.41676300578	-2.65693277311	-2.93103448276
182	0.091	-1.96808510638	9.4774566474	-1.25	-0.0275862068966
183	0.0915	-3.38617021277	2.41676300578	2.97079831933	-2.93103448276
184	0.092	-0.55	6.65317919075	0.156932773109	-1.47931034483
185	0.0925	-14.7308510638	5.24104046243	1.56386554622	-7.28620689655
186	0.093	-4.80425531915	2.41676300578	-2.65693277311	13.0379310345
187	0.0935	-4.80425531915	1.00462427746	-4.06386554622	-10.1896551724
188	0.094	-0.55	2.41676300578	0.156932773109	-1.47931034483
189	0.0945	-3.38617021277	1.00462427746	-4.06386554622	-0.0275862068966
190	0.095	-4.80425531915	1.00462427746	-4.06386554622	-1.47931034483
191	0.0955	-4.80425531915	2.41676300578	-6.87773109244	-0.0275862068966
192	0.096	-3.38617021277	2.41676300578	0.156932773109	-0.0275862068966
193	0.0965	-3.38617021277	1.00462427746	0.156932773109	-2.93103448276
194	0.097	-14.7308510638	2.41676300578	2.97079831933	-0.0275862068966
195	0.0975	-13.3127659574	1.00462427746	-1.25	1.42413793103
196	0.098	-6.22234042553	1.00462427746	-1.25	10.1344827586
197	0.0985	-1.96808510638	1.00462427746	-2.65693277311	-4.38275862069
198	0.099	-3.38617021277	-0.407514450867	-4.06386554622	-4.38275862069
199	0.0995	-3.38617021277	5.24104046243	-4.06386554622	-1.47931034483
200	0.1	-0.55	-8.88034682081	-2.65693277311	-5.83448275862
201	0.1005	-0.55	15.1260115607	-4.06386554622	-4.38275862069
202	0.101	0.868085106383	-4.64393063584	-5.47079831933	-4.38275862069
203	0.1015	7.9585106383	1.00462427746	-8.28466386555	-1.47931034483
204	0.102	-3.38617021277	2.41676300578	-5.47079831933	-11.6413793103
205	0.1025	-0.55	2.41676300578	-4.06386554622	-0.0275862068966
206	0.103	0.868085106383	3.8289017341	-4.06386554622	-8.73793103448
207	0.1035	0.868085106383	-0.407514450867	-4.06386554622	-2.93103448276
208	0.104	-0.55	2.41676300578	-5.47079831933	-1.47931034483
209	0.1045	-3.38617021277	-10.2924855491	-4.06386554622	-0.0275862068966
210	0.105	-0.55	-6.05606936416	-6.87773109244	-0.0275862068966
211	0.1055	-4.80425531915	-1.81965317919	-4.06386554622	-0.0275862068966
212	0.106	9.37659574468	1.00462427746	-1.25	-0.0275862068966
213	0.1065	-3.38617021277	1.00462427746	-1.25	-14.5448275862
214	0.107	-0.55	-0.407514450867	2.97079831933	10.1344827586
215	0.1075	-1.96808510638	1.00462427746	-1.25	-10.1896551724
216	0.108	-1.96808510638	1.00462427746	11.412394958	-1.47931034483
217	0.1085	-1.96808510638	6.65317919075	11.412394958	-2.93103448276
218	0.109	-0.55	-8.88034682081	19.8539915966	-0.0275862068966
219	0.1095	0.868085106383	16.538150289	19.8539915966	-1.47931034483
220	0.11	-7.64042553191	1.00462427746	19.8539915966	-0.0275862068966
221	0.1105	16.4670212766	2.41676300578	18.4470588235	5.77931034483
222	0.111	-10.4765957447	1.00462427746	15.6331932773	-4.38275862069
223	0.1115	-3.38617021277	1.00462427746	12.8193277311	-4.38275862069
224	0.112	-0.55	5.24104046243	14.2262605042	-0.0275862068966
225	0.1125	-1.96808510638	2.41676300578	-11.0985294118	-2.93103448276
226	0.113	-1.96808510638	3.8289017341	-2.65693277311	-0.0275862068966
227	0.1135	-4.80425531915	-1.81965317919	-6.87773109244	-1.47931034483
228	0.114	-6.22234042553	-1.81965317919	-5.47079831933	-1.47931034483
229	0.1145	-1.96808510638	2.41676300578	-11.0985294118	-1.47931034483
230	0.115	-6.22234042553	2.41676300578	-13.912394958	-5.83448275862
231	0.1155	-7.64042553191	1.00462427746	-13.912394958	5.77931034483
232	0.116	-3.38617021277	1.00462427746	-8.28466386555	-8.73793103448
233	0.1165	-3.38617021277	-0.407514450867	-15.3193277311	-2.93103448276
234	0.117	-6.22234042553	-0.407514450867	-5.47079831933	-8.73793103448
235	0.1175	-1.96808510638	-0.407514450867	-5.47079831933	-4.38275862069
236	0.118	-3.38617021277	-11.7046242775	-5.47079831933	-2.93103448276
237	0.1185	-1.96808510638	19.3624277457	-2.65693277311	-0.0275862068966
238	0.119	-4.80425531915	-4.64393063584	-1.25	-1.47931034483
239	0.1195	-16.1489361702	1.00462427746	0.156932773109	-0.0275862068966
240	0.12	15.0489361702	-0.407514450867	-1.25	2.87586206897
241	0.1205	-1.96808510638	1.00462427746	0.156932773109	-5.83448275862
242	0.121	-0.55	-0.407514450867	-11.0985294118	-5.83448275862
243	0.1215	-1.96808510638	1.00462427746	19.8539915966	-1.47931034483
244	0.122	-1.96808510638	2.41676300578	-4.06386554622	-0.0275862068966
245	0.1225	-3.38617021277	-7.46820809249	2.97079831933	1.42413793103
246	0.123	-4.80425531915	9.4774566474	4.37773109244	-2.93103448276
247	0.1235	-3.38617021277	-3.23179190751	4.37773109244	-4.38275862069
248	0.124	-1.96808510638	-0.407514450867	4.37773109244	-0.0275862068966
249	0.1245	-10.4765957447	1.00462427746	4.37773109244	-11.6413793103
250	0.125	0.868085106383	-1.81965317919	0.156932773109	15.9413793103
251	0.1255	-1.96808510638	-1.81965317919	-2.65693277311	-11.6413793103
252	0.126	-0.55	-1.81965317919	-2.65693277311	8.68275862069
253	0.1265	0.868085106383	-0.407514450867	4.37773109244	-2.93103448276
254	0.127	-1.96808510638	-8.88034682081	-2.65693277311	-2.93103448276
255	0.1275	-0.55	15.1260115607	0.156932773109	-0.0275862068966
256	0.128	-0.55	17.9502890173	0.156932773109	-0.0275862068966
257	0.1285	0.868085106383	-7.46820809249	4.37773109244	-0.0275862068966
258	0.129	-4.80425531915	-0.407514450867	5.78466386555	-1.47931034483
259	0.1295	-0.55	2.41676300578	15.6331932773	-10.1896551724
260	0.13	-0.55	-1.81965317919	8.59852941176	14.4896551724
261	0.1305	-3.38617021277	-3.23179190751	11.412394958	-8.73793103448
262	0.131	-1.96808510638	-0.407514450867	11.412394958	-1.47931034483
263	0.1315	-0.55	-0.407514450867	14.2262605042	-4.38275862069
264	0.132	0.868085106383	-13.1167630058	12.8193277311	-5.83448275862
265	0.1325	0.868085106383	17.9502890173	12.8193277311	-2.93103448276
266	0.133	-0.55	-10.2924855491	11.412394958	-0.0275862068966
267	0.1335	-0.55	-0.407514450867	7.19159663866	-2.93103448276
268	0.134	0.868085106383	1.00462427746	4.37773109244	-8.73793103448
269	0.1345	-1.96808510638	1.00462427746	1.56386554622	-0.0275862068966
270	0.135	0.868085106383	3.8289017341	-1.25	-8.73793103448
271	0.1355	0.868085106383	2.41676300578	15.6331932773	-1.47931034483
272	0.136	-3.38617021277	-0.407514450867	-6.87773109244	1.42413793103
273	0.1365	2.28617021277	-7.46820809249	0.156932773109	1.42413793103
274	0.137	-0.55	9.4774566474	4.37773109244	1.42413793103
275	0.1375	2.28617021277	-0.407514450867	8.59852941176	2.87586206897
276	0.138	-13.3127659574	1.00462427746	12.8193277311	-1.47931034483
277	0.1385	12.2127659574	-0.407514450867	14.2262605042	-1.47931034483
278	0.139	-6.22234042553	5.24104046243	11.412394958	-2.93103448276
279	0.1395	-3.38617021277	1.00462427746	18.4470588235	1.42413793103
280	0.14	-0.55	3.8289017341	8.59852941176	-5.83448275862
281	0.1405	-1.96808510638	1.00462427746	11.412394958	-2.93103448276
282	0.141	-3.38617021277	6.65317919075	7.19159663866	-0.0275862068966
283	0.1415	-1.96808510638	-1.81965317919	7.19159663866	-0.0275862068966
284	0.142	-3.38617021277	-0.407514450867	5.78466386555	-2.93103448276
285	0.1425	2.28617021277	-3.23179190751	5.78466386555	-0.0275862068966
286	0.143	-11.8946808511	-1.81965317919	4.37773109244	-5.83448275862
287	0.1435	-0.55	-0.407514450867	1.56386554622	1.42413793103
288	0.144	-0.55	-3.23179190751	-13.912394958	-1.47931034483
289	0.1445	-0.55	-0.407514450867	8.59852941176	-0.0275862068966
290	0.145	-1.96808510638	2.41676300578	-15.3193277311	1.42413793103
291	0.1455	-1.96808510638	2.41676300578	-2.65693277311	-1.47931034483
292	0.146	-1.96808510638	-1.81965317919	-6.87773109244	-0.0275862068966
293	0.1465	-3.38617021277	19.3624277457	-4.06386554622	-2.93103448276
294	0.147	12.2127659574	-0.407514450867	-2.65693277311	-1.47931034483
295	0.1475	-9.0585106383	1.00462427746	-2.65693277311	-0.0275862068966
296	0.148	-1.96808510638	-0.407514450867	-1.25	-1.47931034483
297	0.1485	-0.55	-1.81965317919	-11.0985294118	-4.38275862069
298	0.149	-0.55	-3.23179190751	15.6331932773	-1.47931034483
299	0.1495	0.868085106383	-0.407514450867	-6.87773109244	-1.47931034483
300	0.15	0.868085106383	-13.1167630058	1.56386554622	-0.0275862068966
301	0.1505	-0.55	10.8895953757	-1.25	-2.93103448276
302	0.151	-0.55	2.41676300578	0.156932773109	-2.93103448276
303	0.1515	10.7946808511	-8.88034682081	1.56386554622	-0.0275862068966
304	0.152	16.4670212766	-6.05606936416	-2.65693277311	1.42413793103
305	0.1525	-9.0585106383	-7.46820809249	-1.25	-8.73793103448
306	0.153	-1.96808510638	-7.46820809249	-4.06386554622	10.1344827586
307	0.1535	0.868085106383	-6.05606936416	-8.28466386555	1.42413793103
308	0.154	-0.55	-10.2924855491	-8.28466386555	-1.47931034483
309	0.1545	-0.55	-7.46820809249	-8.28466386555	1.42413793103
310	0.155	-0.55	-11.7046242775	-6.87773109244	-0.0275862068966
311	0.1555	2.28617021277	-13.1167630058	-5.47079831933	-0.0275862068966
312	0.156	-11.8946808511	-7.46820809249	-6.87773109244	-2.93103448276
313	0.1565	16.4670212766	-7.46820809249	-5.47079831933	-0.0275862068966
314	0.157	16.4670212766	-4.64393063584	-1.25	-2.93103448276
315	0.1575	-1.96808510638	-6.05606936416	-9.69159663866	-8.73793103448
316	0.158	-0.55	-7.46820809249	-6.87773109244	-2.93103448276
317	0.1585	-0.55	-4.64393063584	26.8886554622	-2.93103448276
318	0.159	-0.55	-6.05606936416	2.97079831933	-2.93103448276
319	0.1595	-0.55	-7.46820809249	7.19159663866	-4.38275862069
320	0.16	-0.55	-3.23179190751	18.4470588235	-1.47931034483
321	0.1605	-3.38617021277	-10.2924855491	15.6331932773	-1.47931034483
322	0.161	-10.4765957447	-4.64393063584	14.2262605042	-0.0275862068966
323	0.1615	9.37659574468	-3.23179190751	14.2262605042	-4.38275862069
324	0.162	-3.38617021277	-3.23179190751	8.59852941176	10.1344827586
325	0.1625	-1.96808510638	-3.23179190751	-2.65693277311	-7.28620689655
326	0.163	-1.96808510638	-4.64393063584	15.6331932773	-0.0275862068966
327	0.1635	-0.55	-4.64393063584	-6.87773109244	-0.0275862068966
328	0.164	2.28617021277	5.24104046243	-2.65693277311	2.87586206897
329	0.1645	0.868085106383	-13.1167630058	-6.87773109244	-2.93103448276
330	0.165	-1.96808510638	-13.1167630058	-5.47079831933	-5.83448275862
331	0.1655	-4.80425531915	-7.46820809249	-2.65693277311	-4.38275862069
332	0.166	0.868085106383	-3.23179190751	-2.65693277311	-7.28620689655
333	0.1665	-1.96808510638	-4.64393063584	-1.25	15.9413793103
334	0.167	-1.96808510638	-4.64393063584	0.156932773109	-11.6413793103
335	0.1675	-0.55	-4.64393063584	-1.25	-1.47931034483
336	0.168	-0.55	-0.407514450867	-2.65693277311	1.42413793103
337	0.1685	-0.55	-14.5289017341	-1.25	1.42413793103
338	0.169	0.868085106383	15.1260115607	-1.25	1.42413793103
339	0.1695	-0.55	-8.88034682081	0.156932773109	-0.0275862068966
340	0.17	-7.64042553191	-3.23179190751	-2.65693277311	-0.0275862068966
341	0.1705	-3.38617021277	-0.407514450867	-1.25	15.9413793103
342	0.171	-0.55	-1.81965317919	-2.65693277311	-10.1896551724
343	0.1715	-1.96808510638	-3.23179190751	-9.69159663866	2.87586206897
344	0.172	0.868085106383	-3.23179190751	7.19159663866	-0.0275862068966
345	0.1725	-1.96808510638	-6.05606936416	-4.06386554622	-0.0275862068966
346	0.173	-0.55	-6.05606936416	0.156932773109	-5.83448275862
347	0.1735	-3.38617021277	-15.9410404624	4.37773109244	-4.38275862069
348	0.174	2.28617021277	-8.88034682081	1.56386554622	-2.93103448276
349	0.1745	-1.96808510638	-7.46820809249	-1.25	1.42413793103
350	0.175	2.28617021277	-7.46820809249	-1.25	-11.6413793103
351	0.1755	-4.80425531915	-8.88034682081	-4.06386554622	8.68275862069
352	0.176	-3.38617021277	-6.05606936416	-2.65693277311	-13.0931034483
353	0.1765	-1.96808510638	-4.64393063584	-12.5054621849	-0.0275862068966
354	0.177	-1.96808510638	-4.64393063584	-5.47079831933	-0.0275862068966
355	0.1775	-3.38617021277	-17.3531791908	-11.0985294118	-0.0275862068966
356	0.178	-3.38617021277	15.1260115607	-6.87773109244	-0.0275862068966
357	0.1785	-3.38617021277	-13.1167630058	-6.87773109244	-0.0275862068966
358	0.179	-7.64042553191	-6.05606936416	-8.28466386555	-0.0275862068966
359	0.1795	-6.22234042553	-6.05606936416	-6.87773109244	17.3931034483
360	0.18	-3.38617021277	-4.64393063584	-1.25	-10.1896551724
361	0.1805	0.868085106383	-6.05606936416	-11.0985294118	-1.47931034483
362	0.181	-3.38617021277	-10.2924855491	7.19159663866	-0.0275862068966
363	0.1815	-4.80425531915	-8.88034682081	-1.25	-1.47931034483
364	0.182	-4.80425531915	-4.64393063584	0.156932773109	-4.38275862069
365	0.1825	-1.96808510638	-13.1167630058	2.97079831933	-4.38275862069
366	0.183	-3.38617021277	-10.2924855491	2.97079831933	-0.0275862068966
367	0.1835	-1.96808510638	-10.2924855491	0.156932773109	-0.0275862068966
368	0.184	-9.0585106383	-8.88034682081	2.97079831933	1.42413793103
369	0.1845	-3.38617021277	-10.2924855491	4.37773109244	-7.28620689655
370	0.185	-0.55	-7.46820809249	-12.5054621849	-1.47931034483
371	0.1855	-1.96808510638	-8.88034682081	7.19159663866	-1.47931034483
372	0.186	-3.38617021277	-11.7046242775	-2.65693277311	-0.0275862068966
373	0.1865	-1.96808510638	1.00462427746	-6.87773109244	-0.0275862068966
374	0.187	-1.96808510638	-21.5895953757	-8.28466386555	-0.0275862068966
375	0.1875	-10.4765957447	-7.46820809249	-8.28466386555	1.42413793103
376	0.188	-0.55	-7.46820809249	-6.87773109244	1.42413793103
377	0.1885	-4.80425531915	-7.46820809249	-4.06386554622	-0.0275862068966
378	0.189	-1.96808510638	-6.05606936416	2.97079831933	14.4896551724
379	0.1895	-3.38617021277	-4.64393063584	-1.25	-11.6413793103
380	0.19	-3.38617021277	-3.23179190751	15.6331932773	-4.38275862069
381	0.1905	-3.38617021277	-6.05606936416	2.97079831933	-5.83448275862
382	0.191	-1.96808510638	3.8289017341	5.78466386555	-2.93103448276
383	0.1915	-4.80425531915	-6.05606936416	5.78466386555	-2.93103448276
384	0.192	0.868085106383	-6.05606936416	7.19159663866	-1.47931034483
385	0.1925	-14.7308510638	-1.81965317919	8.59852941176	-4.38275862069
386	0.193	-1.96808510638	-3.23179190751	7.19159663866	-0.0275862068966
387	0.1935	-1.96808510638	-3.23179190751	7.19159663866	-5.83448275862
388	0.194	-3.38617021277	-6.05606936416	7.19159663866	8.68275862069
389	0.1945	-3.38617021277	-6.05606936416	10.0054621849	-0.0275862068966
390	0.195	-3.38617021277	-1.81965317919	8.59852941176	-0.0275862068966
391	0.1955	-3.38617021277	-10.2924855491	4.37773109244	-0.0275862068966
392	0.196	-3.38617021277	5.24104046243	1.56386554622	-0.0275862068966
393	0.1965	2.28617021277	-3.23179190751	2.97079831933	-0.0275862068966
394	0.197	10.7946808511	-1.81965317919	0.156932773109	-11.6413793103
395	0.1975	-11.8946808511	-4.64393063584	1.56386554622	-2.93103448276
396	0.198	-3.38617021277	-1.81965317919	-8.28466386555	-2.93103448276
397	0.1985	-1.96808510638	-3.23179190751	-1.25	-5.83448275862
398	0.199	-1.96808510638	-0.407514450867	-5.47079831933	-4.38275862069
399	0.1995	-1.96808510638	1.00462427746	-4.06386554622	-1.47931034483
400	0.2	-1.96808510638	-11.7046242775	-6.87773109244	-1.47931034483
401	0.2005	-1.96808510638	-3.23179190751	-6.87773109244	-2.93103448276
402	0.201	-1.96808510638	-10.2924855491	-4.06386554622	-2.93103448276
403	0.2015	-6.22234042553	-0.407514450867	-4.06386554622	-0.0275862068966
404	0.202	-1.96808510638	-4.64393063584	-1.25	8.68275862069
405	0.2025	-1.96808510638	-3.23179190751	-5.47079831933	-0.0275862068966
406	0.203	0.868085106383	-4.64393063584	-2.65693277311	2.87586206897
407	0.2035	-0.55	-6.05606936416	-6.87773109244	-5.83448275862
408	0.204	-1.96808510638	-15.9410404624	-2.65693277311	-0.0275862068966
409	0.2045	-1.96808510638	9.4774566474	-5.47079831933	-1.47931034483
410	0.205	0.868085106383	-14.5289017341	-2.65693277311	1.42413793103
411	0.2055	-4.80425531915	-7.46820809249	-1.25	-0.0275862068966
412	0.206	5.12234042553	-4.64393063584	1.56386554622	-1.47931034483
413	0.2065	-4.80425531915	-4.64393063584	2.97079831933	-0.0275862068966
414	0.207	0.868085106383	-6.05606936416	4.37773109244	-13.0931034483
415	0.2075	-0.55	-4.64393063584	-4.06386554622	-2.93103448276
416	0.208	-0.55	-6.05606936416	0.156932773109	1.42413793103
417	0.2085	-1.96808510638	-0.407514450867	26.8886554622	-0.0275862068966
418	0.209	-1.96808510638	-4.64393063584	1.56386554622	-2.93103448276
419	0.2095	-1.96808510638	-13.1167630058	11.412394958	-4.38275862069
420	0.21	-0.55	-4.64393063584	8.59852941176	-0.0275862068966
421	0.2105	-9.0585106383	-11.7046242775	11.412394958	1.42413793103
422	0.211	-6.22234042553	-3.23179190751	5.78466386555	10.1344827586
423	0.2115	-0.55	-4.64393063584	8.59852941176	-0.0275862068966
424	0.212	-0.55	-1.81965317919	2.97079831933	10.1344827586
425	0.2125	-0.55	-3.23179190751	15.6331932773	-0.0275862068966
426	0.213	0.868085106383	-0.407514450867	2.97079831933	1.42413793103
427	0.2135	0.868085106383	-13.1167630058	2.97079831933	2.87586206897
428	0.214	-0.55	13.7138728324	4.37773109244	-0.0275862068966
429	0.2145	-0.55	-11.7046242775	0.156932773109	-0.0275862068966
430	0.215	7.9585106383	-6.05606936416	0.156932773109	-2.93103448276
431	0.2155	5.12234042553	-4.64393063584	1.56386554622	-10.1896551724
432	0.216	-4.80425531915	-7.46820809249	2.97079831933	-0.0275862068966
433	0.2165	-0.55	-7.46820809249	5.78466386555	1.42413793103
434	0.217	0.868085106383	-4.64393063584	-1.25	-1.47931034483
435	0.2175	-0.55	-6.05606936416	11.412394958	-2.93103448276
436	0.218	2.28617021277	-0.407514450867	0.156932773109	-0.0275862068966
437	0.2185	2.28617021277	-14.5289017341	-4.06386554622	1.42413793103
438	0.219	0.868085106383	-4.64393063584	-2.65693277311	-1.47931034483
439	0.2195	0.868085106383	-11.7046242775	-1.25	-1.47931034483
440	0.22	-7.64042553191	-1.81965317919	-1.25	-0.0275862068966
441	0.2205	-0.55	-1.81965317919	2.97079831933	15.9413793103
442	0.221	-1.96808510638	-4.64393063584	4.37773109244	-4.38275862069
443	0.2215	-0.55	-3.23179190751	18.4470588235	4.3275862069
444	0.222	-1.96808510638	-1.81965317919	14.2262605042	-1.47931034483
445	0.2225	-1.96808510638	-14.5289017341	19.8539915966	-1.47931034483
446	0.223	-0.55	16.538150289	18.4470588235	-2.93103448276
447	0.2235	-4.80425531915	-11.7046242775	18.4470588235	-5.83448275862
448	0.224	-1.96808510638	-3.23179190751	12.8193277311	-4.38275862069
449	0.2245	-1.96808510638	-1.81965317919	8.59852941176	4.3275862069
450	0.225	-4.80425531915	-1.81965317919	1.56386554622	-14.5448275862
451	0.2255	-1.96808510638	-1.81965317919	4.37773109244	-8.73793103448
452	0.226	0.868085106383	-1.81965317919	-8.28466386555	-0.0275862068966
453	0.2265	-3.38617021277	-0.407514450867	12.8193277311	-1.47931034483
454	0.227	-1.96808510638	3.8289017341	1.56386554622	-0.0275862068966
455	0.2275	0.868085106383	17.9502890173	0.156932773109	-0.0275862068966
456	0.228	-3.38617021277	-11.7046242775	-1.25	-0.0275862068966
457	0.2285	-7.64042553191	-4.64393063584	4.37773109244	-0.0275862068966
458	0.229	10.7946808511	-1.81965317919	7.19159663866	1.42413793103
459	0.2295	-7.64042553191	-1.81965317919	10.0054621849	-8.73793103448
460	0.23	-3.38617021277	-0.407514450867	-1.25	-0.0275862068966
461	0.2305	-4.80425531915	-1.81965317919	22.6678571429	-1.47931034483
462	0.231	-3.38617021277	-0.407514450867	1.56386554622	-1.47931034483
463	0.2315	-3.38617021277	2.41676300578	4.37773109244	-0.0275862068966
464	0.232	-1.96808510638	-10.2924855491	2.97079831933	-2.93103448276
465	0.2325	-0.55	13.7138728324	-1.25	-1.47931034483
466	0.233	-9.0585106383	-1.81965317919	0.156932773109	-1.47931034483
467	0.2335	7.9585106383	-1.81965317919	1.56386554622	-10.1896551724
468	0.234	-6.22234042553	-1.81965317919	-1.25	13.0379310345
469	0.2345	-4.80425531915	-0.407514450867	1.56386554622	-10.1896551724
470	0.235	-1.96808510638	-0.407514450867	2.97079831933	-0.0275862068966
471	0.2355	-1.96808510638	1.00462427746	0.156932773109	-0.0275862068966
472	0.236	-0.55	-3.23179190751	-6.87773109244	-1.47931034483
473	0.2365	-3.38617021277	13.7138728324	0.156932773109	1.42413793103
474	0.237	-3.38617021277	-8.88034682081	0.156932773109	-0.0275862068966
475	0.2375	0.868085106383	-7.46820809249	1.56386554622	-0.0275862068966
476	0.238	-9.0585106383	-4.64393063584	0.156932773109	-2.93103448276
477	0.2385	-10.4765957447	-1.81965317919	2.97079831933	-4.38275862069
478	0.239	-4.80425531915	-1.81965317919	1.56386554622	-2.93103448276
479	0.2395	0.868085106383	1.00462427746	18.4470588235	-7.28620689655
480	0.24	0.868085106383	-3.23179190751	-1.25	-2.93103448276
481	0.2405	-1.96808510638	2.41676300578	1.56386554622	-4.38275862069
482	0.241	0.868085106383	19.3624277457	1.56386554622	-0.0275862068966
483	0.2415	-1.96808510638	-8.88034682081	4.37773109244	1.42413793103
484	0.242	-4.80425531915	-0.407514450867	2.97079831933	-1.47931034483
485	0.2425	13.6308510638	-0.407514450867	4.37773109244	1.42413793103
486	0.243	-9.0585106383	2.41676300578	11.412394958	-7.28620689655
487	0.2435	-1.96808510638	1.00462427746	7.19159663866	5.77931034483
488	0.244	-1.96808510638	2.41676300578	21.2609243697	-1.47931034483
489	0.2445	0.868085106383	1.00462427746	4.37773109244	1.42413793103
490	0.245	-3.38617021277	1.00462427746	24.074789916	1.42413793103
491	0.2455	0.868085106383	-7.46820809249	15.6331932773	-0.0275862068966
492	0.246	-1.96808510638	-6.05606936416	15.6331932773	-0.0275862068966
493	0.2465	-3.38617021277	1.00462427746	14.2262605042	-2.93103448276
494	0.247	12.2127659574	1.00462427746	15.6331932773	2.87586206897
495	0.2475	0.868085106383	2.41676300578	14.2262605042	-10.1896551724
496	0.248	-0.55	2.41676300578	7.19159663866	-7.28620689655
497	0.2485	-0.55	2.41676300578	26.8886554622	-2.93103448276
498	0.249	-0.55	1.00462427746	1.56386554622	-1.47931034483
499	0.2495	-0.55	-3.23179190751	11.412394958	-0.0275862068966
500	0.25	-3.38617021277	-3.23179190751	14.2262605042	-1.47931034483
501	0.2505	3.70425531915	-0.407514450867	8.59852941176	-0.0275862068966
502	0.251	-7.64042553191	1.00462427746	5.78466386555	-4.38275862069
503	0.2515	13.6308510638	2.41676300578	8.59852941176	-7.28620689655
504	0.252	-4.80425531915	3.8289017341	7.19159663866	4.3275862069
505	0.2525	-1.96808510638	3.8289017341	29.7025210084	-0.0275862068966
506	0.253	-0.55	3.8289017341	4.37773109244	-0.0275862068966
507	0.2535	-0.55	1.00462427746	21.2609243697	-0.0275862068966
508	0.254	-1.96808510638	-1.81965317919	19.8539915966	-1.47931034483
509	0.2545	0.868085106383	6.65317919075	19.8539915966	-1.47931034483
510	0.255	-1.96808510638	-7.46820809249	24.074789916	-0.0275862068966
511	0.2555	19.3031914894	-0.407514450867	21.2609243697	2.87586206897
512	0.256	9.37659574468	-0.407514450867	19.8539915966	-4.38275862069
513	0.2565	-6.22234042553	1.00462427746	17.0401260504	-0.0275862068966
514	0.257	-1.96808510638	2.41676300578	11.412394958	-8.73793103448
515	0.2575	-3.38617021277	3.8289017341	21.2609243697	-2.93103448276
516	0.258	0.868085106383	5.24104046243	0.156932773109	-1.47931034483
517	0.2585	-1.96808510638	5.24104046243	2.97079831933	-1.47931034483
518	0.259	0.868085106383	-8.88034682081	-1.25	-1.47931034483
519	0.2595	-3.38617021277	1.00462427746	-2.65693277311	-0.0275862068966
520	0.26	-1.96808510638	-0.407514450867	-4.06386554622	1.42413793103
521	0.2605	-0.55	2.41676300578	-2.65693277311	2.87586206897
522	0.261	-0.55	-0.407514450867	-1.25	-11.6413793103
523	0.2615	-4.80425531915	1.00462427746	-1.25	14.4896551724
524	0.262	0.868085106383	1.00462427746	7.19159663866	-1.47931034483
525	0.2625	0.868085106383	-4.64393063584	-11.0985294118	-1.47931034483
526	0.263	-3.38617021277	-1.81965317919	-2.65693277311	-0.0275862068966
527	0.2635	-4.80425531915	-6.05606936416	0.156932773109	-0.0275862068966
528	0.264	-1.96808510638	-4.64393063584	-1.25	-0.0275862068966
529	0.2645	-7.64042553191	-1.81965317919	0.156932773109	-0.0275862068966
530	0.265	-3.38617021277	-3.23179190751	0.156932773109	-14.5448275862
531	0.2655	-1.96808510638	-3.23179190751	-4.06386554622	14.4896551724
532	0.266	0.868085106383	-1.81965317919	-5.47079831933	-8.73793103448
533	0.2665	0.868085106383	-0.407514450867	2.97079831933	-0.0275862068966
534	0.267	-1.96808510638	5.24104046243	0.156932773109	-2.93103448276
535	0.2675	-3.38617021277	-7.46820809249	1.56386554622	-2.93103448276
536	0.268	-1.96808510638	-3.23179190751	0.156932773109	-1.47931034483
537	0.2685	-13.3127659574	2.41676300578	1.56386554622	-2.93103448276
538	0.269	16.4670212766	1.00462427746	0.156932773109	2.87586206897
539	0.2695	-11.8946808511	2.41676300578	-1.25	-0.0275862068966
540	0.27	-4.80425531915	3.8289017341	-2.65693277311	-1.47931034483
541	0.2705	-3.38617021277	2.41676300578	14.2262605042	-0.0275862068966
542	0.271	-0.55	2.41676300578	-8.28466386555	1.42413793103
543	0.2715	-0.55	5.24104046243	1.56386554622	1.42413793103
544	0.272	-1.96808510638	-6.05606936416	2.97079831933	-0.0275862068966
545	0.2725	-4.80425531915	23.5988439306	1.56386554622	1.42413793103
546	0.273	-11.8946808511	8.06531791908	4.37773109244	-2.93103448276
547	0.2735	16.4670212766	6.65317919075	1.56386554622	1.42413793103
548	0.274	-13.3127659574	8.06531791908	5.78466386555	-8.73793103448
549	0.2745	-1.96808510638	5.24104046243	4.37773109244	2.87586206897
550	0.275	-1.96808510638	10.8895953757	21.2609243697	-2.93103448276
551	0.2755	-3.38617021277	6.65317919075	0.156932773109	-0.0275862068966
552	0.276	-1.96808510638	3.8289017341	4.37773109244	-1.47931034483
553	0.2765	-4.80425531915	17.9502890173	4.37773109244	1.42413793103
554	0.277	0.868085106383	5.24104046243	4.37773109244	1.42413793103
555	0.2775	-13.3127659574	3.8289017341	5.78466386555	-4.38275862069
556	0.278	13.6308510638	6.65317919075	11.412394958	-2.93103448276
557	0.2785	-3.38617021277	8.06531791908	10.0054621849	4.3275862069
558	0.279	-0.55	10.8895953757	2.97079831933	1.42413793103
559	0.2795	-1.96808510638	10.8895953757	24.074789916	1.42413793103
560	0.28	-3.38617021277	9.4774566474	15.6331932773	2.87586206897
561	0.2805	-4.80425531915	15.1260115607	15.6331932773	1.42413793103
562	0.281	-1.96808510638	-1.81965317919	18.4470588235	-0.0275862068966
563	0.2815	-3.38617021277	29.2473988439	18.4470588235	-4.38275862069
564	0.282	-4.80425531915	9.4774566474	18.4470588235	-4.38275862069
565	0.2825	0.868085106383	15.1260115607	21.2609243697	-0.0275862068966
566	0.283	-6.22234042553	10.8895953757	22.6678571429	-10.1896551724
567	0.2835	-4.80425531915	9.4774566474	24.074789916	17.3931034483
568	0.284	-4.80425531915	9.4774566474	15.6331932773	-2.93103448276
569	0.2845	-1.96808510638	13.7138728324	26.8886554622	-2.93103448276
570	0.285	-3.38617021277	17.9502890173	15.6331932773	-0.0275862068966
571	0.2855	-4.80425531915	5.24104046243	15.6331932773	-0.0275862068966
572	0.286	-3.38617021277	6.65317919075	15.6331932773	2.87586206897
573	0.2865	2.28617021277	15.1260115607	15.6331932773	-0.0275862068966
574	0.287	-7.64042553191	13.7138728324	14.2262605042	1.42413793103
575	0.2875	0.868085106383	15.1260115607	14.2262605042	-7.28620689655
576	0.288	-7.64042553191	10.8895953757	10.0054621849	14.4896551724
577	0.2885	-4.80425531915	12.301734104	29.7025210084	1.42413793103
578	0.289	-4.80425531915	13.7138728324	2.97079831933	-0.0275862068966
579	0.2895	-4.80425531915	13.7138728324	15.6331932773	-2.93103448276
580	0.29	-4.80425531915	1.00462427746	19.8539915966	-2.93103448276
581	0.2905	0.868085106383	26.4231213873	18.4470588235	-4.38275862069
582	0.291	-1.96808510638	1.00462427746	19.8539915966	-0.0275862068966
583	0.2915	9.37659574468	12.301734104	15.6331932773	-1.47931034483
584	0.292	-0.55	13.7138728324	18.4470588235	-11.6413793103
585	0.2925	-4.80425531915	10.8895953757	15.6331932773	-0.0275862068966
586	0.293	-3.38617021277	8.06531791908	14.2262605042	18.8448275862
587	0.2935	-3.38617021277	10.8895953757	26.8886554622	-0.0275862068966
588	0.294	-0.55	9.4774566474	0.156932773109	-0.0275862068966
589	0.2945	-0.55	13.7138728324	2.97079831933	-0.0275862068966
590	0.295	-1.96808510638	-0.407514450867	1.56386554622	-0.0275862068966
591	0.2955	-4.80425531915	-0.407514450867	1.56386554622	-0.0275862068966
592	0.296	-3.38617021277	9.4774566474	-1.25	-1.47931034483
593	0.2965	12.2127659574	6.65317919075	-1.25	1.42413793103
594	0.297	-0.55	6.65317919075	1.56386554622	-1.47931034483
595	0.2975	-1.96808510638	6.65317919075	-6.87773109244	-2.93103448276
596	0.298	0.868085106383	5.24104046243	18.4470588235	-2.93103448276
597	0.2985	-1.96808510638	6.65317919075	-4.06386554622	-2.93103448276
598	0.299	-4.80425531915	1.00462427746	2.97079831933	-1.47931034483
599	0.2995	-1.96808510638	-7.46820809249	1.56386554622	1.42413793103
600	0.3	-4.80425531915	-8.88034682081	2.97079831933	-1.47931034483
601	0.3005	-3.38617021277	3.8289017341	4.37773109244	-0.0275862068966
602	0.301	-9.0585106383	3.8289017341	5.78466386555	-0.0275862068966
603	0.3015	-6.22234042553	6.65317919075	2.97079831933	15.9413793103
604	0.302	-4.80425531915	5.24104046243	4.37773109244	-8.73793103448
605	0.3025	-0.55	8.06531791908	-2.65693277311	1.42413793103
606	0.303	-3.38617021277	2.41676300578	5.78466386555	-0.0275862068966
607	0.3035	-1.96808510638	-4.64393063584	4.37773109244	-0.0275862068966
608	0.304	2.28617021277	25.010982659	4.37773109244	1.42413793103
609	0.3045	-1.96808510638	1.00462427746	4.37773109244	2.87586206897
610	0.305	-6.22234042553	10.8895953757	4.37773109244	-0.0275862068966
611	0.3055	10.7946808511	8.06531791908	4.37773109244	4.3275862069
612	0.306	-0.55	6.65317919075	7.19159663866	4.3275862069
613	0.3065	0.868085106383	6.65317919075	14.2262605042	-7.28620689655
614	0.307	0.868085106383	9.4774566474	11.412394958	-2.93103448276
615	0.3075	0.868085106383	6.65317919075	4.37773109244	-0.0275862068966
616	0.308	-0.55	5.24104046243	2.97079831933	-2.93103448276
617	0.3085	-0.55	5.24104046243	11.412394958	-0.0275862068966
618	0.309	-1.96808510638	5.24104046243	11.412394958	-4.38275862069
619	0.3095	5.12234042553	6.65317919075	12.8193277311	-0.0275862068966
620	0.31	9.37659574468	6.65317919075	14.2262605042	-0.0275862068966
621	0.3105	-3.38617021277	6.65317919075	14.2262605042	4.3275862069
622	0.311	-0.55	6.65317919075	12.8193277311	17.3931034483
623	0.3115	0.868085106383	5.24104046243	15.6331932773	-0.0275862068966
624	0.312	0.868085106383	3.8289017341	5.78466386555	-0.0275862068966
625	0.3125	-0.55	6.65317919075	4.37773109244	1.42413793103
626	0.313	-0.55	3.8289017341	1.56386554622	-0.0275862068966
627	0.3135	-1.96808510638	6.65317919075	0.156932773109	-0.0275862068966
628	0.314	-14.7308510638	5.24104046243	-1.25	-0.0275862068966
629	0.3145	16.4670212766	1.00462427746	2.97079831933	-1.47931034483
630	0.315	7.9585106383	6.65317919075	2.97079831933	-10.1896551724
631	0.3155	-1.96808510638	6.65317919075	1.56386554622	15.9413793103
632	0.316	-1.96808510638	6.65317919075	15.6331932773	-0.0275862068966
633	0.3165	-1.96808510638	3.8289017341	2.97079831933	-1.47931034483
634	0.317	-1.96808510638	9.4774566474	4.37773109244	-1.47931034483
635	0.3175	0.868085106383	-0.407514450867	5.78466386555	-1.47931034483
636	0.318	-0.55	9.4774566474	7.19159663866	-0.0275862068966
637	0.3185	0.868085106383	5.24104046243	4.37773109244	-0.0275862068966
638	0.319	16.4670212766	6.65317919075	4.37773109244	1.42413793103
639	0.3195	-10.4765957447	6.65317919075	5.78466386555	7.23103448276
640	0.32	-0.55	3.8289017341	2.97079831933	-10.1896551724
641	0.3205	-3.38617021277	6.65317919075	21.2609243697	-0.0275862068966
642	0.321	-1.96808510638	6.65317919075	-5.47079831933	-0.0275862068966
643	0.3215	-0.55	-3.23179190751	1.56386554622	-0.0275862068966
644	0.322	-3.38617021277	-3.23179190751	0.156932773109	-0.0275862068966
645	0.3225	-0.55	23.5988439306	2.97079831933	1.42413793103
646	0.323	-1.96808510638	6.65317919075	4.37773109244	1.42413793103
647	0.3235	3.70425531915	6.65317919075	2.97079831933	-0.0275862068966
648	0.324	-4.80425531915	5.24104046243	1.56386554622	-2.93103448276
649	0.3245	-3.38617021277	3.8289017341	2.97079831933	-7.28620689655
650	0.325	-4.80425531915	2.41676300578	2.97079831933	-1.47931034483
651	0.3255	-3.38617021277	6.65317919075	0.156932773109	-1.47931034483
652	0.326	-3.38617021277	1.00462427746	0.156932773109	-1.47931034483
653	0.3265	-0.55	20.774566474	1.56386554622	-0.0275862068966
654	0.327	-1.96808510638	-3.23179190751	1.56386554622	-1.47931034483
655	0.3275	2.28617021277	6.65317919075	1.56386554622	-0.0275862068966
656	0.328	-14.7308510638	3.8289017341	1.56386554622	-2.93103448276
657	0.3285	15.0489361702	3.8289017341	2.97079831933	-1.47931034483
658	0.329	-1.96808510638	5.24104046243	-4.06386554622	-2.93103448276
659	0.3295	-0.55	6.65317919075	11.412394958	-2.93103448276
660	0.33	0.868085106383	6.65317919075	-4.06386554622	-1.47931034483
661	0.3305	2.28617021277	3.8289017341	2.97079831933	-0.0275862068966
662	0.331	0.868085106383	10.8895953757	2.97079831933	-2.93103448276
663	0.3315	0.868085106383	-6.05606936416	4.37773109244	-1.47931034483
664	0.332	-1.96808510638	9.4774566474	4.37773109244	-2.93103448276
665	0.3325	-7.64042553191	5.24104046243	4.37773109244	-4.38275862069
666	0.333	16.4670212766	6.65317919075	4.37773109244	-0.0275862068966
667	0.3335	-7.64042553191	5.24104046243	7.19159663866	-5.83448275862
668	0.334	0.868085106383	2.41676300578	2.97079831933	-4.38275862069
669	0.3345	-1.96808510638	6.65317919075	5.78466386555	1.42413793103
670	0.335	0.868085106383	5.24104046243	1.56386554622	1.42413793103
671	0.3355	2.28617021277	9.4774566474	2.97079831933	-0.0275862068966
672	0.336	-1.96808510638	1.00462427746	-2.65693277311	-0.0275862068966
673	0.3365	-1.96808510638	9.4774566474	-2.65693277311	-0.0275862068966
674	0.337	-11.8946808511	1.00462427746	-1.25	1.42413793103
675	0.3375	19.3031914894	3.8289017341	-1.25	1.42413793103
676	0.338	-10.4765957447	3.8289017341	-1.25	-7.28620689655
677	0.3385	-3.38617021277	5.24104046243	-1.25	15.9413793103
678	0.339	0.868085106383	3.8289017341	-4.06386554622	-2.93103448276
679	0.3395	-0.55	3.8289017341	11.412394958	-0.0275862068966
680	0.34	0.868085106383	6.65317919075	0.156932773109	-1.47931034483
681	0.3405	-0.55	-8.88034682081	0.156932773109	-2.93103448276
682	0.341	0.868085106383	17.9502890173	2.97079831933	-0.0275862068966
683	0.3415	0.868085106383	-7.46820809249	4.37773109244	-0.0275862068966
684	0.342	9.37659574468	1.00462427746	4.37773109244	-1.47931034483
685	0.3425	-7.64042553191	1.00462427746	4.37773109244	-11.6413793103
686	0.343	-0.55	-0.407514450867	-2.65693277311	15.9413793103
687	0.3435	-3.38617021277	-0.407514450867	-1.25	-7.28620689655
688	0.344	2.28617021277	1.00462427746	4.37773109244	-1.47931034483
689	0.3445	0.868085106383	5.24104046243	2.97079831933	-0.0275862068966
690	0.345	-0.55	-11.7046242775	-1.25	-0.0275862068966
691	0.3455	0.868085106383	16.538150289	0.156932773109	-0.0275862068966
692	0.346	-3.38617021277	-7.46820809249	1.56386554622	-0.0275862068966
693	0.3465	-0.55	1.00462427746	2.97079831933	-0.0275862068966
694	0.347	-7.64042553191	1.00462427746	4.37773109244	-0.0275862068966
695	0.3475	-10.4765957447	1.00462427746	2.97079831933	13.0379310345
696	0.348	-1.96808510638	-0.407514450867	2.97079831933	-2.93103448276
697	0.3485	-1.96808510638	1.00462427746	-6.87773109244	-8.73793103448
698	0.349	-0.55	1.00462427746	-1.25	-2.93103448276
699	0.3495	-0.55	6.65317919075	0.156932773109	-0.0275862068966
700	0.35	0.868085106383	-7.46820809249	-1.25	-2.93103448276
701	0.3505	0.868085106383	9.4774566474	0.156932773109	-0.0275862068966
702	0.351	0.868085106383	-6.05606936416	2.97079831933	-1.47931034483
703	0.3515	-0.55	-0.407514450867	-1.25	-1.47931034483
704	0.352	-4.80425531915	1.00462427746	0.156932773109	-10.1896551724
705	0.3525	-1.96808510638	2.41676300578	-4.06386554622	4.3275862069
706	0.353	0.868085106383	1.00462427746	-1.25	20.2965517241
707	0.3535	0.868085106383	2.41676300578	8.59852941176	1.42413793103
708	0.354	0.868085106383	1.00462427746	-4.06386554622	-0.0275862068966
709	0.3545	0.868085106383	5.24104046243	0.156932773109	1.42413793103
710	0.355	5.12234042553	-8.88034682081	-2.65693277311	1.42413793103
711	0.3555	0.868085106383	2.41676300578	0.156932773109	1.42413793103
712	0.356	0.868085106383	1.00462427746	1.56386554622	-1.47931034483
713	0.3565	12.2127659574	-0.407514450867	5.78466386555	-0.0275862068966
714	0.357	-0.55	2.41676300578	10.0054621849	-13.0931034483
715	0.3575	0.868085106383	2.41676300578	2.97079831933	-1.47931034483
716	0.358	0.868085106383	1.00462427746	18.4470588235	-1.47931034483
717	0.3585	0.868085106383	1.00462427746	7.19159663866	-0.0275862068966
718	0.359	2.28617021277	8.06531791908	11.412394958	-1.47931034483
719	0.3595	2.28617021277	-8.88034682081	7.19159663866	-2.93103448276
720	0.36	0.868085106383	5.24104046243	7.19159663866	-0.0275862068966
721	0.3605	-4.80425531915	3.8289017341	4.37773109244	-0.0275862068966
722	0.361	5.12234042553	1.00462427746	2.97079831933	1.42413793103
723	0.3615	0.868085106383	1.00462427746	1.56386554622	-5.83448275862
724	0.362	2.28617021277	-0.407514450867	1.56386554622	-2.93103448276
725	0.3625	0.868085106383	-0.407514450867	-1.25	17.3931034483
726	0.363	0.868085106383	-0.407514450867	-2.65693277311	-1.47931034483
727	0.3635	0.868085106383	-3.23179190751	0.156932773109	-1.47931034483
728	0.364	0.868085106383	1.00462427746	0.156932773109	-0.0275862068966
729	0.3645	-1.96808510638	-0.407514450867	0.156932773109	-0.0275862068966
730	0.365	3.70425531915	-4.64393063584	4.37773109244	-0.0275862068966
731	0.3655	-11.8946808511	-0.407514450867	2.97079831933	-2.93103448276
732	0.366	-0.55	-3.23179190751	4.37773109244	-0.0275862068966
733	0.3665	0.868085106383	-4.64393063584	5.78466386555	10.1344827586
734	0.367	-0.55	-1.81965317919	1.56386554622	-7.28620689655
735	0.3675	0.868085106383	1.00462427746	19.8539915966	-4.38275862069
736	0.368	3.70425531915	3.8289017341	14.2262605042	-0.0275862068966
737	0.3685	0.868085106383	-10.2924855491	14.2262605042	-0.0275862068966
738	0.369	0.868085106383	17.9502890173	14.2262605042	-1.47931034483
739	0.3695	-1.96808510638	-7.46820809249	11.412394958	-0.0275862068966
740	0.37	0.868085106383	1.00462427746	11.412394958	-1.47931034483
741	0.3705	-4.80425531915	-0.407514450867	7.19159663866	-0.0275862068966
742	0.371	-0.55	-0.407514450867	4.37773109244	10.1344827586
743	0.3715	0.868085106383	1.00462427746	2.97079831933	-5.83448275862
744	0.372	3.70425531915	-1.81965317919	8.59852941176	1.42413793103
745	0.3725	0.868085106383	1.00462427746	2.97079831933	-0.0275862068966
746	0.373	2.28617021277	-4.64393063584	4.37773109244	-1.47931034483
747	0.3735	0.868085106383	1.00462427746	0.156932773109	-2.93103448276
748	0.374	3.70425531915	-10.2924855491	2.97079831933	-1.47931034483
749	0.3745	0.868085106383	-1.81965317919	0.156932773109	-0.0275862068966
750	0.375	-4.80425531915	-1.81965317919	0.156932773109	-1.47931034483
751	0.3755	12.2127659574	-1.81965317919	0.156932773109	-0.0275862068966
752	0.376	-4.80425531915	-6.05606936416	4.37773109244	-11.6413793103
753	0.3765	0.868085106383	-0.407514450867	-1.25	18.8448275862
754	0.377	0.868085106383	-1.81965317919	18.4470588235	-1.47931034483
755	0.3775	-0.55	-0.407514450867	-4.06386554622	1.42413793103
756	0.378	2.28617021277	-1.81965317919	12.8193277311	-0.0275862068966
757	0.3785	0.868085106383	-6.05606936416	1.56386554622	-2.93103448276
758	0.379	-1.96808510638	-1.81965317919	1.56386554622	-0.0275862068966
759	0.3795	6.54042553191	-1.81965317919	-1.25	-0.0275862068966
760	0.38	20.7212765957	-1.81965317919	2.97079831933	-1.47931034483
761	0.3805	-6.22234042553	-1.81965317919	1.56386554622	2.87586206897
762	0.381	-0.55	-1.81965317919	4.37773109244	-7.28620689655
763	0.3815	0.868085106383	1.00462427746	18.4470588235	-4.38275862069
764	0.382	0.868085106383	-3.23179190751	-4.06386554622	-2.93103448276
765	0.3825	0.868085106383	-0.407514450867	5.78466386555	-2.93103448276
766	0.383	-0.55	-7.46820809249	5.78466386555	-0.0275862068966
767	0.3835	-1.96808510638	-10.2924855491	7.19159663866	-1.47931034483
768	0.384	-4.80425531915	-6.05606936416	5.78466386555	-2.93103448276
769	0.3845	3.70425531915	-3.23179190751	8.59852941176	-1.47931034483
770	0.385	9.37659574468	-3.23179190751	8.59852941176	-10.1896551724
771	0.3855	0.868085106383	-3.23179190751	8.59852941176	14.4896551724
772	0.386	0.868085106383	-4.64393063584	1.56386554622	-0.0275862068966
773	0.3865	0.868085106383	-4.64393063584	18.4470588235	-0.0275862068966
774	0.387	-0.55	1.00462427746	7.19159663866	-0.0275862068966
775	0.3875	0.868085106383	-13.1167630058	12.8193277311	-2.93103448276
776	0.388	0.868085106383	-10.2924855491	11.412394958	-0.0275862068966
777	0.3885	-6.22234042553	-1.81965317919	8.59852941176	-0.0275862068966
778	0.389	16.4670212766	-1.81965317919	5.78466386555	2.87586206897
779	0.3895	-7.64042553191	-4.64393063584	8.59852941176	-10.1896551724
780	0.39	0.868085106383	-4.64393063584	8.59852941176	1.42413793103
781	0.3905	0.868085106383	-1.81965317919	-1.25	-4.38275862069
782	0.391	5.12234042553	-3.23179190751	8.59852941176	-0.0275862068966
783	0.3915	3.70425531915	1.00462427746	8.59852941176	-1.47931034483
784	0.392	5.12234042553	-4.64393063584	15.6331932773	-1.47931034483
785	0.3925	0.868085106383	3.8289017341	12.8193277311	-1.47931034483
786	0.393	5.12234042553	-1.81965317919	12.8193277311	2.87586206897
787	0.3935	-7.64042553191	-1.81965317919	7.19159663866	-0.0275862068966
788	0.394	-4.80425531915	1.00462427746	7.19159663866	-0.0275862068966
789	0.3945	3.70425531915	-1.81965317919	8.59852941176	-1.47931034483
790	0.395	5.12234042553	-1.81965317919	-1.25	-0.0275862068966
791	0.3955	3.70425531915	-4.64393063584	7.19159663866	-4.38275862069
792	0.396	0.868085106383	1.00462427746	-5.47079831933	-0.0275862068966
793	0.3965	3.70425531915	-7.46820809249	2.97079831933	1.42413793103
794	0.397	-0.55	-6.05606936416	2.97079831933	-0.0275862068966
795	0.3975	-9.0585106383	-3.23179190751	0.156932773109	1.42413793103
796	0.398	16.4670212766	-4.64393063584	-1.25	-4.38275862069
797	0.3985	-6.22234042553	-3.23179190751	-1.25	2.87586206897
798	0.399	0.868085106383	-3.23179190751	1.56386554622	-5.83448275862
799	0.3995	0.868085106383	-0.407514450867	-11.0985294118	-2.93103448276
800	0.4	-0.55	-0.407514450867	-6.87773109244	-2.93103448276
801	0.4005	-0.55	1.00462427746	2.97079831933	-0.0275862068966
802	0.401	3.70425531915	-6.05606936416	2.97079831933	-0.0275862068966
803	0.4015	0.868085106383	22.1867052023	8.59852941176	-1.47931034483
804	0.402	-7.64042553191	3.8289017341	14.2262605042	-0.0275862068966
805	0.4025	0.868085106383	2.41676300578	15.6331932773	-1.47931034483
806	0.403	-0.55	3.8289017341	15.6331932773	-10.1896551724
807	0.4035	0.868085106383	3.8289017341	14.2262605042	18.8448275862
808	0.404	2.28617021277	5.24104046243	11.412394958	-5.83448275862
809	0.4045	2.28617021277	5.24104046243	15.6331932773	2.87586206897
810	0.405	0.868085106383	9.4774566474	4.37773109244	1.42413793103
811	0.4055	2.28617021277	-7.46820809249	2.97079831933	2.87586206897
812	0.406	2.28617021277	22.1867052023	-1.25	1.42413793103
813	0.4065	-1.96808510638	3.8289017341	-6.87773109244	-0.0275862068966
814	0.407	10.7946808511	2.41676300578	-6.87773109244	-0.0275862068966
815	0.4075	-1.96808510638	1.00462427746	-11.0985294118	-15.9965517241
816	0.408	0.868085106383	2.41676300578	-16.7262605042	15.9413793103
817	0.4085	-0.55	2.41676300578	-15.3193277311	-8.73793103448
818	0.409	0.868085106383	1.00462427746	-19.5401260504	-2.93103448276
819	0.4095	-0.55	3.8289017341	-18.1331932773	-1.47931034483
820	0.41	0.868085106383	-6.05606936416	-11.0985294118	-2.93103448276
821	0.4105	2.28617021277	-8.88034682081	-9.69159663866	-1.47931034483
822	0.411	0.868085106383	17.9502890173	-8.28466386555	1.42413793103
823	0.4115	-3.38617021277	1.00462427746	-8.28466386555	1.42413793103
824	0.412	3.70425531915	3.8289017341	-5.47079831933	4.3275862069
825	0.4125	-4.80425531915	1.00462427746	-4.06386554622	-11.6413793103
826	0.413	2.28617021277	-0.407514450867	-5.47079831933	17.3931034483
827	0.4135	0.868085106383	3.8289017341	-8.28466386555	-4.38275862069
828	0.414	0.868085106383	-0.407514450867	-2.65693277311	-0.0275862068966
829	0.4145	0.868085106383	2.41676300578	1.56386554622	-0.0275862068966
830	0.415	3.70425531915	-10.2924855491	4.37773109244	-2.93103448276
831	0.4155	0.868085106383	22.1867052023	2.97079831933	-2.93103448276
832	0.416	0.868085106383	1.00462427746	4.37773109244	-0.0275862068966
833	0.4165	-9.0585106383	3.8289017341	2.97079831933	-1.47931034483
834	0.417	-0.55	3.8289017341	4.37773109244	13.0379310345
835	0.4175	2.28617021277	2.41676300578	7.19159663866	-10.1896551724
836	0.418	2.28617021277	3.8289017341	2.97079831933	-0.0275862068966
837	0.4185	0.868085106383	2.41676300578	19.8539915966	1.42413793103
838	0.419	-1.96808510638	1.00462427746	7.19159663866	-0.0275862068966
839	0.4195	2.28617021277	2.41676300578	12.8193277311	1.42413793103
840	0.42	2.28617021277	-8.88034682081	14.2262605042	-1.47931034483
841	0.4205	-3.38617021277	1.00462427746	14.2262605042	-0.0275862068966
842	0.421	2.28617021277	1.00462427746	11.412394958	-1.47931034483
843	0.4215	-9.0585106383	-0.407514450867	15.6331932773	-7.28620689655
844	0.422	-4.80425531915	2.41676300578	15.6331932773	8.68275862069
845	0.4225	-0.55	1.00462427746	4.37773109244	-2.93103448276
846	0.423	-0.55	1.00462427746	19.8539915966	-0.0275862068966
847	0.4235	-1.96808510638	1.00462427746	1.56386554622	-1.47931034483
848	0.424	2.28617021277	1.00462427746	2.97079831933	-0.0275862068966
849	0.4245	2.28617021277	22.1867052023	1.56386554622	-1.47931034483
850	0.425	0.868085106383	-3.23179190751	-1.25	-2.93103448276
851	0.4255	-11.8946808511	2.41676300578	1.56386554622	-4.38275862069
852	0.426	10.7946808511	5.24104046243	-4.06386554622	-0.0275862068966
853	0.4265	13.6308510638	6.65317919075	-4.06386554622	2.87586206897
854	0.427	-1.96808510638	8.06531791908	-1.25	-7.28620689655
855	0.4275	-3.38617021277	12.301734104	-15.3193277311	1.42413793103
856	0.428	-3.38617021277	13.7138728324	1.56386554622	-0.0275862068966
857	0.4285	-4.80425531915	17.9502890173	-15.3193277311	-0.0275862068966
858	0.429	-4.80425531915	23.5988439306	-11.0985294118	-0.0275862068966
859	0.4295	-6.22234042553	10.8895953757	-8.28466386555	2.87586206897
860	0.43	-1.96808510638	23.5988439306	-8.28466386555	4.3275862069
861	0.4305	-10.4765957447	23.5988439306	-8.28466386555	-0.0275862068966
862	0.431	0.868085106383	23.5988439306	-6.87773109244	-1.47931034483
863	0.4315	-11.8946808511	25.010982659	-6.87773109244	-4.38275862069
864	0.432	-3.38617021277	27.8352601156	-5.47079831933	5.77931034483
865	0.4325	-7.64042553191	26.4231213873	-5.47079831933	-0.0275862068966
866	0.433	-4.80425531915	25.010982659	-13.912394958	2.87586206897
867	0.4335	-4.80425531915	34.8959537572	-12.5054621849	1.42413793103
868	0.434	-4.80425531915	17.9502890173	-15.3193277311	-2.93103448276
869	0.4345	-4.80425531915	49.0173410405	-18.1331932773	1.42413793103
870	0.435	-6.22234042553	23.5988439306	-20.9470588235	-0.0275862068966
871	0.4355	7.9585106383	32.0716763006	-25.1678571429	2.87586206897
872	0.436	-11.8946808511	33.4838150289	-30.7955882353	4.3275862069
873	0.4365	-6.22234042553	37.7202312139	-33.6094537815	5.77931034483
874	0.437	-7.64042553191	37.7202312139	-49.0857142857	2.87586206897
875	0.4375	-6.22234042553	40.5445086705	-29.3886554622	1.42413793103
876	0.438	-6.22234042553	41.9566473988	-50.4926470588	2.87586206897
877	0.4385	-9.0585106383	37.7202312139	-51.8995798319	4.3275862069
878	0.439	-6.22234042553	57.4901734104	-46.2718487395	2.87586206897
879	0.4395	-6.22234042553	51.8416184971	-49.0857142857	-1.47931034483
880	0.44	-14.7308510638	39.1323699422	-49.0857142857	-0.0275862068966
881	0.4405	7.9585106383	43.3687861272	-49.0857142857	2.87586206897
882	0.441	-14.7308510638	46.1930635838	-49.0857142857	-7.28620689655
883	0.4415	-6.22234042553	47.6052023121	-53.306512605	18.8448275862
884	0.442	-7.64042553191	49.0173410405	-57.5273109244	-4.38275862069
885	0.4425	-4.80425531915	51.8416184971	-57.5273109244	2.87586206897
886	0.443	-7.64042553191	51.8416184971	-58.9342436975	-0.0275862068966
887	0.4435	-7.64042553191	41.9566473988	-58.9342436975	4.3275862069
888	0.444	-9.0585106383	65.9630057803	-58.9342436975	1.42413793103
889	0.4445	-13.3127659574	50.4294797688	-58.9342436975	5.77931034483
890	0.445	7.9585106383	54.6658959538	-61.7481092437	8.68275862069
891	0.4455	-16.1489361702	56.0780346821	-61.7481092437	-1.47931034483
892	0.446	-4.80425531915	51.8416184971	-58.9342436975	-0.0275862068966
893	0.4465	-6.22234042553	51.8416184971	-58.9342436975	4.3275862069
894	0.447	-6.22234042553	54.6658959538	-74.4105042017	5.77931034483
895	0.4475	-4.80425531915	46.1930635838	-71.5966386555	4.3275862069
896	0.448	-3.38617021277	44.7809248555	-64.5619747899	-0.0275862068966
897	0.4485	-3.38617021277	56.0780346821	-64.5619747899	-0.0275862068966
898	0.449	5.12234042553	43.3687861272	-63.1550420168	1.42413793103
899	0.4495	-1.96808510638	40.5445086705	-65.968907563	1.42413793103
900	0.45	5.12234042553	33.4838150289	-63.1550420168	-0.0275862068966
901	0.4505	-3.38617021277	29.2473988439	-64.5619747899	-10.1896551724
902	0.451	5.12234042553	26.4231213873	-74.4105042017	-0.0275862068966
903	0.4515	7.9585106383	25.010982659	-63.1550420168	4.3275862069
904	0.452	9.37659574468	19.3624277457	-70.1897058824	1.42413793103
905	0.4525	10.7946808511	20.774566474	-64.5619747899	4.3275862069
906	0.453	9.37659574468	3.8289017341	-70.1897058824	4.3275862069
907	0.4535	7.9585106383	13.7138728324	-68.7827731092	7.23103448276
908	0.454	0.868085106383	13.7138728324	-67.3758403361	1.42413793103
909	0.4545	23.5574468085	6.65317919075	-67.3758403361	1.42413793103
910	0.455	2.28617021277	5.24104046243	-68.7827731092	-0.0275862068966
911	0.4555	12.2127659574	3.8289017341	-64.5619747899	14.4896551724
912	0.456	7.9585106383	6.65317919075	-57.5273109244	-0.0275862068966
913	0.4565	7.9585106383	8.06531791908	-65.968907563	1.42413793103
914	0.457	10.7946808511	9.4774566474	-60.3411764706	-1.47931034483
915	0.4575	10.7946808511	-3.23179190751	-63.1550420168	-0.0275862068966
916	0.458	12.2127659574	17.9502890173	-60.3411764706	-0.0275862068966
917	0.4585	12.2127659574	-0.407514450867	-60.3411764706	1.42413793103
918	0.459	-6.22234042553	5.24104046243	-58.9342436975	-5.83448275862
919	0.4595	24.9755319149	5.24104046243	-57.5273109244	-0.0275862068966
920	0.46	3.70425531915	3.8289017341	-53.306512605	-1.47931034483
921	0.4605	5.12234042553	1.00462427746	-56.1203781513	2.87586206897
922	0.461	5.12234042553	1.00462427746	-50.4926470588	2.87586206897
923	0.4615	2.28617021277	5.24104046243	-47.6787815126	-0.0275862068966
924	0.462	0.868085106383	-6.05606936416	-44.8649159664	1.42413793103
925	0.4625	3.70425531915	-3.23179190751	-40.6441176471	1.42413793103
926	0.463	-3.38617021277	2.41676300578	-37.8302521008	-1.47931034483
927	0.4635	-7.64042553191	2.41676300578	-32.2025210084	4.3275862069
928	0.464	16.4670212766	1.00462427746	-26.574789916	-1.47931034483
929	0.4645	0.868085106383	2.41676300578	-19.5401260504	-11.6413793103
930	0.465	0.868085106383	-0.407514450867	-18.1331932773	-4.38275862069
931	0.4655	0.868085106383	-0.407514450867	-8.28466386555	-2.93103448276
932	0.466	-0.55	-0.407514450867	-12.5054621849	-0.0275862068966
933	0.4665	-0.55	3.8289017341	-8.28466386555	-0.0275862068966
934	0.467	0.868085106383	-7.46820809249	-8.28466386555	-2.93103448276
935	0.4675	-0.55	2.41676300578	-9.69159663866	-2.93103448276
936	0.468	-9.0585106383	1.00462427746	-5.47079831933	-1.47931034483
937	0.4685	2.28617021277	-0.407514450867	-2.65693277311	1.42413793103
938	0.469	0.868085106383	-0.407514450867	-5.47079831933	13.0379310345
939	0.4695	0.868085106383	-3.23179190751	-6.87773109244	4.3275862069
940	0.47	-0.55	-3.23179190751	-11.0985294118	-1.47931034483
941	0.4705	-0.55	1.00462427746	-6.87773109244	-1.47931034483
942	0.471	0.868085106383	-1.81965317919	-18.1331932773	1.42413793103
943	0.4715	2.28617021277	-3.23179190751	-8.28466386555	-0.0275862068966
944	0.472	5.12234042553	-4.64393063584	-5.47079831933	1.42413793103
945	0.4725	-13.3127659574	-3.23179190751	-9.69159663866	-2.93103448276
946	0.473	16.4670212766	-4.64393063584	-5.47079831933	-4.38275862069
947	0.4735	0.868085106383	-4.64393063584	-4.06386554622	5.77931034483
948	0.474	-0.55	-4.64393063584	-15.3193277311	-2.93103448276
949	0.4745	0.868085106383	-3.23179190751	2.97079831933	-7.28620689655
950	0.475	0.868085106383	-1.81965317919	8.59852941176	-2.93103448276
951	0.4755	0.868085106383	5.24104046243	0.156932773109	-4.38275862069
952	0.476	-0.55	-10.2924855491	0.156932773109	-4.38275862069
953	0.4765	-4.80425531915	-4.64393063584	-1.25	-0.0275862068966
954	0.477	-6.22234042553	-4.64393063584	2.97079831933	-1.47931034483
955	0.4775	-4.80425531915	-7.46820809249	1.56386554622	4.3275862069
956	0.478	-0.55	-6.05606936416	5.78466386555	-5.83448275862
957	0.4785	-0.55	-6.05606936416	-5.47079831933	1.42413793103
958	0.479	-0.55	-4.64393063584	15.6331932773	-1.47931034483
959	0.4795	0.868085106383	-8.88034682081	-4.06386554622	-0.0275862068966
960	0.48	-0.55	-1.81965317919	7.19159663866	-0.0275862068966
961	0.4805	-1.96808510638	-8.88034682081	4.37773109244	-0.0275862068966
962	0.481	-3.38617021277	-10.2924855491	4.37773109244	-1.47931034483
963	0.4815	0.868085106383	-8.88034682081	4.37773109244	-0.0275862068966
964	0.482	-4.80425531915	-4.64393063584	7.19159663866	-2.93103448276
965	0.4825	-0.55	-3.23179190751	11.412394958	1.42413793103
966	0.483	-1.96808510638	-7.46820809249	-2.65693277311	-4.38275862069
967	0.4835	-0.55	-4.64393063584	14.2262605042	-4.38275862069
968	0.484	-0.55	-3.23179190751	0.156932773109	-2.93103448276
969	0.4845	-1.96808510638	-4.64393063584	8.59852941176	-0.0275862068966
970	0.485	-0.55	10.8895953757	12.8193277311	-1.47931034483
971	0.4855	0.868085106383	-8.88034682081	11.412394958	-1.47931034483
972	0.486	5.12234042553	-1.81965317919	12.8193277311	1.42413793103
973	0.4865	-13.3127659574	-6.05606936416	14.2262605042	1.42413793103
974	0.487	-7.64042553191	-3.23179190751	14.2262605042	2.87586206897
975	0.4875	2.28617021277	-3.23179190751	17.0401260504	5.77931034483
976	0.488	2.28617021277	-1.81965317919	8.59852941176	-1.47931034483
977	0.4885	2.28617021277	-1.81965317919	32.5163865546	-1.47931034483
978	0.489	2.28617021277	-0.407514450867	8.59852941176	-0.0275862068966
979	0.4895	0.868085106383	-11.7046242775	19.8539915966	-1.47931034483
980	0.49	2.28617021277	9.4774566474	18.4470588235	-1.47931034483
981	0.4905	0.868085106383	-10.2924855491	15.6331932773	-1.47931034483
982	0.491	7.9585106383	-4.64393063584	15.6331932773	-1.47931034483
983	0.4915	0.868085106383	-6.05606936416	19.8539915966	-7.28620689655
984	0.492	-0.55	-7.46820809249	22.6678571429	-0.0275862068966
985	0.4925	0.868085106383	-0.407514450867	18.4470588235	-11.6413793103
986	0.493	-0.55	-3.23179190751	35.3302521008	-2.93103448276
987	0.4935	-1.96808510638	-4.64393063584	32.5163865546	-0.0275862068966
988	0.494	-0.55	1.00462427746	22.6678571429	1.42413793103
989	0.4945	0.868085106383	-13.1167630058	21.2609243697	1.42413793103
990	0.495	0.868085106383	-7.46820809249	18.4470588235	-1.47931034483
991	0.4955	16.4670212766	-4.64393063584	17.0401260504	-1.47931034483
992	0.496	-11.8946808511	-4.64393063584	19.8539915966	-4.38275862069
993	0.4965	0.868085106383	-3.23179190751	19.8539915966	2.87586206897
994	0.497	-0.55	-3.23179190751	7.19159663866	1.42413793103
995	0.4975	-3.38617021277	1.00462427746	33.9233193277	1.42413793103
996	0.498	-0.55	-10.2924855491	11.412394958	-2.93103448276
997	0.4985	2.28617021277	5.24104046243	19.8539915966	-5.83448275862
998	0.499	-1.96808510638	-10.2924855491	19.8539915966	-5.83448275862
999	0.4995	5.12234042553	-6.05606936416	21.2609243697	-0.0275862068966
1000	0.5	-4.80425531915	-4.64393063584	22.6678571429	-4.38275862069
1001	0.5005	0.868085106383	-6.05606936416	22.6678571429	-11.6413793103
1002	0.501	2.28617021277	-7.46820809249	25.4817226891	-11.6413793103
1003	0.5015	-0.55	-6.05606936416	17.0401260504	-0.0275862068966
1004	0.502	0.868085106383	-8.88034682081	21.2609243697	-0.0275862068966
1005	0.5025	0.868085106383	-18.7653179191	19.8539915966	1.42413793103
1006	0.503	0.868085106383	9.4774566474	19.8539915966	-0.0275862068966
1007	0.5035	0.868085106383	-11.7046242775	17.0401260504	1.42413793103
1008	0.504	-9.0585106383	-6.05606936416	14.2262605042	-0.0275862068966
1009	0.5045	19.3031914894	-7.46820809249	14.2262605042	1.42413793103
1010	0.505	0.868085106383	-6.05606936416	8.59852941176	-7.28620689655
1011	0.5055	-0.55	-4.64393063584	21.2609243697	1.42413793103
1012	0.506	-0.55	-6.05606936416	-1.25	-0.0275862068966
1013	0.5065	-0.55	-8.88034682081	4.37773109244	1.42413793103
1014	0.507	-0.55	-14.5289017341	4.37773109244	-4.38275862069
1015	0.5075	-0.55	5.24104046243	4.37773109244	-1.47931034483
1016	0.508	-13.3127659574	-7.46820809249	4.37773109244	-0.0275862068966
1017	0.5085	9.37659574468	-8.88034682081	1.56386554622	-4.38275862069
1018	0.509	-4.80425531915	-8.88034682081	2.97079831933	1.42413793103
1019	0.5095	-4.80425531915	-8.88034682081	0.156932773109	17.3931034483
1020	0.51	-0.55	-6.05606936416	18.4470588235	1.42413793103
1021	0.5105	-0.55	-6.05606936416	-4.06386554622	1.42413793103
1022	0.511	-3.38617021277	-6.05606936416	8.59852941176	-1.47931034483
1023	0.5115	-0.55	-18.7653179191	1.56386554622	-0.0275862068966
1024	0.512	2.28617021277	5.24104046243	1.56386554622	-0.0275862068966
1025	0.5125	-11.8946808511	-6.05606936416	7.19159663866	1.42413793103
1026	0.513	-10.4765957447	-7.46820809249	5.78466386555	1.42413793103
1027	0.5135	15.0489361702	-4.64393063584	11.412394958	1.42413793103
1028	0.514	0.868085106383	-4.64393063584	5.78466386555	-4.38275862069
1029	0.5145	-1.96808510638	-6.05606936416	31.1094537815	-2.93103448276
1030	0.515	-0.55	-1.81965317919	5.78466386555	-2.93103448276
1031	0.5155	-1.96808510638	-4.64393063584	15.6331932773	-2.93103448276
1032	0.516	-0.55	-14.5289017341	18.4470588235	-4.38275862069
1033	0.5165	0.868085106383	10.8895953757	19.8539915966	-0.0275862068966
1034	0.517	-14.7308510638	-4.64393063584	18.4470588235	-2.93103448276
1035	0.5175	13.6308510638	-4.64393063584	15.6331932773	-4.38275862069
1036	0.518	-6.22234042553	-4.64393063584	14.2262605042	-0.0275862068966
1037	0.5185	0.868085106383	-7.46820809249	15.6331932773	-0.0275862068966
1038	0.519	-4.80425531915	-3.23179190751	12.8193277311	14.4896551724
1039	0.5195	-3.38617021277	-6.05606936416	-1.25	1.42413793103
1040	0.52	-0.55	-4.64393063584	8.59852941176	-0.0275862068966
1041	0.5205	-1.96808510638	-7.46820809249	1.56386554622	1.42413793103
1042	0.521	-0.55	-10.2924855491	5.78466386555	-0.0275862068966
1043	0.5215	-10.4765957447	-4.64393063584	7.19159663866	-1.47931034483
1044	0.522	15.0489361702	-3.23179190751	8.59852941176	1.42413793103
1045	0.5225	-9.0585106383	-6.05606936416	7.19159663866	-8.73793103448
1046	0.523	0.868085106383	-3.23179190751	4.37773109244	8.68275862069
1047	0.5235	-1.96808510638	-7.46820809249	-4.06386554622	-5.83448275862
1048	0.524	0.868085106383	-10.2924855491	4.37773109244	-0.0275862068966
1049	0.5245	-1.96808510638	-6.05606936416	5.78466386555	1.42413793103
1050	0.525	-0.55	-15.9410404624	8.59852941176	-4.38275862069
1051	0.5255	0.868085106383	10.8895953757	8.59852941176	-1.47931034483
1052	0.526	-3.38617021277	-11.7046242775	7.19159663866	-2.93103448276
1053	0.5265	5.12234042553	-7.46820809249	10.0054621849	-1.47931034483
1054	0.527	0.868085106383	-4.64393063584	11.412394958	2.87586206897
1055	0.5275	-4.80425531915	-7.46820809249	10.0054621849	13.0379310345
1056	0.528	-1.96808510638	-6.05606936416	26.8886554622	-0.0275862068966
1057	0.5285	0.868085106383	-6.05606936416	-1.25	1.42413793103
1058	0.529	-0.55	-10.2924855491	11.412394958	-0.0275862068966
1059	0.5295	0.868085106383	-4.64393063584	4.37773109244	-0.0275862068966
1060	0.53	2.28617021277	-10.2924855491	12.8193277311	-0.0275862068966
1061	0.5305	5.12234042553	-6.05606936416	12.8193277311	1.42413793103
1062	0.531	-13.3127659574	-4.64393063584	11.412394958	-0.0275862068966
1063	0.5315	0.868085106383	-3.23179190751	11.412394958	-2.93103448276
1064	0.532	0.868085106383	-4.64393063584	14.2262605042	1.42413793103
1065	0.5325	-1.96808510638	-3.23179190751	12.8193277311	10.1344827586
1066	0.533	-0.55	-4.64393063584	4.37773109244	-1.47931034483
1067	0.5335	0.868085106383	-3.23179190751	12.8193277311	-0.0275862068966
1068	0.534	0.868085106383	-7.46820809249	14.2262605042	-2.93103448276
1069	0.5345	3.70425531915	-8.88034682081	15.6331932773	-1.47931034483
1070	0.535	-9.0585106383	-1.81965317919	15.6331932773	-1.47931034483
1071	0.5355	13.6308510638	-1.81965317919	14.2262605042	4.3275862069
1072	0.536	-6.22234042553	-3.23179190751	15.6331932773	-2.93103448276
1073	0.5365	0.868085106383	-3.23179190751	15.6331932773	17.3931034483
1074	0.537	0.868085106383	-3.23179190751	7.19159663866	-0.0275862068966
1075	0.5375	3.70425531915	-4.64393063584	19.8539915966	-0.0275862068966
1076	0.538	-0.55	-4.64393063584	15.6331932773	-0.0275862068966
1077	0.5385	3.70425531915	8.06531791908	14.2262605042	-0.0275862068966
1078	0.539	-3.38617021277	-11.7046242775	15.6331932773	-0.0275862068966
1079	0.5395	5.12234042553	-4.64393063584	12.8193277311	-0.0275862068966
1080	0.54	-10.4765957447	-7.46820809249	15.6331932773	-7.28620689655
1081	0.5405	12.2127659574	-7.46820809249	17.0401260504	-2.93103448276
1082	0.541	-0.55	-7.46820809249	11.412394958	-5.83448275862
1083	0.5415	-0.55	-4.64393063584	36.7371848739	4.3275862069
1084	0.542	-3.38617021277	-3.23179190751	17.0401260504	-2.93103448276
1085	0.5425	-1.96808510638	-4.64393063584	19.8539915966	-4.38275862069
1086	0.543	-0.55	-14.5289017341	18.4470588235	-4.38275862069
1087	0.5435	0.868085106383	6.65317919075	15.6331932773	-0.0275862068966
1088	0.544	-11.8946808511	-6.05606936416	14.2262605042	-2.93103448276
1089	0.5445	-1.96808510638	-6.05606936416	14.2262605042	-1.47931034483
1090	0.545	5.12234042553	-6.05606936416	15.6331932773	-1.47931034483
1091	0.5455	-1.96808510638	-8.88034682081	18.4470588235	13.0379310345
1092	0.546	-1.96808510638	-7.46820809249	2.97079831933	-1.47931034483
1093	0.5465	0.868085106383	-6.05606936416	17.0401260504	-8.73793103448
1094	0.547	0.868085106383	-7.46820809249	22.6678571429	-0.0275862068966
1095	0.5475	-4.80425531915	-3.23179190751	11.412394958	-0.0275862068966
1096	0.548	-1.96808510638	-11.7046242775	11.412394958	-1.47931034483
1097	0.5485	-3.38617021277	-11.7046242775	17.0401260504	-4.38275862069
1098	0.549	17.885106383	-8.88034682081	25.4817226891	-1.47931034483
1099	0.5495	-9.0585106383	-7.46820809249	33.9233193277	-11.6413793103
1100	0.55	-0.55	-8.88034682081	33.9233193277	-0.0275862068966
1101	0.5505	-3.38617021277	-8.88034682081	32.5163865546	-8.73793103448
1102	0.551	-1.96808510638	-7.46820809249	26.8886554622	-2.93103448276
1103	0.5515	-1.96808510638	-8.88034682081	29.7025210084	-0.0275862068966
1104	0.552	-0.55	-24.4138728324	26.8886554622	-0.0275862068966
1105	0.5525	0.868085106383	2.41676300578	25.4817226891	-1.47931034483
1106	0.553	-3.38617021277	-15.9410404624	18.4470588235	-0.0275862068966
1107	0.5535	-10.4765957447	-10.2924855491	17.0401260504	-2.93103448276
1108	0.554	-3.38617021277	-10.2924855491	7.19159663866	18.8448275862
1109	0.5545	-1.96808510638	-10.2924855491	12.8193277311	-7.28620689655
1110	0.555	-1.96808510638	-7.46820809249	7.19159663866	1.42413793103
1111	0.5555	-0.55	-4.64393063584	0.156932773109	1.42413793103
1112	0.556	-3.38617021277	-8.88034682081	2.97079831933	-0.0275862068966
1113	0.5565	-3.38617021277	-4.64393063584	4.37773109244	-0.0275862068966
1114	0.557	-3.38617021277	-10.2924855491	11.412394958	-2.93103448276
1115	0.5575	0.868085106383	-7.46820809249	12.8193277311	-1.47931034483
1116	0.558	-14.7308510638	-6.05606936416	14.2262605042	-2.93103448276
1117	0.5585	-0.55	-6.05606936416	14.2262605042	-1.47931034483
1118	0.559	2.28617021277	-4.64393063584	18.4470588235	1.42413793103
1119	0.5595	-0.55	-6.05606936416	15.6331932773	5.77931034483
1120	0.56	-0.55	-8.88034682081	4.37773109244	-0.0275862068966
1121	0.5605	-1.96808510638	-1.81965317919	15.6331932773	1.42413793103
1122	0.561	-0.55	-4.64393063584	8.59852941176	-1.47931034483
1123	0.5615	0.868085106383	-8.88034682081	15.6331932773	-0.0275862068966
1124	0.562	-13.3127659574	-4.64393063584	17.0401260504	-1.47931034483
1125	0.5625	16.4670212766	-6.05606936416	18.4470588235	5.77931034483
1126	0.563	-10.4765957447	-3.23179190751	18.4470588235	-10.1896551724
1127	0.5635	-3.38617021277	-4.64393063584	18.4470588235	-1.47931034483
1128	0.564	0.868085106383	-8.88034682081	21.2609243697	-7.28620689655
1129	0.5645	-0.55	-6.05606936416	15.6331932773	-2.93103448276
1130	0.565	0.868085106383	-7.46820809249	31.1094537815	-4.38275862069
1131	0.5655	-1.96808510638	-1.81965317919	18.4470588235	-4.38275862069
1132	0.566	0.868085106383	-17.3531791908	17.0401260504	-0.0275862068966
1133	0.5665	-0.55	-7.46820809249	21.2609243697	-0.0275862068966
1134	0.567	-6.22234042553	-6.05606936416	19.8539915966	-2.93103448276
1135	0.5675	-3.38617021277	-6.05606936416	21.2609243697	1.42413793103
1136	0.568	0.868085106383	-6.05606936416	28.2955882353	-2.93103448276
1137	0.5685	0.868085106383	-4.64393063584	14.2262605042	-0.0275862068966
1138	0.569	0.868085106383	-1.81965317919	39.5510504202	-0.0275862068966
1139	0.5695	-0.55	-1.81965317919	21.2609243697	-0.0275862068966
1140	0.57	0.868085106383	1.00462427746	28.2955882353	-1.47931034483
1141	0.5705	-1.96808510638	-4.64393063584	28.2955882353	-0.0275862068966
1142	0.571	7.9585106383	-7.46820809249	26.8886554622	-0.0275862068966
1143	0.5715	-13.3127659574	-7.46820809249	25.4817226891	-1.47931034483
1144	0.572	19.3031914894	-6.05606936416	21.2609243697	2.87586206897
1145	0.5725	3.70425531915	-6.05606936416	21.2609243697	-11.6413793103
1146	0.573	0.868085106383	-7.46820809249	17.0401260504	-0.0275862068966
1147	0.5735	0.868085106383	-7.46820809249	14.2262605042	-11.6413793103
1148	0.574	-1.96808510638	-6.05606936416	21.2609243697	-2.93103448276
1149	0.5745	-0.55	-10.2924855491	8.59852941176	-0.0275862068966
1150	0.575	0.868085106383	12.301734104	4.37773109244	-0.0275862068966
1151	0.5755	-3.38617021277	-10.2924855491	7.19159663866	-0.0275862068966
1152	0.576	0.868085106383	-6.05606936416	11.412394958	-1.47931034483
1153	0.5765	-11.8946808511	-6.05606936416	17.0401260504	-11.6413793103
1154	0.577	0.868085106383	-1.81965317919	14.2262605042	14.4896551724
1155	0.5775	-1.96808510638	-4.64393063584	11.412394958	-7.28620689655
1156	0.578	-4.80425531915	-0.407514450867	12.8193277311	13.0379310345
1157	0.5785	-1.96808510638	-0.407514450867	15.6331932773	1.42413793103
1158	0.579	-1.96808510638	-8.88034682081	11.412394958	-1.47931034483
1159	0.5795	0.868085106383	-0.407514450867	14.2262605042	1.42413793103
1160	0.58	-3.38617021277	2.41676300578	12.8193277311	-0.0275862068966
1161	0.5805	-1.96808510638	-10.2924855491	14.2262605042	-0.0275862068966
1162	0.581	-3.38617021277	-4.64393063584	11.412394958	-0.0275862068966
1163	0.5815	-10.4765957447	-6.05606936416	8.59852941176	-8.73793103448
1164	0.582	-3.38617021277	-1.81965317919	8.59852941176	-1.47931034483
1165	0.5825	0.868085106383	1.00462427746	11.412394958	-7.28620689655
1166	0.583	-1.96808510638	-3.23179190751	19.8539915966	-0.0275862068966
1167	0.5835	-3.38617021277	-0.407514450867	11.412394958	-1.47931034483
1168	0.584	0.868085106383	-10.2924855491	14.2262605042	-2.93103448276
1169	0.5845	-3.38617021277	-3.23179190751	17.0401260504	-1.47931034483
1170	0.585	7.9585106383	-3.23179190751	12.8193277311	-0.0275862068966
1171	0.5855	-10.4765957447	-1.81965317919	14.2262605042	-1.47931034483
1172	0.586	16.4670212766	-1.81965317919	12.8193277311	-1.47931034483
1173	0.5865	-7.64042553191	-1.81965317919	14.2262605042	8.68275862069
1174	0.587	0.868085106383	1.00462427746	29.7025210084	-0.0275862068966
1175	0.5875	-1.96808510638	1.00462427746	1.56386554622	-0.0275862068966
1176	0.588	-1.96808510638	1.00462427746	12.8193277311	-0.0275862068966
1177	0.5885	-0.55	-3.23179190751	10.0054621849	1.42413793103
1178	0.589	2.28617021277	9.4774566474	11.412394958	-0.0275862068966
1179	0.5895	-1.96808510638	-6.05606936416	12.8193277311	1.42413793103
1180	0.59	17.885106383	1.00462427746	14.2262605042	-1.47931034483
1181	0.5905	16.4670212766	2.41676300578	14.2262605042	-5.83448275862
1182	0.591	-7.64042553191	-0.407514450867	12.8193277311	4.3275862069
1183	0.5915	-0.55	1.00462427746	15.6331932773	-5.83448275862
1184	0.592	-1.96808510638	1.00462427746	2.97079831933	-0.0275862068966
1185	0.5925	-1.96808510638	3.8289017341	12.8193277311	-2.93103448276
1186	0.593	-0.55	-6.05606936416	17.0401260504	-4.38275862069
1187	0.5935	-1.96808510638	13.7138728324	18.4470588235	-0.0275862068966
1188	0.594	-3.38617021277	-10.2924855491	18.4470588235	-0.0275862068966
1189	0.5945	-1.96808510638	-0.407514450867	18.4470588235	1.42413793103
1190	0.595	3.70425531915	-0.407514450867	18.4470588235	2.87586206897
1191	0.5955	-4.80425531915	-1.81965317919	18.4470588235	-7.28620689655
1192	0.596	0.868085106383	-1.81965317919	22.6678571429	-7.28620689655
1193	0.5965	-1.96808510638	3.8289017341	22.6678571429	1.42413793103
1194	0.597	-1.96808510638	-1.81965317919	19.8539915966	-1.47931034483
1195	0.5975	0.868085106383	3.8289017341	22.6678571429	-1.47931034483
1196	0.598	3.70425531915	15.1260115607	21.2609243697	-1.47931034483
1197	0.5985	0.868085106383	-8.88034682081	24.074789916	-2.93103448276
1198	0.599	-1.96808510638	-6.05606936416	24.074789916	-2.93103448276
1199	0.5995	0.868085106383	-6.05606936416	25.4817226891	-0.0275862068966
1200	0.6	-1.96808510638	-4.64393063584	19.8539915966	-8.73793103448
1201	0.6005	-1.96808510638	-1.81965317919	5.78466386555	-1.47931034483
1202	0.601	-1.96808510638	-3.23179190751	35.3302521008	-1.47931034483
1203	0.6015	-3.38617021277	-1.81965317919	11.412394958	-1.47931034483
1204	0.602	-3.38617021277	-1.81965317919	22.6678571429	-0.0275862068966
1205	0.6025	-0.55	-3.23179190751	21.2609243697	1.42413793103
1206	0.603	-0.55	-7.46820809249	18.4470588235	1.42413793103
1207	0.6035	0.868085106383	-4.64393063584	21.2609243697	1.42413793103
1208	0.604	-16.1489361702	-1.81965317919	19.8539915966	-0.0275862068966
1209	0.6045	-3.38617021277	-0.407514450867	17.0401260504	-0.0275862068966
1210	0.605	-3.38617021277	-3.23179190751	17.0401260504	13.0379310345
1211	0.6055	-3.38617021277	-4.64393063584	15.6331932773	5.77931034483
1212	0.606	-1.96808510638	-3.23179190751	4.37773109244	-0.0275862068966
1213	0.6065	-3.38617021277	-1.81965317919	12.8193277311	-4.38275862069
1214	0.607	-3.38617021277	-0.407514450867	-1.25	-2.93103448276
1215	0.6075	-0.55	-11.7046242775	8.59852941176	-0.0275862068966
1216	0.608	-1.96808510638	-0.407514450867	5.78466386555	-1.47931034483
1217	0.6085	-9.0585106383	-1.81965317919	11.412394958	-0.0275862068966
1218	0.609	-4.80425531915	-1.81965317919	8.59852941176	-0.0275862068966
1219	0.6095	-4.80425531915	-0.407514450867	7.19159663866	13.0379310345
1220	0.61	-0.55	-1.81965317919	12.8193277311	-13.0931034483
1221	0.6105	-1.96808510638	-4.64393063584	25.4817226891	1.42413793103
1222	0.611	-0.55	-1.81965317919	7.19159663866	-0.0275862068966
1223	0.6115	-0.55	5.24104046243	11.412394958	-0.0275862068966
1224	0.612	-1.96808510638	-4.64393063584	12.8193277311	1.42413793103
1225	0.6125	-3.38617021277	-1.81965317919	8.59852941176	1.42413793103
1226	0.613	-0.55	-1.81965317919	14.2262605042	2.87586206897
1227	0.6135	-10.4765957447	-3.23179190751	15.6331932773	-0.0275862068966
1228	0.614	-9.0585106383	-4.64393063584	14.2262605042	-0.0275862068966
1229	0.6145	-3.38617021277	-3.23179190751	15.6331932773	-7.28620689655
1230	0.615	-1.96808510638	-3.23179190751	28.2955882353	-2.93103448276
1231	0.6155	-0.55	-7.46820809249	4.37773109244	-1.47931034483
1232	0.616	-4.80425531915	-1.81965317919	31.1094537815	-2.93103448276
1233	0.6165	-0.55	-7.46820809249	15.6331932773	-0.0275862068966
1234	0.617	-3.38617021277	-4.64393063584	15.6331932773	-4.38275862069
1235	0.6175	-0.55	-4.64393063584	15.6331932773	-0.0275862068966
1236	0.618	16.4670212766	-4.64393063584	18.4470588235	-0.0275862068966
1237	0.6185	-6.22234042553	-7.46820809249	19.8539915966	5.77931034483
1238	0.619	0.868085106383	-8.88034682081	22.6678571429	-2.93103448276
1239	0.6195	-1.96808510638	-10.2924855491	21.2609243697	18.8448275862
1240	0.62	-4.80425531915	-10.2924855491	19.8539915966	-0.0275862068966
1241	0.6205	-4.80425531915	-10.2924855491	26.8886554622	1.42413793103
1242	0.621	-1.96808510638	-13.1167630058	21.2609243697	2.87586206897
1243	0.6215	0.868085106383	-1.81965317919	24.074789916	-0.0275862068966
1244	0.622	-1.96808510638	-4.64393063584	24.074789916	-0.0275862068966
1245	0.6225	-9.0585106383	-0.407514450867	21.2609243697	1.42413793103
1246	0.623	-0.55	1.00462427746	21.2609243697	-8.73793103448
1247	0.6235	-3.38617021277	-1.81965317919	22.6678571429	-1.47931034483
1248	0.624	-3.38617021277	-1.81965317919	17.0401260504	8.68275862069
1249	0.6245	-1.96808510638	-1.81965317919	7.19159663866	-1.47931034483
1250	0.625	-1.96808510638	1.00462427746	19.8539915966	-0.0275862068966
1251	0.6255	-1.96808510638	2.41676300578	17.0401260504	-2.93103448276
1252	0.626	0.868085106383	-0.407514450867	18.4470588235	-2.93103448276
1253	0.6265	-17.5670212766	-1.81965317919	14.2262605042	-0.0275862068966
1254	0.627	16.4670212766	-4.64393063584	15.6331932773	-1.47931034483
1255	0.6275	-11.8946808511	-4.64393063584	14.2262605042	-7.28620689655
1256	0.628	-3.38617021277	-3.23179190751	12.8193277311	8.68275862069
1257	0.6285	0.868085106383	-6.05606936416	4.37773109244	-1.47931034483
1258	0.629	-1.96808510638	-4.64393063584	0.156932773109	-0.0275862068966
1259	0.6295	-3.38617021277	-7.46820809249	12.8193277311	-0.0275862068966
1260	0.63	0.868085106383	-7.46820809249	12.8193277311	-0.0275862068966
1261	0.6305	-1.96808510638	6.65317919075	11.412394958	-1.47931034483
1262	0.631	-16.1489361702	-0.407514450867	11.412394958	-2.93103448276
1263	0.6315	-11.8946808511	-4.64393063584	8.59852941176	-2.93103448276
1264	0.632	10.7946808511	-6.05606936416	12.8193277311	-10.1896551724
1265	0.6325	-6.22234042553	-6.05606936416	8.59852941176	2.87586206897
1266	0.633	0.868085106383	-6.05606936416	0.156932773109	-7.28620689655
1267	0.6335	-0.55	-4.64393063584	25.4817226891	-0.0275862068966
1268	0.634	-3.38617021277	-6.05606936416	2.97079831933	-4.38275862069
1269	0.6345	-1.96808510638	-13.1167630058	11.412394958	-1.47931034483
1270	0.635	-3.38617021277	15.1260115607	11.412394958	-2.93103448276
1271	0.6355	0.868085106383	-1.81965317919	8.59852941176	-0.0275862068966
1272	0.636	-4.80425531915	-4.64393063584	8.59852941176	-1.47931034483
1273	0.6365	3.70425531915	-4.64393063584	11.412394958	-8.73793103448
1274	0.637	-9.0585106383	-4.64393063584	8.59852941176	13.0379310345
1275	0.6375	-3.38617021277	-4.64393063584	12.8193277311	-8.73793103448
1276	0.638	-4.80425531915	-1.81965317919	11.412394958	17.3931034483
1277	0.6385	-3.38617021277	-1.81965317919	12.8193277311	2.87586206897
1278	0.639	-3.38617021277	-1.81965317919	4.37773109244	-0.0275862068966
1279	0.6395	-4.80425531915	-14.5289017341	11.412394958	-1.47931034483
1280	0.64	-4.80425531915	-10.2924855491	12.8193277311	-2.93103448276
1281	0.6405	-6.22234042553	-3.23179190751	14.2262605042	-1.47931034483
1282	0.641	-0.55	-1.81965317919	14.2262605042	-5.83448275862
1283	0.6415	-1.96808510638	-1.81965317919	14.2262605042	-10.1896551724
1284	0.642	-0.55	-3.23179190751	12.8193277311	15.9413793103
1285	0.6425	-0.55	-1.81965317919	7.19159663866	-10.1896551724
1286	0.643	-0.55	-1.81965317919	18.4470588235	-0.0275862068966
1287	0.6435	0.868085106383	-1.81965317919	5.78466386555	-0.0275862068966
1288	0.644	0.868085106383	-8.88034682081	8.59852941176	-1.47931034483
1289	0.6445	-1.96808510638	-4.64393063584	12.8193277311	1.42413793103
1290	0.645	3.70425531915	-1.81965317919	7.19159663866	1.42413793103
1291	0.6455	-11.8946808511	-1.81965317919	8.59852941176	-1.47931034483
1292	0.646	16.4670212766	-0.407514450867	7.19159663866	-4.38275862069
1293	0.6465	-6.22234042553	-1.81965317919	11.412394958	4.3275862069
1294	0.647	0.868085106383	-0.407514450867	4.37773109244	4.3275862069
1295	0.6475	0.868085106383	1.00462427746	24.074789916	-0.0275862068966
1296	0.648	-0.55	1.00462427746	2.97079831933	-4.38275862069
1297	0.6485	0.868085106383	-1.81965317919	4.37773109244	-4.38275862069
1298	0.649	0.868085106383	17.9502890173	12.8193277311	-1.47931034483
1299	0.6495	3.70425531915	12.301734104	15.6331932773	1.42413793103
1300	0.65	-7.64042553191	-4.64393063584	15.6331932773	-1.47931034483
1301	0.6505	12.2127659574	-0.407514450867	15.6331932773	-0.0275862068966
1302	0.651	-9.0585106383	-0.407514450867	15.6331932773	-5.83448275862
1303	0.6515	0.868085106383	-0.407514450867	19.8539915966	14.4896551724
1304	0.652	2.28617021277	-0.407514450867	19.8539915966	-0.0275862068966
1305	0.6525	0.868085106383	-1.81965317919	26.8886554622	4.3275862069
1306	0.653	-0.55	1.00462427746	31.1094537815	4.3275862069
1307	0.6535	-0.55	-8.88034682081	32.5163865546	1.42413793103
1308	0.654	2.28617021277	-1.81965317919	32.5163865546	-0.0275862068966
1309	0.6545	-11.8946808511	2.41676300578	35.3302521008	-0.0275862068966
1310	0.655	20.7212765957	2.41676300578	36.7371848739	2.87586206897
1311	0.6555	-9.0585106383	5.24104046243	36.7371848739	-2.93103448276
1312	0.656	0.868085106383	1.00462427746	36.7371848739	2.87586206897
1313	0.6565	0.868085106383	-0.407514450867	26.8886554622	-5.83448275862
1314	0.657	0.868085106383	-1.81965317919	25.4817226891	-4.38275862069
1315	0.6575	0.868085106383	-0.407514450867	29.7025210084	-0.0275862068966
1316	0.658	0.868085106383	1.00462427746	15.6331932773	-0.0275862068966
1317	0.6585	2.28617021277	-1.81965317919	19.8539915966	-1.47931034483
1318	0.659	5.12234042553	2.41676300578	17.0401260504	1.42413793103
1319	0.6595	-10.4765957447	-0.407514450867	15.6331932773	-1.47931034483
1320	0.66	3.70425531915	-1.81965317919	15.6331932773	-2.93103448276
1321	0.6605	2.28617021277	-0.407514450867	12.8193277311	7.23103448276
1322	0.661	2.28617021277	-4.64393063584	0.156932773109	-0.0275862068966
1323	0.6615	-0.55	-0.407514450867	26.8886554622	1.42413793103
1324	0.662	0.868085106383	2.41676300578	4.37773109244	1.42413793103
1325	0.6625	-1.96808510638	-10.2924855491	14.2262605042	-0.0275862068966
1326	0.663	2.28617021277	16.538150289	14.2262605042	1.42413793103
1327	0.6635	-0.55	-6.05606936416	15.6331932773	-0.0275862068966
1328	0.664	-9.0585106383	1.00462427746	17.0401260504	-1.47931034483
1329	0.6645	-3.38617021277	2.41676300578	19.8539915966	1.42413793103
1330	0.665	-0.55	1.00462427746	19.8539915966	13.0379310345
1331	0.6655	0.868085106383	1.00462427746	25.4817226891	-15.9965517241
1332	0.666	0.868085106383	1.00462427746	36.7371848739	-2.93103448276
1333	0.6665	-0.55	-0.407514450867	12.8193277311	-1.47931034483
1334	0.667	-1.96808510638	3.8289017341	28.2955882353	-2.93103448276
1335	0.6675	-1.96808510638	5.24104046243	17.0401260504	-4.38275862069
1336	0.668	2.28617021277	-3.23179190751	15.6331932773	-0.0275862068966
1337	0.6685	-13.3127659574	1.00462427746	17.0401260504	-2.93103448276
1338	0.669	17.885106383	-1.81965317919	15.6331932773	4.3275862069
1339	0.6695	-10.4765957447	1.00462427746	18.4470588235	-2.93103448276
1340	0.67	0.868085106383	2.41676300578	18.4470588235	8.68275862069
1341	0.6705	-1.96808510638	3.8289017341	18.4470588235	1.42413793103
1342	0.671	2.28617021277	1.00462427746	14.2262605042	1.42413793103
1343	0.6715	-0.55	3.8289017341	15.6331932773	1.42413793103
1344	0.672	2.28617021277	-8.88034682081	17.0401260504	-0.0275862068966
1345	0.6725	0.868085106383	10.8895953757	17.0401260504	-0.0275862068966
1346	0.673	0.868085106383	-4.64393063584	15.6331932773	-1.47931034483
1347	0.6735	13.6308510638	-1.81965317919	15.6331932773	-5.83448275862
1348	0.674	-11.8946808511	1.00462427746	17.0401260504	-13.0931034483
1349	0.6745	0.868085106383	2.41676300578	12.8193277311	13.0379310345
1350	0.675	-0.55	1.00462427746	7.19159663866	-5.83448275862
1351	0.6755	-1.96808510638	-0.407514450867	11.412394958	-0.0275862068966
1352	0.676	-0.55	6.65317919075	12.8193277311	-1.47931034483
1353	0.6765	-1.96808510638	-7.46820809249	17.0401260504	1.42413793103
1354	0.677	0.868085106383	16.538150289	18.4470588235	-0.0275862068966
1355	0.6775	2.28617021277	-4.64393063584	19.8539915966	4.3275862069
1356	0.678	-11.8946808511	-0.407514450867	21.2609243697	-2.93103448276
1357	0.6785	-9.0585106383	-0.407514450867	22.6678571429	2.87586206897
1358	0.679	0.868085106383	2.41676300578	21.2609243697	14.4896551724
1359	0.6795	-0.55	1.00462427746	15.6331932773	-4.38275862069
1360	0.68	-0.55	1.00462427746	22.6678571429	8.68275862069
1361	0.6805	2.28617021277	3.8289017341	31.1094537815	1.42413793103
1362	0.681	-1.96808510638	-10.2924855491	18.4470588235	-1.47931034483
1363	0.6815	0.868085106383	-7.46820809249	17.0401260504	-0.0275862068966
1364	0.682	0.868085106383	1.00462427746	18.4470588235	-2.93103448276
1365	0.6825	-1.96808510638	1.00462427746	11.412394958	1.42413793103
1366	0.683	5.12234042553	-0.407514450867	11.412394958	-8.73793103448
1367	0.6835	-4.80425531915	3.8289017341	5.78466386555	8.68275862069
1368	0.684	0.868085106383	2.41676300578	14.2262605042	-10.1896551724
1369	0.6845	-0.55	6.65317919075	-1.25	-0.0275862068966
1370	0.685	-0.55	3.8289017341	7.19159663866	1.42413793103
1371	0.6855	0.868085106383	5.24104046243	7.19159663866	2.87586206897
1372	0.686	0.868085106383	9.4774566474	10.0054621849	-0.0275862068966
1373	0.6865	-3.38617021277	-0.407514450867	11.412394958	-0.0275862068966
1374	0.687	2.28617021277	5.24104046243	11.412394958	5.77931034483
1375	0.6875	-9.0585106383	2.41676300578	12.8193277311	-1.47931034483
1376	0.688	-0.55	6.65317919075	11.412394958	7.23103448276
1377	0.6885	-3.38617021277	5.24104046243	11.412394958	10.1344827586
1378	0.689	2.28617021277	5.24104046243	-4.06386554622	2.87586206897
1379	0.6895	3.70425531915	1.00462427746	7.19159663866	-0.0275862068966
1380	0.69	0.868085106383	-0.407514450867	7.19159663866	-2.93103448276
1381	0.6905	2.28617021277	6.65317919075	7.19159663866	-0.0275862068966
1382	0.691	-1.96808510638	3.8289017341	11.412394958	1.42413793103
1383	0.6915	2.28617021277	5.24104046243	7.19159663866	1.42413793103
1384	0.692	-9.0585106383	5.24104046243	5.78466386555	-5.83448275862
1385	0.6925	2.28617021277	5.24104046243	4.37773109244	-1.47931034483
1386	0.693	3.70425531915	6.65317919075	2.97079831933	1.42413793103
1387	0.6935	2.28617021277	6.65317919075	-1.25	17.3931034483
1388	0.694	2.28617021277	6.65317919075	-11.0985294118	2.87586206897
1389	0.6945	-0.55	8.06531791908	-4.06386554622	2.87586206897
1390	0.695	-0.55	-3.23179190751	-4.06386554622	1.42413793103
1391	0.6955	-0.55	22.1867052023	-6.87773109244	1.42413793103
1392	0.696	-11.8946808511	3.8289017341	-6.87773109244	2.87586206897
1393	0.6965	-6.22234042553	2.41676300578	-6.87773109244	1.42413793103
1394	0.697	5.12234042553	5.24104046243	-4.06386554622	-0.0275862068966
1395	0.6975	0.868085106383	2.41676300578	1.56386554622	14.4896551724
1396	0.698	0.868085106383	2.41676300578	-12.5054621849	-2.93103448276
1397	0.6985	0.868085106383	2.41676300578	4.37773109244	-10.1896551724
1398	0.699	-3.38617021277	5.24104046243	15.6331932773	-4.38275862069
1399	0.6995	-3.38617021277	6.65317919075	1.56386554622	-0.0275862068966
1400	0.7	-3.38617021277	13.7138728324	2.97079831933	-0.0275862068966
1401	0.7005	3.70425531915	-6.05606936416	2.97079831933	-2.93103448276
1402	0.701	-13.3127659574	1.00462427746	2.97079831933	-2.93103448276
1403	0.7015	17.885106383	-0.407514450867	4.37773109244	1.42413793103
1404	0.702	0.868085106383	1.00462427746	4.37773109244	-7.28620689655
1405	0.7025	-0.55	-3.23179190751	-5.47079831933	4.3275862069
1406	0.703	0.868085106383	1.00462427746	18.4470588235	1.42413793103
1407	0.7035	-0.55	2.41676300578	-6.87773109244	1.42413793103
1408	0.704	-3.38617021277	1.00462427746	0.156932773109	1.42413793103
1409	0.7045	-0.55	10.8895953757	0.156932773109	1.42413793103
1410	0.705	-0.55	-4.64393063584	2.97079831933	1.42413793103
1411	0.7055	-3.38617021277	2.41676300578	-1.25	-1.47931034483
1412	0.706	5.12234042553	3.8289017341	-2.65693277311	-0.0275862068966
1413	0.7065	2.28617021277	1.00462427746	-5.47079831933	-11.6413793103
1414	0.707	0.868085106383	2.41676300578	-5.47079831933	10.1344827586
1415	0.7075	0.868085106383	2.41676300578	-18.1331932773	-0.0275862068966
1416	0.708	0.868085106383	2.41676300578	8.59852941176	1.42413793103
1417	0.7085	-0.55	3.8289017341	-12.5054621849	-1.47931034483
1418	0.709	2.28617021277	1.00462427746	-9.69159663866	-2.93103448276
1419	0.7095	0.868085106383	2.41676300578	-1.25	-0.0275862068966
1420	0.71	-1.96808510638	1.00462427746	-2.65693277311	-1.47931034483
1421	0.7105	19.3031914894	3.8289017341	-1.25	4.3275862069
1422	0.711	16.4670212766	2.41676300578	0.156932773109	-0.0275862068966
1423	0.7115	-7.64042553191	1.00462427746	-5.47079831933	-0.0275862068966
1424	0.712	0.868085106383	1.00462427746	0.156932773109	1.42413793103
1425	0.7125	-0.55	1.00462427746	-4.06386554622	17.3931034483
1426	0.713	-0.55	-1.81965317919	-11.0985294118	2.87586206897
1427	0.7135	-0.55	-0.407514450867	-1.25	1.42413793103
1428	0.714	-0.55	2.41676300578	2.97079831933	-0.0275862068966
1429	0.7145	2.28617021277	-4.64393063584	1.56386554622	-0.0275862068966
1430	0.715	-6.22234042553	-1.81965317919	4.37773109244	-1.47931034483
1431	0.7155	15.0489361702	-4.64393063584	4.37773109244	-0.0275862068966
1432	0.716	-7.64042553191	-3.23179190751	11.412394958	-4.38275862069
1433	0.7165	0.868085106383	-3.23179190751	12.8193277311	18.8448275862
1434	0.717	0.868085106383	-1.81965317919	4.37773109244	-10.1896551724
1435	0.7175	0.868085106383	-3.23179190751	26.8886554622	-0.0275862068966
1436	0.718	3.70425531915	-1.81965317919	5.78466386555	-0.0275862068966
1437	0.7185	3.70425531915	-1.81965317919	5.78466386555	4.3275862069
1438	0.719	3.70425531915	1.00462427746	15.6331932773	2.87586206897
1439	0.7195	0.868085106383	-3.23179190751	15.6331932773	-0.0275862068966
1440	0.72	6.54042553191	-1.81965317919	14.2262605042	2.87586206897
1441	0.7205	-6.22234042553	-0.407514450867	7.19159663866	-0.0275862068966
1442	0.721	-7.64042553191	-1.81965317919	4.37773109244	-0.0275862068966
1443	0.7215	0.868085106383	-3.23179190751	4.37773109244	-1.47931034483
1444	0.722	0.868085106383	-1.81965317919	11.412394958	2.87586206897
1445	0.7225	-0.55	2.41676300578	2.97079831933	2.87586206897
1446	0.723	-0.55	-0.407514450867	14.2262605042	-0.0275862068966
1447	0.7235	2.28617021277	3.8289017341	14.2262605042	-2.93103448276
1448	0.724	-1.96808510638	-7.46820809249	11.412394958	-1.47931034483
1449	0.7245	0.868085106383	1.00462427746	8.59852941176	-0.0275862068966
1450	0.725	-7.64042553191	1.00462427746	2.97079831933	-1.47931034483
1451	0.7255	17.885106383	1.00462427746	0.156932773109	-0.0275862068966
1452	0.726	-4.80425531915	1.00462427746	-1.25	-0.0275862068966
1453	0.7265	0.868085106383	1.00462427746	-6.87773109244	-4.38275862069
1454	0.727	2.28617021277	3.8289017341	2.97079831933	8.68275862069
1455	0.7275	0.868085106383	1.00462427746	0.156932773109	2.87586206897
1456	0.728	2.28617021277	-6.05606936416	-1.25	4.3275862069
1457	0.7285	0.868085106383	1.00462427746	-2.65693277311	2.87586206897
1458	0.729	0.868085106383	-14.5289017341	-1.25	1.42413793103
1459	0.7295	-1.96808510638	-13.1167630058	-6.87773109244	2.87586206897
1460	0.73	2.28617021277	-4.64393063584	-2.65693277311	-0.0275862068966
1461	0.7305	12.2127659574	-4.64393063584	0.156932773109	1.42413793103
1462	0.731	-6.22234042553	-3.23179190751	-2.65693277311	2.87586206897
1463	0.7315	-0.55	-3.23179190751	-1.25	1.42413793103
1464	0.732	-4.80425531915	-4.64393063584	-12.5054621849	-2.93103448276
1465	0.7325	-0.55	-1.81965317919	11.412394958	-1.47931034483
1466	0.733	-1.96808510638	-3.23179190751	-9.69159663866	-1.47931034483
1467	0.7335	-0.55	-7.46820809249	-9.69159663866	-1.47931034483
1468	0.734	-0.55	5.24104046243	-13.912394958	-0.0275862068966
1469	0.7345	-0.55	-7.46820809249	-15.3193277311	-0.0275862068966
1470	0.735	-13.3127659574	-0.407514450867	-12.5054621849	-1.47931034483
1471	0.7355	17.885106383	-1.81965317919	-15.3193277311	5.77931034483
1472	0.736	-0.55	-3.23179190751	-11.0985294118	-5.83448275862
1473	0.7365	0.868085106383	-1.81965317919	-23.7609243697	2.87586206897
1474	0.737	0.868085106383	1.00462427746	1.56386554622	-0.0275862068966
1475	0.7375	0.868085106383	-0.407514450867	0.156932773109	4.3275862069
1476	0.738	-1.96808510638	-0.407514450867	-15.3193277311	2.87586206897
1477	0.7385	2.28617021277	1.00462427746	-12.5054621849	-0.0275862068966
1478	0.739	2.28617021277	-0.407514450867	-9.69159663866	-0.0275862068966
1479	0.7395	7.9585106383	-3.23179190751	-9.69159663866	-1.47931034483
1480	0.74	5.12234042553	-1.81965317919	-8.28466386555	-0.0275862068966
1481	0.7405	-3.38617021277	1.00462427746	-4.06386554622	-0.0275862068966
1482	0.741	3.70425531915	5.24104046243	-6.87773109244	-10.1896551724
1483	0.7415	0.868085106383	5.24104046243	-4.06386554622	-8.73793103448
1484	0.742	2.28617021277	5.24104046243	-11.0985294118	-0.0275862068966
1485	0.7425	2.28617021277	6.65317919075	-9.69159663866	-1.47931034483
1486	0.743	0.868085106383	-7.46820809249	-6.87773109244	-0.0275862068966
1487	0.7435	3.70425531915	20.774566474	-5.47079831933	-0.0275862068966
1488	0.744	-0.55	-7.46820809249	-4.06386554622	2.87586206897
1489	0.7445	3.70425531915	1.00462427746	-1.25	1.42413793103
1490	0.745	-6.22234042553	-0.407514450867	-1.25	-0.0275862068966
1491	0.7455	-4.80425531915	-1.81965317919	-4.06386554622	-2.93103448276
1492	0.746	2.28617021277	1.00462427746	-2.65693277311	2.87586206897
1493	0.7465	2.28617021277	-1.81965317919	-6.87773109244	10.1344827586
1494	0.747	2.28617021277	-6.05606936416	-11.0985294118	-1.47931034483
1495	0.7475	-0.55	1.00462427746	-5.47079831933	-0.0275862068966
1496	0.748	0.868085106383	-6.05606936416	-4.06386554622	-0.0275862068966
1497	0.7485	-0.55	-3.23179190751	-2.65693277311	-1.47931034483
1498	0.749	-7.64042553191	-0.407514450867	-5.47079831933	-2.93103448276
1499	0.7495	22.1393617021	1.00462427746	-4.06386554622	1.42413793103
1500	0.75	-3.38617021277	-0.407514450867	0.156932773109	-4.38275862069
1501	0.7505	0.868085106383	-1.81965317919	-1.25	-0.0275862068966
1502	0.751	2.28617021277	-0.407514450867	-13.912394958	-4.38275862069
1503	0.7515	0.868085106383	-3.23179190751	-9.69159663866	-0.0275862068966
1504	0.752	0.868085106383	1.00462427746	-4.06386554622	2.87586206897
1505	0.7525	2.28617021277	-0.407514450867	-12.5054621849	2.87586206897
1506	0.753	3.70425531915	-4.64393063584	-4.06386554622	1.42413793103
1507	0.7535	5.12234042553	-6.05606936416	-1.25	5.77931034483
1508	0.754	-9.0585106383	-0.407514450867	-4.06386554622	-0.0275862068966
1509	0.7545	23.5574468085	-3.23179190751	-5.47079831933	4.3275862069
1510	0.755	3.70425531915	-1.81965317919	-8.28466386555	-10.1896551724
1511	0.7555	2.28617021277	-1.81965317919	-11.0985294118	-2.93103448276
1512	0.756	2.28617021277	-6.05606936416	-8.28466386555	7.23103448276
1513	0.7565	2.28617021277	-6.05606936416	1.56386554622	-2.93103448276
1514	0.757	0.868085106383	-3.23179190751	-11.0985294118	-0.0275862068966
1515	0.7575	3.70425531915	-11.7046242775	-11.0985294118	-1.47931034483
1516	0.758	0.868085106383	-1.81965317919	-11.0985294118	-1.47931034483
1517	0.7585	19.3031914894	-6.05606936416	-12.5054621849	-0.0275862068966
1518	0.759	23.5574468085	-4.64393063584	-8.28466386555	1.42413793103
1519	0.7595	-4.80425531915	-1.81965317919	-8.28466386555	1.42413793103
1520	0.76	2.28617021277	-4.64393063584	-6.87773109244	1.42413793103
1521	0.7605	3.70425531915	-4.64393063584	8.59852941176	1.42413793103
1522	0.761	0.868085106383	-8.88034682081	-15.3193277311	1.42413793103
1523	0.7615	3.70425531915	-7.46820809249	-6.87773109244	2.87586206897
1524	0.762	3.70425531915	-0.407514450867	-5.47079831933	4.3275862069
1525	0.7625	7.9585106383	-8.88034682081	-2.65693277311	1.42413793103
1526	0.763	-10.4765957447	-1.81965317919	-2.65693277311	-0.0275862068966
1527	0.7635	22.1393617021	-0.407514450867	-2.65693277311	5.77931034483
1528	0.764	-4.80425531915	-3.23179190751	1.56386554622	-8.73793103448
1529	0.7645	5.12234042553	-1.81965317919	1.56386554622	13.0379310345
1530	0.765	3.70425531915	-0.407514450867	2.97079831933	-5.83448275862
1531	0.7655	7.9585106383	-3.23179190751	0.156932773109	-0.0275862068966
1532	0.766	0.868085106383	-1.81965317919	15.6331932773	-0.0275862068966
1533	0.7665	5.12234042553	17.9502890173	-1.25	1.42413793103
1534	0.767	5.12234042553	-7.46820809249	-1.25	-0.0275862068966
1535	0.7675	0.868085106383	-1.81965317919	-2.65693277311	-1.47931034483
1536	0.768	9.37659574468	2.41676300578	-1.25	-0.0275862068966
1537	0.7685	3.70425531915	1.00462427746	-1.25	-7.28620689655
1538	0.769	2.28617021277	-1.81965317919	-2.65693277311	2.87586206897
1539	0.7695	5.12234042553	-3.23179190751	-2.65693277311	-1.47931034483
1540	0.77	2.28617021277	1.00462427746	17.0401260504	1.42413793103
1541	0.7705	5.12234042553	-6.05606936416	-6.87773109244	1.42413793103
1542	0.771	2.28617021277	-10.2924855491	2.97079831933	-1.47931034483
1543	0.7715	3.70425531915	-0.407514450867	5.78466386555	2.87586206897
1544	0.772	9.37659574468	-8.88034682081	4.37773109244	1.42413793103
1545	0.7725	-4.80425531915	-8.88034682081	4.37773109244	-0.0275862068966
1546	0.773	22.1393617021	-4.64393063584	2.97079831933	2.87586206897
1547	0.7735	-4.80425531915	-4.64393063584	5.78466386555	-13.0931034483
1548	0.774	3.70425531915	-7.46820809249	4.37773109244	-0.0275862068966
1549	0.7745	0.868085106383	-4.64393063584	2.97079831933	-7.28620689655
1550	0.775	2.28617021277	-6.05606936416	11.412394958	-1.47931034483
1551	0.7755	5.12234042553	-6.05606936416	5.78466386555	-1.47931034483
1552	0.776	0.868085106383	-1.81965317919	-4.06386554622	-1.47931034483
1553	0.7765	5.12234042553	8.06531791908	-1.25	-0.0275862068966
1554	0.777	-9.0585106383	-4.64393063584	-1.25	-0.0275862068966
1555	0.7775	-7.64042553191	-3.23179190751	-2.65693277311	-0.0275862068966
1556	0.778	17.885106383	-4.64393063584	-2.65693277311	4.3275862069
1557	0.7785	2.28617021277	-4.64393063584	-1.25	-0.0275862068966
1558	0.779	2.28617021277	-6.05606936416	-6.87773109244	-5.83448275862
1559	0.7795	-0.55	-3.23179190751	4.37773109244	5.77931034483
1560	0.78	0.868085106383	-3.23179190751	-1.25	1.42413793103
1561	0.7805	-0.55	-15.9410404624	-1.25	2.87586206897
1562	0.781	-0.55	-11.7046242775	-2.65693277311	1.42413793103
1563	0.7815	3.70425531915	2.41676300578	-1.25	1.42413793103
1564	0.782	-7.64042553191	-4.64393063584	1.56386554622	-2.93103448276
1565	0.7825	20.7212765957	-1.81965317919	-1.25	-0.0275862068966
1566	0.783	-4.80425531915	1.00462427746	-4.06386554622	-1.47931034483
1567	0.7835	2.28617021277	-3.23179190751	-4.06386554622	-0.0275862068966
1568	0.784	2.28617021277	-0.407514450867	8.59852941176	-2.93103448276
1569	0.7845	5.12234042553	-1.81965317919	-11.0985294118	-0.0275862068966
1570	0.785	2.28617021277	-1.81965317919	-4.06386554622	1.42413793103
1571	0.7855	0.868085106383	-6.05606936416	-6.87773109244	2.87586206897
1572	0.786	0.868085106383	16.538150289	-2.65693277311	1.42413793103
1573	0.7865	2.28617021277	1.00462427746	-4.06386554622	2.87586206897
1574	0.787	-4.80425531915	2.41676300578	-1.25	-0.0275862068966
1575	0.7875	2.28617021277	1.00462427746	1.56386554622	7.23103448276
1576	0.788	0.868085106383	2.41676300578	-9.69159663866	-2.93103448276
1577	0.7885	0.868085106383	1.00462427746	14.2262605042	4.3275862069
1578	0.789	0.868085106383	2.41676300578	-5.47079831933	-0.0275862068966
1579	0.7895	0.868085106383	-1.81965317919	1.56386554622	1.42413793103
1580	0.79	0.868085106383	-4.64393063584	-1.25	-1.47931034483
1581	0.7905	5.12234042553	-1.81965317919	-2.65693277311	-1.47931034483
1582	0.791	-11.8946808511	3.8289017341	-1.25	-0.0275862068966
1583	0.7915	22.1393617021	-0.407514450867	-1.25	1.42413793103
1584	0.792	-7.64042553191	1.00462427746	0.156932773109	-8.73793103448
1585	0.7925	3.70425531915	-0.407514450867	0.156932773109	15.9413793103
1586	0.793	0.868085106383	-0.407514450867	-8.28466386555	-5.83448275862
1587	0.7935	5.12234042553	-1.81965317919	-5.47079831933	1.42413793103
1588	0.794	3.70425531915	3.8289017341	-2.65693277311	-0.0275862068966
1589	0.7945	0.868085106383	-8.88034682081	-2.65693277311	1.42413793103
1590	0.795	5.12234042553	19.3624277457	-1.25	4.3275862069
1591	0.7955	0.868085106383	-3.23179190751	-2.65693277311	1.42413793103
1592	0.796	0.868085106383	6.65317919075	-4.06386554622	-0.0275862068966
1593	0.7965	-0.55	6.65317919075	0.156932773109	5.77931034483
1594	0.797	2.28617021277	6.65317919075	-4.06386554622	20.2965517241
1595	0.7975	0.868085106383	6.65317919075	0.156932773109	-7.28620689655
1596	0.798	3.70425531915	1.00462427746	0.156932773109	-7.28620689655
1597	0.7985	0.868085106383	2.41676300578	-2.65693277311	1.42413793103
1598	0.799	0.868085106383	3.8289017341	0.156932773109	-1.47931034483
1599	0.7995	0.868085106383	-10.2924855491	0.156932773109	-1.47931034483
1600	0.8	0.868085106383	19.3624277457	-2.65693277311	-2.93103448276
1601	0.8005	-4.80425531915	1.00462427746	-2.65693277311	-2.93103448276
1602	0.801	16.4670212766	2.41676300578	-1.25	4.3275862069
1603	0.8015	-7.64042553191	1.00462427746	-1.25	-2.93103448276
1604	0.802	0.868085106383	1.00462427746	-1.25	-8.73793103448
1605	0.8025	2.28617021277	1.00462427746	-5.47079831933	2.87586206897
1606	0.803	0.868085106383	-0.407514450867	-12.5054621849	-4.38275862069
1607	0.8035	2.28617021277	-0.407514450867	-6.87773109244	1.42413793103
1608	0.804	2.28617021277	3.8289017341	-6.87773109244	1.42413793103
1609	0.8045	3.70425531915	16.538150289	-9.69159663866	-0.0275862068966
1610	0.805	-0.55	-1.81965317919	-8.28466386555	1.42413793103
1611	0.8055	-7.64042553191	3.8289017341	-8.28466386555	1.42413793103
1612	0.806	-4.80425531915	2.41676300578	-5.47079831933	4.3275862069
1613	0.8065	-0.55	2.41676300578	-8.28466386555	15.9413793103
1614	0.807	0.868085106383	3.8289017341	-2.65693277311	-11.6413793103
1615	0.8075	2.28617021277	5.24104046243	-2.65693277311	-1.47931034483
1616	0.808	2.28617021277	6.65317919075	-5.47079831933	-0.0275862068966
1617	0.8085	2.28617021277	8.06531791908	-13.912394958	1.42413793103
1618	0.809	2.28617021277	-6.05606936416	-6.87773109244	-2.93103448276
1619	0.8095	3.70425531915	-1.81965317919	-5.47079831933	-2.93103448276
1620	0.81	-6.22234042553	5.24104046243	-4.06386554622	1.42413793103
1621	0.8105	15.0489361702	3.8289017341	-2.65693277311	1.42413793103
1622	0.811	-4.80425531915	6.65317919075	-1.25	-11.6413793103
1623	0.8115	0.868085106383	3.8289017341	-1.25	2.87586206897
1624	0.812	2.28617021277	2.41676300578	-4.06386554622	-4.38275862069
1625	0.8125	-0.55	3.8289017341	14.2262605042	-0.0275862068966
1626	0.813	-1.96808510638	2.41676300578	-4.06386554622	2.87586206897
1627	0.8135	-0.55	2.41676300578	-5.47079831933	1.42413793103
1628	0.814	0.868085106383	5.24104046243	8.59852941176	1.42413793103
1629	0.8145	0.868085106383	2.41676300578	12.8193277311	-0.0275862068966
1630	0.815	13.6308510638	-1.81965317919	14.2262605042	-1.47931034483
1631	0.8155	19.3031914894	-0.407514450867	14.2262605042	-0.0275862068966
1632	0.816	-9.0585106383	-1.81965317919	15.6331932773	-11.6413793103
1633	0.8165	0.868085106383	-0.407514450867	11.412394958	14.4896551724
1634	0.817	0.868085106383	1.00462427746	14.2262605042	-2.93103448276
1635	0.8175	0.868085106383	-0.407514450867	19.8539915966	-1.47931034483
1636	0.818	0.868085106383	5.24104046243	5.78466386555	-1.47931034483
1637	0.8185	-0.55	-8.88034682081	5.78466386555	1.42413793103
1638	0.819	-0.55	17.9502890173	4.37773109244	1.42413793103
1639	0.8195	-3.38617021277	-6.05606936416	1.56386554622	1.42413793103
1640	0.82	12.2127659574	2.41676300578	0.156932773109	2.87586206897
1641	0.8205	-3.38617021277	-0.407514450867	-1.25	1.42413793103
1642	0.821	-0.55	-1.81965317919	4.37773109244	-10.1896551724
1643	0.8215	0.868085106383	-3.23179190751	-1.25	2.87586206897
1644	0.822	-1.96808510638	-0.407514450867	4.37773109244	-4.38275862069
1645	0.8225	-0.55	-1.81965317919	7.19159663866	-0.0275862068966
1646	0.823	0.868085106383	-11.7046242775	8.59852941176	-0.0275862068966
1647	0.8235	3.70425531915	13.7138728324	7.19159663866	-0.0275862068966
1648	0.824	2.28617021277	-11.7046242775	8.59852941176	-1.47931034483
1649	0.8245	-6.22234042553	-6.05606936416	11.412394958	-1.47931034483
1650	0.825	2.28617021277	-6.05606936416	11.412394958	-0.0275862068966
1651	0.8255	0.868085106383	-6.05606936416	5.78466386555	17.3931034483
1652	0.826	3.70425531915	-6.05606936416	8.59852941176	-7.28620689655
1653	0.8265	0.868085106383	-7.46820809249	11.412394958	17.3931034483
1654	0.827	2.28617021277	-4.64393063584	4.37773109244	1.42413793103
1655	0.8275	5.12234042553	-11.7046242775	5.78466386555	2.87586206897
1656	0.828	3.70425531915	-11.7046242775	4.37773109244	-0.0275862068966
1657	0.8285	9.37659574468	-6.05606936416	4.37773109244	1.42413793103
1658	0.829	9.37659574468	-3.23179190751	4.37773109244	-1.47931034483
1659	0.8295	-9.0585106383	-6.05606936416	4.37773109244	2.87586206897
1660	0.83	0.868085106383	-6.05606936416	5.78466386555	2.87586206897
1661	0.8305	0.868085106383	-3.23179190751	4.37773109244	-5.83448275862
1662	0.831	0.868085106383	-3.23179190751	1.56386554622	1.42413793103
1663	0.8315	3.70425531915	-6.05606936416	7.19159663866	-1.47931034483
1664	0.832	5.12234042553	-1.81965317919	-1.25	-0.0275862068966
1665	0.8325	9.37659574468	13.7138728324	4.37773109244	-0.0275862068966
1666	0.833	2.28617021277	-8.88034682081	2.97079831933	-0.0275862068966
1667	0.8335	0.868085106383	-0.407514450867	5.78466386555	-0.0275862068966
1668	0.834	10.7946808511	-0.407514450867	7.19159663866	-0.0275862068966
1669	0.8345	-0.55	-0.407514450867	12.8193277311	-10.1896551724
1670	0.835	5.12234042553	-0.407514450867	11.412394958	18.8448275862
1671	0.8355	3.70425531915	-0.407514450867	29.7025210084	1.42413793103
1672	0.836	0.868085106383	-1.81965317919	8.59852941176	-0.0275862068966
1673	0.8365	-0.55	-1.81965317919	17.0401260504	2.87586206897
1674	0.837	2.28617021277	-15.9410404624	15.6331932773	2.87586206897
1675	0.8375	5.12234042553	9.4774566474	17.0401260504	4.3275862069
1676	0.838	-3.38617021277	-11.7046242775	14.2262605042	1.42413793103
1677	0.8385	-1.96808510638	-6.05606936416	14.2262605042	4.3275862069
1678	0.839	2.28617021277	-4.64393063584	14.2262605042	-5.83448275862
1679	0.8395	-0.55	-1.81965317919	12.8193277311	14.4896551724
1680	0.84	2.28617021277	-6.05606936416	7.19159663866	-13.0931034483
1681	0.8405	2.28617021277	-3.23179190751	21.2609243697	-1.47931034483
1682	0.841	-0.55	-3.23179190751	-1.25	-1.47931034483
1683	0.8415	2.28617021277	-10.2924855491	0.156932773109	-1.47931034483
1684	0.842	2.28617021277	20.774566474	1.56386554622	-1.47931034483
1685	0.8425	2.28617021277	13.7138728324	2.97079831933	-0.0275862068966
1686	0.843	-9.0585106383	-3.23179190751	2.97079831933	-0.0275862068966
1687	0.8435	20.7212765957	-0.407514450867	4.37773109244	1.42413793103
1688	0.844	-7.64042553191	1.00462427746	7.19159663866	-5.83448275862
1689	0.8445	2.28617021277	1.00462427746	1.56386554622	-0.0275862068966
1690	0.845	0.868085106383	2.41676300578	15.6331932773	-7.28620689655
1691	0.8455	2.28617021277	1.00462427746	2.97079831933	1.42413793103
1692	0.846	5.12234042553	2.41676300578	11.412394958	1.42413793103
1693	0.8465	-1.96808510638	-4.64393063584	11.412394958	-0.0275862068966
1694	0.847	-0.55	1.00462427746	12.8193277311	1.42413793103
1695	0.8475	-3.38617021277	-0.407514450867	11.412394958	-1.47931034483
1696	0.848	16.4670212766	1.00462427746	11.412394958	-0.0275862068966
1697	0.8485	-4.80425531915	2.41676300578	12.8193277311	-11.6413793103
1698	0.849	2.28617021277	1.00462427746	0.156932773109	-1.47931034483
1699	0.8495	3.70425531915	2.41676300578	21.2609243697	-0.0275862068966
1700	0.85	0.868085106383	1.00462427746	7.19159663866	-0.0275862068966
1701	0.8505	2.28617021277	5.24104046243	7.19159663866	-0.0275862068966
1702	0.851	2.28617021277	-4.64393063584	8.59852941176	-1.47931034483
1703	0.8515	0.868085106383	13.7138728324	5.78466386555	-0.0275862068966
1704	0.852	15.0489361702	1.00462427746	4.37773109244	1.42413793103
1705	0.8525	23.5574468085	-0.407514450867	4.37773109244	4.3275862069
1706	0.853	-4.80425531915	2.41676300578	4.37773109244	-0.0275862068966
1707	0.8535	2.28617021277	2.41676300578	4.37773109244	13.0379310345
1708	0.854	3.70425531915	-1.81965317919	22.6678571429	-0.0275862068966
1709	0.8545	2.28617021277	2.41676300578	2.97079831933	1.42413793103
1710	0.855	5.12234042553	-0.407514450867	17.0401260504	2.87586206897
1711	0.8555	-0.55	-10.2924855491	21.2609243697	1.42413793103
1712	0.856	2.28617021277	15.1260115607	22.6678571429	-0.0275862068966
1713	0.8565	-3.38617021277	1.00462427746	21.2609243697	-2.93103448276
1714	0.857	20.7212765957	-1.81965317919	26.8886554622	-1.47931034483
1715	0.8575	3.70425531915	-0.407514450867	25.4817226891	-10.1896551724
1716	0.858	3.70425531915	1.00462427746	17.0401260504	-0.0275862068966
1717	0.8585	2.28617021277	-0.407514450867	19.8539915966	-5.83448275862
1718	0.859	0.868085106383	2.41676300578	22.6678571429	-0.0275862068966
1719	0.8595	2.28617021277	-15.9410404624	21.2609243697	-0.0275862068966
1720	0.86	3.70425531915	10.8895953757	21.2609243697	2.87586206897
1721	0.8605	0.868085106383	-10.2924855491	18.4470588235	2.87586206897
1722	0.861	-6.22234042553	-4.64393063584	15.6331932773	-0.0275862068966
1723	0.8615	-6.22234042553	-6.05606936416	15.6331932773	-0.0275862068966
1724	0.862	3.70425531915	-7.46820809249	18.4470588235	2.87586206897
1725	0.8625	3.70425531915	-6.05606936416	2.97079831933	2.87586206897
1726	0.863	0.868085106383	-6.05606936416	25.4817226891	-0.0275862068966
1727	0.8635	0.868085106383	-15.9410404624	15.6331932773	-0.0275862068966
1728	0.864	0.868085106383	9.4774566474	21.2609243697	1.42413793103
1729	0.8645	-0.55	3.8289017341	19.8539915966	-0.0275862068966
1730	0.865	-6.22234042553	-10.2924855491	19.8539915966	-0.0275862068966
1731	0.8655	20.7212765957	-6.05606936416	21.2609243697	-0.0275862068966
1732	0.866	-4.80425531915	-6.05606936416	19.8539915966	2.87586206897
1733	0.8665	0.868085106383	-6.05606936416	21.2609243697	-4.38275862069
1734	0.867	2.28617021277	-4.64393063584	17.0401260504	14.4896551724
1735	0.8675	2.28617021277	-4.64393063584	14.2262605042	-2.93103448276
1736	0.868	3.70425531915	-4.64393063584	11.412394958	-0.0275862068966
1737	0.8685	2.28617021277	-14.5289017341	18.4470588235	1.42413793103
1738	0.869	5.12234042553	-4.64393063584	18.4470588235	2.87586206897
1739	0.8695	-7.64042553191	-6.05606936416	14.2262605042	-0.0275862068966
1740	0.87	20.7212765957	-6.05606936416	17.0401260504	4.3275862069
1741	0.8705	7.9585106383	-6.05606936416	18.4470588235	-5.83448275862
1742	0.871	5.12234042553	-4.64393063584	5.78466386555	1.42413793103
1743	0.8715	5.12234042553	-4.64393063584	31.1094537815	-0.0275862068966
1744	0.872	3.70425531915	-4.64393063584	22.6678571429	2.87586206897
1745	0.8725	2.28617021277	6.65317919075	15.6331932773	1.42413793103
1746	0.873	6.54042553191	-13.1167630058	15.6331932773	-2.93103448276
1747	0.8735	5.12234042553	-4.64393063584	15.6331932773	-1.47931034483
1748	0.874	-1.96808510638	-7.46820809249	15.6331932773	-1.47931034483
1749	0.8745	15.0489361702	-4.64393063584	18.4470588235	1.42413793103
1750	0.875	0.868085106383	-4.64393063584	17.0401260504	-11.6413793103
1751	0.8755	3.70425531915	-4.64393063584	11.412394958	-0.0275862068966
1752	0.876	7.9585106383	-4.64393063584	24.074789916	-1.47931034483
1753	0.8765	0.868085106383	-7.46820809249	19.8539915966	-0.0275862068966
1754	0.877	6.54042553191	-3.23179190751	22.6678571429	-0.0275862068966
1755	0.8775	5.12234042553	-6.05606936416	32.5163865546	1.42413793103
1756	0.878	-7.64042553191	-6.05606936416	40.9579831933	-2.93103448276
1757	0.8785	-9.0585106383	-4.64393063584	43.7718487395	-1.47931034483
1758	0.879	19.3031914894	-6.05606936416	45.1787815126	1.42413793103
1759	0.8795	2.28617021277	-4.64393063584	45.1787815126	-2.93103448276
1760	0.88	2.28617021277	-4.64393063584	36.7371848739	-1.47931034483
1761	0.8805	7.9585106383	-6.05606936416	56.4342436975	1.42413793103
1762	0.881	3.70425531915	1.00462427746	32.5163865546	-2.93103448276
1763	0.8815	2.28617021277	-6.05606936416	33.9233193277	-1.47931034483
1764	0.882	3.70425531915	5.24104046243	28.2955882353	-4.38275862069
1765	0.8825	3.70425531915	-1.81965317919	21.2609243697	-1.47931034483
1766	0.883	-7.64042553191	-1.81965317919	12.8193277311	-1.47931034483
1767	0.8835	22.1393617021	-3.23179190751	8.59852941176	2.87586206897
1768	0.884	-4.80425531915	-0.407514450867	7.19159663866	-10.1896551724
1769	0.8845	5.12234042553	-0.407514450867	-1.25	1.42413793103
