	Time	Channel 1	Channel 2	Channel 3	Channel 4
0	0.0	0.881481481481	1.05581395349	-1.32819148936	-5.41578947368
1	0.0005	0.881481481481	-1.81860465116	-6.97287234043	-2.59473684211
2	0.001	-7.70740740741	9.67906976744	-2.73936170213	-4.00526315789
3	0.0015	-3.41296296296	1.05581395349	-2.73936170213	-5.41578947368
4	0.002	-1.98148148148	1.05581395349	-4.15053191489	-1.18421052632
5	0.0025	-1.98148148148	-9.00465116279	-2.73936170213	-2.59473684211
6	0.003	-4.84444444444	18.3023255814	-1.32819148936	-2.59473684211
7	0.0035	-6.27592592593	1.05581395349	-1.32819148936	-1.18421052632
8	0.004	-3.41296296296	-0.381395348837	-1.32819148936	-6.82631578947
9	0.0045	-7.70740740741	-0.381395348837	5.72765957447	-1.18421052632
10	0.005	-1.98148148148	-3.25581395349	5.72765957447	17.1526315789
11	0.0055	-1.98148148148	-1.81860465116	12.7835106383	-5.41578947368
12	0.006	0.881481481481	-9.00465116279	11.3723404255	-2.59473684211
13	0.0065	2.31296296296	-6.13023255814	9.96117021277	-2.59473684211
14	0.007	2.31296296296	1.05581395349	8.55	-5.41578947368
15	0.0075	-6.27592592593	-1.81860465116	8.55	-6.82631578947
16	0.008	-1.98148148148	-0.381395348837	12.7835106383	0.226315789474
17	0.0085	-0.55	-0.381395348837	7.13882978723	-8.23684210526
18	0.009	-0.55	-3.25581395349	5.72765957447	-1.18421052632
19	0.0095	-0.55	3.93023255814	7.13882978723	-5.41578947368
20	0.01	-1.98148148148	-11.8790697674	1.49414893617	-6.82631578947
21	0.0105	0.881481481481	8.24186046512	4.3164893617	-2.59473684211
22	0.011	-4.84444444444	-3.25581395349	4.3164893617	-5.41578947368
23	0.0115	9.47037037037	1.05581395349	5.72765957447	-2.59473684211
24	0.012	2.31296296296	-0.381395348837	7.13882978723	-9.64736842105
25	0.0125	-4.84444444444	-0.381395348837	5.72765957447	-6.82631578947
26	0.013	-0.55	-1.81860465116	7.13882978723	-12.4684210526
27	0.0135	-0.55	-1.81860465116	2.90531914894	-4.00526315789
28	0.014	-0.55	-1.81860465116	1.49414893617	-5.41578947368
29	0.0145	-1.98148148148	-6.13023255814	7.13882978723	-6.82631578947
30	0.015	-0.55	5.36744186047	11.3723404255	-8.23684210526
31	0.0155	-1.98148148148	-0.381395348837	5.72765957447	-6.82631578947
32	0.016	9.47037037037	-3.25581395349	5.72765957447	-5.41578947368
33	0.0165	-0.55	-0.381395348837	5.72765957447	-6.82631578947
34	0.017	-1.98148148148	-0.381395348837	5.72765957447	-2.59473684211
35	0.0175	-1.98148148148	-1.81860465116	21.2505319149	-5.41578947368
36	0.018	-4.84444444444	1.05581395349	-1.32819148936	-5.41578947368
37	0.0185	-1.98148148148	2.49302325581	2.90531914894	-5.41578947368
38	0.019	-3.41296296296	-13.3162790698	1.49414893617	-5.41578947368
39	0.0195	0.881481481481	16.8651162791	0.0829787234043	-6.82631578947
40	0.02	0.881481481481	-1.81860465116	0.0829787234043	-6.82631578947
41	0.0205	19.4907407407	-0.381395348837	0.0829787234043	-5.41578947368
42	0.021	-10.5703703704	-0.381395348837	1.49414893617	-15.2894736842
43	0.0215	0.881481481481	-1.81860465116	-1.32819148936	-6.82631578947
44	0.022	-1.98148148148	-0.381395348837	0.0829787234043	-13.8789473684
45	0.0225	-3.41296296296	1.05581395349	-6.97287234043	-6.82631578947
46	0.023	-0.55	-0.381395348837	18.4281914894	-5.41578947368
47	0.0235	-0.55	-3.25581395349	-1.32819148936	-5.41578947368
48	0.024	-1.98148148148	-4.69302325581	1.49414893617	-4.00526315789
49	0.0245	-13.4333333333	1.05581395349	4.3164893617	-6.82631578947
50	0.025	8.03888888889	-1.81860465116	2.90531914894	-2.59473684211
51	0.0255	-3.41296296296	1.05581395349	1.49414893617	-13.8789473684
52	0.026	-1.98148148148	1.05581395349	-1.32819148936	3.04736842105
53	0.0265	-3.41296296296	-0.381395348837	14.1946808511	-6.82631578947
54	0.027	-3.41296296296	-3.25581395349	-12.6175531915	-6.82631578947
55	0.0275	-3.41296296296	3.93023255814	-8.38404255319	-6.82631578947
56	0.028	-0.55	-10.4418604651	-9.79521276596	-4.00526315789
57	0.0285	-1.98148148148	-9.00465116279	-9.79521276596	-4.00526315789
58	0.029	-0.55	-0.381395348837	-8.38404255319	-2.59473684211
59	0.0295	-6.27592592593	-1.81860465116	-6.97287234043	-2.59473684211
60	0.03	-0.55	-1.81860465116	-2.73936170213	-5.41578947368
61	0.0305	-0.55	1.05581395349	0.0829787234043	-11.0578947368
62	0.031	0.881481481481	-0.381395348837	-1.32819148936	-2.59473684211
63	0.0315	2.31296296296	1.05581395349	0.0829787234043	-2.59473684211
64	0.032	-1.98148148148	-7.56744186047	-1.32819148936	-5.41578947368
65	0.0325	-1.98148148148	11.1162790698	4.3164893617	-4.00526315789
66	0.033	-12.0018518519	-0.381395348837	4.3164893617	-8.23684210526
67	0.0335	13.7648148148	-3.25581395349	4.3164893617	-5.41578947368
68	0.034	-1.98148148148	1.05581395349	5.72765957447	-15.2894736842
69	0.0345	-3.41296296296	-1.81860465116	1.49414893617	-6.82631578947
70	0.035	0.881481481481	-1.81860465116	1.49414893617	-1.18421052632
71	0.0355	-1.98148148148	1.05581395349	-11.2063829787	-5.41578947368
72	0.036	-1.98148148148	-0.381395348837	8.55	-4.00526315789
73	0.0365	-3.41296296296	2.49302325581	-6.97287234043	-5.41578947368
74	0.037	-4.84444444444	-3.25581395349	-2.73936170213	-6.82631578947
75	0.0375	0.881481481481	-1.81860465116	-1.32819148936	-5.41578947368
76	0.038	-14.8648148148	1.05581395349	0.0829787234043	-6.82631578947
77	0.0385	-1.98148148148	-1.81860465116	0.0829787234043	8.68947368421
78	0.039	-0.55	-1.81860465116	9.96117021277	-13.8789473684
79	0.0395	-1.98148148148	-0.381395348837	-4.15053191489	-8.23684210526
80	0.04	-3.41296296296	-1.81860465116	26.895212766	-8.23684210526
81	0.0405	-3.41296296296	2.49302325581	2.90531914894	-6.82631578947
82	0.041	-3.41296296296	-10.4418604651	12.7835106383	-6.82631578947
83	0.0415	-1.98148148148	15.4279069767	14.1946808511	-5.41578947368
84	0.042	-9.13888888889	2.49302325581	12.7835106383	-6.82631578947
85	0.0425	10.9018518519	-1.81860465116	14.1946808511	-9.64736842105
86	0.043	-6.27592592593	-0.381395348837	8.55	-2.59473684211
87	0.0435	-0.55	-1.81860465116	1.49414893617	-11.0578947368
88	0.044	-0.55	-1.81860465116	7.13882978723	-1.18421052632
89	0.0445	-0.55	1.05581395349	5.72765957447	-8.23684210526
90	0.045	-0.55	-11.8790697674	1.49414893617	-8.23684210526
91	0.0455	2.31296296296	5.36744186047	1.49414893617	-6.82631578947
92	0.046	-10.5703703704	-3.25581395349	5.72765957447	-6.82631578947
93	0.0465	12.3333333333	-3.25581395349	4.3164893617	-6.82631578947
94	0.047	0.881481481481	-0.381395348837	1.49414893617	-15.2894736842
95	0.0475	-4.84444444444	-0.381395348837	2.90531914894	3.04736842105
96	0.048	-0.55	-0.381395348837	11.3723404255	-9.64736842105
97	0.0485	-0.55	-1.81860465116	-2.73936170213	-4.00526315789
98	0.049	-0.55	1.05581395349	4.3164893617	-2.59473684211
99	0.0495	-1.98148148148	-9.00465116279	4.3164893617	-5.41578947368
100	0.05	-1.98148148148	12.5534883721	2.90531914894	-5.41578947368
101	0.0505	-7.70740740741	-3.25581395349	5.72765957447	-5.41578947368
102	0.051	18.0592592593	-3.25581395349	7.13882978723	-2.59473684211
103	0.0515	-7.70740740741	-3.25581395349	5.72765957447	-18.1105263158
104	0.052	-0.55	-0.381395348837	4.3164893617	-13.8789473684
105	0.0525	0.881481481481	1.05581395349	4.3164893617	5.86842105263
106	0.053	-0.55	1.05581395349	-2.73936170213	-9.64736842105
107	0.0535	-0.55	-4.69302325581	1.49414893617	-6.82631578947
108	0.054	-0.55	5.36744186047	1.49414893617	-9.64736842105
109	0.0545	-0.55	-6.13023255814	4.3164893617	-6.82631578947
110	0.055	-12.0018518519	1.05581395349	5.72765957447	-9.64736842105
111	0.0555	9.47037037037	-0.381395348837	2.90531914894	-9.64736842105
112	0.056	2.31296296296	1.05581395349	4.3164893617	-11.0578947368
113	0.0565	-0.55	1.05581395349	-2.73936170213	-16.7
114	0.057	-0.55	1.05581395349	7.13882978723	-11.0578947368
115	0.0575	0.881481481481	-0.381395348837	12.7835106383	-8.23684210526
116	0.058	0.881481481481	-1.81860465116	4.3164893617	-8.23684210526
117	0.0585	-0.55	-7.56744186047	-1.32819148936	-9.64736842105
118	0.059	2.31296296296	-4.69302325581	2.90531914894	-11.0578947368
119	0.0595	-12.0018518519	1.05581395349	0.0829787234043	-8.23684210526
120	0.06	16.6277777778	-1.81860465116	-2.73936170213	-8.23684210526
121	0.0605	0.881481481481	-1.81860465116	2.90531914894	-12.4684210526
122	0.061	-1.98148148148	2.49302325581	-9.79521276596	-11.0578947368
123	0.0615	-0.55	2.49302325581	11.3723404255	-6.82631578947
124	0.062	0.881481481481	-1.81860465116	2.90531914894	-6.82631578947
125	0.0625	0.881481481481	3.93023255814	-1.32819148936	-6.82631578947
126	0.063	0.881481481481	1.05581395349	2.90531914894	-6.82631578947
127	0.0635	2.31296296296	-4.69302325581	4.3164893617	-9.64736842105
128	0.064	-7.70740740741	1.05581395349	4.3164893617	-11.0578947368
129	0.0645	2.31296296296	-0.381395348837	5.72765957447	-8.23684210526
130	0.065	0.881481481481	-0.381395348837	5.72765957447	1.63684210526
131	0.0655	-1.98148148148	1.05581395349	4.3164893617	-11.0578947368
132	0.066	0.881481481481	1.05581395349	1.49414893617	-4.00526315789
133	0.0665	-3.41296296296	1.05581395349	12.7835106383	-4.00526315789
134	0.067	-3.41296296296	-4.69302325581	2.90531914894	-5.41578947368
135	0.0675	-0.55	3.93023255814	0.0829787234043	-5.41578947368
136	0.068	-1.98148148148	-6.13023255814	2.90531914894	-4.00526315789
137	0.0685	-1.98148148148	-6.13023255814	1.49414893617	-2.59473684211
138	0.069	5.17592592593	2.49302325581	2.90531914894	-8.23684210526
139	0.0695	-6.27592592593	-1.81860465116	1.49414893617	-4.00526315789
140	0.07	0.881481481481	-0.381395348837	1.49414893617	-4.00526315789
141	0.0705	-0.55	-0.381395348837	15.6058510638	-2.59473684211
142	0.071	0.881481481481	-0.381395348837	-2.73936170213	-4.00526315789
143	0.0715	0.881481481481	-0.381395348837	2.90531914894	-6.82631578947
144	0.072	-1.98148148148	-1.81860465116	-5.56170212766	-6.82631578947
145	0.0725	-3.41296296296	-6.13023255814	0.0829787234043	-4.00526315789
146	0.073	-3.41296296296	-0.381395348837	0.0829787234043	-8.23684210526
147	0.0735	-9.13888888889	1.05581395349	2.90531914894	-9.64736842105
148	0.074	13.7648148148	-0.381395348837	1.49414893617	-5.41578947368
149	0.0745	-0.55	1.05581395349	4.3164893617	-16.7
150	0.075	-1.98148148148	-1.81860465116	-8.38404255319	-6.82631578947
151	0.0755	0.881481481481	2.49302325581	19.8393617021	-6.82631578947
152	0.076	-0.55	2.49302325581	5.72765957447	-5.41578947368
153	0.0765	0.881481481481	16.8651162791	0.0829787234043	-6.82631578947
154	0.077	0.881481481481	-6.13023255814	4.3164893617	-6.82631578947
155	0.0775	0.881481481481	-0.381395348837	4.3164893617	-2.59473684211
156	0.078	-9.13888888889	-0.381395348837	2.90531914894	-4.00526315789
157	0.0785	-3.41296296296	1.05581395349	1.49414893617	11.5105263158
158	0.079	-3.41296296296	1.05581395349	2.90531914894	-11.0578947368
159	0.0795	-0.55	1.05581395349	2.90531914894	10.1
160	0.08	0.881481481481	1.05581395349	0.0829787234043	-12.4684210526
161	0.0805	-1.98148148148	-6.13023255814	2.90531914894	-6.82631578947
162	0.081	-0.55	2.49302325581	1.49414893617	-4.00526315789
163	0.0815	-1.98148148148	5.36744186047	4.3164893617	-5.41578947368
164	0.082	0.881481481481	-3.25581395349	1.49414893617	-1.18421052632
165	0.0825	0.881481481481	1.05581395349	5.72765957447	-11.0578947368
166	0.083	-4.84444444444	-3.25581395349	2.90531914894	-2.59473684211
167	0.0835	-1.98148148148	1.05581395349	1.49414893617	-6.82631578947
168	0.084	-0.55	-0.381395348837	4.3164893617	-5.41578947368
169	0.0845	-1.98148148148	-1.81860465116	1.49414893617	-4.00526315789
170	0.085	-3.41296296296	-11.8790697674	2.90531914894	-5.41578947368
171	0.0855	-3.41296296296	6.80465116279	0.0829787234043	-4.00526315789
172	0.086	-0.55	-0.381395348837	1.49414893617	-8.23684210526
173	0.0865	-12.0018518519	-1.81860465116	1.49414893617	-6.82631578947
174	0.087	-0.55	-1.81860465116	2.90531914894	-8.23684210526
175	0.0875	-4.84444444444	-1.81860465116	0.0829787234043	-5.41578947368
176	0.088	-1.98148148148	-1.81860465116	-1.32819148936	1.63684210526
177	0.0885	-4.84444444444	-0.381395348837	12.7835106383	-6.82631578947
178	0.089	-1.98148148148	-3.25581395349	1.49414893617	-6.82631578947
179	0.0895	-1.98148148148	3.93023255814	0.0829787234043	-8.23684210526
180	0.09	2.31296296296	-3.25581395349	1.49414893617	-6.82631578947
181	0.0905	-3.41296296296	-4.69302325581	1.49414893617	-5.41578947368
182	0.091	5.17592592593	-1.81860465116	0.0829787234043	-5.41578947368
183	0.0915	-13.4333333333	-1.81860465116	0.0829787234043	-11.0578947368
184	0.092	-4.84444444444	-0.381395348837	1.49414893617	-6.82631578947
185	0.0925	0.881481481481	-1.81860465116	2.90531914894	-15.2894736842
186	0.093	0.881481481481	-3.25581395349	0.0829787234043	7.27894736842
187	0.0935	-0.55	-3.25581395349	-1.32819148936	-11.0578947368
188	0.094	0.881481481481	-9.00465116279	1.49414893617	-4.00526315789
189	0.0945	0.881481481481	13.9906976744	2.90531914894	-2.59473684211
190	0.095	-1.98148148148	-0.381395348837	4.3164893617	-1.18421052632
191	0.0955	3.74444444444	1.05581395349	2.90531914894	-6.82631578947
192	0.096	19.4907407407	1.05581395349	1.49414893617	-4.00526315789
193	0.0965	-0.55	-0.381395348837	2.90531914894	-13.8789473684
194	0.097	-1.98148148148	1.05581395349	0.0829787234043	-2.59473684211
195	0.0975	0.881481481481	-0.381395348837	4.3164893617	-2.59473684211
196	0.098	0.881481481481	1.05581395349	1.49414893617	-1.18421052632
197	0.0985	0.881481481481	-1.81860465116	-2.73936170213	0.226315789474
198	0.099	-1.98148148148	-10.4418604651	2.90531914894	0.226315789474
199	0.0995	2.31296296296	-0.381395348837	2.90531914894	1.63684210526
200	0.1	-7.70740740741	1.05581395349	2.90531914894	4.45789473684
201	0.1005	10.9018518519	1.05581395349	0.0829787234043	1.63684210526
202	0.101	-0.55	1.05581395349	-5.56170212766	1.63684210526
203	0.1015	-1.98148148148	1.05581395349	4.3164893617	5.86842105263
204	0.102	0.881481481481	-1.81860465116	-1.32819148936	0.226315789474
205	0.1025	-0.55	3.93023255814	1.49414893617	-1.18421052632
206	0.103	2.31296296296	-6.13023255814	1.49414893617	-2.59473684211
207	0.1035	0.881481481481	9.67906976744	4.3164893617	-1.18421052632
208	0.104	-6.27592592593	1.05581395349	2.90531914894	3.04736842105
209	0.1045	2.31296296296	-1.81860465116	2.90531914894	-1.18421052632
210	0.105	-1.98148148148	-0.381395348837	4.3164893617	-2.59473684211
211	0.1055	0.881481481481	-0.381395348837	0.0829787234043	-9.64736842105
212	0.106	0.881481481481	1.05581395349	4.3164893617	-1.18421052632
213	0.1065	0.881481481481	-0.381395348837	-4.15053191489	0.226315789474
214	0.107	0.881481481481	2.49302325581	2.90531914894	-1.18421052632
215	0.1075	-3.41296296296	11.1162790698	2.90531914894	0.226315789474
216	0.108	3.74444444444	-1.81860465116	2.90531914894	-5.41578947368
217	0.1085	20.9222222222	1.05581395349	4.3164893617	0.226315789474
218	0.109	0.881481481481	-3.25581395349	2.90531914894	5.86842105263
219	0.1095	-0.55	-0.381395348837	0.0829787234043	8.68947368421
220	0.11	-3.41296296296	-1.81860465116	4.3164893617	-6.82631578947
221	0.1105	-1.98148148148	1.05581395349	2.90531914894	0.226315789474
222	0.111	0.881481481481	-0.381395348837	1.49414893617	-2.59473684211
223	0.1115	-1.98148148148	-1.81860465116	2.90531914894	-2.59473684211
224	0.112	2.31296296296	-4.69302325581	0.0829787234043	-1.18421052632
225	0.1125	-13.4333333333	-1.81860465116	1.49414893617	-1.18421052632
226	0.113	-1.98148148148	-0.381395348837	1.49414893617	5.86842105263
227	0.1135	-3.41296296296	-1.81860465116	4.3164893617	-8.23684210526
228	0.114	0.881481481481	-1.81860465116	-4.15053191489	0.226315789474
229	0.1145	-1.98148148148	1.05581395349	0.0829787234043	-6.82631578947
230	0.115	-1.98148148148	-4.69302325581	1.49414893617	0.226315789474
231	0.1155	-0.55	1.05581395349	0.0829787234043	-1.18421052632
232	0.116	3.74444444444	-0.381395348837	1.49414893617	1.63684210526
233	0.1165	8.03888888889	-4.69302325581	2.90531914894	3.04736842105
234	0.117	-10.5703703704	-0.381395348837	0.0829787234043	-2.59473684211
235	0.1175	-9.13888888889	1.05581395349	0.0829787234043	-1.18421052632
236	0.118	0.881481481481	-3.25581395349	4.3164893617	-2.59473684211
237	0.1185	0.881481481481	1.05581395349	1.49414893617	0.226315789474
238	0.119	-0.55	5.36744186047	1.49414893617	-1.18421052632
239	0.1195	-0.55	-4.69302325581	-5.56170212766	-1.18421052632
240	0.12	0.881481481481	8.24186046512	0.0829787234043	-1.18421052632
241	0.1205	-13.4333333333	-1.81860465116	1.49414893617	-4.00526315789
242	0.121	18.0592592593	-1.81860465116	2.90531914894	0.226315789474
243	0.1215	-12.0018518519	-3.25581395349	2.90531914894	-11.0578947368
244	0.122	-1.98148148148	-1.81860465116	-1.32819148936	-8.23684210526
245	0.1225	0.881481481481	-1.81860465116	4.3164893617	-4.00526315789
246	0.123	0.881481481481	1.05581395349	12.7835106383	-9.64736842105
247	0.1235	0.881481481481	-13.3162790698	2.90531914894	-1.18421052632
248	0.124	-3.41296296296	-10.4418604651	-1.32819148936	-2.59473684211
249	0.1245	2.31296296296	-1.81860465116	0.0829787234043	0.226315789474
250	0.125	-7.70740740741	-0.381395348837	5.72765957447	-1.18421052632
251	0.1255	-6.27592592593	-1.81860465116	4.3164893617	-6.82631578947
252	0.126	-0.55	-0.381395348837	4.3164893617	10.1
253	0.1265	0.881481481481	-1.81860465116	-1.32819148936	-11.0578947368
254	0.127	-0.55	-1.81860465116	0.0829787234043	-4.00526315789
255	0.1275	0.881481481481	-11.8790697674	4.3164893617	-4.00526315789
256	0.128	-0.55	-10.4418604651	2.90531914894	-6.82631578947
257	0.1285	3.74444444444	-1.81860465116	5.72765957447	-4.00526315789
258	0.129	-7.70740740741	1.05581395349	4.3164893617	-5.41578947368
259	0.1295	19.4907407407	-0.381395348837	4.3164893617	-1.18421052632
260	0.13	-6.27592592593	-0.381395348837	5.72765957447	-4.00526315789
261	0.1305	-0.55	-1.81860465116	14.1946808511	-2.59473684211
262	0.131	2.31296296296	1.05581395349	0.0829787234043	-1.18421052632
263	0.1315	-0.55	-3.25581395349	15.6058510638	-2.59473684211
264	0.132	-0.55	3.93023255814	0.0829787234043	-1.18421052632
265	0.1325	-0.55	-9.00465116279	2.90531914894	-1.18421052632
266	0.133	0.881481481481	-0.381395348837	2.90531914894	0.226315789474
267	0.1335	0.881481481481	-1.81860465116	4.3164893617	3.04736842105
268	0.134	0.881481481481	-3.25581395349	5.72765957447	-4.00526315789
269	0.1345	0.881481481481	-0.381395348837	2.90531914894	14.3315789474
270	0.135	-0.55	-0.381395348837	5.72765957447	-11.0578947368
271	0.1355	-0.55	-1.81860465116	-4.15053191489	-2.59473684211
272	0.136	3.74444444444	-4.69302325581	4.3164893617	-1.18421052632
273	0.1365	-0.55	6.80465116279	5.72765957447	-4.00526315789
274	0.137	0.881481481481	-4.69302325581	5.72765957447	-5.41578947368
275	0.1375	-13.4333333333	-1.81860465116	4.3164893617	-5.41578947368
276	0.138	20.9222222222	1.05581395349	4.3164893617	-2.59473684211
277	0.1385	-10.5703703704	1.05581395349	4.3164893617	-1.18421052632
278	0.139	-0.55	-0.381395348837	0.0829787234043	-2.59473684211
279	0.1395	-1.98148148148	1.05581395349	-1.32819148936	-6.82631578947
280	0.14	0.881481481481	-1.81860465116	9.96117021277	-2.59473684211
281	0.1405	2.31296296296	11.1162790698	1.49414893617	-1.18421052632
282	0.141	-1.98148148148	-7.56744186047	1.49414893617	-2.59473684211
283	0.1415	3.74444444444	-0.381395348837	0.0829787234043	0.226315789474
284	0.142	-10.5703703704	-1.81860465116	0.0829787234043	1.63684210526
285	0.1425	-9.13888888889	-1.81860465116	2.90531914894	-16.7
286	0.143	3.74444444444	-0.381395348837	1.49414893617	12.9210526316
287	0.1435	-0.55	1.05581395349	5.72765957447	-1.18421052632
288	0.144	0.881481481481	1.05581395349	12.7835106383	-1.18421052632
289	0.1445	3.74444444444	3.93023255814	-1.32819148936	-1.18421052632
290	0.145	0.881481481481	-11.8790697674	2.90531914894	-1.18421052632
291	0.1455	0.881481481481	-0.381395348837	2.90531914894	-1.18421052632
292	0.146	2.31296296296	-1.81860465116	1.49414893617	-2.59473684211
293	0.1465	0.881481481481	1.05581395349	4.3164893617	-13.8789473684
294	0.147	-1.98148148148	-4.69302325581	4.3164893617	0.226315789474
295	0.1475	3.74444444444	-1.81860465116	21.2505319149	-5.41578947368
296	0.148	-0.55	1.05581395349	-1.32819148936	-5.41578947368
297	0.1485	-0.55	-0.381395348837	4.3164893617	-4.00526315789
298	0.149	-4.84444444444	-10.4418604651	1.49414893617	-4.00526315789
299	0.1495	0.881481481481	-1.81860465116	1.49414893617	-6.82631578947
300	0.15	0.881481481481	-10.4418604651	2.90531914894	-2.59473684211
301	0.1505	-4.84444444444	-1.81860465116	0.0829787234043	-4.00526315789
302	0.151	2.31296296296	-1.81860465116	1.49414893617	1.63684210526
303	0.1515	-0.55	2.49302325581	-12.6175531915	-1.18421052632
304	0.152	0.881481481481	1.05581395349	19.8393617021	0.226315789474
305	0.1525	-0.55	-3.25581395349	-6.97287234043	0.226315789474
306	0.153	-0.55	-7.56744186047	-2.73936170213	1.63684210526
307	0.1535	-1.98148148148	-3.25581395349	1.49414893617	3.04736842105
308	0.154	3.74444444444	-1.81860465116	2.90531914894	0.226315789474
309	0.1545	-16.2962962963	-0.381395348837	7.13882978723	-2.59473684211
310	0.155	-1.98148148148	-0.381395348837	4.3164893617	15.7421052632
311	0.1555	-1.98148148148	-0.381395348837	7.13882978723	-6.82631578947
312	0.156	-1.98148148148	-1.81860465116	7.13882978723	1.63684210526
313	0.1565	0.881481481481	1.05581395349	1.49414893617	-1.18421052632
314	0.157	-3.41296296296	-10.4418604651	4.3164893617	-1.18421052632
315	0.1575	0.881481481481	15.4279069767	5.72765957447	3.04736842105
316	0.158	-1.98148148148	-6.13023255814	5.72765957447	3.04736842105
317	0.1585	-10.5703703704	-0.381395348837	4.3164893617	3.04736842105
318	0.159	-1.98148148148	2.49302325581	2.90531914894	15.7421052632
319	0.1595	-1.98148148148	1.05581395349	4.3164893617	-9.64736842105
320	0.16	0.881481481481	-0.381395348837	-8.38404255319	0.226315789474
321	0.1605	-0.55	1.05581395349	18.4281914894	-1.18421052632
322	0.161	-1.98148148148	-1.81860465116	1.49414893617	1.63684210526
323	0.1615	-0.55	2.49302325581	2.90531914894	0.226315789474
324	0.162	-3.41296296296	9.67906976744	1.49414893617	-1.18421052632
325	0.1625	3.74444444444	-0.381395348837	1.49414893617	3.04736842105
326	0.163	-6.27592592593	1.05581395349	1.49414893617	-1.18421052632
327	0.1635	-3.41296296296	-1.81860465116	1.49414893617	-5.41578947368
328	0.164	0.881481481481	1.05581395349	-8.38404255319	-2.59473684211
329	0.1645	0.881481481481	-1.81860465116	0.0829787234043	-4.00526315789
330	0.165	0.881481481481	3.93023255814	-2.73936170213	0.226315789474
331	0.1655	-0.55	-13.3162790698	-1.32819148936	0.226315789474
332	0.166	0.881481481481	18.3023255814	-4.15053191489	-2.59473684211
333	0.1665	-6.27592592593	1.05581395349	-1.32819148936	-2.59473684211
334	0.167	5.17592592593	1.05581395349	0.0829787234043	-4.00526315789
335	0.1675	-7.70740740741	-0.381395348837	0.0829787234043	12.9210526316
336	0.168	-1.98148148148	-1.81860465116	1.49414893617	-11.0578947368
337	0.1685	-1.98148148148	2.49302325581	11.3723404255	-2.59473684211
338	0.169	-3.41296296296	1.05581395349	4.3164893617	-1.18421052632
339	0.1695	-1.98148148148	-9.00465116279	0.0829787234043	-2.59473684211
340	0.17	-3.41296296296	1.05581395349	0.0829787234043	0.226315789474
341	0.1705	2.31296296296	-0.381395348837	2.90531914894	0.226315789474
342	0.171	-12.0018518519	2.49302325581	1.49414893617	-1.18421052632
343	0.1715	0.881481481481	-1.81860465116	-1.32819148936	8.68947368421
344	0.172	-0.55	-0.381395348837	-5.56170212766	-8.23684210526
345	0.1725	-1.98148148148	-0.381395348837	2.90531914894	-4.00526315789
346	0.173	-3.41296296296	-0.381395348837	-8.38404255319	-2.59473684211
347	0.1735	-0.55	-0.381395348837	9.96117021277	-2.59473684211
348	0.174	-0.55	-10.4418604651	-5.56170212766	-2.59473684211
349	0.1745	-3.41296296296	-0.381395348837	-1.32819148936	-2.59473684211
350	0.175	-0.55	1.05581395349	-2.73936170213	-2.59473684211
351	0.1755	-6.27592592593	-0.381395348837	-1.32819148936	0.226315789474
352	0.176	-1.98148148148	-0.381395348837	4.3164893617	-1.18421052632
353	0.1765	-0.55	1.05581395349	-6.97287234043	-6.82631578947
354	0.177	0.881481481481	1.05581395349	18.4281914894	-4.00526315789
355	0.1775	-0.55	-1.81860465116	2.90531914894	-2.59473684211
356	0.178	-0.55	18.3023255814	4.3164893617	0.226315789474
357	0.1785	-3.41296296296	-10.4418604651	2.90531914894	1.63684210526
358	0.179	-0.55	1.05581395349	7.13882978723	3.04736842105
359	0.1795	-10.5703703704	-1.81860465116	5.72765957447	1.63684210526
360	0.18	-1.98148148148	2.49302325581	2.90531914894	0.226315789474
361	0.1805	-1.98148148148	-0.381395348837	0.0829787234043	-4.00526315789
362	0.181	0.881481481481	1.05581395349	-1.32819148936	7.27894736842
363	0.1815	-0.55	1.05581395349	-1.32819148936	-1.18421052632
364	0.182	-0.55	-9.00465116279	-4.15053191489	0.226315789474
365	0.1825	-0.55	9.67906976744	1.49414893617	1.63684210526
366	0.183	-4.84444444444	-4.69302325581	0.0829787234043	1.63684210526
367	0.1835	16.6277777778	-1.81860465116	0.0829787234043	1.63684210526
368	0.184	-7.70740740741	-1.81860465116	2.90531914894	-8.23684210526
369	0.1845	-1.98148148148	1.05581395349	1.49414893617	3.04736842105
370	0.185	0.881481481481	-1.81860465116	19.8393617021	4.45789473684
371	0.1855	-0.55	-4.69302325581	-4.15053191489	4.45789473684
372	0.186	-3.41296296296	-0.381395348837	5.72765957447	4.45789473684
373	0.1865	-1.98148148148	-7.56744186047	7.13882978723	1.63684210526
374	0.187	-1.98148148148	11.1162790698	8.55	0.226315789474
375	0.1875	-4.84444444444	-1.81860465116	11.3723404255	1.63684210526
376	0.188	9.47037037037	2.49302325581	7.13882978723	-1.18421052632
377	0.1885	-4.84444444444	-0.381395348837	5.72765957447	4.45789473684
378	0.189	-0.55	1.05581395349	7.13882978723	7.27894736842
379	0.1895	-0.55	-0.381395348837	-2.73936170213	-2.59473684211
380	0.19	0.881481481481	-4.69302325581	17.0170212766	1.63684210526
381	0.1905	0.881481481481	1.05581395349	4.3164893617	4.45789473684
382	0.191	-1.98148148148	-9.00465116279	2.90531914894	0.226315789474
383	0.1915	2.31296296296	-0.381395348837	4.3164893617	0.226315789474
384	0.192	-6.27592592593	1.05581395349	4.3164893617	-1.18421052632
385	0.1925	13.7648148148	1.05581395349	0.0829787234043	-1.18421052632
386	0.193	-3.41296296296	1.05581395349	-2.73936170213	-5.41578947368
387	0.1935	2.31296296296	1.05581395349	5.72765957447	3.04736842105
388	0.194	0.881481481481	-0.381395348837	-1.32819148936	-2.59473684211
389	0.1945	0.881481481481	3.93023255814	2.90531914894	-2.59473684211
390	0.195	2.31296296296	13.9906976744	4.3164893617	-1.18421052632
391	0.1955	-3.41296296296	-1.81860465116	7.13882978723	-2.59473684211
392	0.196	3.74444444444	-1.81860465116	8.55	-1.18421052632
393	0.1965	-9.13888888889	-1.81860465116	8.55	-12.4684210526
394	0.197	-3.41296296296	1.05581395349	7.13882978723	7.27894736842
395	0.1975	-0.55	2.49302325581	1.49414893617	-6.82631578947
396	0.198	-0.55	1.05581395349	11.3723404255	-1.18421052632
397	0.1985	-1.98148148148	-0.381395348837	-1.32819148936	-2.59473684211
398	0.199	-0.55	16.8651162791	1.49414893617	-5.41578947368
399	0.1995	2.31296296296	-10.4418604651	4.3164893617	-2.59473684211
400	0.2	-1.98148148148	-0.381395348837	1.49414893617	-5.41578947368
401	0.2005	15.1962962963	-1.81860465116	1.49414893617	-5.41578947368
402	0.201	-12.0018518519	-1.81860465116	0.0829787234043	1.63684210526
403	0.2015	-3.41296296296	-3.25581395349	2.90531914894	-5.41578947368
404	0.202	-1.98148148148	-1.81860465116	-6.97287234043	-11.0578947368
405	0.2025	-0.55	1.05581395349	2.90531914894	-5.41578947368
406	0.203	-4.84444444444	-11.8790697674	4.3164893617	-4.00526315789
407	0.2035	-0.55	-0.381395348837	1.49414893617	-4.00526315789
408	0.204	-0.55	-6.13023255814	0.0829787234043	-4.00526315789
409	0.2045	5.17592592593	-1.81860465116	2.90531914894	-2.59473684211
410	0.205	-1.98148148148	1.05581395349	2.90531914894	-5.41578947368
411	0.2055	-4.84444444444	-0.381395348837	2.90531914894	-2.59473684211
412	0.206	-3.41296296296	-1.81860465116	17.0170212766	-4.00526315789
413	0.2065	-1.98148148148	1.05581395349	-8.38404255319	-8.23684210526
414	0.207	-1.98148148148	1.05581395349	2.90531914894	-9.64736842105
415	0.2075	-1.98148148148	-9.00465116279	2.90531914894	-9.64736842105
416	0.208	-3.41296296296	-7.56744186047	4.3164893617	-11.0578947368
417	0.2085	-3.41296296296	-0.381395348837	4.3164893617	-6.82631578947
418	0.209	-4.84444444444	-1.81860465116	7.13882978723	-6.82631578947
419	0.2095	10.9018518519	1.05581395349	5.72765957447	-4.00526315789
420	0.21	-0.55	-0.381395348837	0.0829787234043	-11.0578947368
421	0.2105	-1.98148148148	-0.381395348837	7.13882978723	-4.00526315789
422	0.211	-0.55	1.05581395349	-1.32819148936	4.45789473684
423	0.2115	-0.55	9.67906976744	5.72765957447	-9.64736842105
424	0.212	-1.98148148148	3.93023255814	5.72765957447	-11.0578947368
425	0.2125	-0.55	-4.69302325581	4.3164893617	-9.64736842105
426	0.213	8.03888888889	-0.381395348837	4.3164893617	-8.23684210526
427	0.2135	8.03888888889	2.49302325581	5.72765957447	-8.23684210526
428	0.214	-6.27592592593	2.49302325581	1.49414893617	-6.82631578947
429	0.2145	-0.55	-0.381395348837	7.13882978723	1.63684210526
430	0.215	0.881481481481	1.05581395349	-1.32819148936	-9.64736842105
431	0.2155	-0.55	-0.381395348837	14.1946808511	-2.59473684211
432	0.216	-1.98148148148	3.93023255814	1.49414893617	0.226315789474
433	0.2165	-3.41296296296	-6.13023255814	1.49414893617	-2.59473684211
434	0.217	0.881481481481	-1.81860465116	0.0829787234043	0.226315789474
435	0.2175	-10.5703703704	-1.81860465116	1.49414893617	-2.59473684211
436	0.218	-10.5703703704	-1.81860465116	4.3164893617	-13.8789473684
437	0.2185	-1.98148148148	1.05581395349	4.3164893617	-1.18421052632
438	0.219	0.881481481481	-0.381395348837	17.0170212766	-4.00526315789
439	0.2195	-0.55	-0.381395348837	-1.32819148936	-2.59473684211
440	0.22	-0.55	-0.381395348837	21.2505319149	-5.41578947368
441	0.2205	-1.98148148148	-7.56744186047	4.3164893617	-4.00526315789
442	0.221	0.881481481481	-0.381395348837	4.3164893617	-5.41578947368
443	0.2215	-3.41296296296	-0.381395348837	1.49414893617	-2.59473684211
444	0.222	0.881481481481	-1.81860465116	5.72765957447	-2.59473684211
445	0.2225	0.881481481481	-0.381395348837	2.90531914894	-4.00526315789
446	0.223	0.881481481481	1.05581395349	1.49414893617	-9.64736842105
447	0.2235	-1.98148148148	-1.81860465116	-1.32819148936	-5.41578947368
448	0.224	0.881481481481	-7.56744186047	2.90531914894	-5.41578947368
449	0.2245	-3.41296296296	8.24186046512	4.3164893617	-5.41578947368
450	0.225	0.881481481481	-3.25581395349	5.72765957447	-1.18421052632
451	0.2255	-12.0018518519	1.05581395349	4.3164893617	-4.00526315789
452	0.226	19.4907407407	1.05581395349	4.3164893617	4.45789473684
453	0.2265	-7.70740740741	1.05581395349	7.13882978723	-11.0578947368
454	0.227	0.881481481481	2.49302325581	-2.73936170213	-2.59473684211
455	0.2275	2.31296296296	-1.81860465116	19.8393617021	-4.00526315789
456	0.228	3.74444444444	1.05581395349	-1.32819148936	-4.00526315789
457	0.2285	3.74444444444	-6.13023255814	2.90531914894	0.226315789474
458	0.229	0.881481481481	8.24186046512	5.72765957447	0.226315789474
459	0.2295	3.74444444444	1.05581395349	7.13882978723	0.226315789474
460	0.23	-10.5703703704	-0.381395348837	7.13882978723	-4.00526315789
461	0.2305	22.3537037037	-0.381395348837	7.13882978723	1.63684210526
462	0.231	0.881481481481	1.05581395349	5.72765957447	-9.64736842105
463	0.2315	0.881481481481	1.05581395349	4.3164893617	-2.59473684211
464	0.232	-0.55	-0.381395348837	0.0829787234043	-8.23684210526
465	0.2325	-1.98148148148	-7.56744186047	2.90531914894	-1.18421052632
466	0.233	2.31296296296	9.67906976744	4.3164893617	0.226315789474
467	0.2335	-0.55	-3.25581395349	4.3164893617	-1.18421052632
468	0.234	2.31296296296	-0.381395348837	0.0829787234043	1.63684210526
469	0.2345	-7.70740740741	-1.81860465116	-1.32819148936	-11.0578947368
470	0.235	-0.55	-1.81860465116	-4.15053191489	18.5631578947
471	0.2355	-1.98148148148	-0.381395348837	-6.97287234043	-1.18421052632
472	0.236	2.31296296296	1.05581395349	-1.32819148936	-2.59473684211
473	0.2365	-0.55	1.05581395349	4.3164893617	-1.18421052632
474	0.237	0.881481481481	-11.8790697674	2.90531914894	-5.41578947368
475	0.2375	-0.55	-6.13023255814	1.49414893617	-2.59473684211
476	0.238	-1.98148148148	-1.81860465116	0.0829787234043	-5.41578947368
477	0.2385	19.4907407407	-0.381395348837	4.3164893617	0.226315789474
478	0.239	-9.13888888889	-0.381395348837	4.3164893617	-11.0578947368
479	0.2395	2.31296296296	-0.381395348837	1.49414893617	-11.0578947368
480	0.24	0.881481481481	-0.381395348837	-2.73936170213	-5.41578947368
481	0.2405	0.881481481481	-1.81860465116	5.72765957447	-11.0578947368
482	0.241	0.881481481481	-1.81860465116	7.13882978723	-1.18421052632
483	0.2415	3.74444444444	-0.381395348837	7.13882978723	0.226315789474
484	0.242	-0.55	8.24186046512	4.3164893617	0.226315789474
485	0.2425	2.31296296296	-1.81860465116	2.90531914894	0.226315789474
486	0.243	8.03888888889	-0.381395348837	1.49414893617	-1.18421052632
487	0.2435	-4.84444444444	1.05581395349	1.49414893617	5.86842105263
488	0.244	-0.55	-1.81860465116	5.72765957447	-5.41578947368
489	0.2445	0.881481481481	1.05581395349	-6.97287234043	-4.00526315789
490	0.245	0.881481481481	2.49302325581	2.90531914894	-2.59473684211
491	0.2455	-1.98148148148	-4.69302325581	4.3164893617	-2.59473684211
492	0.246	-3.41296296296	9.67906976744	0.0829787234043	-5.41578947368
493	0.2465	-1.98148148148	-7.56744186047	1.49414893617	-5.41578947368
494	0.247	5.17592592593	-1.81860465116	4.3164893617	-11.0578947368
495	0.2475	-6.27592592593	1.05581395349	1.49414893617	0.226315789474
496	0.248	-4.84444444444	1.05581395349	1.49414893617	-16.7
497	0.2485	-3.41296296296	3.93023255814	-8.38404255319	-11.0578947368
498	0.249	-1.98148148148	1.05581395349	17.0170212766	-4.00526315789
499	0.2495	-1.98148148148	3.93023255814	2.90531914894	-2.59473684211
500	0.25	-1.98148148148	15.4279069767	1.49414893617	-4.00526315789
501	0.2505	0.881481481481	-7.56744186047	-1.32819148936	-4.00526315789
502	0.251	-3.41296296296	18.3023255814	0.0829787234043	-2.59473684211
503	0.2515	18.0592592593	2.49302325581	0.0829787234043	-2.59473684211
504	0.252	-9.13888888889	1.05581395349	2.90531914894	-13.8789473684
505	0.2525	0.881481481481	2.49302325581	-2.73936170213	12.9210526316
506	0.253	-1.98148148148	-1.81860465116	14.1946808511	-4.00526315789
507	0.2535	-0.55	1.05581395349	-9.79521276596	-4.00526315789
508	0.254	-1.98148148148	-0.381395348837	11.3723404255	-4.00526315789
509	0.2545	-1.98148148148	-4.69302325581	-8.38404255319	-4.00526315789
510	0.255	0.881481481481	-6.13023255814	-1.32819148936	-2.59473684211
511	0.2555	-9.13888888889	1.05581395349	0.0829787234043	-5.41578947368
512	0.256	13.7648148148	1.05581395349	-4.15053191489	-4.00526315789
513	0.2565	-3.41296296296	-0.381395348837	-2.73936170213	3.04736842105
514	0.257	-3.41296296296	1.05581395349	0.0829787234043	-15.2894736842
515	0.2575	-0.55	2.49302325581	17.0170212766	-4.00526315789
516	0.258	-0.55	-1.81860465116	-9.79521276596	-2.59473684211
517	0.2585	-1.98148148148	1.05581395349	0.0829787234043	-4.00526315789
518	0.259	-1.98148148148	11.1162790698	1.49414893617	-4.00526315789
519	0.2595	-0.55	-7.56744186047	2.90531914894	-4.00526315789
520	0.26	-7.70740740741	-3.25581395349	1.49414893617	-1.18421052632
521	0.2605	10.9018518519	-0.381395348837	4.3164893617	0.226315789474
522	0.261	0.881481481481	-0.381395348837	5.72765957447	-6.82631578947
523	0.2615	-3.41296296296	-0.381395348837	0.0829787234043	14.3315789474
524	0.262	-3.41296296296	1.05581395349	4.3164893617	-5.41578947368
525	0.2625	0.881481481481	1.05581395349	-6.97287234043	-2.59473684211
526	0.263	0.881481481481	-11.8790697674	4.3164893617	-2.59473684211
527	0.2635	5.17592592593	19.7395348837	1.49414893617	-2.59473684211
528	0.264	-1.98148148148	-1.81860465116	0.0829787234043	-2.59473684211
529	0.2645	0.881481481481	1.05581395349	5.72765957447	-5.41578947368
530	0.265	16.6277777778	-0.381395348837	4.3164893617	-1.18421052632
531	0.2655	-0.55	-0.381395348837	2.90531914894	-6.82631578947
532	0.266	-1.98148148148	-0.381395348837	0.0829787234043	1.63684210526
533	0.2665	0.881481481481	-0.381395348837	7.13882978723	1.63684210526
534	0.267	-0.55	1.05581395349	0.0829787234043	-1.18421052632
535	0.2675	0.881481481481	-0.381395348837	5.72765957447	0.226315789474
536	0.268	-1.98148148148	-1.81860465116	2.90531914894	-2.59473684211
537	0.2685	3.74444444444	-1.81860465116	2.90531914894	0.226315789474
538	0.269	-14.8648148148	-0.381395348837	2.90531914894	0.226315789474
539	0.2695	-0.55	-1.81860465116	0.0829787234043	21.3842105263
540	0.27	0.881481481481	1.05581395349	4.3164893617	-11.0578947368
541	0.2705	0.881481481481	-1.81860465116	-6.97287234043	-1.18421052632
542	0.271	-0.55	-0.381395348837	19.8393617021	0.226315789474
543	0.2715	-0.55	-1.81860465116	1.49414893617	0.226315789474
544	0.272	-0.55	9.67906976744	-1.32819148936	-2.59473684211
545	0.2725	0.881481481481	-9.00465116279	0.0829787234043	-5.41578947368
546	0.273	-0.55	-4.69302325581	0.0829787234043	-4.00526315789
547	0.2735	-9.13888888889	-4.69302325581	-1.32819148936	-2.59473684211
548	0.274	0.881481481481	-0.381395348837	0.0829787234043	1.63684210526
549	0.2745	0.881481481481	-1.81860465116	2.90531914894	-4.00526315789
550	0.275	-1.98148148148	1.05581395349	-12.6175531915	-2.59473684211
551	0.2755	0.881481481481	5.36744186047	0.0829787234043	0.226315789474
552	0.276	0.881481481481	-7.56744186047	4.3164893617	-1.18421052632
553	0.2765	0.881481481481	16.8651162791	2.90531914894	-1.18421052632
554	0.277	-3.41296296296	-7.56744186047	0.0829787234043	1.63684210526
555	0.2775	-1.98148148148	-0.381395348837	2.90531914894	0.226315789474
556	0.278	-6.27592592593	-0.381395348837	1.49414893617	-2.59473684211
557	0.2785	-0.55	-0.381395348837	2.90531914894	-6.82631578947
558	0.279	-0.55	-0.381395348837	1.49414893617	5.86842105263
559	0.2795	-1.98148148148	-1.81860465116	1.49414893617	1.63684210526
560	0.28	0.881481481481	2.49302325581	-6.97287234043	3.04736842105
561	0.2805	0.881481481481	-9.00465116279	-1.32819148936	0.226315789474
562	0.281	0.881481481481	-7.56744186047	-1.32819148936	0.226315789474
563	0.2815	-4.84444444444	2.49302325581	-1.32819148936	1.63684210526
564	0.282	15.1962962963	-0.381395348837	-1.32819148936	0.226315789474
565	0.2825	-4.84444444444	1.05581395349	-2.73936170213	3.04736842105
566	0.283	0.881481481481	-0.381395348837	-1.32819148936	0.226315789474
567	0.2835	-3.41296296296	1.05581395349	-4.15053191489	0.226315789474
568	0.284	-3.41296296296	2.49302325581	-2.73936170213	-2.59473684211
569	0.2845	-3.41296296296	-11.8790697674	0.0829787234043	-2.59473684211
570	0.285	-4.84444444444	-7.56744186047	0.0829787234043	-1.18421052632
571	0.2855	5.17592592593	-1.81860465116	-1.32819148936	-1.18421052632
572	0.286	-12.0018518519	1.05581395349	-1.32819148936	0.226315789474
573	0.2865	-0.55	-0.381395348837	-2.73936170213	15.7421052632
574	0.287	-3.41296296296	-0.381395348837	-2.73936170213	-11.0578947368
575	0.2875	-0.55	-1.81860465116	0.0829787234043	12.9210526316
576	0.288	-1.98148148148	-0.381395348837	0.0829787234043	-6.82631578947
577	0.2885	-0.55	-6.13023255814	-1.32819148936	3.04736842105
578	0.289	0.881481481481	8.24186046512	0.0829787234043	1.63684210526
579	0.2895	-1.98148148148	-0.381395348837	0.0829787234043	1.63684210526
580	0.29	13.7648148148	-3.25581395349	-1.32819148936	5.86842105263
581	0.2905	-1.98148148148	-3.25581395349	-1.32819148936	1.63684210526
582	0.291	-1.98148148148	-0.381395348837	-1.32819148936	5.86842105263
583	0.2915	0.881481481481	-1.81860465116	2.90531914894	-5.41578947368
584	0.292	0.881481481481	1.05581395349	-5.56170212766	0.226315789474
585	0.2925	-1.98148148148	1.05581395349	-1.32819148936	-1.18421052632
586	0.293	-1.98148148148	-11.8790697674	-1.32819148936	-2.59473684211
587	0.2935	0.881481481481	15.4279069767	-1.32819148936	-1.18421052632
588	0.294	-1.98148148148	-0.381395348837	-2.73936170213	3.04736842105
589	0.2945	10.9018518519	-0.381395348837	-5.56170212766	4.45789473684
590	0.295	-7.70740740741	-1.81860465116	-4.15053191489	-1.18421052632
591	0.2955	-1.98148148148	-0.381395348837	-12.6175531915	0.226315789474
592	0.296	-0.55	-0.381395348837	4.3164893617	0.226315789474
593	0.2965	0.881481481481	-0.381395348837	-5.56170212766	-2.59473684211
594	0.297	-0.55	-11.8790697674	-4.15053191489	1.63684210526
595	0.2975	-0.55	16.8651162791	-5.56170212766	0.226315789474
596	0.298	-0.55	-3.25581395349	-4.15053191489	-1.18421052632
597	0.2985	-4.84444444444	-1.81860465116	-2.73936170213	-1.18421052632
598	0.299	12.3333333333	-0.381395348837	-1.32819148936	-5.41578947368
599	0.2995	-0.55	-1.81860465116	-5.56170212766	-9.64736842105
600	0.3	-0.55	-3.25581395349	14.1946808511	-6.82631578947
601	0.3005	2.31296296296	1.05581395349	-9.79521276596	-6.82631578947
602	0.301	0.881481481481	-1.81860465116	1.49414893617	-6.82631578947
603	0.3015	-0.55	-0.381395348837	0.0829787234043	-6.82631578947
604	0.302	3.74444444444	-1.81860465116	5.72765957447	-2.59473684211
605	0.3025	-12.0018518519	-1.81860465116	4.3164893617	-4.00526315789
606	0.303	19.4907407407	-0.381395348837	4.3164893617	1.63684210526
607	0.3035	0.881481481481	-3.25581395349	2.90531914894	-13.8789473684
608	0.304	2.31296296296	-1.81860465116	-1.32819148936	5.86842105263
609	0.3045	2.31296296296	-1.81860465116	4.3164893617	-8.23684210526
610	0.305	2.31296296296	1.05581395349	-1.32819148936	-5.41578947368
611	0.3055	0.881481481481	-11.8790697674	-2.73936170213	-2.59473684211
612	0.306	5.17592592593	18.3023255814	-2.73936170213	-4.00526315789
613	0.3065	-0.55	-9.00465116279	-4.15053191489	-1.18421052632
614	0.307	20.9222222222	1.05581395349	-1.32819148936	0.226315789474
615	0.3075	-10.5703703704	2.49302325581	-4.15053191489	-16.7
616	0.308	-1.98148148148	1.05581395349	-6.97287234043	15.7421052632
617	0.3085	-1.98148148148	1.05581395349	-2.73936170213	-5.41578947368
618	0.309	-1.98148148148	-0.381395348837	-6.97287234043	-4.00526315789
619	0.3095	-1.98148148148	1.05581395349	7.13882978723	-1.18421052632
620	0.31	0.881481481481	-1.81860465116	-4.15053191489	-4.00526315789
621	0.3105	0.881481481481	3.93023255814	-1.32819148936	-2.59473684211
622	0.311	-7.70740740741	-0.381395348837	-2.73936170213	-1.18421052632
623	0.3115	13.7648148148	1.05581395349	0.0829787234043	0.226315789474
624	0.312	-9.13888888889	1.05581395349	0.0829787234043	-5.41578947368
625	0.3125	-1.98148148148	-0.381395348837	-11.2063829787	-2.59473684211
626	0.313	-1.98148148148	-1.81860465116	14.1946808511	-5.41578947368
627	0.3135	0.881481481481	-0.381395348837	-4.15053191489	-4.00526315789
628	0.314	0.881481481481	-6.13023255814	2.90531914894	-4.00526315789
629	0.3145	-0.55	3.93023255814	4.3164893617	-5.41578947368
630	0.315	3.74444444444	-3.25581395349	1.49414893617	-4.00526315789
631	0.3155	-12.0018518519	-1.81860465116	1.49414893617	-5.41578947368
632	0.316	19.4907407407	-0.381395348837	0.0829787234043	-12.4684210526
633	0.3165	-10.5703703704	-1.81860465116	0.0829787234043	-1.18421052632
634	0.317	-3.41296296296	-0.381395348837	-2.73936170213	8.68947368421
635	0.3175	-1.98148148148	-1.81860465116	14.1946808511	-2.59473684211
636	0.318	-0.55	-1.81860465116	-8.38404255319	-1.18421052632
637	0.3185	-1.98148148148	-6.13023255814	-1.32819148936	0.226315789474
638	0.319	-0.55	-7.56744186047	0.0829787234043	-1.18421052632
639	0.3195	-0.55	1.05581395349	-1.32819148936	-1.18421052632
640	0.32	6.60740740741	-0.381395348837	-2.73936170213	-1.18421052632
641	0.3205	-7.70740740741	-1.81860465116	-1.32819148936	-2.59473684211
642	0.321	-0.55	-1.81860465116	-2.73936170213	-5.41578947368
643	0.3215	0.881481481481	1.05581395349	-1.32819148936	-2.59473684211
644	0.322	-0.55	-3.25581395349	2.90531914894	-4.00526315789
645	0.3225	-4.84444444444	1.05581395349	-4.15053191489	-1.18421052632
646	0.323	-3.41296296296	16.8651162791	-1.32819148936	-1.18421052632
647	0.3235	-0.55	-1.81860465116	1.49414893617	0.226315789474
648	0.324	-12.0018518519	-1.81860465116	4.3164893617	-4.00526315789
649	0.3245	16.6277777778	-1.81860465116	4.3164893617	-1.18421052632
650	0.325	-10.5703703704	-0.381395348837	5.72765957447	-5.41578947368
651	0.3255	-0.55	-0.381395348837	8.55	0.226315789474
652	0.326	-3.41296296296	-1.81860465116	15.6058510638	1.63684210526
653	0.3265	0.881481481481	1.05581395349	5.72765957447	0.226315789474
654	0.327	0.881481481481	-9.00465116279	0.0829787234043	0.226315789474
655	0.3275	2.31296296296	8.24186046512	1.49414893617	-2.59473684211
656	0.328	-13.4333333333	-0.381395348837	-1.32819148936	-1.18421052632
657	0.3285	16.6277777778	-3.25581395349	-1.32819148936	0.226315789474
658	0.329	-9.13888888889	-3.25581395349	0.0829787234043	-15.2894736842
659	0.3295	-1.98148148148	-1.81860465116	-1.32819148936	15.7421052632
660	0.33	-3.41296296296	-0.381395348837	18.4281914894	-2.59473684211
661	0.3305	-1.98148148148	-4.69302325581	-6.97287234043	0.226315789474
662	0.331	-0.55	-0.381395348837	-1.32819148936	-2.59473684211
663	0.3315	2.31296296296	15.4279069767	2.90531914894	-1.18421052632
664	0.332	-1.98148148148	-9.00465116279	4.3164893617	0.226315789474
665	0.3325	-0.55	-1.81860465116	0.0829787234043	-2.59473684211
666	0.333	-6.27592592593	-3.25581395349	0.0829787234043	4.45789473684
667	0.3335	-0.55	-4.69302325581	0.0829787234043	-4.00526315789
668	0.334	-1.98148148148	-0.381395348837	0.0829787234043	3.04736842105
669	0.3345	-0.55	-1.81860465116	4.3164893617	-1.18421052632
670	0.335	-1.98148148148	2.49302325581	2.90531914894	-2.59473684211
671	0.3355	-0.55	11.1162790698	0.0829787234043	-1.18421052632
672	0.336	-0.55	-6.13023255814	2.90531914894	-4.00526315789
673	0.3365	-14.8648148148	1.05581395349	0.0829787234043	-4.00526315789
674	0.337	18.0592592593	1.05581395349	-2.73936170213	1.63684210526
675	0.3375	-7.70740740741	-1.81860465116	-2.73936170213	-1.18421052632
676	0.338	-3.41296296296	-1.81860465116	-9.79521276596	-1.18421052632
677	0.3385	-1.98148148148	-1.81860465116	0.0829787234043	-2.59473684211
678	0.339	-3.41296296296	1.05581395349	-14.0287234043	-1.18421052632
679	0.3395	0.881481481481	-4.69302325581	-4.15053191489	1.63684210526
680	0.34	2.31296296296	15.4279069767	-5.56170212766	1.63684210526
681	0.3405	-0.55	-0.381395348837	-1.32819148936	0.226315789474
682	0.341	2.31296296296	-0.381395348837	-2.73936170213	0.226315789474
683	0.3415	-10.5703703704	-1.81860465116	-2.73936170213	-5.41578947368
684	0.342	0.881481481481	1.05581395349	-1.32819148936	15.7421052632
685	0.3425	-1.98148148148	1.05581395349	-1.32819148936	-11.0578947368
686	0.343	-1.98148148148	-1.81860465116	0.0829787234043	-4.00526315789
687	0.3435	0.881481481481	-1.81860465116	9.96117021277	-5.41578947368
688	0.344	-0.55	9.67906976744	4.3164893617	-2.59473684211
689	0.3445	2.31296296296	-11.8790697674	4.3164893617	-4.00526315789
690	0.345	-3.41296296296	-1.81860465116	5.72765957447	-4.00526315789
691	0.3455	5.17592592593	1.05581395349	5.72765957447	-2.59473684211
692	0.346	-9.13888888889	1.05581395349	1.49414893617	-4.00526315789
693	0.3465	0.881481481481	-1.81860465116	-1.32819148936	14.3315789474
694	0.347	0.881481481481	1.05581395349	0.0829787234043	-12.4684210526
695	0.3475	-1.98148148148	1.05581395349	-11.2063829787	-4.00526315789
696	0.348	-0.55	-1.81860465116	-2.73936170213	-5.41578947368
697	0.3485	-1.98148148148	-3.25581395349	-2.73936170213	-4.00526315789
698	0.349	0.881481481481	8.24186046512	-4.15053191489	-4.00526315789
699	0.3495	-1.98148148148	-6.13023255814	-1.32819148936	-2.59473684211
700	0.35	-12.0018518519	-3.25581395349	-1.32819148936	-2.59473684211
701	0.3505	-3.41296296296	1.05581395349	-1.32819148936	8.68947368421
702	0.351	-1.98148148148	-0.381395348837	1.49414893617	-12.4684210526
703	0.3515	-3.41296296296	-0.381395348837	-1.32819148936	11.5105263158
704	0.352	-4.84444444444	-3.25581395349	2.90531914894	-12.4684210526
705	0.3525	-3.41296296296	-0.381395348837	4.3164893617	-5.41578947368
706	0.353	0.881481481481	5.36744186047	4.3164893617	-6.82631578947
707	0.3535	-1.98148148148	-4.69302325581	4.3164893617	-5.41578947368
708	0.354	2.31296296296	-0.381395348837	2.90531914894	-6.82631578947
709	0.3545	-10.5703703704	-1.81860465116	2.90531914894	-13.8789473684
710	0.355	-0.55	-3.25581395349	1.49414893617	12.9210526316
711	0.3555	-1.98148148148	1.05581395349	1.49414893617	-11.0578947368
712	0.356	-0.55	-0.381395348837	-1.32819148936	-2.59473684211
713	0.3565	0.881481481481	-4.69302325581	4.3164893617	-4.00526315789
714	0.357	-0.55	5.36744186047	0.0829787234043	-5.41578947368
715	0.3575	-3.41296296296	-3.25581395349	1.49414893617	-1.18421052632
716	0.358	-4.84444444444	9.67906976744	0.0829787234043	-1.18421052632
717	0.3585	13.7648148148	-0.381395348837	1.49414893617	-1.18421052632
718	0.359	-9.13888888889	1.05581395349	2.90531914894	-11.0578947368
719	0.3595	-1.98148148148	-0.381395348837	1.49414893617	12.9210526316
720	0.36	0.881481481481	-0.381395348837	17.0170212766	-4.00526315789
721	0.3605	-4.84444444444	-3.25581395349	-8.38404255319	-4.00526315789
722	0.361	-0.55	3.93023255814	-1.32819148936	-4.00526315789
723	0.3615	-0.55	19.7395348837	-1.32819148936	-5.41578947368
724	0.362	-4.84444444444	-7.56744186047	-2.73936170213	-5.41578947368
725	0.3625	-1.98148148148	2.49302325581	-1.32819148936	-5.41578947368
726	0.363	-9.13888888889	-0.381395348837	-1.32819148936	-5.41578947368
727	0.3635	-4.84444444444	-4.69302325581	0.0829787234043	-2.59473684211
728	0.364	-1.98148148148	-1.81860465116	-5.56170212766	-8.23684210526
729	0.3645	0.881481481481	-0.381395348837	5.72765957447	-5.41578947368
730	0.365	-1.98148148148	3.93023255814	-1.32819148936	-6.82631578947
731	0.3655	-1.98148148148	16.8651162791	-2.73936170213	-8.23684210526
732	0.366	3.74444444444	-7.56744186047	-1.32819148936	-5.41578947368
733	0.3665	-3.41296296296	1.05581395349	0.0829787234043	-8.23684210526
734	0.367	18.0592592593	1.05581395349	-1.32819148936	-6.82631578947
735	0.3675	-7.70740740741	-0.381395348837	-1.32819148936	1.63684210526
736	0.368	-3.41296296296	1.05581395349	-5.56170212766	-9.64736842105
737	0.3685	0.881481481481	1.05581395349	8.55	-4.00526315789
738	0.369	0.881481481481	-1.81860465116	-4.15053191489	-5.41578947368
739	0.3695	-0.55	-10.4418604651	-1.32819148936	-5.41578947368
740	0.37	3.74444444444	-6.13023255814	1.49414893617	-5.41578947368
741	0.3705	-1.98148148148	-0.381395348837	-1.32819148936	-5.41578947368
742	0.371	-1.98148148148	2.49302325581	1.49414893617	-4.00526315789
743	0.3715	12.3333333333	3.93023255814	-1.32819148936	-4.00526315789
744	0.372	-1.98148148148	1.05581395349	-5.56170212766	-6.82631578947
745	0.3725	0.881481481481	-0.381395348837	5.72765957447	-5.41578947368
746	0.373	-0.55	-1.81860465116	2.90531914894	-4.00526315789
747	0.3735	-0.55	1.05581395349	-1.32819148936	-5.41578947368
748	0.374	2.31296296296	9.67906976744	1.49414893617	-5.41578947368
749	0.3745	-1.98148148148	-1.81860465116	1.49414893617	-6.82631578947
750	0.375	3.74444444444	1.05581395349	2.90531914894	-5.41578947368
751	0.3755	10.9018518519	1.05581395349	0.0829787234043	-4.00526315789
752	0.376	-0.55	-0.381395348837	4.3164893617	-16.7
753	0.3765	-0.55	1.05581395349	-1.32819148936	7.27894736842
754	0.377	0.881481481481	1.05581395349	18.4281914894	-8.23684210526
755	0.3775	0.881481481481	1.05581395349	-2.73936170213	-8.23684210526
756	0.378	0.881481481481	2.49302325581	1.49414893617	-6.82631578947
757	0.3785	-0.55	-3.25581395349	1.49414893617	-8.23684210526
758	0.379	-0.55	1.05581395349	2.90531914894	-5.41578947368
759	0.3795	-7.70740740741	-0.381395348837	0.0829787234043	-6.82631578947
760	0.38	-7.70740740741	1.05581395349	1.49414893617	-8.23684210526
761	0.3805	-1.98148148148	2.49302325581	1.49414893617	1.63684210526
762	0.381	-0.55	1.05581395349	-4.15053191489	-13.8789473684
763	0.3815	-1.98148148148	1.05581395349	0.0829787234043	-5.41578947368
764	0.382	-0.55	1.05581395349	-8.38404255319	-8.23684210526
765	0.3825	-0.55	-10.4418604651	0.0829787234043	-6.82631578947
766	0.383	2.31296296296	13.9906976744	0.0829787234043	-4.00526315789
767	0.3835	-3.41296296296	-6.13023255814	-1.32819148936	-6.82631578947
768	0.384	18.0592592593	-0.381395348837	0.0829787234043	-2.59473684211
769	0.3845	-9.13888888889	2.49302325581	-1.32819148936	-9.64736842105
770	0.385	-0.55	-0.381395348837	-1.32819148936	8.68947368421
771	0.3855	-3.41296296296	-0.381395348837	2.90531914894	-12.4684210526
772	0.386	0.881481481481	1.05581395349	-8.38404255319	-5.41578947368
773	0.3865	0.881481481481	1.05581395349	0.0829787234043	-2.59473684211
774	0.387	-0.55	-10.4418604651	-1.32819148936	-4.00526315789
775	0.3875	-0.55	15.4279069767	-2.73936170213	-4.00526315789
776	0.388	3.74444444444	1.05581395349	-1.32819148936	0.226315789474
777	0.3885	-12.0018518519	1.05581395349	-1.32819148936	1.63684210526
778	0.389	19.4907407407	-0.381395348837	0.0829787234043	0.226315789474
779	0.3895	0.881481481481	-0.381395348837	2.90531914894	-12.4684210526
780	0.39	-1.98148148148	1.05581395349	-9.79521276596	-1.18421052632
781	0.3905	-0.55	2.49302325581	18.4281914894	-1.18421052632
782	0.391	-1.98148148148	2.49302325581	-8.38404255319	3.04736842105
783	0.3915	-0.55	-13.3162790698	-1.32819148936	1.63684210526
784	0.392	0.881481481481	16.8651162791	-1.32819148936	1.63684210526
785	0.3925	-14.8648148148	2.49302325581	-1.32819148936	0.226315789474
786	0.393	15.1962962963	1.05581395349	0.0829787234043	-1.18421052632
787	0.3935	-7.70740740741	1.05581395349	-1.32819148936	-6.82631578947
788	0.394	-0.55	1.05581395349	-4.15053191489	8.68947368421
789	0.3945	-0.55	1.05581395349	4.3164893617	0.226315789474
790	0.395	-1.98148148148	-0.381395348837	-6.97287234043	-2.59473684211
791	0.3955	-1.98148148148	-6.13023255814	-1.32819148936	-4.00526315789
792	0.396	-0.55	9.67906976744	0.0829787234043	-1.18421052632
793	0.3965	3.74444444444	-4.69302325581	-2.73936170213	0.226315789474
794	0.397	-13.4333333333	1.05581395349	-1.32819148936	-1.18421052632
795	0.3975	18.0592592593	-1.81860465116	-6.97287234043	4.45789473684
796	0.398	-12.0018518519	1.05581395349	-5.56170212766	15.7421052632
797	0.3985	-1.98148148148	-0.381395348837	-8.38404255319	-11.0578947368
798	0.399	-1.98148148148	1.05581395349	1.49414893617	-2.59473684211
799	0.3995	0.881481481481	-1.81860465116	-11.2063829787	-1.18421052632
800	0.4	2.31296296296	2.49302325581	-1.32819148936	0.226315789474
801	0.4005	-0.55	-9.00465116279	-1.32819148936	-2.59473684211
802	0.401	-0.55	1.05581395349	-1.32819148936	0.226315789474
803	0.4015	-4.84444444444	1.05581395349	0.0829787234043	-4.00526315789
804	0.402	12.3333333333	-1.81860465116	0.0829787234043	1.63684210526
805	0.4025	0.881481481481	-1.81860465116	1.49414893617	-2.59473684211
806	0.403	-0.55	-0.381395348837	1.49414893617	5.86842105263
807	0.4035	-3.41296296296	1.05581395349	-5.56170212766	-5.41578947368
808	0.404	-3.41296296296	-11.8790697674	1.49414893617	-1.18421052632
809	0.4045	-0.55	13.9906976744	4.3164893617	-1.18421052632
810	0.405	-4.84444444444	-0.381395348837	2.90531914894	-2.59473684211
811	0.4055	15.1962962963	1.05581395349	2.90531914894	-1.18421052632
812	0.406	-4.84444444444	1.05581395349	2.90531914894	-15.2894736842
813	0.4065	-4.84444444444	1.05581395349	-1.32819148936	-8.23684210526
814	0.407	-0.55	1.05581395349	0.0829787234043	-6.82631578947
815	0.4075	-1.98148148148	1.05581395349	-8.38404255319	-11.0578947368
816	0.408	-0.55	-1.81860465116	12.7835106383	-8.23684210526
817	0.4085	-0.55	1.05581395349	2.90531914894	-8.23684210526
818	0.409	-3.41296296296	-1.81860465116	0.0829787234043	-6.82631578947
819	0.4095	0.881481481481	-1.81860465116	0.0829787234043	-2.59473684211
820	0.41	-14.8648148148	1.05581395349	0.0829787234043	-5.41578947368
821	0.4105	-4.84444444444	-3.25581395349	-1.32819148936	8.68947368421
822	0.411	-1.98148148148	-0.381395348837	4.3164893617	-6.82631578947
823	0.4115	-3.41296296296	-0.381395348837	-12.6175531915	-4.00526315789
824	0.412	-1.98148148148	-0.381395348837	17.0170212766	0.226315789474
825	0.4125	-0.55	1.05581395349	-9.79521276596	-2.59473684211
826	0.413	-0.55	-10.4418604651	-2.73936170213	-1.18421052632
827	0.4135	-0.55	18.3023255814	-1.32819148936	1.63684210526
828	0.414	-13.4333333333	-1.81860465116	-1.32819148936	-1.18421052632
829	0.4145	15.1962962963	-1.81860465116	-1.32819148936	1.63684210526
830	0.415	-10.5703703704	-4.69302325581	-1.32819148936	1.63684210526
831	0.4155	0.881481481481	-0.381395348837	-4.15053191489	15.7421052632
832	0.416	-1.98148148148	-1.81860465116	-1.32819148936	0.226315789474
833	0.4165	-1.98148148148	-0.381395348837	-8.38404255319	3.04736842105
834	0.417	-3.41296296296	13.9906976744	-5.56170212766	4.45789473684
835	0.4175	-0.55	-7.56744186047	-2.73936170213	5.86842105263
836	0.418	-4.84444444444	-1.81860465116	-1.32819148936	5.86842105263
837	0.4185	15.1962962963	-3.25581395349	0.0829787234043	7.27894736842
838	0.419	-7.70740740741	1.05581395349	1.49414893617	4.45789473684
839	0.4195	0.881481481481	-0.381395348837	2.90531914894	10.1
840	0.42	-0.55	-0.381395348837	-8.38404255319	10.1
841	0.4205	-3.41296296296	1.05581395349	-6.97287234043	10.1
842	0.421	-3.41296296296	-13.3162790698	-4.15053191489	5.86842105263
843	0.4215	0.881481481481	19.7395348837	-11.2063829787	5.86842105263
844	0.422	-1.98148148148	-9.00465116279	-9.79521276596	8.68947368421
845	0.4225	-3.41296296296	-1.81860465116	-5.56170212766	7.27894736842
846	0.423	-7.70740740741	-1.81860465116	-4.15053191489	8.68947368421
847	0.4235	-3.41296296296	-3.25581395349	-5.56170212766	12.9210526316
848	0.424	2.31296296296	-0.381395348837	-18.2622340426	5.86842105263
849	0.4245	2.31296296296	1.05581395349	12.7835106383	14.3315789474
850	0.425	-1.98148148148	3.93023255814	-4.15053191489	14.3315789474
851	0.4255	2.31296296296	11.1162790698	-4.15053191489	17.1526315789
852	0.426	0.881481481481	-7.56744186047	-5.56170212766	17.1526315789
853	0.4265	8.03888888889	-0.381395348837	-5.56170212766	19.9736842105
854	0.427	-0.55	-1.81860465116	-2.73936170213	8.68947368421
855	0.4275	-3.41296296296	-1.81860465116	-6.97287234043	15.7421052632
856	0.428	2.31296296296	-1.81860465116	0.0829787234043	22.7947368421
857	0.4285	2.31296296296	-6.13023255814	-11.2063829787	22.7947368421
858	0.429	2.31296296296	-3.25581395349	-2.73936170213	24.2052631579
859	0.4295	0.881481481481	-4.69302325581	-2.73936170213	21.3842105263
860	0.43	0.881481481481	1.05581395349	-4.15053191489	22.7947368421
861	0.4305	10.9018518519	-1.81860465116	-6.97287234043	29.8473684211
862	0.431	-1.98148148148	1.05581395349	-8.38404255319	28.4368421053
863	0.4315	2.31296296296	-3.25581395349	-6.97287234043	31.2578947368
864	0.432	0.881481481481	-3.25581395349	12.7835106383	31.2578947368
865	0.4325	0.881481481481	1.05581395349	-14.0287234043	28.4368421053
866	0.433	-0.55	-3.25581395349	11.3723404255	27.0263157895
867	0.4335	-0.55	-3.25581395349	-11.2063829787	27.0263157895
868	0.434	5.17592592593	-7.56744186047	-2.73936170213	28.4368421053
869	0.4345	-6.27592592593	-0.381395348837	-2.73936170213	25.6157894737
870	0.435	18.0592592593	-0.381395348837	-4.15053191489	29.8473684211
871	0.4355	-7.70740740741	-1.81860465116	1.49414893617	41.1315789474
872	0.436	5.17592592593	-1.81860465116	-5.56170212766	24.2052631579
873	0.4365	3.74444444444	-1.81860465116	12.7835106383	22.7947368421
874	0.437	5.17592592593	-1.81860465116	-1.32819148936	15.7421052632
875	0.4375	2.31296296296	-1.81860465116	0.0829787234043	21.3842105263
876	0.438	0.881481481481	-1.81860465116	-1.32819148936	22.7947368421
877	0.4385	5.17592592593	-6.13023255814	0.0829787234043	19.9736842105
878	0.439	-4.84444444444	-6.13023255814	0.0829787234043	10.1
879	0.4395	0.881481481481	-6.13023255814	1.49414893617	24.2052631579
880	0.44	5.17592592593	-4.69302325581	4.3164893617	11.5105263158
881	0.4405	2.31296296296	-4.69302325581	-2.73936170213	21.3842105263
882	0.441	3.74444444444	-3.25581395349	2.90531914894	21.3842105263
883	0.4415	2.31296296296	-14.7534883721	4.3164893617	22.7947368421
884	0.442	5.17592592593	8.24186046512	4.3164893617	19.9736842105
885	0.4425	0.881481481481	-13.3162790698	4.3164893617	22.7947368421
886	0.443	23.7851851852	-9.00465116279	7.13882978723	22.7947368421
887	0.4435	-4.84444444444	-10.4418604651	11.3723404255	18.5631578947
888	0.444	3.74444444444	-4.69302325581	7.13882978723	22.7947368421
889	0.4445	2.31296296296	-7.56744186047	2.90531914894	17.1526315789
890	0.445	5.17592592593	-9.00465116279	18.4281914894	21.3842105263
891	0.4455	5.17592592593	-4.69302325581	8.55	24.2052631579
892	0.446	8.03888888889	8.24186046512	8.55	21.3842105263
893	0.4465	9.47037037037	-16.1906976744	7.13882978723	21.3842105263
894	0.447	-3.41296296296	-9.00465116279	8.55	17.1526315789
895	0.4475	20.9222222222	-7.56744186047	11.3723404255	12.9210526316
896	0.448	-0.55	-10.4418604651	4.3164893617	22.7947368421
897	0.4485	8.03888888889	-10.4418604651	4.3164893617	15.7421052632
898	0.449	8.03888888889	-7.56744186047	-2.73936170213	7.27894736842
899	0.4495	8.03888888889	-6.13023255814	0.0829787234043	7.27894736842
900	0.45	10.9018518519	6.80465116279	2.90531914894	5.86842105263
901	0.4505	5.17592592593	-14.7534883721	7.13882978723	7.27894736842
902	0.451	15.1962962963	-9.00465116279	5.72765957447	3.04736842105
903	0.4515	-3.41296296296	-10.4418604651	7.13882978723	-5.41578947368
904	0.452	9.47037037037	-9.00465116279	5.72765957447	7.27894736842
905	0.4525	10.9018518519	-10.4418604651	-4.15053191489	-8.23684210526
906	0.453	8.03888888889	-10.4418604651	21.2505319149	-6.82631578947
907	0.4535	8.03888888889	-6.13023255814	7.13882978723	-15.2894736842
908	0.454	8.03888888889	6.80465116279	7.13882978723	-22.3421052632
909	0.4545	5.17592592593	-0.381395348837	7.13882978723	-25.1631578947
910	0.455	18.0592592593	-7.56744186047	7.13882978723	-32.2157894737
911	0.4555	-1.98148148148	-7.56744186047	8.55	-50.5526315789
912	0.456	5.17592592593	-4.69302325581	8.55	-44.9105263158
913	0.4565	3.74444444444	-6.13023255814	12.7835106383	-67.4789473684
914	0.457	5.17592592593	-4.69302325581	4.3164893617	-66.0684210526
915	0.4575	5.17592592593	-3.25581395349	11.3723404255	-73.1210526316
916	0.458	2.31296296296	-16.1906976744	15.6058510638	-80.1736842105
917	0.4585	2.31296296296	-4.69302325581	15.6058510638	-84.4052631579
918	0.459	-3.41296296296	-1.81860465116	19.8393617021	-90.0473684211
919	0.4595	10.9018518519	-1.81860465116	18.4281914894	-104.152631579
920	0.46	-3.41296296296	-0.381395348837	18.4281914894	-99.9210526316
921	0.4605	-1.98148148148	-0.381395348837	36.7734042553	-104.152631579
922	0.461	2.31296296296	-4.69302325581	14.1946808511	-106.973684211
923	0.4615	-0.55	-0.381395348837	21.2505319149	-102.742105263
924	0.462	0.881481481481	-4.69302325581	14.1946808511	-105.563157895
925	0.4625	-1.98148148148	-4.69302325581	18.4281914894	-106.973684211
926	0.463	-13.4333333333	-0.381395348837	19.8393617021	-112.615789474
927	0.4635	18.0592592593	-1.81860465116	15.6058510638	-114.026315789
928	0.464	-10.5703703704	1.05581395349	19.8393617021	-111.205263158
929	0.4645	-3.41296296296	1.05581395349	24.0728723404	-112.615789474
930	0.465	-0.55	1.05581395349	8.55	-101.331578947
931	0.4655	-3.41296296296	-1.81860465116	18.4281914894	-97.1
932	0.466	-1.98148148148	2.49302325581	18.4281914894	-92.8684210526
933	0.4665	-4.84444444444	1.05581395349	15.6058510638	-91.4578947368
934	0.467	-16.2962962963	1.05581395349	15.6058510638	-88.6368421053
935	0.4675	16.6277777778	-1.81860465116	15.6058510638	-77.3526315789
936	0.468	-12.0018518519	-1.81860465116	15.6058510638	-82.9947368421
937	0.4685	-3.41296296296	-1.81860465116	12.7835106383	-75.9421052632
938	0.469	0.881481481481	-0.381395348837	19.8393617021	-70.3
939	0.4695	-3.41296296296	2.49302325581	8.55	-67.4789473684
940	0.47	-0.55	-9.00465116279	11.3723404255	-64.6578947368
941	0.4705	-1.98148148148	-3.25581395349	11.3723404255	-61.8368421053
942	0.471	-7.70740740741	-1.81860465116	8.55	-59.0157894737
943	0.4715	8.03888888889	-1.81860465116	5.72765957447	-51.9631578947
944	0.472	-1.98148148148	2.49302325581	7.13882978723	-57.6052631579
945	0.4725	-6.27592592593	-0.381395348837	5.72765957447	-39.2684210526
946	0.473	-3.41296296296	-4.69302325581	8.55	-50.5526315789
947	0.4735	-0.55	1.05581395349	-4.15053191489	-44.9105263158
948	0.474	-0.55	-1.81860465116	4.3164893617	-39.2684210526
949	0.4745	0.881481481481	16.8651162791	4.3164893617	-33.6263157895
950	0.475	-3.41296296296	-10.4418604651	2.90531914894	-33.6263157895
951	0.4755	-0.55	2.49302325581	2.90531914894	-27.9842105263
952	0.476	-10.5703703704	1.05581395349	7.13882978723	-32.2157894737
953	0.4765	0.881481481481	2.49302325581	5.72765957447	-13.8789473684
954	0.477	0.881481481481	1.05581395349	-2.73936170213	-23.7526315789
955	0.4775	0.881481481481	1.05581395349	11.3723404255	-18.1105263158
956	0.478	0.881481481481	2.49302325581	-1.32819148936	-13.8789473684
957	0.4785	2.31296296296	18.3023255814	1.49414893617	-11.0578947368
958	0.479	2.31296296296	-9.00465116279	1.49414893617	-8.23684210526
959	0.4795	-6.27592592593	1.05581395349	0.0829787234043	-6.82631578947
960	0.48	13.7648148148	-0.381395348837	-1.32819148936	-5.41578947368
961	0.4805	-3.41296296296	1.05581395349	-1.32819148936	-4.00526315789
962	0.481	2.31296296296	2.49302325581	1.49414893617	-6.82631578947
963	0.4815	0.881481481481	1.05581395349	-8.38404255319	-1.18421052632
964	0.482	0.881481481481	2.49302325581	-1.32819148936	-1.18421052632
965	0.4825	-0.55	-1.81860465116	-1.32819148936	0.226315789474
966	0.483	-0.55	8.24186046512	0.0829787234043	-2.59473684211
967	0.4835	-9.13888888889	1.05581395349	-1.32819148936	1.63684210526
968	0.484	10.9018518519	1.05581395349	-1.32819148936	1.63684210526
969	0.4845	-7.70740740741	1.05581395349	2.90531914894	-5.41578947368
970	0.485	-0.55	1.05581395349	-11.2063829787	7.27894736842
971	0.4855	-1.98148148148	2.49302325581	14.1946808511	8.68947368421
972	0.486	-1.98148148148	2.49302325581	-11.2063829787	10.1
973	0.4865	-0.55	1.05581395349	11.3723404255	10.1
974	0.487	-0.55	6.80465116279	0.0829787234043	10.1
975	0.4875	0.881481481481	1.05581395349	-2.73936170213	14.3315789474
976	0.488	-12.0018518519	2.49302325581	-4.15053191489	18.5631578947
977	0.4885	-4.84444444444	2.49302325581	0.0829787234043	0.226315789474
978	0.489	-0.55	-0.381395348837	-5.56170212766	31.2578947368
979	0.4895	-3.41296296296	2.49302325581	0.0829787234043	5.86842105263
980	0.49	-0.55	3.93023255814	-12.6175531915	15.7421052632
981	0.4905	-0.55	2.49302325581	7.13882978723	14.3315789474
982	0.491	-3.41296296296	2.49302325581	-8.38404255319	12.9210526316
983	0.4915	5.17592592593	-0.381395348837	-8.38404255319	12.9210526316
984	0.492	-12.0018518519	2.49302325581	-8.38404255319	10.1
985	0.4925	18.0592592593	1.05581395349	-8.38404255319	0.226315789474
986	0.493	-1.98148148148	1.05581395349	-11.2063829787	25.6157894737
987	0.4935	-0.55	1.05581395349	-8.38404255319	-1.18421052632
988	0.494	-4.84444444444	1.05581395349	-11.2063829787	7.27894736842
989	0.4945	-1.98148148148	2.49302325581	4.3164893617	8.68947368421
990	0.495	-0.55	-4.69302325581	-11.2063829787	12.9210526316
991	0.4955	3.74444444444	-6.13023255814	-2.73936170213	14.3315789474
992	0.496	-12.0018518519	1.05581395349	-1.32819148936	8.68947368421
993	0.4965	20.9222222222	2.49302325581	-1.32819148936	15.7421052632
994	0.497	-10.5703703704	1.05581395349	4.3164893617	1.63684210526
995	0.4975	2.31296296296	1.05581395349	-2.73936170213	10.1
996	0.498	0.881481481481	2.49302325581	14.1946808511	8.68947368421
997	0.4985	0.881481481481	1.05581395349	-1.32819148936	10.1
998	0.499	-1.98148148148	-7.56744186047	1.49414893617	8.68947368421
999	0.4995	-3.41296296296	3.93023255814	-1.32819148936	10.1
1000	0.5	0.881481481481	-1.81860465116	0.0829787234043	12.9210526316
1001	0.5005	-16.2962962963	1.05581395349	-1.32819148936	14.3315789474
1002	0.501	-3.41296296296	-0.381395348837	-2.73936170213	31.2578947368
1003	0.5015	-1.98148148148	-1.81860465116	0.0829787234043	5.86842105263
1004	0.502	-4.84444444444	-1.81860465116	-4.15053191489	27.0263157895
1005	0.5025	-0.55	1.05581395349	-1.32819148936	14.3315789474
1006	0.503	-0.55	-4.69302325581	-6.97287234043	12.9210526316
1007	0.5035	-1.98148148148	3.93023255814	-1.32819148936	17.1526315789
1008	0.504	-1.98148148148	1.05581395349	-1.32819148936	15.7421052632
1009	0.5045	13.7648148148	-1.81860465116	-1.32819148936	15.7421052632
1010	0.505	-0.55	1.05581395349	-1.32819148936	4.45789473684
1011	0.5055	-1.98148148148	-0.381395348837	-8.38404255319	25.6157894737
1012	0.506	0.881481481481	2.49302325581	11.3723404255	15.7421052632
1013	0.5065	-1.98148148148	1.05581395349	-6.97287234043	17.1526315789
1014	0.507	-0.55	2.49302325581	-4.15053191489	18.5631578947
1015	0.5075	0.881481481481	-9.00465116279	-4.15053191489	18.5631578947
1016	0.508	-0.55	-4.69302325581	-1.32819148936	15.7421052632
1017	0.5085	3.74444444444	-0.381395348837	-2.73936170213	12.9210526316
1018	0.509	-12.0018518519	2.49302325581	-4.15053191489	15.7421052632
1019	0.5095	-0.55	-0.381395348837	-6.97287234043	24.2052631579
1020	0.51	-0.55	1.05581395349	-2.73936170213	4.45789473684
1021	0.5105	0.881481481481	1.05581395349	-12.6175531915	7.27894736842
1022	0.511	-0.55	-0.381395348837	-5.56170212766	15.7421052632
1023	0.5115	-0.55	-7.56744186047	-4.15053191489	11.5105263158
1024	0.512	-0.55	15.4279069767	-4.15053191489	12.9210526316
1025	0.5125	0.881481481481	-0.381395348837	-5.56170212766	10.1
1026	0.513	-9.13888888889	2.49302325581	-8.38404255319	15.7421052632
1027	0.5135	16.6277777778	1.05581395349	-8.38404255319	15.7421052632
1028	0.514	-4.84444444444	2.49302325581	-11.2063829787	0.226315789474
1029	0.5145	0.881481481481	1.05581395349	-11.2063829787	18.5631578947
1030	0.515	2.31296296296	1.05581395349	2.90531914894	7.27894736842
1031	0.5155	0.881481481481	-0.381395348837	-9.79521276596	8.68947368421
1032	0.516	-1.98148148148	3.93023255814	-5.56170212766	12.9210526316
1033	0.5165	-4.84444444444	-3.25581395349	-4.15053191489	7.27894736842
1034	0.517	-0.55	-0.381395348837	-4.15053191489	5.86842105263
1035	0.5175	-13.4333333333	1.05581395349	-4.15053191489	7.27894736842
1036	0.518	20.9222222222	1.05581395349	-2.73936170213	8.68947368421
1037	0.5185	-0.55	1.05581395349	-2.73936170213	-4.00526315789
1038	0.519	-1.98148148148	5.36744186047	-2.73936170213	25.6157894737
1039	0.5195	0.881481481481	2.49302325581	4.3164893617	0.226315789474
1040	0.52	2.31296296296	5.36744186047	-1.32819148936	7.27894736842
1041	0.5205	-0.55	-6.13023255814	-1.32819148936	10.1
1042	0.521	2.31296296296	13.9906976744	0.0829787234043	8.68947368421
1043	0.5215	-0.55	1.05581395349	0.0829787234043	8.68947368421
1044	0.522	5.17592592593	2.49302325581	0.0829787234043	1.63684210526
1045	0.5225	-6.27592592593	2.49302325581	-4.15053191489	11.5105263158
1046	0.523	2.31296296296	5.36744186047	-2.73936170213	3.04736842105
1047	0.5235	-0.55	3.93023255814	-6.97287234043	8.68947368421
1048	0.524	0.881481481481	-0.381395348837	-2.73936170213	12.9210526316
1049	0.5245	-0.55	-4.69302325581	-2.73936170213	10.1
1050	0.525	0.881481481481	13.9906976744	-2.73936170213	8.68947368421
1051	0.5255	-3.41296296296	6.80465116279	-6.97287234043	8.68947368421
1052	0.526	12.3333333333	1.05581395349	-4.15053191489	15.7421052632
1053	0.5265	-6.27592592593	1.05581395349	-2.73936170213	12.9210526316
1054	0.527	-1.98148148148	1.05581395349	-2.73936170213	19.9736842105
1055	0.5275	-1.98148148148	-0.381395348837	8.55	15.7421052632
1056	0.528	-0.55	3.93023255814	-9.79521276596	15.7421052632
1057	0.5285	-3.41296296296	-6.13023255814	-8.38404255319	17.1526315789
1058	0.529	-3.41296296296	6.80465116279	-6.97287234043	15.7421052632
1059	0.5295	-3.41296296296	-4.69302325581	-2.73936170213	19.9736842105
1060	0.53	-9.13888888889	2.49302325581	-4.15053191489	19.9736842105
1061	0.5305	-0.55	-0.381395348837	-5.56170212766	19.9736842105
1062	0.531	-1.98148148148	1.05581395349	-4.15053191489	22.7947368421
1063	0.5315	-3.41296296296	1.05581395349	-9.79521276596	10.1
1064	0.532	0.881481481481	1.05581395349	-1.32819148936	19.9736842105
1065	0.5325	-0.55	-1.81860465116	-6.97287234043	15.7421052632
1066	0.533	-1.98148148148	1.05581395349	1.49414893617	19.9736842105
1067	0.5335	-3.41296296296	2.49302325581	-2.73936170213	19.9736842105
1068	0.534	2.31296296296	1.05581395349	-2.73936170213	17.1526315789
1069	0.5345	-10.5703703704	2.49302325581	-4.15053191489	19.9736842105
1070	0.535	-3.41296296296	-1.81860465116	-1.32819148936	7.27894736842
1071	0.5355	-4.84444444444	-0.381395348837	-5.56170212766	15.7421052632
1072	0.536	-4.84444444444	2.49302325581	5.72765957447	14.3315789474
1073	0.5365	-3.41296296296	1.05581395349	-18.2622340426	15.7421052632
1074	0.537	-1.98148148148	-1.81860465116	7.13882978723	15.7421052632
1075	0.5375	-4.84444444444	16.8651162791	-8.38404255319	15.7421052632
1076	0.538	-1.98148148148	2.49302325581	-6.97287234043	17.1526315789
1077	0.5385	-9.13888888889	1.05581395349	-6.97287234043	17.1526315789
1078	0.539	3.74444444444	1.05581395349	-6.97287234043	15.7421052632
1079	0.5395	-0.55	-1.81860465116	0.0829787234043	12.9210526316
1080	0.54	-3.41296296296	-0.381395348837	-12.6175531915	10.1
1081	0.5405	-1.98148148148	-0.381395348837	7.13882978723	12.9210526316
1082	0.541	-1.98148148148	2.49302325581	-5.56170212766	14.3315789474
1083	0.5415	-1.98148148148	-9.00465116279	-8.38404255319	14.3315789474
1084	0.542	-0.55	16.8651162791	-6.97287234043	15.7421052632
1085	0.5425	-14.8648148148	-0.381395348837	-4.15053191489	15.7421052632
1086	0.543	15.1962962963	1.05581395349	-4.15053191489	19.9736842105
1087	0.5435	-10.5703703704	1.05581395349	-2.73936170213	15.7421052632
1088	0.544	0.881481481481	1.05581395349	-2.73936170213	18.5631578947
1089	0.5445	-4.84444444444	2.49302325581	14.1946808511	15.7421052632
1090	0.545	-3.41296296296	-0.381395348837	-6.97287234043	15.7421052632
1091	0.5455	-1.98148148148	1.05581395349	5.72765957447	15.7421052632
1092	0.546	-0.55	-6.13023255814	-5.56170212766	15.7421052632
1093	0.5465	0.881481481481	2.49302325581	0.0829787234043	18.5631578947
1094	0.547	-16.2962962963	2.49302325581	-1.32819148936	14.3315789474
1095	0.5475	13.7648148148	1.05581395349	1.49414893617	11.5105263158
1096	0.548	-7.70740740741	2.49302325581	2.90531914894	10.1
1097	0.5485	-1.98148148148	1.05581395349	15.6058510638	8.68947368421
1098	0.549	-1.98148148148	2.49302325581	-11.2063829787	8.68947368421
1099	0.5495	-3.41296296296	1.05581395349	15.6058510638	7.27894736842
1100	0.55	-1.98148148148	11.1162790698	1.49414893617	8.68947368421
1101	0.5505	-1.98148148148	-4.69302325581	0.0829787234043	7.27894736842
1102	0.551	-9.13888888889	2.49302325581	1.49414893617	7.27894736842
1103	0.5515	15.1962962963	1.05581395349	0.0829787234043	12.9210526316
1104	0.552	-10.5703703704	1.05581395349	2.90531914894	7.27894736842
1105	0.5525	-1.98148148148	1.05581395349	0.0829787234043	5.86842105263
1106	0.553	-0.55	1.05581395349	2.90531914894	7.27894736842
1107	0.5535	-0.55	-0.381395348837	12.7835106383	5.86842105263
1108	0.554	-0.55	5.36744186047	0.0829787234043	7.27894736842
1109	0.5545	-4.84444444444	-6.13023255814	-1.32819148936	7.27894736842
1110	0.555	0.881481481481	-0.381395348837	1.49414893617	5.86842105263
1111	0.5555	-9.13888888889	-0.381395348837	0.0829787234043	5.86842105263
1112	0.556	18.0592592593	1.05581395349	0.0829787234043	4.45789473684
1113	0.5565	0.881481481481	1.05581395349	2.90531914894	7.27894736842
1114	0.557	0.881481481481	-1.81860465116	1.49414893617	8.68947368421
1115	0.5575	0.881481481481	-0.381395348837	-1.32819148936	5.86842105263
1116	0.558	0.881481481481	-1.81860465116	5.72765957447	8.68947368421
1117	0.5585	0.881481481481	15.4279069767	0.0829787234043	7.27894736842
1118	0.559	-4.84444444444	-7.56744186047	-1.32819148936	7.27894736842
1119	0.5595	2.31296296296	1.05581395349	-1.32819148936	4.45789473684
1120	0.56	-6.27592592593	1.05581395349	-2.73936170213	1.63684210526
1121	0.5605	-1.98148148148	1.05581395349	0.0829787234043	17.1526315789
1122	0.561	0.881481481481	-1.81860465116	-1.32819148936	10.1
1123	0.5615	-0.55	-1.81860465116	0.0829787234043	22.7947368421
1124	0.562	3.74444444444	2.49302325581	1.49414893617	14.3315789474
1125	0.5625	-0.55	-6.13023255814	-5.56170212766	15.7421052632
1126	0.563	0.881481481481	3.93023255814	1.49414893617	15.7421052632
1127	0.5635	-1.98148148148	8.24186046512	-1.32819148936	14.3315789474
1128	0.564	3.74444444444	1.05581395349	-2.73936170213	15.7421052632
1129	0.5645	9.47037037037	1.05581395349	-1.32819148936	14.3315789474
1130	0.565	-4.84444444444	1.05581395349	-1.32819148936	15.7421052632
1131	0.5655	-0.55	1.05581395349	4.3164893617	12.9210526316
1132	0.566	0.881481481481	-1.81860465116	4.3164893617	10.1
1133	0.5665	2.31296296296	3.93023255814	-5.56170212766	12.9210526316
1134	0.567	0.881481481481	-7.56744186047	-1.32819148936	8.68947368421
1135	0.5675	2.31296296296	16.8651162791	-1.32819148936	8.68947368421
1136	0.568	-10.5703703704	-0.381395348837	-1.32819148936	8.68947368421
1137	0.5685	19.4907407407	1.05581395349	-1.32819148936	12.9210526316
1138	0.569	-4.84444444444	-0.381395348837	-1.32819148936	0.226315789474
1139	0.5695	0.881481481481	1.05581395349	-2.73936170213	22.7947368421
1140	0.57	-0.55	2.49302325581	15.6058510638	7.27894736842
1141	0.5705	0.881481481481	-0.381395348837	-12.6175531915	4.45789473684
1142	0.571	-0.55	-0.381395348837	-1.32819148936	7.27894736842
1143	0.5715	-4.84444444444	1.05581395349	-2.73936170213	10.1
1144	0.572	-1.98148148148	-9.00465116279	-2.73936170213	10.1
1145	0.5725	-14.8648148148	2.49302325581	-2.73936170213	10.1
1146	0.573	18.0592592593	-1.81860465116	-4.15053191489	14.3315789474
1147	0.5735	-9.13888888889	-0.381395348837	-1.32819148936	22.7947368421
1148	0.574	-3.41296296296	2.49302325581	2.90531914894	12.9210526316
1149	0.5745	0.881481481481	2.49302325581	-6.97287234043	5.86842105263
1150	0.575	-1.98148148148	1.05581395349	12.7835106383	8.68947368421
1151	0.5755	-0.55	18.3023255814	2.90531914894	15.7421052632
1152	0.576	-4.84444444444	-9.00465116279	2.90531914894	12.9210526316
1153	0.5765	-3.41296296296	1.05581395349	2.90531914894	12.9210526316
1154	0.577	-4.84444444444	-0.381395348837	4.3164893617	15.7421052632
1155	0.5775	0.881481481481	1.05581395349	4.3164893617	17.1526315789
1156	0.578	0.881481481481	-0.381395348837	-1.32819148936	22.7947368421
1157	0.5785	0.881481481481	1.05581395349	4.3164893617	8.68947368421
1158	0.579	-1.98148148148	5.36744186047	-1.32819148936	14.3315789474
1159	0.5795	-1.98148148148	-9.00465116279	-1.32819148936	17.1526315789
1160	0.58	0.881481481481	18.3023255814	0.0829787234043	17.1526315789
1161	0.5805	-3.41296296296	1.05581395349	0.0829787234043	18.5631578947
1162	0.581	3.74444444444	-0.381395348837	1.49414893617	12.9210526316
1163	0.5815	-6.27592592593	1.05581395349	-4.15053191489	25.6157894737
1164	0.582	-0.55	-0.381395348837	1.49414893617	4.45789473684
1165	0.5825	-0.55	-0.381395348837	-1.32819148936	31.2578947368
1166	0.583	2.31296296296	-0.381395348837	-1.32819148936	15.7421052632
1167	0.5835	-0.55	-9.00465116279	-1.32819148936	15.7421052632
1168	0.584	2.31296296296	1.05581395349	-1.32819148936	14.3315789474
1169	0.5845	-3.41296296296	-0.381395348837	-2.73936170213	15.7421052632
1170	0.585	-12.0018518519	-0.381395348837	-2.73936170213	8.68947368421
1171	0.5855	0.881481481481	1.05581395349	-4.15053191489	27.0263157895
1172	0.586	0.881481481481	-1.81860465116	0.0829787234043	1.63684210526
1173	0.5865	-3.41296296296	-0.381395348837	-4.15053191489	24.2052631579
1174	0.587	-1.98148148148	1.05581395349	-1.32819148936	17.1526315789
1175	0.5875	-1.98148148148	3.93023255814	-2.73936170213	15.7421052632
1176	0.588	-0.55	9.67906976744	-1.32819148936	12.9210526316
1177	0.5885	0.881481481481	-1.81860465116	-1.32819148936	15.7421052632
1178	0.589	-13.4333333333	-0.381395348837	-1.32819148936	14.3315789474
1179	0.5895	19.4907407407	-3.25581395349	-2.73936170213	12.9210526316
1180	0.59	-6.27592592593	-1.81860465116	-5.56170212766	7.27894736842
1181	0.5905	0.881481481481	-1.81860465116	-15.439893617	14.3315789474
1182	0.591	-0.55	-1.81860465116	-5.56170212766	5.86842105263
1183	0.5915	-0.55	1.05581395349	-12.6175531915	15.7421052632
1184	0.592	0.881481481481	-6.13023255814	-8.38404255319	12.9210526316
1185	0.5925	-0.55	3.93023255814	-5.56170212766	5.86842105263
1186	0.593	3.74444444444	-0.381395348837	-6.97287234043	5.86842105263
1187	0.5935	-12.0018518519	-0.381395348837	-2.73936170213	1.63684210526
1188	0.594	22.3537037037	-0.381395348837	-2.73936170213	10.1
1189	0.5945	-9.13888888889	-0.381395348837	2.90531914894	-5.41578947368
1190	0.595	0.881481481481	-0.381395348837	-4.15053191489	8.68947368421
1191	0.5955	0.881481481481	-0.381395348837	17.0170212766	7.27894736842
1192	0.596	2.31296296296	-0.381395348837	-5.56170212766	10.1
1193	0.5965	0.881481481481	-6.13023255814	0.0829787234043	8.68947368421
1194	0.597	2.31296296296	-6.13023255814	4.3164893617	10.1
1195	0.5975	5.17592592593	-3.25581395349	4.3164893617	10.1
1196	0.598	-12.0018518519	-0.381395348837	4.3164893617	14.3315789474
1197	0.5985	-9.13888888889	-0.381395348837	1.49414893617	7.27894736842
1198	0.599	-0.55	-1.81860465116	0.0829787234043	0.226315789474
1199	0.5995	-0.55	-0.381395348837	-4.15053191489	10.1
1200	0.6	3.74444444444	-1.81860465116	4.3164893617	8.68947368421
1201	0.6005	0.881481481481	1.05581395349	-6.97287234043	10.1
1202	0.601	3.74444444444	13.9906976744	0.0829787234043	12.9210526316
1203	0.6015	-1.98148148148	-3.25581395349	-2.73936170213	10.1
1204	0.602	2.31296296296	-0.381395348837	-1.32819148936	8.68947368421
1205	0.6025	-10.5703703704	1.05581395349	0.0829787234043	1.63684210526
1206	0.603	-0.55	1.05581395349	-1.32819148936	12.9210526316
1207	0.6035	-0.55	1.05581395349	-1.32819148936	3.04736842105
1208	0.604	2.31296296296	3.93023255814	-1.32819148936	8.68947368421
1209	0.6045	0.881481481481	2.49302325581	4.3164893617	8.68947368421
1210	0.605	0.881481481481	2.49302325581	2.90531914894	10.1
1211	0.6055	-3.41296296296	8.24186046512	2.90531914894	8.68947368421
1212	0.606	-1.98148148148	-6.13023255814	0.0829787234043	8.68947368421
1213	0.6065	8.03888888889	1.05581395349	2.90531914894	7.27894736842
1214	0.607	0.881481481481	2.49302325581	1.49414893617	0.226315789474
1215	0.6075	-0.55	1.05581395349	1.49414893617	12.9210526316
1216	0.608	-3.41296296296	1.05581395349	18.4281914894	5.86842105263
1217	0.6085	-1.98148148148	1.05581395349	0.0829787234043	5.86842105263
1218	0.609	-1.98148148148	5.36744186047	1.49414893617	5.86842105263
1219	0.6095	-1.98148148148	-9.00465116279	1.49414893617	5.86842105263
1220	0.61	-1.98148148148	15.4279069767	2.90531914894	5.86842105263
1221	0.6105	-4.84444444444	-0.381395348837	4.3164893617	4.45789473684
1222	0.611	18.0592592593	1.05581395349	4.3164893617	7.27894736842
1223	0.6115	-6.27592592593	-0.381395348837	4.3164893617	4.45789473684
1224	0.612	3.74444444444	1.05581395349	2.90531914894	10.1
1225	0.6125	0.881481481481	-0.381395348837	19.8393617021	10.1
1226	0.613	0.881481481481	3.93023255814	-6.97287234043	11.5105263158
1227	0.6135	0.881481481481	-0.381395348837	18.4281914894	10.1
1228	0.614	-1.98148148148	13.9906976744	-1.32819148936	10.1
1229	0.6145	2.31296296296	-6.13023255814	0.0829787234043	8.68947368421
1230	0.615	-6.27592592593	2.49302325581	-1.32819148936	7.27894736842
1231	0.6155	5.17592592593	2.49302325581	-1.32819148936	10.1
1232	0.616	-0.55	1.05581395349	1.49414893617	8.68947368421
1233	0.6165	-0.55	-0.381395348837	0.0829787234043	18.5631578947
1234	0.617	-0.55	-0.381395348837	17.0170212766	8.68947368421
1235	0.6175	-3.41296296296	-0.381395348837	-2.73936170213	10.1
1236	0.618	-3.41296296296	-11.8790697674	1.49414893617	5.86842105263
1237	0.6185	0.881481481481	-7.56744186047	0.0829787234043	8.68947368421
1238	0.619	-1.98148148148	-1.81860465116	-1.32819148936	8.68947368421
1239	0.6195	-14.8648148148	-0.381395348837	1.49414893617	7.27894736842
1240	0.62	16.6277777778	1.05581395349	1.49414893617	10.1
1241	0.6205	-1.98148148148	1.05581395349	4.3164893617	1.63684210526
1242	0.621	-0.55	2.49302325581	-1.32819148936	24.2052631579
1243	0.6215	0.881481481481	1.05581395349	4.3164893617	3.04736842105
1244	0.622	-1.98148148148	-1.81860465116	2.90531914894	12.9210526316
1245	0.6225	0.881481481481	-6.13023255814	5.72765957447	8.68947368421
1246	0.623	-1.98148148148	9.67906976744	1.49414893617	8.68947368421
1247	0.6235	0.881481481481	-0.381395348837	2.90531914894	8.68947368421
1248	0.624	-1.98148148148	1.05581395349	4.3164893617	0.226315789474
1249	0.6245	-3.41296296296	-0.381395348837	2.90531914894	14.3315789474
1250	0.625	0.881481481481	1.05581395349	4.3164893617	-2.59473684211
1251	0.6255	-0.55	1.05581395349	-6.97287234043	12.9210526316
1252	0.626	-1.98148148148	-0.381395348837	0.0829787234043	12.9210526316
1253	0.6265	-1.98148148148	-10.4418604651	2.90531914894	17.1526315789
1254	0.627	-3.41296296296	18.3023255814	1.49414893617	15.7421052632
1255	0.6275	-1.98148148148	-6.13023255814	2.90531914894	10.1
1256	0.628	0.881481481481	-0.381395348837	0.0829787234043	14.3315789474
1257	0.6285	8.03888888889	1.05581395349	1.49414893617	19.9736842105
1258	0.629	0.881481481481	-0.381395348837	2.90531914894	18.5631578947
1259	0.6295	-0.55	-0.381395348837	-6.97287234043	8.68947368421
1260	0.63	0.881481481481	1.05581395349	11.3723404255	15.7421052632
1261	0.6305	-3.41296296296	-1.81860465116	-1.32819148936	15.7421052632
1262	0.631	-0.55	-7.56744186047	1.49414893617	10.1
1263	0.6315	0.881481481481	18.3023255814	1.49414893617	7.27894736842
1264	0.632	-3.41296296296	-7.56744186047	0.0829787234043	7.27894736842
1265	0.6325	20.9222222222	-1.81860465116	-1.32819148936	10.1
1266	0.633	-7.70740740741	-0.381395348837	0.0829787234043	5.86842105263
1267	0.6335	-1.98148148148	1.05581395349	2.90531914894	14.3315789474
1268	0.634	-0.55	1.05581395349	4.3164893617	-1.18421052632
1269	0.6345	0.881481481481	-1.81860465116	-5.56170212766	8.68947368421
1270	0.635	2.31296296296	-0.381395348837	2.90531914894	7.27894736842
1271	0.6355	0.881481481481	3.93023255814	0.0829787234043	7.27894736842
1272	0.636	3.74444444444	-7.56744186047	1.49414893617	8.68947368421
1273	0.6365	-12.0018518519	1.05581395349	-1.32819148936	10.1
1274	0.637	15.1962962963	-1.81860465116	-1.32819148936	14.3315789474
1275	0.6375	-9.13888888889	-1.81860465116	-1.32819148936	-5.41578947368
1276	0.638	-3.41296296296	1.05581395349	-4.15053191489	0.226315789474
1277	0.6385	-1.98148148148	1.05581395349	14.1946808511	10.1
1278	0.639	-1.98148148148	1.05581395349	-1.32819148936	8.68947368421
1279	0.6395	0.881481481481	1.05581395349	-2.73936170213	7.27894736842
1280	0.64	-1.98148148148	13.9906976744	-1.32819148936	10.1
1281	0.6405	2.31296296296	-6.13023255814	-1.32819148936	10.1
1282	0.641	-4.84444444444	-0.381395348837	0.0829787234043	7.27894736842
1283	0.6415	12.3333333333	-3.25581395349	-1.32819148936	8.68947368421
1284	0.642	-7.70740740741	1.05581395349	1.49414893617	4.45789473684
1285	0.6425	-0.55	-0.381395348837	0.0829787234043	18.5631578947
1286	0.643	2.31296296296	-0.381395348837	-6.97287234043	4.45789473684
1287	0.6435	-1.98148148148	1.05581395349	11.3723404255	8.68947368421
1288	0.644	0.881481481481	16.8651162791	-1.32819148936	5.86842105263
1289	0.6445	-0.55	-6.13023255814	-1.32819148936	8.68947368421
1290	0.645	5.17592592593	-1.81860465116	-1.32819148936	7.27894736842
1291	0.6455	-10.5703703704	1.05581395349	-2.73936170213	7.27894736842
1292	0.646	0.881481481481	-4.69302325581	-6.97287234043	22.7947368421
1293	0.6465	-0.55	-0.381395348837	1.49414893617	1.63684210526
1294	0.647	-0.55	1.05581395349	-12.6175531915	7.27894736842
1295	0.6475	-3.41296296296	-0.381395348837	-2.73936170213	10.1
1296	0.648	-1.98148148148	-3.25581395349	-2.73936170213	10.1
1297	0.6485	-0.55	5.36744186047	-2.73936170213	8.68947368421
1298	0.649	-1.98148148148	-6.13023255814	-2.73936170213	5.86842105263
1299	0.6495	10.9018518519	-1.81860465116	-1.32819148936	7.27894736842
1300	0.65	-3.41296296296	2.49302325581	-2.73936170213	7.27894736842
1301	0.6505	-4.84444444444	-1.81860465116	-2.73936170213	18.5631578947
1302	0.651	-1.98148148148	1.05581395349	0.0829787234043	5.86842105263
1303	0.6515	0.881481481481	2.49302325581	-8.38404255319	7.27894736842
1304	0.652	-0.55	5.36744186047	-4.15053191489	8.68947368421
1305	0.6525	-1.98148148148	5.36744186047	-8.38404255319	10.1
1306	0.653	-3.41296296296	-9.00465116279	-1.32819148936	8.68947368421
1307	0.6535	3.74444444444	-0.381395348837	0.0829787234043	8.68947368421
1308	0.654	-4.84444444444	-3.25581395349	-2.73936170213	10.1
1309	0.6545	12.3333333333	-1.81860465116	-2.73936170213	15.7421052632
1310	0.655	-3.41296296296	-0.381395348837	-6.97287234043	4.45789473684
1311	0.6555	-0.55	-1.81860465116	4.3164893617	12.9210526316
1312	0.656	0.881481481481	1.05581395349	-9.79521276596	4.45789473684
1313	0.6565	-0.55	-0.381395348837	2.90531914894	14.3315789474
1314	0.657	2.31296296296	16.8651162791	-2.73936170213	8.68947368421
1315	0.6575	-1.98148148148	-1.81860465116	-2.73936170213	12.9210526316
1316	0.658	5.17592592593	1.05581395349	-1.32819148936	17.1526315789
1317	0.6585	-13.4333333333	-0.381395348837	-2.73936170213	14.3315789474
1318	0.659	-1.98148148148	-0.381395348837	-1.32819148936	27.0263157895
1319	0.6595	-3.41296296296	-0.381395348837	0.0829787234043	14.3315789474
1320	0.66	0.881481481481	-3.25581395349	-2.73936170213	0.226315789474
1321	0.6605	0.881481481481	2.49302325581	8.55	12.9210526316
1322	0.661	0.881481481481	-6.13023255814	-6.97287234043	7.27894736842
1323	0.6615	0.881481481481	9.67906976744	-1.32819148936	8.68947368421
1324	0.662	-3.41296296296	-0.381395348837	-1.32819148936	7.27894736842
1325	0.6625	15.1962962963	-0.381395348837	-1.32819148936	14.3315789474
1326	0.663	-7.70740740741	1.05581395349	1.49414893617	-1.18421052632
1327	0.6635	-1.98148148148	1.05581395349	-2.73936170213	24.2052631579
1328	0.664	0.881481481481	1.05581395349	2.90531914894	7.27894736842
1329	0.6645	-0.55	1.05581395349	-6.97287234043	-1.18421052632
1330	0.665	0.881481481481	-0.381395348837	0.0829787234043	7.27894736842
1331	0.6655	0.881481481481	-4.69302325581	-1.32819148936	5.86842105263
1332	0.666	3.74444444444	15.4279069767	-1.32819148936	5.86842105263
1333	0.6665	0.881481481481	1.05581395349	-2.73936170213	8.68947368421
1334	0.667	-4.84444444444	1.05581395349	-1.32819148936	5.86842105263
1335	0.6675	-7.70740740741	3.93023255814	-1.32819148936	1.63684210526
1336	0.668	-0.55	-0.381395348837	0.0829787234043	4.45789473684
1337	0.6685	0.881481481481	-0.381395348837	-2.73936170213	0.226315789474
1338	0.669	0.881481481481	-1.81860465116	-8.38404255319	5.86842105263
1339	0.6695	2.31296296296	1.05581395349	1.49414893617	4.45789473684
1340	0.67	0.881481481481	-4.69302325581	-2.73936170213	5.86842105263
1341	0.6705	2.31296296296	1.05581395349	0.0829787234043	10.1
1342	0.671	-7.70740740741	1.05581395349	-2.73936170213	8.68947368421
1343	0.6715	12.3333333333	-0.381395348837	-5.56170212766	15.7421052632
1344	0.672	-3.41296296296	1.05581395349	0.0829787234043	1.63684210526
1345	0.6725	0.881481481481	-0.381395348837	-1.32819148936	24.2052631579
1346	0.673	0.881481481481	-1.81860465116	14.1946808511	10.1
1347	0.6735	0.881481481481	1.05581395349	-9.79521276596	7.27894736842
1348	0.674	-0.55	1.05581395349	-5.56170212766	8.68947368421
1349	0.6745	0.881481481481	18.3023255814	-2.73936170213	5.86842105263
1350	0.675	-1.98148148148	-7.56744186047	-4.15053191489	8.68947368421
1351	0.6755	5.17592592593	-4.69302325581	-5.56170212766	11.5105263158
1352	0.676	-12.0018518519	-0.381395348837	-4.15053191489	8.68947368421
1353	0.6765	-1.98148148148	-0.381395348837	-5.56170212766	22.7947368421
1354	0.677	0.881481481481	1.05581395349	1.49414893617	4.45789473684
1355	0.6775	-0.55	-1.81860465116	-12.6175531915	12.9210526316
1356	0.678	-0.55	1.05581395349	-5.56170212766	10.1
1357	0.6785	0.881481481481	-1.81860465116	-1.32819148936	14.3315789474
1358	0.679	3.74444444444	18.3023255814	-4.15053191489	14.3315789474
1359	0.6795	-1.98148148148	-0.381395348837	-5.56170212766	12.9210526316
1360	0.68	3.74444444444	-0.381395348837	-5.56170212766	11.5105263158
1361	0.6805	-9.13888888889	-1.81860465116	-9.79521276596	10.1
1362	0.681	-7.70740740741	1.05581395349	-6.97287234043	-4.00526315789
1363	0.6815	-3.41296296296	-1.81860465116	-15.439893617	7.27894736842
1364	0.682	-0.55	-0.381395348837	-1.32819148936	0.226315789474
1365	0.6825	-1.98148148148	-0.381395348837	-9.79521276596	7.27894736842
1366	0.683	-1.98148148148	3.93023255814	-5.56170212766	5.86842105263
1367	0.6835	-0.55	13.9906976744	-1.32819148936	5.86842105263
1368	0.684	-4.84444444444	-3.25581395349	0.0829787234043	5.86842105263
1369	0.6845	0.881481481481	-1.81860465116	1.49414893617	5.86842105263
1370	0.685	-7.70740740741	-0.381395348837	4.3164893617	-6.82631578947
1371	0.6855	-3.41296296296	1.05581395349	2.90531914894	5.86842105263
1372	0.686	-0.55	-0.381395348837	1.49414893617	-2.59473684211
1373	0.6865	-0.55	2.49302325581	1.49414893617	8.68947368421
1374	0.687	-1.98148148148	-1.81860465116	1.49414893617	5.86842105263
1375	0.6875	-1.98148148148	-9.00465116279	-4.15053191489	10.1
1376	0.688	-0.55	3.93023255814	-1.32819148936	5.86842105263
1377	0.6885	-0.55	1.05581395349	-2.73936170213	5.86842105263
1378	0.689	10.9018518519	1.05581395349	-2.73936170213	8.68947368421
1379	0.6895	-3.41296296296	-0.381395348837	-1.32819148936	4.45789473684
1380	0.69	-6.27592592593	1.05581395349	-1.32819148936	8.68947368421
1381	0.6905	0.881481481481	-1.81860465116	5.72765957447	12.9210526316
1382	0.691	-0.55	-1.81860465116	-11.2063829787	10.1
1383	0.6915	-0.55	-1.81860465116	-1.32819148936	12.9210526316
1384	0.692	0.881481481481	2.49302325581	-2.73936170213	10.1
1385	0.6925	-1.98148148148	-1.81860465116	-2.73936170213	14.3315789474
1386	0.693	3.74444444444	-1.81860465116	-2.73936170213	15.7421052632
1387	0.6935	-12.0018518519	1.05581395349	-1.32819148936	12.9210526316
1388	0.694	16.6277777778	1.05581395349	0.0829787234043	15.7421052632
1389	0.6945	-0.55	1.05581395349	1.49414893617	5.86842105263
1390	0.695	0.881481481481	-0.381395348837	-9.79521276596	8.68947368421
1391	0.6955	2.31296296296	-0.381395348837	15.6058510638	7.27894736842
1392	0.696	-0.55	-3.25581395349	0.0829787234043	12.9210526316
1393	0.6965	-0.55	1.05581395349	0.0829787234043	10.1
1394	0.697	-1.98148148148	-10.4418604651	-4.15053191489	10.1
1395	0.6975	-0.55	-0.381395348837	-1.32819148936	14.3315789474
1396	0.698	-6.27592592593	-0.381395348837	0.0829787234043	14.3315789474
1397	0.6985	10.9018518519	-1.81860465116	-1.32819148936	7.27894736842
1398	0.699	-0.55	1.05581395349	1.49414893617	18.5631578947
1399	0.6995	-1.98148148148	-0.381395348837	4.3164893617	8.68947368421
1400	0.7	2.31296296296	-1.81860465116	2.90531914894	12.9210526316
1401	0.7005	-3.41296296296	2.49302325581	1.49414893617	8.68947368421
1402	0.701	-0.55	-9.00465116279	-6.97287234043	8.68947368421
1403	0.7015	5.17592592593	-1.81860465116	-2.73936170213	8.68947368421
1404	0.702	-12.0018518519	-0.381395348837	-4.15053191489	5.86842105263
1405	0.7025	20.9222222222	-1.81860465116	-6.97287234043	10.1
1406	0.703	0.881481481481	1.05581395349	-4.15053191489	0.226315789474
1407	0.7035	-0.55	-1.81860465116	-16.8510638298	5.86842105263
1408	0.704	-0.55	-0.381395348837	5.72765957447	5.86842105263
1409	0.7045	0.881481481481	-1.81860465116	-15.439893617	5.86842105263
1410	0.705	-1.98148148148	-4.69302325581	-5.56170212766	8.68947368421
1411	0.7055	-3.41296296296	9.67906976744	-2.73936170213	5.86842105263
1412	0.706	-1.98148148148	-4.69302325581	-1.32819148936	3.04736842105
1413	0.7065	-10.5703703704	1.05581395349	-2.73936170213	-4.00526315789
1414	0.707	-3.41296296296	-0.381395348837	-2.73936170213	8.68947368421
1415	0.7075	-0.55	1.05581395349	-2.73936170213	-6.82631578947
1416	0.708	-0.55	1.05581395349	-9.79521276596	5.86842105263
1417	0.7085	-0.55	-3.25581395349	14.1946808511	4.45789473684
1418	0.709	0.881481481481	1.05581395349	-9.79521276596	5.86842105263
1419	0.7095	-0.55	-7.56744186047	0.0829787234043	4.45789473684
1420	0.71	-3.41296296296	-0.381395348837	0.0829787234043	1.63684210526
1421	0.7105	-3.41296296296	1.05581395349	1.49414893617	4.45789473684
1422	0.711	9.47037037037	-0.381395348837	2.90531914894	-2.59473684211
1423	0.7115	-4.84444444444	-1.81860465116	-1.32819148936	15.7421052632
1424	0.712	0.881481481481	-0.381395348837	4.3164893617	-1.18421052632
1425	0.7125	-0.55	1.05581395349	11.3723404255	3.04736842105
1426	0.713	0.881481481481	1.05581395349	-1.32819148936	-2.59473684211
1427	0.7135	-0.55	-6.13023255814	-1.32819148936	1.63684210526
1428	0.714	-1.98148148148	3.93023255814	-1.32819148936	0.226315789474
1429	0.7145	2.31296296296	-3.25581395349	-4.15053191489	1.63684210526
1430	0.715	-12.0018518519	1.05581395349	0.0829787234043	4.45789473684
1431	0.7155	-1.98148148148	-0.381395348837	1.49414893617	8.68947368421
1432	0.716	-3.41296296296	1.05581395349	4.3164893617	1.63684210526
1433	0.7165	-0.55	-1.81860465116	-8.38404255319	3.04736842105
1434	0.717	-0.55	1.05581395349	18.4281914894	4.45789473684
1435	0.7175	0.881481481481	-1.81860465116	-4.15053191489	4.45789473684
1436	0.718	2.31296296296	9.67906976744	1.49414893617	5.86842105263
1437	0.7185	0.881481481481	-7.56744186047	0.0829787234043	4.45789473684
1438	0.719	0.881481481481	-0.381395348837	1.49414893617	4.45789473684
1439	0.7195	10.9018518519	-0.381395348837	0.0829787234043	1.63684210526
1440	0.72	-3.41296296296	1.05581395349	2.90531914894	4.45789473684
1441	0.7205	0.881481481481	-3.25581395349	-1.32819148936	0.226315789474
1442	0.721	0.881481481481	-0.381395348837	-2.73936170213	1.63684210526
1443	0.7215	0.881481481481	-1.81860465116	8.55	0.226315789474
1444	0.722	-0.55	2.49302325581	-2.73936170213	0.226315789474
1445	0.7225	-1.98148148148	-7.56744186047	1.49414893617	1.63684210526
1446	0.723	3.74444444444	-0.381395348837	1.49414893617	5.86842105263
1447	0.7235	-10.5703703704	-1.81860465116	0.0829787234043	0.226315789474
1448	0.724	19.4907407407	-3.25581395349	0.0829787234043	-6.82631578947
1449	0.7245	-4.84444444444	-0.381395348837	2.90531914894	1.63684210526
1450	0.725	0.881481481481	-1.81860465116	4.3164893617	5.86842105263
1451	0.7255	0.881481481481	1.05581395349	-5.56170212766	-5.41578947368
1452	0.726	3.74444444444	-11.8790697674	-1.32819148936	0.226315789474
1453	0.7265	3.74444444444	19.7395348837	0.0829787234043	0.226315789474
1454	0.727	-0.55	-6.13023255814	1.49414893617	-1.18421052632
1455	0.7275	8.03888888889	-3.25581395349	2.90531914894	-2.59473684211
1456	0.728	-7.70740740741	1.05581395349	4.3164893617	-12.4684210526
1457	0.7285	-0.55	-1.81860465116	4.3164893617	-2.59473684211
1458	0.729	2.31296296296	1.05581395349	0.0829787234043	-9.64736842105
1459	0.7295	0.881481481481	-0.381395348837	5.72765957447	5.86842105263
1460	0.73	-0.55	1.05581395349	4.3164893617	-1.18421052632
1461	0.7305	0.881481481481	-10.4418604651	0.0829787234043	-6.82631578947
1462	0.731	3.74444444444	18.3023255814	4.3164893617	-5.41578947368
1463	0.7315	-3.41296296296	-7.56744186047	4.3164893617	-5.41578947368
1464	0.732	22.3537037037	1.05581395349	8.55	-4.00526315789
1465	0.7325	-6.27592592593	-1.81860465116	4.3164893617	-8.23684210526
1466	0.733	3.74444444444	-1.81860465116	8.55	1.63684210526
1467	0.7335	0.881481481481	-0.381395348837	-4.15053191489	-5.41578947368
1468	0.734	2.31296296296	2.49302325581	0.0829787234043	-1.18421052632
1469	0.7345	0.881481481481	-13.3162790698	7.13882978723	-4.00526315789
1470	0.735	2.31296296296	11.1162790698	2.90531914894	-2.59473684211
1471	0.7355	-1.98148148148	-6.13023255814	5.72765957447	-6.82631578947
1472	0.736	6.60740740741	-1.81860465116	4.3164893617	-5.41578947368
1473	0.7365	-9.13888888889	-0.381395348837	4.3164893617	-13.8789473684
1474	0.737	0.881481481481	-0.381395348837	5.72765957447	-5.41578947368
1475	0.7375	-1.98148148148	-0.381395348837	-5.56170212766	-13.8789473684
1476	0.738	-0.55	1.05581395349	19.8393617021	-11.0578947368
1477	0.7385	-0.55	-1.81860465116	4.3164893617	-11.0578947368
1478	0.739	2.31296296296	11.1162790698	5.72765957447	-8.23684210526
1479	0.7395	0.881481481481	-9.00465116279	4.3164893617	-9.64736842105
1480	0.74	-9.13888888889	-0.381395348837	4.3164893617	-9.64736842105
1481	0.7405	15.1962962963	-1.81860465116	1.49414893617	-9.64736842105
1482	0.741	0.881481481481	-1.81860465116	5.72765957447	-15.2894736842
1483	0.7415	-0.55	-0.381395348837	-4.15053191489	-5.41578947368
1484	0.742	0.881481481481	-0.381395348837	-2.73936170213	-11.0578947368
1485	0.7425	-0.55	-0.381395348837	8.55	-8.23684210526
1486	0.743	3.74444444444	13.9906976744	2.90531914894	-5.41578947368
1487	0.7435	-0.55	-3.25581395349	2.90531914894	-2.59473684211
1488	0.744	2.31296296296	-1.81860465116	1.49414893617	-4.00526315789
1489	0.7445	-12.0018518519	-3.25581395349	4.3164893617	-15.2894736842
1490	0.745	-3.41296296296	-1.81860465116	1.49414893617	7.27894736842
1491	0.7455	0.881481481481	1.05581395349	0.0829787234043	-8.23684210526
1492	0.746	2.31296296296	1.05581395349	4.3164893617	-4.00526315789
1493	0.7465	0.881481481481	3.93023255814	-12.6175531915	-4.00526315789
1494	0.747	-0.55	-10.4418604651	-2.73936170213	-1.18421052632
1495	0.7475	0.881481481481	18.3023255814	-1.32819148936	-4.00526315789
1496	0.748	-0.55	-6.13023255814	-2.73936170213	-4.00526315789
1497	0.7485	-6.27592592593	1.05581395349	0.0829787234043	-6.82631578947
1498	0.749	-4.84444444444	-0.381395348837	1.49414893617	-1.18421052632
1499	0.7495	-1.98148148148	-1.81860465116	0.0829787234043	0.226315789474
1500	0.75	-4.84444444444	1.05581395349	-6.97287234043	-9.64736842105
1501	0.7505	-0.55	1.05581395349	4.3164893617	-5.41578947368
1502	0.751	-1.98148148148	1.05581395349	-5.56170212766	-1.18421052632
1503	0.7515	-3.41296296296	-14.7534883721	-1.32819148936	-2.59473684211
1504	0.752	2.31296296296	-0.381395348837	0.0829787234043	-4.00526315789
1505	0.7525	-12.0018518519	-0.381395348837	1.49414893617	-2.59473684211
1506	0.753	10.9018518519	1.05581395349	0.0829787234043	-6.82631578947
1507	0.7535	-6.27592592593	2.49302325581	-2.73936170213	4.45789473684
1508	0.754	-1.98148148148	-0.381395348837	17.0170212766	-6.82631578947
1509	0.7545	-3.41296296296	-3.25581395349	-6.97287234043	-6.82631578947
1510	0.755	-1.98148148148	1.05581395349	2.90531914894	-8.23684210526
1511	0.7555	0.881481481481	2.49302325581	-4.15053191489	-6.82631578947
1512	0.756	-0.55	5.36744186047	2.90531914894	-5.41578947368
1513	0.7565	-6.27592592593	1.05581395349	2.90531914894	-1.18421052632
1514	0.757	-3.41296296296	1.05581395349	2.90531914894	-15.2894736842
1515	0.7575	0.881481481481	1.05581395349	1.49414893617	8.68947368421
1516	0.758	0.881481481481	-0.381395348837	4.3164893617	-12.4684210526
1517	0.7585	0.881481481481	1.05581395349	1.49414893617	15.7421052632
1518	0.759	0.881481481481	-1.81860465116	0.0829787234043	-1.18421052632
1519	0.7595	3.74444444444	-3.25581395349	0.0829787234043	-4.00526315789
1520	0.76	0.881481481481	8.24186046512	2.90531914894	-6.82631578947
1521	0.7605	-1.98148148148	5.36744186047	1.49414893617	-6.82631578947
1522	0.761	15.1962962963	-1.81860465116	0.0829787234043	-6.82631578947
1523	0.7615	-7.70740740741	1.05581395349	2.90531914894	-9.64736842105
1524	0.762	-0.55	-0.381395348837	0.0829787234043	8.68947368421
1525	0.7625	0.881481481481	2.49302325581	18.4281914894	-9.64736842105
1526	0.763	-0.55	-0.381395348837	-4.15053191489	-5.41578947368
1527	0.7635	-1.98148148148	2.49302325581	2.90531914894	-8.23684210526
1528	0.764	-0.55	-0.381395348837	2.90531914894	-6.82631578947
1529	0.7645	0.881481481481	16.8651162791	-1.32819148936	-5.41578947368
1530	0.765	-0.55	3.93023255814	1.49414893617	-8.23684210526
1531	0.7655	10.9018518519	1.05581395349	2.90531914894	-8.23684210526
1532	0.766	-6.27592592593	2.49302325581	0.0829787234043	-6.82631578947
1533	0.7665	-0.55	2.49302325581	4.3164893617	-9.64736842105
1534	0.767	-1.98148148148	1.05581395349	5.72765957447	-5.41578947368
1535	0.7675	-3.41296296296	3.93023255814	-1.32819148936	-6.82631578947
1536	0.768	-3.41296296296	-9.00465116279	0.0829787234043	-2.59473684211
1537	0.7685	-3.41296296296	-4.69302325581	0.0829787234043	-4.00526315789
1538	0.769	-4.84444444444	-0.381395348837	2.90531914894	-5.41578947368
1539	0.7695	0.881481481481	-0.381395348837	0.0829787234043	-2.59473684211
1540	0.77	-12.0018518519	3.93023255814	4.3164893617	-6.82631578947
1541	0.7705	-1.98148148148	1.05581395349	2.90531914894	-5.41578947368
1542	0.771	-0.55	1.05581395349	1.49414893617	-4.00526315789
1543	0.7715	-3.41296296296	2.49302325581	1.49414893617	-4.00526315789
1544	0.772	-3.41296296296	-7.56744186047	4.3164893617	-2.59473684211
1545	0.7725	0.881481481481	5.36744186047	4.3164893617	-4.00526315789
1546	0.773	-0.55	3.93023255814	1.49414893617	-1.18421052632
1547	0.7735	-4.84444444444	6.80465116279	4.3164893617	-1.18421052632
1548	0.774	5.17592592593	2.49302325581	4.3164893617	-1.18421052632
1549	0.7745	0.881481481481	1.05581395349	1.49414893617	-4.00526315789
1550	0.775	-4.84444444444	1.05581395349	-1.32819148936	-2.59473684211
1551	0.7755	-0.55	1.05581395349	5.72765957447	-8.23684210526
1552	0.776	2.31296296296	-0.381395348837	-15.439893617	-5.41578947368
1553	0.7765	0.881481481481	-1.81860465116	-2.73936170213	-5.41578947368
1554	0.777	-0.55	-9.00465116279	-1.32819148936	-9.64736842105
1555	0.7775	-1.98148148148	-9.00465116279	-1.32819148936	-6.82631578947
1556	0.778	0.881481481481	-1.81860465116	-4.15053191489	-6.82631578947
1557	0.7785	-7.70740740741	-1.81860465116	-4.15053191489	-5.41578947368
1558	0.779	-0.55	-1.81860465116	-4.15053191489	10.1
1559	0.7795	-3.41296296296	1.05581395349	-4.15053191489	-8.23684210526
1560	0.78	-1.98148148148	-0.381395348837	-4.15053191489	-2.59473684211
1561	0.7805	-0.55	2.49302325581	-2.73936170213	-8.23684210526
1562	0.781	-0.55	-10.4418604651	-1.32819148936	-8.23684210526
1563	0.7815	-0.55	-7.56744186047	1.49414893617	-8.23684210526
1564	0.782	-1.98148148148	1.05581395349	1.49414893617	-5.41578947368
1565	0.7825	2.31296296296	1.05581395349	2.90531914894	-2.59473684211
1566	0.783	-9.13888888889	1.05581395349	4.3164893617	-8.23684210526
1567	0.7835	0.881481481481	-0.381395348837	4.3164893617	4.45789473684
1568	0.784	0.881481481481	-1.81860465116	4.3164893617	-1.18421052632
1569	0.7845	-0.55	-0.381395348837	7.13882978723	-1.18421052632
1570	0.785	-1.98148148148	1.05581395349	5.72765957447	-2.59473684211
1571	0.7855	-0.55	-10.4418604651	5.72765957447	-4.00526315789
1572	0.786	0.881481481481	-9.00465116279	5.72765957447	-5.41578947368
1573	0.7865	-1.98148148148	1.05581395349	4.3164893617	-1.18421052632
1574	0.787	5.17592592593	-0.381395348837	7.13882978723	0.226315789474
1575	0.7875	-4.84444444444	-1.81860465116	2.90531914894	10.1
1576	0.788	2.31296296296	-0.381395348837	5.72765957447	-11.0578947368
1577	0.7885	-1.98148148148	1.05581395349	1.49414893617	5.86842105263
1578	0.789	-1.98148148148	-0.381395348837	1.49414893617	-4.00526315789
1579	0.7895	-0.55	2.49302325581	4.3164893617	-6.82631578947
1580	0.79	-1.98148148148	-13.3162790698	2.90531914894	-8.23684210526
1581	0.7905	0.881481481481	18.3023255814	4.3164893617	-8.23684210526
1582	0.791	-10.5703703704	1.05581395349	4.3164893617	-12.4684210526
1583	0.7915	20.9222222222	-0.381395348837	1.49414893617	-8.23684210526
1584	0.792	-7.70740740741	-0.381395348837	0.0829787234043	-8.23684210526
1585	0.7925	0.881481481481	1.05581395349	0.0829787234043	-11.0578947368
1586	0.793	0.881481481481	2.49302325581	2.90531914894	-6.82631578947
1587	0.7935	-0.55	-1.81860465116	11.3723404255	-5.41578947368
1588	0.794	-3.41296296296	1.05581395349	0.0829787234043	-2.59473684211
1589	0.7945	-3.41296296296	15.4279069767	1.49414893617	-6.82631578947
1590	0.795	2.31296296296	-0.381395348837	1.49414893617	-2.59473684211
1591	0.7955	-14.8648148148	1.05581395349	2.90531914894	-6.82631578947
1592	0.796	15.1962962963	-3.25581395349	4.3164893617	-16.7
1593	0.7965	-1.98148148148	1.05581395349	4.3164893617	8.68947368421
1594	0.797	-1.98148148148	-1.81860465116	8.55	-11.0578947368
1595	0.7975	2.31296296296	1.05581395349	-6.97287234043	-4.00526315789
1596	0.798	0.881481481481	-3.25581395349	2.90531914894	-5.41578947368
1597	0.7985	-3.41296296296	-11.8790697674	2.90531914894	-5.41578947368
1598	0.799	-1.98148148148	16.8651162791	1.49414893617	-5.41578947368
1599	0.7995	0.881481481481	1.05581395349	-1.32819148936	-2.59473684211
1600	0.8	-10.5703703704	1.05581395349	1.49414893617	-5.41578947368
1601	0.8005	18.0592592593	-3.25581395349	0.0829787234043	0.226315789474
1602	0.801	0.881481481481	-3.25581395349	-1.32819148936	-11.0578947368
1603	0.8015	0.881481481481	-1.81860465116	-2.73936170213	17.1526315789
1604	0.802	-0.55	-0.381395348837	14.1946808511	-2.59473684211
1605	0.8025	-3.41296296296	-1.81860465116	-6.97287234043	-2.59473684211
1606	0.803	0.881481481481	-4.69302325581	1.49414893617	-4.00526315789
1607	0.8035	-0.55	-4.69302325581	0.0829787234043	-1.18421052632
1608	0.804	0.881481481481	-3.25581395349	0.0829787234043	-4.00526315789
1609	0.8045	-4.84444444444	1.05581395349	2.90531914894	0.226315789474
1610	0.805	15.1962962963	-1.81860465116	0.0829787234043	-5.41578947368
1611	0.8055	-0.55	1.05581395349	1.49414893617	-15.2894736842
1612	0.806	-3.41296296296	-1.81860465116	-12.6175531915	-6.82631578947
1613	0.8065	-0.55	1.05581395349	17.0170212766	-1.18421052632
1614	0.807	0.881481481481	-6.13023255814	0.0829787234043	-2.59473684211
1615	0.8075	-0.55	15.4279069767	-4.15053191489	0.226315789474
1616	0.808	0.881481481481	-6.13023255814	1.49414893617	-1.18421052632
1617	0.8085	-0.55	16.8651162791	-1.32819148936	1.63684210526
1618	0.809	2.31296296296	-3.25581395349	-2.73936170213	-2.59473684211
1619	0.8095	-3.41296296296	2.49302325581	0.0829787234043	3.04736842105
1620	0.81	-0.55	-0.381395348837	4.3164893617	-1.18421052632
1621	0.8105	-1.98148148148	3.93023255814	-6.97287234043	3.04736842105
1622	0.811	-1.98148148148	5.36744186047	0.0829787234043	1.63684210526
1623	0.8115	-3.41296296296	-9.00465116279	-1.32819148936	0.226315789474
1624	0.812	2.31296296296	11.1162790698	-1.32819148936	-1.18421052632
1625	0.8125	-6.27592592593	1.05581395349	-1.32819148936	0.226315789474
1626	0.813	9.47037037037	-1.81860465116	0.0829787234043	3.04736842105
1627	0.8135	-1.98148148148	-3.25581395349	4.3164893617	10.1
1628	0.814	0.881481481481	-4.69302325581	2.90531914894	0.226315789474
1629	0.8145	-0.55	-0.381395348837	-9.79521276596	-2.59473684211
1630	0.815	0.881481481481	-1.81860465116	1.49414893617	1.63684210526
1631	0.8155	0.881481481481	-10.4418604651	4.3164893617	5.86842105263
1632	0.816	-0.55	13.9906976744	2.90531914894	4.45789473684
1633	0.8165	0.881481481481	-7.56744186047	2.90531914894	4.45789473684
1634	0.817	3.74444444444	1.05581395349	1.49414893617	5.86842105263
1635	0.8175	-7.70740740741	1.05581395349	4.3164893617	-4.00526315789
1636	0.818	0.881481481481	1.05581395349	0.0829787234043	22.7947368421
1637	0.8185	-0.55	1.05581395349	0.0829787234043	0.226315789474
1638	0.819	-1.98148148148	2.49302325581	-4.15053191489	3.04736842105
1639	0.8195	-0.55	1.05581395349	15.6058510638	1.63684210526
1640	0.82	-1.98148148148	2.49302325581	-1.32819148936	3.04736842105
1641	0.8205	-0.55	-4.69302325581	-1.32819148936	3.04736842105
1642	0.821	-3.41296296296	-4.69302325581	-1.32819148936	3.04736842105
1643	0.8215	15.1962962963	-0.381395348837	-5.56170212766	5.86842105263
1644	0.822	-0.55	1.05581395349	-2.73936170213	-6.82631578947
1645	0.8225	-1.98148148148	1.05581395349	-2.73936170213	1.63684210526
1646	0.823	0.881481481481	2.49302325581	0.0829787234043	-11.0578947368
1647	0.8235	2.31296296296	1.05581395349	-11.2063829787	0.226315789474
1648	0.824	0.881481481481	-1.81860465116	-2.73936170213	-1.18421052632
1649	0.8245	-0.55	-6.13023255814	-5.56170212766	1.63684210526
1650	0.825	0.881481481481	9.67906976744	1.49414893617	-1.18421052632
1651	0.8255	-12.0018518519	1.05581395349	2.90531914894	-5.41578947368
1652	0.826	19.4907407407	-0.381395348837	4.3164893617	-4.00526315789
1653	0.8265	-7.70740740741	-0.381395348837	4.3164893617	-15.2894736842
1654	0.827	2.31296296296	-0.381395348837	0.0829787234043	0.226315789474
1655	0.8275	2.31296296296	1.05581395349	14.1946808511	-1.18421052632
1656	0.828	2.31296296296	2.49302325581	-1.32819148936	0.226315789474
1657	0.8285	0.881481481481	2.49302325581	-4.15053191489	-2.59473684211
1658	0.829	-1.98148148148	-10.4418604651	-5.56170212766	3.04736842105
1659	0.8295	9.47037037037	-0.381395348837	-5.56170212766	4.45789473684
1660	0.83	-10.5703703704	-1.81860465116	-4.15053191489	1.63684210526
1661	0.8305	19.4907407407	1.05581395349	-2.73936170213	5.86842105263
1662	0.831	-6.27592592593	3.93023255814	-6.97287234043	1.63684210526
1663	0.8315	0.881481481481	1.05581395349	1.49414893617	7.27894736842
1664	0.832	0.881481481481	2.49302325581	-12.6175531915	4.45789473684
1665	0.8325	-0.55	1.05581395349	-8.38404255319	7.27894736842
1666	0.833	0.881481481481	-10.4418604651	-6.97287234043	4.45789473684
1667	0.8335	2.31296296296	21.176744186	-5.56170212766	3.04736842105
1668	0.834	3.74444444444	-1.81860465116	-1.32819148936	4.45789473684
1669	0.8345	-9.13888888889	-0.381395348837	-4.15053191489	1.63684210526
1670	0.835	10.9018518519	-3.25581395349	-2.73936170213	1.63684210526
1671	0.8355	-0.55	-0.381395348837	-11.2063829787	0.226315789474
1672	0.836	-0.55	1.05581395349	1.49414893617	0.226315789474
1673	0.8365	0.881481481481	1.05581395349	-11.2063829787	3.04736842105
1674	0.837	0.881481481481	2.49302325581	14.1946808511	3.04736842105
1675	0.8375	0.881481481481	13.9906976744	-1.32819148936	3.04736842105
1676	0.838	0.881481481481	-3.25581395349	0.0829787234043	1.63684210526
1677	0.8385	-9.13888888889	-0.381395348837	2.90531914894	0.226315789474
1678	0.839	19.4907407407	-1.81860465116	1.49414893617	5.86842105263
1679	0.8395	2.31296296296	2.49302325581	4.3164893617	-5.41578947368
1680	0.84	0.881481481481	-0.381395348837	-6.97287234043	0.226315789474
1681	0.8405	-0.55	1.05581395349	7.13882978723	0.226315789474
1682	0.841	-1.98148148148	-0.381395348837	-5.56170212766	0.226315789474
1683	0.8415	0.881481481481	-4.69302325581	-4.15053191489	1.63684210526
1684	0.842	2.31296296296	-0.381395348837	0.0829787234043	1.63684210526
1685	0.8425	2.31296296296	1.05581395349	1.49414893617	1.63684210526
1686	0.843	-0.55	1.05581395349	2.90531914894	-1.18421052632
1687	0.8435	10.9018518519	1.05581395349	0.0829787234043	0.226315789474
1688	0.844	3.74444444444	1.05581395349	-8.38404255319	-2.59473684211
1689	0.8445	0.881481481481	1.05581395349	1.49414893617	0.226315789474
1690	0.845	0.881481481481	2.49302325581	-11.2063829787	3.04736842105
1691	0.8455	0.881481481481	-11.8790697674	2.90531914894	4.45789473684
1692	0.846	3.74444444444	19.7395348837	2.90531914894	4.45789473684
1693	0.8465	-0.55	-3.25581395349	2.90531914894	7.27894736842
1694	0.847	5.17592592593	1.05581395349	4.3164893617	5.86842105263
1695	0.8475	-4.84444444444	1.05581395349	2.90531914894	1.63684210526
1696	0.848	8.03888888889	2.49302325581	4.3164893617	15.7421052632
1697	0.8485	0.881481481481	2.49302325581	-6.97287234043	4.45789473684
1698	0.849	0.881481481481	2.49302325581	18.4281914894	7.27894736842
1699	0.8495	-0.55	2.49302325581	4.3164893617	8.68947368421
1700	0.85	2.31296296296	-6.13023255814	4.3164893617	7.27894736842
1701	0.8505	0.881481481481	6.80465116279	1.49414893617	5.86842105263
1702	0.851	3.74444444444	-3.25581395349	2.90531914894	5.86842105263
1703	0.8515	-6.27592592593	1.05581395349	2.90531914894	-5.41578947368
1704	0.852	-0.55	1.05581395349	2.90531914894	5.86842105263
1705	0.8525	-0.55	-0.381395348837	0.0829787234043	-1.18421052632
1706	0.853	0.881481481481	1.05581395349	4.3164893617	10.1
1707	0.8535	0.881481481481	2.49302325581	4.3164893617	4.45789473684
1708	0.854	-0.55	-10.4418604651	-1.32819148936	3.04736842105
1709	0.8545	2.31296296296	11.1162790698	2.90531914894	1.63684210526
1710	0.855	-3.41296296296	-1.81860465116	1.49414893617	-1.18421052632
1711	0.8555	15.1962962963	-0.381395348837	2.90531914894	3.04736842105
1712	0.856	-6.27592592593	-0.381395348837	1.49414893617	-1.18421052632
1713	0.8565	-3.41296296296	1.05581395349	1.49414893617	4.45789473684
1714	0.857	-0.55	1.05581395349	8.55	-9.64736842105
1715	0.8575	-1.98148148148	1.05581395349	-4.15053191489	4.45789473684
1716	0.858	-1.98148148148	1.05581395349	18.4281914894	1.63684210526
1717	0.8585	-0.55	-3.25581395349	-1.32819148936	4.45789473684
1718	0.859	-0.55	-4.69302325581	2.90531914894	4.45789473684
1719	0.8595	-12.0018518519	1.05581395349	2.90531914894	0.226315789474
1720	0.86	18.0592592593	-0.381395348837	1.49414893617	4.45789473684
1721	0.8605	-9.13888888889	1.05581395349	4.3164893617	-5.41578947368
1722	0.861	0.881481481481	1.05581395349	-8.38404255319	1.63684210526
1723	0.8615	-0.55	1.05581395349	17.0170212766	4.45789473684
1724	0.862	0.881481481481	-0.381395348837	-6.97287234043	1.63684210526
1725	0.8625	0.881481481481	1.05581395349	19.8393617021	1.63684210526
1726	0.863	2.31296296296	-9.00465116279	0.0829787234043	3.04736842105
1727	0.8635	-1.98148148148	1.05581395349	0.0829787234043	0.226315789474
1728	0.864	-0.55	1.05581395349	0.0829787234043	-1.18421052632
1729	0.8645	-7.70740740741	-0.381395348837	-1.32819148936	-8.23684210526
1730	0.865	-0.55	1.05581395349	1.49414893617	11.5105263158
1731	0.8655	-0.55	-1.81860465116	0.0829787234043	-9.64736842105
1732	0.866	-0.55	-0.381395348837	-5.56170212766	0.226315789474
1733	0.8665	-0.55	-0.381395348837	14.1946808511	-4.00526315789
1734	0.867	-0.55	1.05581395349	-5.56170212766	-2.59473684211
1735	0.8675	0.881481481481	-4.69302325581	2.90531914894	-2.59473684211
1736	0.868	-7.70740740741	1.05581395349	-1.32819148936	-1.18421052632
1737	0.8685	12.3333333333	2.49302325581	0.0829787234043	1.63684210526
1738	0.869	-4.84444444444	1.05581395349	1.49414893617	-9.64736842105
1739	0.8695	-3.41296296296	1.05581395349	-6.97287234043	-5.41578947368
1740	0.87	-0.55	2.49302325581	15.6058510638	-2.59473684211
1741	0.8705	-0.55	-3.25581395349	-6.97287234043	-2.59473684211
1742	0.871	-1.98148148148	-11.8790697674	0.0829787234043	-4.00526315789
1743	0.8715	0.881481481481	-7.56744186047	-1.32819148936	-1.18421052632
1744	0.872	-0.55	1.05581395349	-2.73936170213	-2.59473684211
1745	0.8725	-4.84444444444	-1.81860465116	-2.73936170213	0.226315789474
1746	0.873	-6.27592592593	1.05581395349	-1.32819148936	1.63684210526
1747	0.8735	-0.55	-1.81860465116	2.90531914894	7.27894736842
1748	0.874	-0.55	-0.381395348837	-6.97287234043	-5.41578947368
1749	0.8745	-4.84444444444	-3.25581395349	-1.32819148936	-2.59473684211
1750	0.875	-1.98148148148	-11.8790697674	-1.32819148936	-1.18421052632
1751	0.8755	-3.41296296296	18.3023255814	1.49414893617	-1.18421052632
1752	0.876	0.881481481481	-10.4418604651	2.90531914894	0.226315789474
1753	0.8765	-1.98148148148	16.8651162791	2.90531914894	-1.18421052632
1754	0.877	15.1962962963	-0.381395348837	0.0829787234043	1.63684210526
1755	0.8775	-10.5703703704	1.05581395349	2.90531914894	0.226315789474
1756	0.878	-4.84444444444	1.05581395349	2.90531914894	-2.59473684211
1757	0.8785	-4.84444444444	1.05581395349	1.49414893617	1.63684210526
1758	0.879	-1.98148148148	-1.81860465116	8.55	0.226315789474
1759	0.8795	-3.41296296296	3.93023255814	-5.56170212766	-1.18421052632
1760	0.88	-4.84444444444	-6.13023255814	-1.32819148936	0.226315789474
1761	0.8805	-1.98148148148	-0.381395348837	-2.73936170213	-1.18421052632
1762	0.881	-10.5703703704	-1.81860465116	-2.73936170213	-4.00526315789
1763	0.8815	16.6277777778	-0.381395348837	-4.15053191489	-2.59473684211
1764	0.882	0.881481481481	-1.81860465116	-9.79521276596	-5.41578947368
1765	0.8825	-0.55	-0.381395348837	8.55	-1.18421052632
1766	0.883	-1.98148148148	-3.25581395349	-6.97287234043	0.226315789474
1767	0.8835	-1.98148148148	3.93023255814	-2.73936170213	-1.18421052632
1768	0.884	0.881481481481	21.176744186	-1.32819148936	-1.18421052632
1769	0.8845	-3.41296296296	-7.56744186047	-2.73936170213	-2.59473684211
1770	0.885	-0.55	2.49302325581	0.0829787234043	-1.18421052632
1771	0.8855	-10.5703703704	1.05581395349	0.0829787234043	-5.41578947368
1772	0.886	-4.84444444444	-1.81860465116	-1.32819148936	3.04736842105
1773	0.8865	-1.98148148148	1.05581395349	0.0829787234043	4.45789473684
1774	0.887	-3.41296296296	-0.381395348837	4.3164893617	-5.41578947368
1775	0.8875	-3.41296296296	1.05581395349	1.49414893617	-1.18421052632
1776	0.888	-0.55	-1.81860465116	2.90531914894	-2.59473684211
1777	0.8885	-1.98148148148	-3.25581395349	4.3164893617	-1.18421052632
1778	0.889	0.881481481481	-0.381395348837	0.0829787234043	0.226315789474
1779	0.8895	-3.41296296296	-1.81860465116	-1.32819148936	-1.18421052632
1780	0.89	-4.84444444444	1.05581395349	-1.32819148936	0.226315789474
1781	0.8905	-1.98148148148	-0.381395348837	0.0829787234043	-8.23684210526
1782	0.891	-3.41296296296	2.49302325581	-6.97287234043	-1.18421052632
1783	0.8915	-4.84444444444	-1.81860465116	14.1946808511	-4.00526315789
