	Time	Channel 1	Channel 2	Channel 3	Channel 4
0	0.0	-3.50454545455	1.08054054054	-4.09119496855	-11.7060606061
1	0.0005	0.772727272727	-3.15351351351	-16.7449685535	-0.118181818182
2	0.001	-3.50454545455	9.54864864865	-11.1210691824	-3.01515151515
3	0.0015	-3.50454545455	-0.330810810811	-8.30911949686	-3.01515151515
4	0.002	-2.07878787879	1.08054054054	-8.30911949686	-3.01515151515
5	0.0025	-2.07878787879	-8.79891891892	-5.49716981132	14.3666666667
6	0.003	-4.9303030303	12.3713513514	0.126729559748	8.57272727273
7	0.0035	0.772727272727	-5.97621621622	5.75062893082	-3.01515151515
8	0.004	-10.6333333333	-3.15351351351	7.15660377358	-4.46363636364
9	0.0045	-3.50454545455	-8.79891891892	8.56257861635	-3.01515151515
10	0.005	-2.07878787879	-7.38756756757	14.1864779874	-3.01515151515
11	0.0055	7.90151515152	-0.330810810811	12.7805031447	-4.46363636364
12	0.006	-7.78181818182	-1.74216216216	14.1864779874	-5.91212121212
13	0.0065	3.62424242424	-3.15351351351	22.622327044	-14.603030303
14	0.007	-7.78181818182	-4.56486486486	21.2163522013	10.0212121212
15	0.0075	-4.9303030303	-0.330810810811	26.8402515723	-14.603030303
16	0.008	-3.50454545455	-3.15351351351	19.8103773585	-4.46363636364
17	0.0085	-4.9303030303	-1.74216216216	24.0283018868	-7.36060606061
18	0.009	-3.50454545455	-4.56486486486	16.998427673	-4.46363636364
19	0.0095	0.772727272727	15.1940540541	18.4044025157	-3.01515151515
20	0.01	-0.65303030303	-7.38756756757	15.5924528302	-1.56666666667
21	0.0105	0.772727272727	-3.15351351351	11.3745283019	-4.46363636364
22	0.011	16.4560606061	-0.330810810811	4.34465408805	-0.118181818182
23	0.0115	-9.20757575758	-3.15351351351	-2.68522012579	2.77878787879
24	0.012	-6.35606060606	-1.74216216216	1.53270440252	-10.2575757576
25	0.0125	-4.9303030303	-1.74216216216	-2.68522012579	8.57272727273
26	0.013	-3.50454545455	1.08054054054	-8.30911949686	-0.118181818182
27	0.0135	-2.07878787879	-11.6216216216	-5.49716981132	-4.46363636364
28	0.014	0.772727272727	1.08054054054	-6.90314465409	-3.01515151515
29	0.0145	-3.50454545455	-5.97621621622	-11.1210691824	-7.36060606061
30	0.015	-10.6333333333	1.08054054054	-9.71509433962	-4.46363636364
31	0.0155	3.62424242424	1.08054054054	-9.71509433962	-10.2575757576
32	0.016	-4.9303030303	1.08054054054	-12.5270440252	10.0212121212
33	0.0165	-4.9303030303	-0.330810810811	-8.30911949686	-13.1545454545
34	0.017	-3.50454545455	2.49189189189	-9.71509433962	-7.36060606061
35	0.0175	-3.50454545455	-1.74216216216	0.126729559748	-3.01515151515
36	0.018	-3.50454545455	-1.74216216216	4.34465408805	-4.46363636364
37	0.0185	-0.65303030303	6.72594594595	8.56257861635	-1.56666666667
38	0.019	-16.3363636364	2.49189189189	14.1864779874	-3.01515151515
39	0.0195	16.4560606061	2.49189189189	14.1864779874	-0.118181818182
40	0.02	-12.0590909091	3.90324324324	12.7805031447	-3.01515151515
41	0.0205	-4.9303030303	6.72594594595	14.1864779874	-3.01515151515
42	0.021	-4.9303030303	10.96	-5.49716981132	-1.56666666667
43	0.0215	-3.50454545455	5.31459459459	15.5924528302	-4.46363636364
44	0.022	-3.50454545455	-1.74216216216	0.126729559748	-1.56666666667
45	0.0225	-2.07878787879	27.8962162162	-1.27924528302	-5.91212121212
46	0.023	-3.50454545455	19.4281081081	-8.30911949686	-7.36060606061
47	0.0235	0.772727272727	3.90324324324	-12.5270440252	-4.46363636364
48	0.024	-13.4848484848	6.72594594595	-11.1210691824	-11.7060606061
49	0.0245	-3.50454545455	6.72594594595	-13.9330188679	-0.118181818182
50	0.025	-4.9303030303	5.31459459459	-23.7748427673	-5.91212121212
51	0.0255	-2.07878787879	3.90324324324	7.15660377358	-0.118181818182
52	0.026	-3.50454545455	1.08054054054	-18.1509433962	-3.01515151515
53	0.0265	-0.65303030303	-3.15351351351	-6.90314465409	-3.01515151515
54	0.027	-3.50454545455	6.72594594595	-8.30911949686	-1.56666666667
55	0.0275	-4.9303030303	-1.74216216216	-6.90314465409	-3.01515151515
56	0.028	-13.4848484848	1.08054054054	-6.90314465409	-3.01515151515
57	0.0285	5.05	2.49189189189	-5.49716981132	-8.80909090909
58	0.029	-3.50454545455	5.31459459459	-5.49716981132	2.77878787879
59	0.0295	-3.50454545455	1.08054054054	-8.30911949686	-8.80909090909
60	0.03	-0.65303030303	5.31459459459	4.34465408805	-1.56666666667
61	0.0305	-2.07878787879	9.54864864865	-8.30911949686	-5.91212121212
62	0.031	-3.50454545455	-5.97621621622	-2.68522012579	-4.46363636364
63	0.0315	0.772727272727	23.6621621622	-4.09119496855	-5.91212121212
64	0.032	0.772727272727	2.49189189189	-4.09119496855	-3.01515151515
65	0.0325	5.05	2.49189189189	-2.68522012579	-3.01515151515
66	0.033	-9.20757575758	2.49189189189	5.75062893082	-16.0515151515
67	0.0335	-2.07878787879	-0.330810810811	2.93867924528	8.57272727273
68	0.034	-0.65303030303	1.08054054054	-1.27924528302	-5.91212121212
69	0.0345	-3.50454545455	2.49189189189	-4.09119496855	-1.56666666667
70	0.035	-3.50454545455	5.31459459459	5.75062893082	-3.01515151515
71	0.0355	-0.65303030303	1.08054054054	8.56257861635	-1.56666666667
72	0.036	-0.65303030303	16.6054054054	5.75062893082	-1.56666666667
73	0.0365	-0.65303030303	-8.79891891892	5.75062893082	-1.56666666667
74	0.037	-4.9303030303	-0.330810810811	11.3745283019	-1.56666666667
75	0.0375	-4.9303030303	1.08054054054	8.56257861635	-13.1545454545
76	0.038	-3.50454545455	1.08054054054	8.56257861635	14.3666666667
77	0.0385	-4.9303030303	2.49189189189	15.5924528302	-1.56666666667
78	0.039	-2.07878787879	2.49189189189	-2.68522012579	-5.91212121212
79	0.0395	-3.50454545455	-10.2102702703	12.7805031447	-5.91212121212
80	0.04	-0.65303030303	13.7827027027	12.7805031447	-7.36060606061
81	0.0405	0.772727272727	3.90324324324	14.1864779874	-3.01515151515
82	0.041	-13.4848484848	-1.74216216216	15.5924528302	-1.56666666667
83	0.0415	19.3075757576	-0.330810810811	11.3745283019	-8.80909090909
84	0.042	-7.78181818182	-3.15351351351	11.3745283019	-4.46363636364
85	0.0425	-2.07878787879	-0.330810810811	14.1864779874	-5.91212121212
86	0.043	0.772727272727	1.08054054054	-6.90314465409	-1.56666666667
87	0.0435	-2.07878787879	2.49189189189	14.1864779874	-1.56666666667
88	0.044	-3.50454545455	-5.97621621622	1.53270440252	-1.56666666667
89	0.0445	-3.50454545455	19.4281081081	1.53270440252	-1.56666666667
90	0.045	-0.65303030303	1.08054054054	-1.27924528302	-1.56666666667
91	0.0455	-9.20757575758	1.08054054054	-2.68522012579	-3.01515151515
92	0.046	12.1787878788	2.49189189189	0.126729559748	-4.46363636364
93	0.0465	-6.35606060606	1.08054054054	-2.68522012579	10.0212121212
94	0.047	-0.65303030303	1.08054054054	1.53270440252	-8.80909090909
95	0.0475	-2.07878787879	2.49189189189	-12.5270440252	-5.91212121212
96	0.048	-4.9303030303	2.49189189189	-8.30911949686	-3.01515151515
97	0.0485	-4.9303030303	-5.97621621622	0.126729559748	-3.01515151515
98	0.049	-2.07878787879	5.31459459459	2.93867924528	-1.56666666667
99	0.0495	-2.07878787879	-1.74216216216	2.93867924528	-5.91212121212
100	0.05	-3.50454545455	-3.15351351351	1.53270440252	-3.01515151515
101	0.0505	16.4560606061	-1.74216216216	2.93867924528	-1.56666666667
102	0.051	-12.0590909091	-0.330810810811	1.53270440252	1.3303030303
103	0.0515	-7.78181818182	-1.74216216216	-1.27924528302	11.4696969697
104	0.052	-3.50454545455	1.08054054054	1.53270440252	-5.91212121212
105	0.0525	-3.50454545455	1.08054054054	-4.09119496855	-3.01515151515
106	0.053	0.772727272727	6.72594594595	4.34465408805	-1.56666666667
107	0.0535	0.772727272727	-7.38756756757	14.1864779874	-1.56666666667
108	0.054	-2.07878787879	18.0167567568	11.3745283019	-0.118181818182
109	0.0545	-0.65303030303	-4.56486486486	14.1864779874	-1.56666666667
110	0.055	15.0303030303	1.08054054054	14.1864779874	-0.118181818182
111	0.0555	-10.6333333333	-0.330810810811	16.998427673	-5.91212121212
112	0.056	-6.35606060606	1.08054054054	14.1864779874	-0.118181818182
113	0.0565	-0.65303030303	2.49189189189	16.998427673	-11.7060606061
114	0.057	-2.07878787879	3.90324324324	8.56257861635	-1.56666666667
115	0.0575	-0.65303030303	1.08054054054	21.2163522013	-5.91212121212
116	0.058	-0.65303030303	-10.2102702703	19.8103773585	-5.91212121212
117	0.0585	0.772727272727	20.8394594595	18.4044025157	-4.46363636364
118	0.059	-2.07878787879	-5.97621621622	12.7805031447	-1.56666666667
119	0.0595	15.0303030303	2.49189189189	14.1864779874	-1.56666666667
120	0.06	-12.0590909091	1.08054054054	12.7805031447	-3.01515151515
121	0.0605	-9.20757575758	1.08054054054	5.75062893082	4.22727272727
122	0.061	-0.65303030303	5.31459459459	7.15660377358	-7.36060606061
123	0.0615	-0.65303030303	3.90324324324	-2.68522012579	-4.46363636364
124	0.062	-3.50454545455	2.49189189189	2.93867924528	1.3303030303
125	0.0625	-3.50454545455	-5.97621621622	0.126729559748	-0.118181818182
126	0.063	-0.65303030303	23.6621621622	0.126729559748	-0.118181818182
127	0.0635	-0.65303030303	-3.15351351351	-1.27924528302	-0.118181818182
128	0.064	3.62424242424	2.49189189189	-1.27924528302	1.3303030303
129	0.0645	-7.78181818182	5.31459459459	-1.27924528302	-13.1545454545
130	0.065	-2.07878787879	-0.330810810811	-6.90314465409	8.57272727273
131	0.0655	-4.9303030303	2.49189189189	-1.27924528302	-0.118181818182
132	0.066	-3.50454545455	-1.74216216216	-9.71509433962	-3.01515151515
133	0.0665	-2.07878787879	1.08054054054	18.4044025157	-7.36060606061
134	0.067	0.772727272727	-0.330810810811	2.93867924528	-1.56666666667
135	0.0675	0.772727272727	-0.330810810811	8.56257861635	-1.56666666667
136	0.068	-4.9303030303	1.08054054054	12.7805031447	-0.118181818182
137	0.0685	-14.9106060606	1.08054054054	8.56257861635	-1.56666666667
138	0.069	16.4560606061	1.08054054054	8.56257861635	-0.118181818182
139	0.0695	-12.0590909091	1.08054054054	4.34465408805	-3.01515151515
140	0.07	-3.50454545455	2.49189189189	8.56257861635	5.67575757576
141	0.0705	-0.65303030303	5.31459459459	25.4342767296	-3.01515151515
142	0.071	-0.65303030303	-0.330810810811	9.96855345912	-0.118181818182
143	0.0715	0.772727272727	-1.74216216216	36.6820754717	-3.01515151515
144	0.072	2.19848484848	2.49189189189	25.4342767296	-3.01515151515
145	0.0725	-0.65303030303	-3.15351351351	21.2163522013	-3.01515151515
146	0.073	6.47575757576	2.49189189189	15.5924528302	-3.01515151515
147	0.0735	-10.6333333333	5.31459459459	14.1864779874	-5.91212121212
148	0.074	0.772727272727	5.31459459459	7.15660377358	10.0212121212
149	0.0745	0.772727272727	6.72594594595	-2.68522012579	-7.36060606061
150	0.075	0.772727272727	3.90324324324	26.8402515723	-5.91212121212
151	0.0755	0.772727272727	3.90324324324	0.126729559748	-4.46363636364
152	0.076	-0.65303030303	6.72594594595	7.15660377358	-1.56666666667
153	0.0765	-0.65303030303	-5.97621621622	2.93867924528	-0.118181818182
154	0.077	-0.65303030303	16.6054054054	-2.68522012579	-1.56666666667
155	0.0775	-10.6333333333	3.90324324324	-2.68522012579	-0.118181818182
156	0.078	15.0303030303	-0.330810810811	0.126729559748	-1.56666666667
157	0.0785	-10.6333333333	-0.330810810811	2.93867924528	2.77878787879
158	0.079	-0.65303030303	-0.330810810811	22.622327044	-1.56666666667
159	0.0795	-2.07878787879	1.08054054054	4.34465408805	-0.118181818182
160	0.08	-0.65303030303	-1.74216216216	18.4044025157	-0.118181818182
161	0.0805	0.772727272727	-10.2102702703	19.8103773585	-1.56666666667
162	0.081	3.62424242424	12.3713513514	19.8103773585	-3.01515151515
163	0.0815	-3.50454545455	-8.79891891892	16.998427673	-4.46363636364
164	0.082	10.753030303	-1.74216216216	7.15660377358	-0.118181818182
165	0.0825	-10.6333333333	-4.56486486486	4.34465408805	-14.603030303
166	0.083	-2.07878787879	-3.15351351351	-4.09119496855	8.57272727273
167	0.0835	-0.65303030303	-1.74216216216	-18.1509433962	-10.2575757576
168	0.084	-2.07878787879	-4.56486486486	-27.9927672956	-3.01515151515
169	0.0845	0.772727272727	-4.56486486486	-23.7748427673	-0.118181818182
170	0.085	-0.65303030303	-5.97621621622	-23.7748427673	-1.56666666667
171	0.0855	0.772727272727	6.72594594595	-25.1808176101	-0.118181818182
172	0.086	-14.9106060606	-5.97621621622	-22.3688679245	-1.56666666667
173	0.0865	-12.0590909091	-4.56486486486	-18.1509433962	-3.01515151515
174	0.087	9.32727272727	-7.38756756757	-12.5270440252	-8.80909090909
175	0.0875	-4.9303030303	-7.38756756757	-12.5270440252	-0.118181818182
176	0.088	-3.50454545455	-8.79891891892	-11.1210691824	-7.36060606061
177	0.0885	-0.65303030303	-8.79891891892	0.126729559748	1.3303030303
178	0.089	0.772727272727	-10.2102702703	14.1864779874	-3.01515151515
179	0.0895	0.772727272727	-5.97621621622	-1.27924528302	-5.91212121212
180	0.09	0.772727272727	-3.15351351351	2.93867924528	-4.46363636364
181	0.0905	5.05	-8.79891891892	-2.68522012579	-1.56666666667
182	0.091	-12.0590909091	-7.38756756757	-1.27924528302	-3.01515151515
183	0.0915	16.4560606061	-7.38756756757	-1.27924528302	-4.46363636364
184	0.092	-0.65303030303	-7.38756756757	-1.27924528302	2.77878787879
185	0.0925	-3.50454545455	-5.97621621622	-11.1210691824	-0.118181818182
186	0.093	-3.50454545455	-1.74216216216	11.3745283019	1.3303030303
187	0.0935	-3.50454545455	-1.74216216216	-9.71509433962	-0.118181818182
188	0.094	-4.9303030303	1.08054054054	-11.1210691824	1.3303030303
189	0.0945	0.772727272727	-10.2102702703	-8.30911949686	-1.56666666667
190	0.095	-0.65303030303	-3.15351351351	-8.30911949686	1.3303030303
191	0.0955	-13.4848484848	-0.330810810811	-11.1210691824	-3.01515151515
192	0.096	-6.35606060606	-3.15351351351	-12.5270440252	-5.91212121212
193	0.0965	-2.07878787879	-1.74216216216	-13.9330188679	-1.56666666667
194	0.097	-3.50454545455	-0.330810810811	-16.7449685535	14.3666666667
195	0.0975	-2.07878787879	-1.74216216216	-1.27924528302	-4.46363636364
196	0.098	-0.65303030303	-3.15351351351	-5.49716981132	-4.46363636364
197	0.0985	-3.50454545455	-13.032972973	-12.5270440252	-4.46363636364
198	0.099	0.772727272727	18.0167567568	-6.90314465409	-0.118181818182
199	0.0995	-3.50454545455	-7.38756756757	-5.49716981132	-1.56666666667
200	0.1	7.90151515152	-3.15351351351	-6.90314465409	-1.56666666667
201	0.1005	-10.6333333333	-1.74216216216	-2.68522012579	-13.1545454545
202	0.101	-4.9303030303	1.08054054054	-5.49716981132	15.8151515152
203	0.1015	-0.65303030303	-3.15351351351	-8.30911949686	-7.36060606061
204	0.102	-0.65303030303	-1.74216216216	-1.27924528302	-0.118181818182
205	0.1025	-6.35606060606	2.49189189189	-1.27924528302	-0.118181818182
206	0.103	-3.50454545455	-5.97621621622	-2.68522012579	-1.56666666667
207	0.1035	-0.65303030303	2.49189189189	-1.27924528302	-0.118181818182
208	0.104	-16.3363636364	1.08054054054	-4.09119496855	-0.118181818182
209	0.1045	-17.7621212121	-0.330810810811	-5.49716981132	-1.56666666667
210	0.105	13.6045454545	-1.74216216216	-5.49716981132	-5.91212121212
211	0.1055	-7.78181818182	-1.74216216216	-6.90314465409	-0.118181818182
212	0.106	-2.07878787879	-1.74216216216	-15.3389937107	-10.2575757576
213	0.1065	-3.50454545455	-1.74216216216	1.53270440252	-3.01515151515
214	0.107	-2.07878787879	-0.330810810811	2.93867924528	-1.56666666667
215	0.1075	-0.65303030303	1.08054054054	-8.30911949686	-1.56666666667
216	0.108	0.772727272727	-3.15351351351	-6.90314465409	-4.46363636364
217	0.1085	3.62424242424	-3.15351351351	-6.90314465409	-1.56666666667
218	0.109	-13.4848484848	1.08054054054	-5.49716981132	-1.56666666667
219	0.1095	19.3075757576	-0.330810810811	-2.68522012579	-3.01515151515
220	0.11	-0.65303030303	-1.74216216216	-2.68522012579	-4.46363636364
221	0.1105	0.772727272727	-0.330810810811	-15.3389937107	-1.56666666667
222	0.111	2.19848484848	1.08054054054	11.3745283019	1.3303030303
223	0.1115	-2.07878787879	1.08054054054	4.34465408805	-0.118181818182
224	0.112	-0.65303030303	-10.2102702703	-4.09119496855	-1.56666666667
225	0.1125	0.772727272727	19.4281081081	-1.27924528302	-0.118181818182
226	0.113	0.772727272727	-8.79891891892	1.53270440252	1.3303030303
227	0.1135	9.32727272727	-3.15351351351	0.126729559748	-0.118181818182
228	0.114	-3.50454545455	-1.74216216216	7.15660377358	-11.7060606061
229	0.1145	2.19848484848	-5.97621621622	5.75062893082	14.3666666667
230	0.115	-2.07878787879	-3.15351351351	8.56257861635	-4.46363636364
231	0.1155	-0.65303030303	-1.74216216216	-1.27924528302	-1.56666666667
232	0.116	-2.07878787879	-4.56486486486	12.7805031447	-3.01515151515
233	0.1165	-0.65303030303	-11.6216216216	14.1864779874	-4.46363636364
234	0.117	0.772727272727	15.1940540541	12.7805031447	-1.56666666667
235	0.1175	-0.65303030303	-8.79891891892	9.96855345912	1.3303030303
236	0.118	2.19848484848	-4.56486486486	8.56257861635	2.77878787879
237	0.1185	-4.9303030303	-3.15351351351	5.75062893082	-0.118181818182
238	0.119	-0.65303030303	-5.97621621622	4.34465408805	1.3303030303
239	0.1195	-3.50454545455	-3.15351351351	8.56257861635	1.3303030303
240	0.12	0.772727272727	-3.15351351351	2.93867924528	14.3666666667
241	0.1205	-0.65303030303	-4.56486486486	-2.68522012579	-1.56666666667
242	0.121	-2.07878787879	-4.56486486486	7.15660377358	-1.56666666667
243	0.1215	0.772727272727	-15.8556756757	12.7805031447	-1.56666666667
244	0.122	0.772727272727	-11.6216216216	16.998427673	-0.118181818182
245	0.1225	-4.9303030303	-0.330810810811	16.998427673	-3.01515151515
246	0.123	13.6045454545	-1.74216216216	15.5924528302	-1.56666666667
247	0.1235	-0.65303030303	-3.15351351351	12.7805031447	14.3666666667
248	0.124	-3.50454545455	-3.15351351351	14.1864779874	-0.118181818182
249	0.1245	-3.50454545455	-1.74216216216	26.8402515723	-4.46363636364
250	0.125	0.772727272727	-0.330810810811	28.2462264151	-1.56666666667
251	0.1255	-0.65303030303	-4.56486486486	-1.27924528302	-1.56666666667
252	0.126	0.772727272727	15.1940540541	0.126729559748	1.3303030303
253	0.1265	-0.65303030303	-5.97621621622	-2.68522012579	1.3303030303
254	0.127	2.19848484848	-1.74216216216	-8.30911949686	1.3303030303
255	0.1275	17.8818181818	-0.330810810811	-11.1210691824	-3.01515151515
256	0.128	-4.9303030303	-1.74216216216	-11.1210691824	2.77878787879
257	0.1285	0.772727272727	-0.330810810811	-6.90314465409	-13.1545454545
258	0.129	-2.07878787879	1.08054054054	-1.27924528302	-8.80909090909
259	0.1295	-2.07878787879	2.49189189189	2.93867924528	-1.56666666667
260	0.13	-0.65303030303	5.31459459459	-1.27924528302	-1.56666666667
261	0.1305	0.772727272727	18.0167567568	4.34465408805	-4.46363636364
262	0.131	0.772727272727	-10.2102702703	7.15660377358	-4.46363636364
263	0.1315	-12.0590909091	-4.56486486486	11.3745283019	-5.91212121212
264	0.132	17.8818181818	-3.15351351351	12.7805031447	-1.56666666667
265	0.1325	-2.07878787879	-3.15351351351	16.998427673	-13.1545454545
266	0.133	-2.07878787879	-3.15351351351	16.998427673	15.8151515152
267	0.1335	-2.07878787879	-0.330810810811	18.4044025157	-3.01515151515
268	0.134	0.772727272727	-0.330810810811	-1.27924528302	-1.56666666667
269	0.1345	0.772727272727	-3.15351351351	2.93867924528	-0.118181818182
270	0.135	0.772727272727	-5.97621621622	7.15660377358	-3.01515151515
271	0.1355	-0.65303030303	-10.2102702703	4.34465408805	-0.118181818182
272	0.136	5.05	-1.74216216216	0.126729559748	2.77878787879
273	0.1365	-9.20757575758	1.08054054054	1.53270440252	-4.46363636364
274	0.137	0.772727272727	-1.74216216216	-2.68522012579	-5.91212121212
275	0.1375	-0.65303030303	1.08054054054	18.4044025157	-1.56666666667
276	0.138	-0.65303030303	-0.330810810811	5.75062893082	-0.118181818182
277	0.1385	-2.07878787879	5.31459459459	5.75062893082	-0.118181818182
278	0.139	-3.50454545455	-1.74216216216	12.7805031447	-5.91212121212
279	0.1395	3.62424242424	3.90324324324	16.998427673	-4.46363636364
280	0.14	-9.20757575758	5.31459459459	19.8103773585	-1.56666666667
281	0.1405	-4.9303030303	6.72594594595	24.0283018868	-0.118181818182
282	0.141	-9.20757575758	6.72594594595	26.8402515723	-10.2575757576
283	0.1415	-3.50454545455	9.54864864865	26.8402515723	2.77878787879
284	0.142	-4.9303030303	9.54864864865	16.998427673	-4.46363636364
285	0.1425	-3.50454545455	6.72594594595	15.5924528302	-4.46363636364
286	0.143	-6.35606060606	-4.56486486486	19.8103773585	-0.118181818182
287	0.1435	-3.50454545455	22.2508108108	14.1864779874	-3.01515151515
288	0.144	-6.35606060606	9.54864864865	8.56257861635	1.3303030303
289	0.1445	-16.3363636364	9.54864864865	1.53270440252	-0.118181818182
290	0.145	5.05	10.96	-1.27924528302	-5.91212121212
291	0.1455	-4.9303030303	13.7827027027	-6.90314465409	1.3303030303
292	0.146	-4.9303030303	13.7827027027	-8.30911949686	12.9181818182
293	0.1465	-4.9303030303	13.7827027027	5.75062893082	-3.01515151515
294	0.147	-3.50454545455	15.1940540541	-12.5270440252	-3.01515151515
295	0.1475	-2.07878787879	16.6054054054	-4.09119496855	-4.46363636364
296	0.148	-6.35606060606	15.1940540541	-1.27924528302	-4.46363636364
297	0.1485	-2.07878787879	16.6054054054	-6.90314465409	-0.118181818182
298	0.149	-0.65303030303	22.2508108108	-5.49716981132	4.22727272727
299	0.1495	-10.6333333333	23.6621621622	-5.49716981132	-13.1545454545
300	0.15	-7.78181818182	20.8394594595	-8.30911949686	-0.118181818182
301	0.1505	-4.9303030303	23.6621621622	-6.90314465409	1.3303030303
302	0.151	-4.9303030303	25.0735135135	-22.3688679245	2.77878787879
303	0.1515	-3.50454545455	22.2508108108	-13.9330188679	-0.118181818182
304	0.152	-4.9303030303	18.0167567568	-15.3389937107	1.3303030303
305	0.1525	-7.78181818182	22.2508108108	-13.9330188679	-0.118181818182
306	0.153	-4.9303030303	29.3075675676	-12.5270440252	-0.118181818182
307	0.1535	-4.9303030303	29.3075675676	-8.30911949686	1.3303030303
308	0.154	-6.35606060606	30.7189189189	-5.49716981132	4.22727272727
309	0.1545	-4.9303030303	33.5416216216	-2.68522012579	-7.36060606061
310	0.155	-7.78181818182	36.3643243243	-1.27924528302	2.77878787879
311	0.1555	-4.9303030303	40.5983783784	7.15660377358	-3.01515151515
312	0.156	-7.78181818182	42.0097297297	-20.9628930818	-1.56666666667
313	0.1565	-4.9303030303	46.2437837838	-19.556918239	-1.56666666667
314	0.157	-4.9303030303	37.7756756757	-25.1808176101	1.3303030303
315	0.1575	-7.78181818182	46.2437837838	-30.8047169811	1.3303030303
316	0.158	-2.07878787879	49.0664864865	-39.2405660377	-11.7060606061
317	0.1585	-7.78181818182	50.4778378378	-43.458490566	-3.01515151515
318	0.159	-7.78181818182	51.8891891892	-46.2704402516	1.3303030303
319	0.1595	-9.20757575758	51.8891891892	-57.5182389937	1.3303030303
320	0.16	-10.6333333333	54.7118918919	-56.1122641509	-3.01515151515
321	0.1605	-10.6333333333	50.4778378378	-54.7062893082	4.22727272727
322	0.161	-10.6333333333	44.8324324324	-50.4883647799	2.77878787879
323	0.1615	-9.20757575758	51.8891891892	-56.1122641509	2.77878787879
324	0.162	-22.0393939394	51.8891891892	-57.5182389937	2.77878787879
325	0.1625	3.62424242424	50.4778378378	-58.9242138365	-1.56666666667
326	0.163	-12.0590909091	51.8891891892	-58.9242138365	20.1606060606
327	0.1635	-6.35606060606	51.8891891892	-57.5182389937	-1.56666666667
328	0.164	-10.6333333333	50.4778378378	-60.3301886792	2.77878787879
329	0.1645	-9.20757575758	56.1232432432	-53.3003144654	1.3303030303
330	0.165	-9.20757575758	49.0664864865	-60.3301886792	-0.118181818182
331	0.1655	-3.50454545455	56.1232432432	-57.5182389937	1.3303030303
332	0.166	-2.07878787879	44.8324324324	-58.9242138365	-3.01515151515
333	0.1665	-9.20757575758	40.5983783784	-58.9242138365	-0.118181818182
334	0.167	9.32727272727	37.7756756757	-56.1122641509	1.3303030303
335	0.1675	-9.20757575758	37.7756756757	-49.0823899371	1.3303030303
336	0.168	0.772727272727	30.7189189189	-57.5182389937	-0.118181818182
337	0.1685	3.62424242424	27.8962162162	-43.458490566	-4.46363636364
338	0.169	3.62424242424	23.6621621622	-47.6764150943	-3.01515151515
339	0.1695	5.05	9.54864864865	-42.0525157233	4.22727272727
340	0.17	3.62424242424	18.0167567568	-44.8644654088	2.77878787879
341	0.1705	-2.07878787879	15.1940540541	-47.6764150943	1.3303030303
342	0.171	-7.78181818182	8.1372972973	-46.2704402516	4.22727272727
343	0.1715	22.1590909091	8.1372972973	-46.2704402516	-1.56666666667
344	0.172	3.62424242424	9.54864864865	-44.8644654088	14.3666666667
345	0.1725	9.32727272727	8.1372972973	-57.5182389937	-0.118181818182
346	0.173	7.90151515152	6.72594594595	-39.2405660377	-0.118181818182
347	0.1735	9.32727272727	3.90324324324	-36.4286163522	1.3303030303
348	0.174	5.05	9.54864864865	-51.8943396226	1.3303030303
349	0.1745	9.32727272727	22.2508108108	-57.5182389937	-1.56666666667
350	0.175	10.753030303	5.31459459459	-57.5182389937	-0.118181818182
351	0.1755	12.1787878788	5.31459459459	-63.1421383648	1.3303030303
352	0.176	2.19848484848	6.72594594595	-60.3301886792	1.3303030303
353	0.1765	7.90151515152	3.90324324324	-57.5182389937	-7.36060606061
354	0.177	7.90151515152	1.08054054054	-58.9242138365	-1.56666666667
355	0.1775	9.32727272727	2.49189189189	-40.6465408805	-0.118181818182
356	0.178	9.32727272727	-3.15351351351	-60.3301886792	2.77878787879
357	0.1785	7.90151515152	-5.97621621622	-51.8943396226	1.3303030303
358	0.179	2.19848484848	-8.79891891892	-50.4883647799	-1.56666666667
359	0.1795	5.05	-4.56486486486	-46.2704402516	-0.118181818182
360	0.18	10.753030303	-5.97621621622	-46.2704402516	-0.118181818182
361	0.1805	20.7333333333	-1.74216216216	-40.6465408805	-0.118181818182
362	0.181	-7.78181818182	-4.56486486486	-32.2106918239	-4.46363636364
363	0.1815	2.19848484848	-5.97621621622	-12.5270440252	-3.01515151515
364	0.182	3.62424242424	-5.97621621622	-2.68522012579	-0.118181818182
365	0.1825	2.19848484848	-4.56486486486	-18.1509433962	-1.56666666667
366	0.183	2.19848484848	-1.74216216216	-13.9330188679	-0.118181818182
367	0.1835	0.772727272727	-17.267027027	-5.49716981132	-4.46363636364
368	0.184	0.772727272727	-10.2102702703	-4.09119496855	1.3303030303
369	0.1845	-7.78181818182	-5.97621621622	-1.27924528302	-1.56666666667
370	0.185	-7.78181818182	-4.56486486486	1.53270440252	-0.118181818182
371	0.1855	2.19848484848	-8.79891891892	2.93867924528	-1.56666666667
372	0.186	0.772727272727	-7.38756756757	8.56257861635	-1.56666666667
373	0.1865	0.772727272727	-8.79891891892	-6.90314465409	-3.01515151515
374	0.187	0.772727272727	-5.97621621622	5.75062893082	-0.118181818182
375	0.1875	0.772727272727	-18.6783783784	5.75062893082	-3.01515151515
376	0.188	2.19848484848	6.72594594595	7.15660377358	-0.118181818182
377	0.1885	-0.65303030303	-14.4443243243	7.15660377358	-1.56666666667
378	0.189	2.19848484848	-10.2102702703	11.3745283019	-3.01515151515
379	0.1895	-9.20757575758	-7.38756756757	14.1864779874	-7.36060606061
380	0.19	-2.07878787879	-10.2102702703	14.1864779874	-7.36060606061
381	0.1905	-0.65303030303	-8.79891891892	15.5924528302	15.8151515152
382	0.191	-0.65303030303	-7.38756756757	16.998427673	-3.01515151515
383	0.1915	0.772727272727	-7.38756756757	14.1864779874	-3.01515151515
384	0.192	0.772727272727	-15.8556756757	11.3745283019	-1.56666666667
385	0.1925	-2.07878787879	-8.79891891892	8.56257861635	-5.91212121212
386	0.193	-3.50454545455	-8.79891891892	11.3745283019	-3.01515151515
387	0.1935	-2.07878787879	-13.032972973	12.7805031447	-3.01515151515
388	0.194	-0.65303030303	-11.6216216216	8.56257861635	-0.118181818182
389	0.1945	-2.07878787879	-13.032972973	4.34465408805	10.0212121212
390	0.195	-2.07878787879	-8.79891891892	1.53270440252	10.0212121212
391	0.1955	-3.50454545455	-7.38756756757	-8.30911949686	-0.118181818182
392	0.196	-2.07878787879	-10.2102702703	2.93867924528	1.3303030303
393	0.1965	-4.9303030303	-18.6783783784	2.93867924528	-0.118181818182
394	0.197	0.772727272727	8.1372972973	2.93867924528	-0.118181818182
395	0.1975	-4.9303030303	-8.79891891892	5.75062893082	-5.91212121212
396	0.198	15.0303030303	-8.79891891892	7.15660377358	-3.01515151515
397	0.1985	19.3075757576	-8.79891891892	12.7805031447	-7.36060606061
398	0.199	-6.35606060606	-8.79891891892	14.1864779874	-1.56666666667
399	0.1995	0.772727272727	-8.79891891892	12.7805031447	11.4696969697
400	0.2	-0.65303030303	-8.79891891892	21.2163522013	-0.118181818182
401	0.2005	0.772727272727	-10.2102702703	8.56257861635	-1.56666666667
402	0.201	0.772727272727	-17.267027027	16.998427673	-1.56666666667
403	0.2015	-0.65303030303	-13.032972973	14.1864779874	-3.01515151515
404	0.202	3.62424242424	-10.2102702703	15.5924528302	-1.56666666667
405	0.2025	0.772727272727	-10.2102702703	15.5924528302	-3.01515151515
406	0.203	-0.65303030303	-7.38756756757	15.5924528302	4.22727272727
407	0.2035	-0.65303030303	-8.79891891892	16.998427673	-8.80909090909
408	0.204	2.19848484848	-8.79891891892	14.1864779874	-5.91212121212
409	0.2045	0.772727272727	-8.79891891892	32.4641509434	-0.118181818182
410	0.205	-0.65303030303	-8.79891891892	18.4044025157	-1.56666666667
411	0.2055	2.19848484848	-10.2102702703	19.8103773585	-3.01515151515
412	0.206	-0.65303030303	-14.4443243243	18.4044025157	-5.91212121212
413	0.2065	-0.65303030303	-10.2102702703	19.8103773585	-3.01515151515
414	0.207	-4.9303030303	-10.2102702703	18.4044025157	-3.01515151515
415	0.2075	-3.50454545455	-13.032972973	18.4044025157	-1.56666666667
416	0.208	-0.65303030303	-10.2102702703	18.4044025157	5.67575757576
417	0.2085	-0.65303030303	-7.38756756757	21.2163522013	10.0212121212
418	0.209	-2.07878787879	-10.2102702703	15.5924528302	-1.56666666667
419	0.2095	-0.65303030303	-11.6216216216	25.4342767296	-0.118181818182
420	0.21	0.772727272727	-22.9124324324	22.622327044	-3.01515151515
421	0.2105	0.772727272727	2.49189189189	22.622327044	-3.01515151515
422	0.211	-0.65303030303	-18.6783783784	22.622327044	-0.118181818182
423	0.2115	16.4560606061	-13.032972973	22.622327044	-1.56666666667
424	0.212	-10.6333333333	-15.8556756757	19.8103773585	4.22727272727
425	0.2125	-2.07878787879	-15.8556756757	21.2163522013	-8.80909090909
426	0.213	0.772727272727	-15.8556756757	7.15660377358	-0.118181818182
427	0.2135	0.772727272727	-13.032972973	22.622327044	-1.56666666667
428	0.214	0.772727272727	-14.4443243243	12.7805031447	-4.46363636364
429	0.2145	0.772727272727	-25.7351351351	14.1864779874	-3.01515151515
430	0.215	-0.65303030303	-4.56486486486	7.15660377358	-3.01515151515
431	0.2155	2.19848484848	-13.032972973	11.3745283019	-0.118181818182
432	0.216	17.8818181818	-8.79891891892	14.1864779874	-0.118181818182
433	0.2165	-6.35606060606	-10.2102702703	14.1864779874	-0.118181818182
434	0.217	-0.65303030303	-13.032972973	16.998427673	-14.603030303
435	0.2175	-0.65303030303	-10.2102702703	26.8402515723	-1.56666666667
436	0.218	-0.65303030303	-11.6216216216	19.8103773585	-0.118181818182
437	0.2185	-0.65303030303	-11.6216216216	22.622327044	-1.56666666667
438	0.219	-0.65303030303	3.90324324324	22.622327044	-0.118181818182
439	0.2195	-0.65303030303	2.49189189189	26.8402515723	2.77878787879
440	0.22	-9.20757575758	-11.6216216216	26.8402515723	-1.56666666667
441	0.2205	17.8818181818	-11.6216216216	25.4342767296	-0.118181818182
442	0.221	-6.35606060606	-11.6216216216	26.8402515723	-0.118181818182
443	0.2215	0.772727272727	-10.2102702703	25.4342767296	15.8151515152
444	0.222	-0.65303030303	-11.6216216216	29.6522012579	-7.36060606061
445	0.2225	-3.50454545455	-13.032972973	24.0283018868	-7.36060606061
446	0.223	-2.07878787879	-15.8556756757	28.2462264151	-3.01515151515
447	0.2235	-2.07878787879	-13.032972973	28.2462264151	-4.46363636364
448	0.224	-0.65303030303	-13.032972973	25.4342767296	-1.56666666667
449	0.2245	-10.6333333333	-11.6216216216	26.8402515723	-5.91212121212
450	0.225	17.8818181818	-13.032972973	24.0283018868	-8.80909090909
451	0.2255	-0.65303030303	-10.2102702703	22.622327044	8.57272727273
452	0.226	0.772727272727	-13.032972973	15.5924528302	-5.91212121212
453	0.2265	0.772727272727	-14.4443243243	19.8103773585	-0.118181818182
454	0.227	0.772727272727	-13.032972973	28.2462264151	-0.118181818182
455	0.2275	-0.65303030303	-20.0897297297	26.8402515723	-0.118181818182
456	0.228	-3.50454545455	-21.5010810811	26.8402515723	-3.01515151515
457	0.2285	-3.50454545455	-11.6216216216	25.4342767296	-1.56666666667
458	0.229	-13.4848484848	-14.4443243243	22.622327044	-4.46363636364
459	0.2295	-2.07878787879	-11.6216216216	24.0283018868	1.3303030303
460	0.23	-4.9303030303	-13.032972973	25.4342767296	12.9181818182
461	0.2305	-2.07878787879	-13.032972973	12.7805031447	-3.01515151515
462	0.231	-0.65303030303	-10.2102702703	12.7805031447	-7.36060606061
463	0.2315	-3.50454545455	-10.2102702703	4.34465408805	-4.46363636364
464	0.232	-2.07878787879	-10.2102702703	7.15660377358	-1.56666666667
465	0.2325	-3.50454545455	-8.79891891892	-1.27924528302	-0.118181818182
466	0.233	3.62424242424	-10.2102702703	0.126729559748	-3.01515151515
467	0.2335	5.05	-7.38756756757	-1.27924528302	-13.1545454545
468	0.234	-3.50454545455	-5.97621621622	-1.27924528302	14.3666666667
469	0.2345	-0.65303030303	-5.97621621622	4.34465408805	12.9181818182
470	0.235	0.772727272727	-5.97621621622	-6.90314465409	-0.118181818182
471	0.2355	0.772727272727	-4.56486486486	1.53270440252	-3.01515151515
472	0.236	-0.65303030303	-14.4443243243	4.34465408805	1.3303030303
473	0.2365	-2.07878787879	6.72594594595	7.15660377358	-0.118181818182
474	0.237	-2.07878787879	-7.38756756757	2.93867924528	-1.56666666667
475	0.2375	0.772727272727	-3.15351351351	4.34465408805	1.3303030303
476	0.238	-6.35606060606	-4.56486486486	1.53270440252	1.3303030303
477	0.2385	-4.9303030303	-4.56486486486	-1.27924528302	1.3303030303
478	0.239	0.772727272727	-1.74216216216	-2.68522012579	-13.1545454545
479	0.2395	0.772727272727	-1.74216216216	-6.90314465409	-8.80909090909
480	0.24	-2.07878787879	-5.97621621622	-4.09119496855	-1.56666666667
481	0.2405	2.19848484848	-3.15351351351	-5.49716981132	-1.56666666667
482	0.241	-0.65303030303	1.08054054054	-1.27924528302	-0.118181818182
483	0.2415	-2.07878787879	-10.2102702703	-4.09119496855	-4.46363636364
484	0.242	-2.07878787879	-3.15351351351	-2.68522012579	-1.56666666667
485	0.2425	2.19848484848	-3.15351351351	-1.27924528302	-11.7060606061
486	0.243	-2.07878787879	-1.74216216216	-2.68522012579	17.2636363636
487	0.2435	-2.07878787879	1.08054054054	2.93867924528	-0.118181818182
488	0.244	-0.65303030303	1.08054054054	-5.49716981132	-1.56666666667
489	0.2445	-4.9303030303	1.08054054054	24.0283018868	-0.118181818182
490	0.245	-3.50454545455	-5.97621621622	7.15660377358	-4.46363636364
491	0.2455	-3.50454545455	9.54864864865	8.56257861635	-1.56666666667
492	0.246	-4.9303030303	-10.2102702703	15.5924528302	-0.118181818182
493	0.2465	0.772727272727	1.08054054054	21.2163522013	-1.56666666667
494	0.247	-12.0590909091	1.08054054054	24.0283018868	-3.01515151515
495	0.2475	-2.07878787879	1.08054054054	25.4342767296	-0.118181818182
496	0.248	0.772727272727	1.08054054054	28.2462264151	10.0212121212
497	0.2485	-2.07878787879	1.08054054054	18.4044025157	-3.01515151515
498	0.249	0.772727272727	1.08054054054	28.2462264151	-0.118181818182
499	0.2495	0.772727272727	1.08054054054	40.9	-4.46363636364
500	0.25	-0.65303030303	1.08054054054	19.8103773585	-4.46363636364
501	0.2505	-3.50454545455	3.90324324324	18.4044025157	-0.118181818182
502	0.251	5.05	1.08054054054	19.8103773585	1.3303030303
503	0.2515	15.0303030303	2.49189189189	15.5924528302	4.22727272727
504	0.252	-4.9303030303	1.08054054054	16.998427673	-1.56666666667
505	0.2525	-0.65303030303	2.49189189189	12.7805031447	17.2636363636
506	0.253	-2.07878787879	-0.330810810811	19.8103773585	-0.118181818182
507	0.2535	-2.07878787879	-1.74216216216	8.56257861635	-0.118181818182
508	0.254	-3.50454545455	-0.330810810811	15.5924528302	-0.118181818182
509	0.2545	-2.07878787879	-5.97621621622	7.15660377358	1.3303030303
510	0.255	-2.07878787879	9.54864864865	11.3745283019	1.3303030303
511	0.2555	0.772727272727	-4.56486486486	11.3745283019	-1.56666666667
512	0.256	10.753030303	-3.15351351351	5.75062893082	-0.118181818182
513	0.2565	0.772727272727	-3.15351351351	4.34465408805	-3.01515151515
514	0.257	-2.07878787879	-3.15351351351	4.34465408805	10.0212121212
515	0.2575	-2.07878787879	-4.56486486486	-8.30911949686	-3.01515151515
516	0.258	-2.07878787879	-0.330810810811	4.34465408805	-7.36060606061
517	0.2585	-0.65303030303	-4.56486486486	11.3745283019	-3.01515151515
518	0.259	-0.65303030303	-14.4443243243	8.56257861635	-1.56666666667
519	0.2595	0.772727272727	16.6054054054	5.75062893082	-1.56666666667
520	0.26	-9.20757575758	-3.15351351351	9.96855345912	-1.56666666667
521	0.2605	16.4560606061	-3.15351351351	4.34465408805	-0.118181818182
522	0.261	19.3075757576	-3.15351351351	7.15660377358	1.3303030303
523	0.2615	0.772727272727	-1.74216216216	7.15660377358	-0.118181818182
524	0.262	-2.07878787879	2.49189189189	-2.68522012579	-1.56666666667
525	0.2625	-3.50454545455	1.08054054054	24.0283018868	1.3303030303
526	0.263	-2.07878787879	1.08054054054	-1.27924528302	-1.56666666667
527	0.2635	-0.65303030303	13.7827027027	5.75062893082	-1.56666666667
528	0.264	-0.65303030303	-11.6216216216	8.56257861635	-3.01515151515
529	0.2645	-2.07878787879	1.08054054054	4.34465408805	-4.46363636364
530	0.265	-10.6333333333	1.08054054054	2.93867924528	-4.46363636364
531	0.2655	17.8818181818	-3.15351351351	5.75062893082	-0.118181818182
532	0.266	0.772727272727	-1.74216216216	2.93867924528	-8.80909090909
533	0.2665	-2.07878787879	-3.15351351351	14.1864779874	-3.01515151515
534	0.267	-0.65303030303	-0.330810810811	19.8103773585	-4.46363636364
535	0.2675	-0.65303030303	-4.56486486486	-1.27924528302	-0.118181818182
536	0.268	-0.65303030303	-5.97621621622	7.15660377358	-0.118181818182
537	0.2685	-0.65303030303	-4.56486486486	5.75062893082	-0.118181818182
538	0.269	-0.65303030303	1.08054054054	8.56257861635	2.77878787879
539	0.2695	-9.20757575758	-0.330810810811	12.7805031447	-1.56666666667
540	0.27	15.0303030303	-1.74216216216	18.4044025157	1.3303030303
541	0.2705	-3.50454545455	-0.330810810811	21.2163522013	1.3303030303
542	0.271	-2.07878787879	-1.74216216216	12.7805031447	-4.46363636364
543	0.2715	-4.9303030303	-1.74216216216	36.6820754717	-0.118181818182
544	0.272	-4.9303030303	-4.56486486486	24.0283018868	-0.118181818182
545	0.2725	0.772727272727	-10.2102702703	36.6820754717	-3.01515151515
546	0.273	-2.07878787879	-3.15351351351	42.3059748428	-7.36060606061
547	0.2735	0.772727272727	-0.330810810811	43.7119496855	-3.01515151515
548	0.274	-7.78181818182	-0.330810810811	47.9298742138	-1.56666666667
549	0.2745	15.0303030303	-1.74216216216	46.5238993711	-3.01515151515
550	0.275	-4.9303030303	-1.74216216216	47.9298742138	-7.36060606061
551	0.2755	-3.50454545455	-3.15351351351	33.8701257862	-4.46363636364
552	0.276	-2.07878787879	-1.74216216216	29.6522012579	-1.56666666667
553	0.2765	-4.9303030303	-11.6216216216	29.6522012579	-1.56666666667
554	0.277	0.772727272727	-15.8556756757	25.4342767296	-0.118181818182
555	0.2775	-2.07878787879	8.1372972973	24.0283018868	-0.118181818182
556	0.278	-4.9303030303	-5.97621621622	26.8402515723	-0.118181818182
557	0.2785	16.4560606061	-5.97621621622	25.4342767296	-0.118181818182
558	0.279	-6.35606060606	-4.56486486486	25.4342767296	5.67575757576
559	0.2795	-2.07878787879	-4.56486486486	24.0283018868	-8.80909090909
560	0.28	-3.50454545455	-4.56486486486	31.0581761006	-8.80909090909
561	0.2805	-4.9303030303	-5.97621621622	38.0880503145	-3.01515151515
562	0.281	-4.9303030303	-5.97621621622	50.7418238994	-4.46363636364
563	0.2815	-3.50454545455	-14.4443243243	38.0880503145	-5.91212121212
564	0.282	-0.65303030303	8.1372972973	35.2761006289	-1.56666666667
565	0.2825	-2.07878787879	-8.79891891892	32.4641509434	-4.46363636364
566	0.283	0.772727272727	-10.2102702703	29.6522012579	-1.56666666667
567	0.2835	13.6045454545	-8.79891891892	24.0283018868	-1.56666666667
568	0.284	-4.9303030303	-8.79891891892	16.998427673	-5.91212121212
569	0.2845	-0.65303030303	-5.97621621622	25.4342767296	-0.118181818182
570	0.285	-4.9303030303	-7.38756756757	22.622327044	-0.118181818182
571	0.2855	-6.35606060606	-5.97621621622	14.1864779874	-0.118181818182
572	0.286	-2.07878787879	-3.15351351351	5.75062893082	1.3303030303
573	0.2865	-3.50454545455	-10.2102702703	5.75062893082	-3.01515151515
574	0.287	0.772727272727	-7.38756756757	12.7805031447	1.3303030303
575	0.2875	-3.50454545455	-8.79891891892	15.5924528302	1.3303030303
576	0.288	-6.35606060606	-4.56486486486	19.8103773585	15.8151515152
577	0.2885	-4.9303030303	-5.97621621622	19.8103773585	-10.2575757576
578	0.289	-3.50454545455	-5.97621621622	12.7805031447	-0.118181818182
579	0.2895	-0.65303030303	-5.97621621622	36.6820754717	-4.46363636364
580	0.29	-3.50454545455	-10.2102702703	14.1864779874	-3.01515151515
581	0.2905	0.772727272727	3.90324324324	22.622327044	-1.56666666667
582	0.291	-4.9303030303	-10.2102702703	21.2163522013	-0.118181818182
583	0.2915	-4.9303030303	-5.97621621622	18.4044025157	-3.01515151515
584	0.292	-10.6333333333	-5.97621621622	18.4044025157	-1.56666666667
585	0.2925	19.3075757576	-4.56486486486	16.998427673	1.3303030303
586	0.293	0.772727272727	-1.74216216216	22.622327044	2.77878787879
587	0.2935	-0.65303030303	-4.56486486486	18.4044025157	-1.56666666667
588	0.294	-0.65303030303	-5.97621621622	36.6820754717	1.3303030303
589	0.2945	-0.65303030303	-8.79891891892	25.4342767296	-3.01515151515
590	0.295	-2.07878787879	-3.15351351351	32.4641509434	-3.01515151515
591	0.2955	-0.65303030303	-17.267027027	24.0283018868	-1.56666666667
592	0.296	-3.50454545455	-14.4443243243	19.8103773585	1.3303030303
593	0.2965	16.4560606061	-7.38756756757	19.8103773585	1.3303030303
594	0.297	-10.6333333333	-8.79891891892	14.1864779874	1.3303030303
595	0.2975	-0.65303030303	-10.2102702703	8.56257861635	-11.7060606061
596	0.298	-4.9303030303	-10.2102702703	14.1864779874	-8.80909090909
597	0.2985	-3.50454545455	-10.2102702703	15.5924528302	-3.01515151515
598	0.299	0.772727272727	-4.56486486486	18.4044025157	-3.01515151515
599	0.2995	-0.65303030303	-10.2102702703	7.15660377358	-3.01515151515
600	0.3	-4.9303030303	9.54864864865	8.56257861635	-1.56666666667
601	0.3005	-0.65303030303	-7.38756756757	7.15660377358	-1.56666666667
602	0.301	9.32727272727	-10.2102702703	12.7805031447	2.77878787879
603	0.3015	-12.0590909091	-10.2102702703	15.5924528302	-1.56666666667
604	0.302	0.772727272727	-10.2102702703	1.53270440252	-0.118181818182
605	0.3025	-2.07878787879	-8.79891891892	26.8402515723	-3.01515151515
606	0.303	-0.65303030303	-11.6216216216	8.56257861635	-1.56666666667
607	0.3035	-2.07878787879	-3.15351351351	4.34465408805	-1.56666666667
608	0.304	0.772727272727	-14.4443243243	-5.49716981132	1.3303030303
609	0.3045	-4.9303030303	-8.79891891892	-6.90314465409	-1.56666666667
610	0.305	-4.9303030303	-10.2102702703	-5.49716981132	-0.118181818182
611	0.3055	16.4560606061	-10.2102702703	1.53270440252	-1.56666666667
612	0.306	-2.07878787879	-11.6216216216	7.15660377358	1.3303030303
613	0.3065	-0.65303030303	-10.2102702703	1.53270440252	-5.91212121212
614	0.307	-2.07878787879	-11.6216216216	9.96855345912	-11.7060606061
615	0.3075	-2.07878787879	-10.2102702703	21.2163522013	-3.01515151515
616	0.308	0.772727272727	-10.2102702703	26.8402515723	-1.56666666667
617	0.3085	-0.65303030303	-5.97621621622	26.8402515723	-1.56666666667
618	0.309	-3.50454545455	-7.38756756757	29.6522012579	-1.56666666667
619	0.3095	-3.50454545455	-7.38756756757	26.8402515723	-1.56666666667
620	0.31	15.0303030303	-7.38756756757	29.6522012579	2.77878787879
621	0.3105	-10.6333333333	-4.56486486486	31.0581761006	-5.91212121212
622	0.311	-3.50454545455	-4.56486486486	19.8103773585	-3.01515151515
623	0.3115	-0.65303030303	-1.74216216216	35.2761006289	-1.56666666667
624	0.312	-3.50454545455	-4.56486486486	8.56257861635	-0.118181818182
625	0.3125	-0.65303030303	-3.15351351351	12.7805031447	-0.118181818182
626	0.313	-2.07878787879	12.3713513514	14.1864779874	-3.01515151515
627	0.3135	-4.9303030303	-13.032972973	11.3745283019	-3.01515151515
628	0.314	-10.6333333333	-7.38756756757	8.56257861635	-4.46363636364
629	0.3145	-13.4848484848	-8.79891891892	7.15660377358	-4.46363636364
630	0.315	13.6045454545	-7.38756756757	5.75062893082	-1.56666666667
631	0.3155	-2.07878787879	-8.79891891892	4.34465408805	1.3303030303
632	0.316	-0.65303030303	-7.38756756757	1.53270440252	17.2636363636
633	0.3165	-0.65303030303	-7.38756756757	-5.49716981132	-11.7060606061
634	0.317	-0.65303030303	-4.56486486486	2.93867924528	-1.56666666667
635	0.3175	0.772727272727	-15.8556756757	-4.09119496855	-0.118181818182
636	0.318	2.19848484848	8.1372972973	-1.27924528302	-1.56666666667
637	0.3185	0.772727272727	-10.2102702703	1.53270440252	1.3303030303
638	0.319	-0.65303030303	-8.79891891892	5.75062893082	-0.118181818182
639	0.3195	19.3075757576	-7.38756756757	8.56257861635	-0.118181818182
640	0.32	-9.20757575758	-7.38756756757	16.998427673	-0.118181818182
641	0.3205	-0.65303030303	-10.2102702703	21.2163522013	-8.80909090909
642	0.321	-0.65303030303	-3.15351351351	42.3059748428	1.3303030303
643	0.3215	-0.65303030303	-5.97621621622	33.8701257862	-1.56666666667
644	0.322	-2.07878787879	-5.97621621622	24.0283018868	1.3303030303
645	0.3225	-0.65303030303	-8.79891891892	21.2163522013	-3.01515151515
646	0.323	0.772727272727	-0.330810810811	18.4044025157	-1.56666666667
647	0.3235	2.19848484848	-7.38756756757	15.5924528302	-3.01515151515
648	0.324	-2.07878787879	-5.97621621622	14.1864779874	-0.118181818182
649	0.3245	-7.78181818182	-4.56486486486	11.3745283019	-13.1545454545
650	0.325	0.772727272727	-3.15351351351	2.93867924528	5.67575757576
651	0.3255	-3.50454545455	-4.56486486486	1.53270440252	10.0212121212
652	0.326	0.772727272727	-3.15351351351	-13.9330188679	1.3303030303
653	0.3265	-3.50454545455	-4.56486486486	-5.49716981132	1.3303030303
654	0.327	-0.65303030303	-1.74216216216	-6.90314465409	1.3303030303
655	0.3275	-0.65303030303	-10.2102702703	-4.09119496855	-0.118181818182
656	0.328	-2.07878787879	15.1940540541	-1.27924528302	1.3303030303
657	0.3285	-9.20757575758	-1.74216216216	0.126729559748	4.22727272727
658	0.329	12.1787878788	-0.330810810811	2.93867924528	4.22727272727
659	0.3295	-0.65303030303	-1.74216216216	5.75062893082	-0.118181818182
660	0.33	-3.50454545455	1.08054054054	5.75062893082	-4.46363636364
661	0.3305	-2.07878787879	-5.97621621622	0.126729559748	-5.91212121212
662	0.331	-3.50454545455	-4.56486486486	24.0283018868	-4.46363636364
663	0.3315	-3.50454545455	-1.74216216216	12.7805031447	-4.46363636364
664	0.332	0.772727272727	-0.330810810811	14.1864779874	-1.56666666667
665	0.3325	-3.50454545455	-7.38756756757	15.5924528302	-3.01515151515
666	0.333	-3.50454545455	-1.74216216216	12.7805031447	-3.01515151515
667	0.3335	-3.50454545455	-3.15351351351	14.1864779874	-3.01515151515
668	0.334	-4.9303030303	-1.74216216216	14.1864779874	14.3666666667
669	0.3345	-2.07878787879	-0.330810810811	16.998427673	-5.91212121212
670	0.335	-0.65303030303	1.08054054054	4.34465408805	-0.118181818182
671	0.3355	0.772727272727	1.08054054054	16.998427673	-1.56666666667
672	0.336	-3.50454545455	-3.15351351351	11.3745283019	-3.01515151515
673	0.3365	-4.9303030303	1.08054054054	12.7805031447	-0.118181818182
674	0.337	-3.50454545455	2.49189189189	15.5924528302	4.22727272727
675	0.3375	0.772727272727	-1.74216216216	22.622327044	2.77878787879
676	0.338	-10.6333333333	-3.15351351351	32.4641509434	1.3303030303
677	0.3385	5.05	-4.56486486486	43.7119496855	-5.91212121212
678	0.339	-2.07878787879	-3.15351351351	49.3358490566	-8.80909090909
679	0.3395	-0.65303030303	-4.56486486486	50.7418238994	5.67575757576
680	0.34	-3.50454545455	-1.74216216216	47.9298742138	-0.118181818182
681	0.3405	-2.07878787879	-4.56486486486	50.7418238994	-1.56666666667
682	0.341	0.772727272727	-5.97621621622	43.7119496855	-3.01515151515
683	0.3415	-2.07878787879	-7.38756756757	43.7119496855	-0.118181818182
684	0.342	2.19848484848	-3.15351351351	38.0880503145	-0.118181818182
685	0.3425	-6.35606060606	-4.56486486486	35.2761006289	-0.118181818182
686	0.343	-4.9303030303	-3.15351351351	26.8402515723	20.1606060606
687	0.3435	-2.07878787879	-1.74216216216	16.998427673	-7.36060606061
688	0.344	-0.65303030303	-1.74216216216	29.6522012579	-1.56666666667
689	0.3445	-2.07878787879	-0.330810810811	4.34465408805	1.3303030303
690	0.345	-3.50454545455	2.49189189189	8.56257861635	-0.118181818182
691	0.3455	-4.9303030303	-13.032972973	11.3745283019	-1.56666666667
692	0.346	-2.07878787879	-0.330810810811	12.7805031447	-0.118181818182
693	0.3465	-13.4848484848	-3.15351351351	14.1864779874	-1.56666666667
694	0.347	17.8818181818	1.08054054054	11.3745283019	-0.118181818182
695	0.3475	9.32727272727	-1.74216216216	15.5924528302	-10.2575757576
696	0.348	-2.07878787879	-1.74216216216	5.75062893082	-3.01515151515
697	0.3485	-2.07878787879	-1.74216216216	32.4641509434	-4.46363636364
698	0.349	-0.65303030303	-4.56486486486	21.2163522013	-0.118181818182
699	0.3495	-3.50454545455	1.08054054054	18.4044025157	-1.56666666667
700	0.35	-0.65303030303	-13.032972973	19.8103773585	-4.46363636364
701	0.3505	-3.50454545455	-10.2102702703	21.2163522013	-1.56666666667
702	0.351	-16.3363636364	-5.97621621622	18.4044025157	-0.118181818182
703	0.3515	-4.9303030303	-1.74216216216	19.8103773585	1.3303030303
704	0.352	-6.35606060606	-1.74216216216	16.998427673	-11.7060606061
705	0.3525	-3.50454545455	-3.15351351351	16.998427673	17.2636363636
706	0.353	-4.9303030303	-3.15351351351	18.4044025157	1.3303030303
707	0.3535	-4.9303030303	-0.330810810811	1.53270440252	-0.118181818182
708	0.354	-3.50454545455	-4.56486486486	7.15660377358	-0.118181818182
709	0.3545	-2.07878787879	5.31459459459	16.998427673	2.77878787879
710	0.355	-4.9303030303	-8.79891891892	15.5924528302	1.3303030303
711	0.3555	-9.20757575758	1.08054054054	16.998427673	-3.01515151515
712	0.356	2.19848484848	2.49189189189	21.2163522013	-10.2575757576
713	0.3565	-4.9303030303	1.08054054054	21.2163522013	1.3303030303
714	0.357	-2.07878787879	5.31459459459	21.2163522013	10.0212121212
715	0.3575	-3.50454545455	3.90324324324	18.4044025157	-0.118181818182
716	0.358	-2.07878787879	1.08054054054	16.998427673	-4.46363636364
717	0.3585	-3.50454545455	-0.330810810811	15.5924528302	-3.01515151515
718	0.359	-4.9303030303	22.2508108108	16.998427673	-1.56666666667
719	0.3595	-2.07878787879	16.6054054054	19.8103773585	-3.01515151515
720	0.36	-12.0590909091	2.49189189189	21.2163522013	-0.118181818182
721	0.3605	15.0303030303	1.08054054054	18.4044025157	-7.36060606061
722	0.361	-4.9303030303	1.08054054054	19.8103773585	18.7121212121
723	0.3615	-0.65303030303	1.08054054054	24.0283018868	-1.56666666667
724	0.362	-3.50454545455	5.31459459459	16.998427673	-3.01515151515
725	0.3625	-2.07878787879	5.31459459459	19.8103773585	-1.56666666667
726	0.363	-2.07878787879	-3.15351351351	25.4342767296	1.3303030303
727	0.3635	-3.50454545455	-0.330810810811	24.0283018868	-0.118181818182
728	0.364	0.772727272727	-1.74216216216	25.4342767296	-1.56666666667
729	0.3645	0.772727272727	2.49189189189	25.4342767296	-0.118181818182
730	0.365	-6.35606060606	5.31459459459	21.2163522013	-3.01515151515
731	0.3655	-10.6333333333	6.72594594595	26.8402515723	-5.91212121212
732	0.366	-0.65303030303	5.31459459459	40.9	-1.56666666667
733	0.3665	-3.50454545455	2.49189189189	25.4342767296	-1.56666666667
734	0.367	-3.50454545455	3.90324324324	35.2761006289	-3.01515151515
735	0.3675	-2.07878787879	-7.38756756757	38.0880503145	-1.56666666667
736	0.368	-2.07878787879	2.49189189189	38.0880503145	1.3303030303
737	0.3685	-9.20757575758	6.72594594595	33.8701257862	-0.118181818182
738	0.369	16.4560606061	3.90324324324	36.6820754717	2.77878787879
739	0.3695	2.19848484848	9.54864864865	39.4940251572	-10.2575757576
740	0.37	-4.9303030303	3.90324324324	38.0880503145	2.77878787879
741	0.3705	-2.07878787879	5.31459459459	40.9	2.77878787879
742	0.371	-4.9303030303	8.1372972973	33.8701257862	-0.118181818182
743	0.3715	-4.9303030303	3.90324324324	32.4641509434	-3.01515151515
744	0.372	-2.07878787879	16.6054054054	35.2761006289	-1.56666666667
745	0.3725	-3.50454545455	-4.56486486486	32.4641509434	-5.91212121212
746	0.373	-0.65303030303	3.90324324324	28.2462264151	-3.01515151515
747	0.3735	-16.3363636364	5.31459459459	21.2163522013	-3.01515151515
748	0.374	16.4560606061	2.49189189189	21.2163522013	-3.01515151515
749	0.3745	-4.9303030303	2.49189189189	4.34465408805	-7.36060606061
750	0.375	-3.50454545455	3.90324324324	32.4641509434	-5.91212121212
751	0.3755	-3.50454545455	5.31459459459	24.0283018868	-0.118181818182
752	0.376	-0.65303030303	5.31459459459	7.15660377358	-0.118181818182
753	0.3765	-2.07878787879	-7.38756756757	11.3745283019	-1.56666666667
754	0.377	0.772727272727	-4.56486486486	8.56257861635	-0.118181818182
755	0.3775	-13.4848484848	1.08054054054	7.15660377358	-0.118181818182
756	0.378	17.8818181818	-0.330810810811	7.15660377358	1.3303030303
757	0.3785	12.1787878788	-1.74216216216	7.15660377358	-4.46363636364
758	0.379	-3.50454545455	-3.15351351351	8.56257861635	14.3666666667
759	0.3795	-0.65303030303	-5.97621621622	25.4342767296	1.3303030303
760	0.38	-0.65303030303	-7.38756756757	16.998427673	-0.118181818182
761	0.3805	-0.65303030303	-0.330810810811	16.998427673	-1.56666666667
762	0.381	-0.65303030303	-10.2102702703	18.4044025157	-0.118181818182
763	0.3815	3.62424242424	6.72594594595	19.8103773585	-3.01515151515
764	0.382	-12.0590909091	-1.74216216216	25.4342767296	-1.56666666667
765	0.3825	-0.65303030303	-0.330810810811	29.6522012579	-0.118181818182
766	0.383	-7.78181818182	-4.56486486486	29.6522012579	-5.91212121212
767	0.3835	-9.20757575758	-1.74216216216	25.4342767296	-3.01515151515
768	0.384	-2.07878787879	-1.74216216216	15.5924528302	-4.46363636364
769	0.3845	-0.65303030303	2.49189189189	36.6820754717	-0.118181818182
770	0.385	-3.50454545455	2.49189189189	26.8402515723	2.77878787879
771	0.3855	-0.65303030303	6.72594594595	18.4044025157	-0.118181818182
772	0.386	0.772727272727	18.0167567568	15.5924528302	2.77878787879
773	0.3865	0.772727272727	-4.56486486486	9.96855345912	-0.118181818182
774	0.387	16.4560606061	-0.330810810811	7.15660377358	4.22727272727
775	0.3875	-7.78181818182	2.49189189189	7.15660377358	-5.91212121212
776	0.388	0.772727272727	2.49189189189	1.53270440252	-5.91212121212
777	0.3885	-2.07878787879	3.90324324324	12.7805031447	-8.80909090909
778	0.389	-0.65303030303	-0.330810810811	2.93867924528	-0.118181818182
779	0.3895	-2.07878787879	-1.74216216216	8.56257861635	-1.56666666667
780	0.39	-3.50454545455	-13.032972973	14.1864779874	-1.56666666667
781	0.3905	-2.07878787879	-4.56486486486	14.1864779874	-0.118181818182
782	0.391	0.772727272727	-1.74216216216	14.1864779874	-0.118181818182
783	0.3915	-12.0590909091	-5.97621621622	14.1864779874	-5.91212121212
784	0.392	-0.65303030303	-4.56486486486	18.4044025157	-4.46363636364
785	0.3925	-2.07878787879	-3.15351351351	22.622327044	14.3666666667
786	0.393	-3.50454545455	-4.56486486486	29.6522012579	1.3303030303
787	0.3935	-2.07878787879	-1.74216216216	45.1179245283	1.3303030303
788	0.394	0.772727272727	-4.56486486486	32.4641509434	-0.118181818182
789	0.3945	-0.65303030303	-1.74216216216	42.3059748428	2.77878787879
790	0.395	0.772727272727	-10.2102702703	45.1179245283	2.77878787879
791	0.3955	-0.65303030303	-5.97621621622	43.7119496855	-0.118181818182
792	0.396	-13.4848484848	-0.330810810811	43.7119496855	-0.118181818182
793	0.3965	-10.6333333333	1.08054054054	40.9	-3.01515151515
794	0.397	-2.07878787879	-1.74216216216	33.8701257862	-7.36060606061
795	0.3975	-0.65303030303	-0.330810810811	32.4641509434	-11.7060606061
796	0.398	0.772727272727	1.08054054054	19.8103773585	-3.01515151515
797	0.3985	-0.65303030303	2.49189189189	16.998427673	-1.56666666667
798	0.399	-0.65303030303	-10.2102702703	14.1864779874	-0.118181818182
799	0.3995	0.772727272727	18.0167567568	8.56257861635	-0.118181818182
800	0.4	0.772727272727	-5.97621621622	8.56257861635	-1.56666666667
801	0.4005	10.753030303	3.90324324324	5.75062893082	1.3303030303
802	0.401	-14.9106060606	3.90324324324	4.34465408805	-7.36060606061
803	0.4015	-6.35606060606	2.49189189189	4.34465408805	5.67575757576
804	0.402	-3.50454545455	2.49189189189	1.53270440252	17.2636363636
805	0.4025	-4.9303030303	5.31459459459	-4.09119496855	1.3303030303
806	0.403	-3.50454545455	9.54864864865	-8.30911949686	1.3303030303
807	0.4035	-3.50454545455	-5.97621621622	-2.68522012579	1.3303030303
808	0.404	-2.07878787879	13.7827027027	0.126729559748	2.77878787879
809	0.4045	-13.4848484848	5.31459459459	-1.27924528302	-0.118181818182
810	0.405	19.3075757576	3.90324324324	0.126729559748	1.3303030303
811	0.4055	-7.78181818182	8.1372972973	0.126729559748	1.3303030303
812	0.406	-3.50454545455	6.72594594595	-1.27924528302	-14.603030303
813	0.4065	-0.65303030303	5.31459459459	5.75062893082	-11.7060606061
814	0.407	0.772727272727	2.49189189189	5.75062893082	-0.118181818182
815	0.4075	0.772727272727	5.31459459459	14.1864779874	-1.56666666667
816	0.408	3.62424242424	5.31459459459	16.998427673	-4.46363636364
817	0.4085	2.19848484848	-10.2102702703	18.4044025157	-1.56666666667
818	0.409	0.772727272727	-4.56486486486	15.5924528302	2.77878787879
819	0.4095	20.7333333333	-1.74216216216	16.998427673	1.3303030303
820	0.41	-4.9303030303	1.08054054054	18.4044025157	10.0212121212
821	0.4105	-0.65303030303	-0.330810810811	16.998427673	-8.80909090909
822	0.411	-3.50454545455	1.08054054054	7.15660377358	1.3303030303
823	0.4115	-0.65303030303	2.49189189189	7.15660377358	-0.118181818182
824	0.412	-2.07878787879	-4.56486486486	-2.68522012579	2.77878787879
825	0.4125	0.772727272727	16.6054054054	-1.27924528302	-0.118181818182
826	0.413	2.19848484848	-8.79891891892	-1.27924528302	-0.118181818182
827	0.4135	12.1787878788	-1.74216216216	-6.90314465409	2.77878787879
828	0.414	-10.6333333333	-0.330810810811	-8.30911949686	-3.01515151515
829	0.4145	-3.50454545455	-0.330810810811	-11.1210691824	8.57272727273
830	0.415	-2.07878787879	-0.330810810811	-8.30911949686	-11.7060606061
831	0.4155	0.772727272727	1.08054054054	-5.49716981132	4.22727272727
832	0.416	-2.07878787879	-0.330810810811	11.3745283019	-1.56666666667
833	0.4165	0.772727272727	2.49189189189	-2.68522012579	-1.56666666667
834	0.417	0.772727272727	8.1372972973	-1.27924528302	-1.56666666667
835	0.4175	3.62424242424	2.49189189189	2.93867924528	-1.56666666667
836	0.418	-4.9303030303	2.49189189189	4.34465408805	2.77878787879
837	0.4185	7.90151515152	2.49189189189	14.1864779874	1.3303030303
838	0.419	-0.65303030303	3.90324324324	15.5924528302	-5.91212121212
839	0.4195	-0.65303030303	1.08054054054	15.5924528302	5.67575757576
840	0.42	0.772727272727	2.49189189189	31.0581761006	4.22727272727
841	0.4205	-2.07878787879	5.31459459459	4.34465408805	-0.118181818182
842	0.421	2.19848484848	1.08054054054	8.56257861635	-0.118181818182
843	0.4215	0.772727272727	2.49189189189	14.1864779874	-0.118181818182
844	0.422	0.772727272727	-0.330810810811	8.56257861635	1.3303030303
845	0.4225	-10.6333333333	1.08054054054	5.75062893082	-5.91212121212
846	0.423	10.753030303	1.08054054054	1.53270440252	-7.36060606061
847	0.4235	-4.9303030303	-0.330810810811	-2.68522012579	15.8151515152
848	0.424	-2.07878787879	-0.330810810811	-4.09119496855	-1.56666666667
849	0.4245	0.772727272727	2.49189189189	-20.9628930818	-1.56666666667
850	0.425	0.772727272727	2.49189189189	-18.1509433962	-1.56666666667
851	0.4255	0.772727272727	-4.56486486486	-15.3389937107	-0.118181818182
852	0.426	-0.65303030303	-4.56486486486	-15.3389937107	1.3303030303
853	0.4265	-4.9303030303	5.31459459459	-12.5270440252	-3.01515151515
854	0.427	19.3075757576	2.49189189189	-12.5270440252	-0.118181818182
855	0.4275	16.4560606061	6.72594594595	-9.71509433962	-5.91212121212
856	0.428	-4.9303030303	5.31459459459	-15.3389937107	14.3666666667
857	0.4285	-0.65303030303	5.31459459459	0.126729559748	1.3303030303
858	0.429	-0.65303030303	3.90324324324	-8.30911949686	-0.118181818182
859	0.4295	-2.07878787879	5.31459459459	-2.68522012579	-0.118181818182
860	0.43	-0.65303030303	19.4281081081	-2.68522012579	-0.118181818182
861	0.4305	0.772727272727	18.0167567568	-1.27924528302	-5.91212121212
862	0.431	-9.20757575758	3.90324324324	0.126729559748	-4.46363636364
863	0.4315	17.8818181818	3.90324324324	2.93867924528	-4.46363636364
864	0.432	-6.35606060606	2.49189189189	1.53270440252	15.8151515152
865	0.4325	-2.07878787879	-0.330810810811	1.53270440252	-1.56666666667
866	0.433	-2.07878787879	1.08054054054	-4.09119496855	-3.01515151515
867	0.4335	0.772727272727	-1.74216216216	0.126729559748	-0.118181818182
868	0.434	0.772727272727	-13.032972973	1.53270440252	-0.118181818182
869	0.4345	-4.9303030303	9.54864864865	-1.27924528302	-0.118181818182
870	0.435	-13.4848484848	-1.74216216216	-1.27924528302	2.77878787879
871	0.4355	17.8818181818	-0.330810810811	-8.30911949686	-0.118181818182
872	0.436	-6.35606060606	-0.330810810811	-9.71509433962	2.77878787879
873	0.4365	-3.50454545455	-1.74216216216	-13.9330188679	20.1606060606
874	0.437	-0.65303030303	-1.74216216216	-11.1210691824	-5.91212121212
875	0.4375	0.772727272727	-1.74216216216	-6.90314465409	-0.118181818182
876	0.438	0.772727272727	-4.56486486486	-6.90314465409	-0.118181818182
877	0.4385	-2.07878787879	1.08054054054	-5.49716981132	-0.118181818182
878	0.439	0.772727272727	-4.56486486486	-5.49716981132	-1.56666666667
879	0.4395	-4.9303030303	-7.38756756757	-6.90314465409	-3.01515151515
880	0.44	-2.07878787879	-1.74216216216	0.126729559748	-0.118181818182
881	0.4405	-4.9303030303	-1.74216216216	7.15660377358	-5.91212121212
882	0.441	0.772727272727	-3.15351351351	16.998427673	-3.01515151515
883	0.4415	0.772727272727	-4.56486486486	21.2163522013	-3.01515151515
884	0.442	-0.65303030303	-1.74216216216	33.8701257862	-1.56666666667
885	0.4425	0.772727272727	2.49189189189	16.998427673	1.3303030303
886	0.443	2.19848484848	18.0167567568	18.4044025157	1.3303030303
887	0.4435	0.772727272727	-10.2102702703	12.7805031447	-0.118181818182
888	0.444	-7.78181818182	-1.74216216216	8.56257861635	-3.01515151515
889	0.4445	20.7333333333	-3.15351351351	4.34465408805	5.67575757576
890	0.445	-6.35606060606	1.08054054054	4.34465408805	1.3303030303
891	0.4455	3.62424242424	-0.330810810811	-4.09119496855	-8.80909090909
892	0.446	2.19848484848	-0.330810810811	-2.68522012579	-7.36060606061
893	0.4465	0.772727272727	-1.74216216216	-9.71509433962	-0.118181818182
894	0.447	-0.65303030303	5.31459459459	-8.30911949686	-0.118181818182
895	0.4475	0.772727272727	-8.79891891892	-4.09119496855	-4.46363636364
896	0.448	-0.65303030303	-5.97621621622	-4.09119496855	-4.46363636364
897	0.4485	-7.78181818182	1.08054054054	1.53270440252	-3.01515151515
898	0.449	17.8818181818	-0.330810810811	-1.27924528302	4.22727272727
899	0.4495	-7.78181818182	1.08054054054	0.126729559748	-11.7060606061
900	0.45	0.772727272727	2.49189189189	0.126729559748	-5.91212121212
901	0.4505	0.772727272727	-0.330810810811	2.93867924528	-3.01515151515
902	0.451	-0.65303030303	-1.74216216216	-1.27924528302	-0.118181818182
903	0.4515	0.772727272727	-1.74216216216	-4.09119496855	-1.56666666667
904	0.452	2.19848484848	2.49189189189	-5.49716981132	1.3303030303
905	0.4525	2.19848484848	15.1940540541	-6.90314465409	-0.118181818182
906	0.453	0.772727272727	-7.38756756757	-5.49716981132	1.3303030303
907	0.4535	-6.35606060606	-3.15351351351	-5.49716981132	-0.118181818182
908	0.454	-4.9303030303	-0.330810810811	1.53270440252	-1.56666666667
909	0.4545	2.19848484848	-1.74216216216	1.53270440252	2.77878787879
910	0.455	0.772727272727	-3.15351351351	2.93867924528	8.57272727273
911	0.4555	3.62424242424	-0.330810810811	7.15660377358	-1.56666666667
912	0.456	0.772727272727	-3.15351351351	0.126729559748	-1.56666666667
913	0.4565	-0.65303030303	-0.330810810811	9.96855345912	-1.56666666667
914	0.457	-0.65303030303	-3.15351351351	14.1864779874	-3.01515151515
915	0.4575	2.19848484848	-4.56486486486	12.7805031447	-0.118181818182
916	0.458	-10.6333333333	-3.15351351351	12.7805031447	-4.46363636364
917	0.4585	19.3075757576	-5.97621621622	7.15660377358	-0.118181818182
918	0.459	-9.20757575758	-3.15351351351	7.15660377358	-10.2575757576
919	0.4595	-0.65303030303	-5.97621621622	2.93867924528	8.57272727273
920	0.46	0.772727272727	-5.97621621622	5.75062893082	7.12424242424
921	0.4605	-0.65303030303	-1.74216216216	-11.1210691824	-0.118181818182
922	0.461	0.772727272727	-5.97621621622	-12.5270440252	1.3303030303
923	0.4615	-0.65303030303	-8.79891891892	-8.30911949686	-0.118181818182
924	0.462	-0.65303030303	-4.56486486486	-9.71509433962	-0.118181818182
925	0.4625	7.90151515152	-3.15351351351	-13.9330188679	4.22727272727
926	0.463	-7.78181818182	-4.56486486486	-8.30911949686	-0.118181818182
927	0.4635	-0.65303030303	-0.330810810811	-11.1210691824	-0.118181818182
928	0.464	0.772727272727	-3.15351351351	-5.49716981132	-5.91212121212
929	0.4645	0.772727272727	-1.74216216216	-5.49716981132	12.9181818182
930	0.465	-2.07878787879	-0.330810810811	-9.71509433962	-1.56666666667
931	0.4655	0.772727272727	-0.330810810811	-16.7449685535	-4.46363636364
932	0.466	0.772727272727	-0.330810810811	-12.5270440252	-0.118181818182
933	0.4665	-2.07878787879	-5.97621621622	-6.90314465409	-0.118181818182
934	0.467	0.772727272727	3.90324324324	-5.49716981132	-1.56666666667
935	0.4675	-12.0590909091	-0.330810810811	-2.68522012579	2.77878787879
936	0.468	13.6045454545	2.49189189189	-4.09119496855	-0.118181818182
937	0.4685	-3.50454545455	2.49189189189	-1.27924528302	-13.1545454545
938	0.469	0.772727272727	-1.74216216216	-4.09119496855	15.8151515152
939	0.4695	-0.65303030303	-1.74216216216	4.34465408805	1.3303030303
940	0.47	0.772727272727	-0.330810810811	-2.68522012579	2.77878787879
941	0.4705	0.772727272727	-0.330810810811	-1.27924528302	-0.118181818182
942	0.471	0.772727272727	1.08054054054	-1.27924528302	1.3303030303
943	0.4715	0.772727272727	-0.330810810811	-4.09119496855	4.22727272727
944	0.472	-10.6333333333	-0.330810810811	-2.68522012579	-1.56666666667
945	0.4725	20.7333333333	1.08054054054	-4.09119496855	-0.118181818182
946	0.473	-6.35606060606	2.49189189189	-5.49716981132	-7.36060606061
947	0.4735	0.772727272727	3.90324324324	-5.49716981132	5.67575757576
948	0.474	2.19848484848	1.08054054054	-15.3389937107	-1.56666666667
949	0.4745	0.772727272727	2.49189189189	7.15660377358	-1.56666666667
950	0.475	0.772727272727	5.31459459459	7.15660377358	-0.118181818182
951	0.4755	3.62424242424	6.72594594595	-6.90314465409	-1.56666666667
952	0.476	0.772727272727	-4.56486486486	-6.90314465409	-0.118181818182
953	0.4765	0.772727272727	18.0167567568	-5.49716981132	-1.56666666667
954	0.477	6.47575757576	3.90324324324	-4.09119496855	-0.118181818182
955	0.4775	9.32727272727	3.90324324324	-6.90314465409	1.3303030303
956	0.478	-3.50454545455	5.31459459459	-4.09119496855	-8.80909090909
957	0.4785	-0.65303030303	3.90324324324	-6.90314465409	15.8151515152
958	0.479	0.772727272727	3.90324324324	-6.90314465409	-7.36060606061
959	0.4795	0.772727272727	2.49189189189	-6.90314465409	-0.118181818182
960	0.48	0.772727272727	2.49189189189	-9.71509433962	-0.118181818182
961	0.4805	0.772727272727	6.72594594595	-6.90314465409	-1.56666666667
962	0.481	0.772727272727	-10.2102702703	-8.30911949686	-3.01515151515
963	0.4815	-3.50454545455	-5.97621621622	-5.49716981132	-4.46363636364
964	0.482	-0.65303030303	1.08054054054	-8.30911949686	1.3303030303
965	0.4825	-10.6333333333	2.49189189189	-6.90314465409	-3.01515151515
966	0.483	2.19848484848	2.49189189189	-8.30911949686	7.12424242424
967	0.4835	-0.65303030303	2.49189189189	-15.3389937107	-7.36060606061
968	0.484	-0.65303030303	1.08054054054	-1.27924528302	1.3303030303
969	0.4845	0.772727272727	2.49189189189	-13.9330188679	-0.118181818182
970	0.485	2.19848484848	-0.330810810811	-8.30911949686	-0.118181818182
971	0.4855	-0.65303030303	2.49189189189	-6.90314465409	-1.56666666667
972	0.486	-2.07878787879	-7.38756756757	-6.90314465409	-1.56666666667
973	0.4865	-0.65303030303	3.90324324324	-9.71509433962	1.3303030303
974	0.487	-7.78181818182	2.49189189189	-6.90314465409	1.3303030303
975	0.4875	2.19848484848	2.49189189189	-8.30911949686	4.22727272727
976	0.488	-3.50454545455	2.49189189189	-9.71509433962	18.7121212121
977	0.4885	-3.50454545455	6.72594594595	-2.68522012579	-5.91212121212
978	0.489	2.19848484848	3.90324324324	-13.9330188679	-0.118181818182
979	0.4895	0.772727272727	3.90324324324	-1.27924528302	-1.56666666667
980	0.49	-0.65303030303	-4.56486486486	-6.90314465409	-1.56666666667
981	0.4905	2.19848484848	22.2508108108	-4.09119496855	-0.118181818182
982	0.491	0.772727272727	-1.74216216216	-2.68522012579	1.3303030303
983	0.4915	-0.65303030303	5.31459459459	-4.09119496855	-1.56666666667
984	0.492	5.05	2.49189189189	-2.68522012579	1.3303030303
985	0.4925	2.19848484848	6.72594594595	-1.27924528302	-1.56666666667
986	0.493	-0.65303030303	3.90324324324	1.53270440252	-8.80909090909
987	0.4935	-0.65303030303	3.90324324324	-4.09119496855	8.57272727273
988	0.494	0.772727272727	3.90324324324	15.5924528302	-0.118181818182
989	0.4945	2.19848484848	1.08054054054	2.93867924528	-0.118181818182
990	0.495	0.772727272727	10.96	-1.27924528302	-0.118181818182
991	0.4955	-3.50454545455	-4.56486486486	-2.68522012579	-0.118181818182
992	0.496	-2.07878787879	13.7827027027	-1.27924528302	1.3303030303
993	0.4965	-9.20757575758	1.08054054054	1.53270440252	2.77878787879
994	0.497	-9.20757575758	-0.330810810811	-2.68522012579	-4.46363636364
995	0.4975	-3.50454545455	-1.74216216216	-2.68522012579	5.67575757576
996	0.498	-2.07878787879	1.08054054054	4.34465408805	7.12424242424
997	0.4985	-0.65303030303	1.08054054054	-8.30911949686	-0.118181818182
998	0.499	-0.65303030303	-1.74216216216	-5.49716981132	-0.118181818182
999	0.4995	-2.07878787879	-14.4443243243	-1.27924528302	-4.46363636364
1000	0.5	-0.65303030303	-11.6216216216	-1.27924528302	-1.56666666667
1001	0.5005	-6.35606060606	-7.38756756757	-1.27924528302	-1.56666666667
1002	0.501	-10.6333333333	-4.56486486486	-1.27924528302	-0.118181818182
1003	0.5015	9.32727272727	-5.97621621622	-5.49716981132	1.3303030303
1004	0.502	-2.07878787879	-7.38756756757	-1.27924528302	-10.2575757576
1005	0.5025	-3.50454545455	-4.56486486486	-9.71509433962	-0.118181818182
1006	0.503	-0.65303030303	-3.15351351351	2.93867924528	-0.118181818182
1007	0.5035	0.772727272727	-7.38756756757	-2.68522012579	2.77878787879
1008	0.504	-2.07878787879	-18.6783783784	-1.27924528302	2.77878787879
1009	0.5045	2.19848484848	6.72594594595	0.126729559748	2.77878787879
1010	0.505	2.19848484848	-13.032972973	1.53270440252	-0.118181818182
1011	0.5055	15.0303030303	-10.2102702703	1.53270440252	-0.118181818182
1012	0.506	-6.35606060606	-10.2102702703	1.53270440252	-14.603030303
1013	0.5065	0.772727272727	-8.79891891892	-2.68522012579	15.8151515152
1014	0.507	2.19848484848	-8.79891891892	-2.68522012579	-8.80909090909
1015	0.5075	3.62424242424	-7.38756756757	5.75062893082	-0.118181818182
1016	0.508	-0.65303030303	-3.15351351351	-4.09119496855	-1.56666666667
1017	0.5085	2.19848484848	-5.97621621622	-8.30911949686	-3.01515151515
1018	0.509	0.772727272727	2.49189189189	1.53270440252	1.3303030303
1019	0.5095	2.19848484848	-5.97621621622	1.53270440252	2.77878787879
1020	0.51	10.753030303	-3.15351351351	2.93867924528	1.3303030303
1021	0.5105	17.8818181818	-4.56486486486	-1.27924528302	1.3303030303
1022	0.511	-3.50454545455	-1.74216216216	-1.27924528302	8.57272727273
1023	0.5115	2.19848484848	-1.74216216216	0.126729559748	-4.46363636364
1024	0.512	0.772727272727	-3.15351351351	-6.90314465409	-0.118181818182
1025	0.5125	2.19848484848	-1.74216216216	5.75062893082	-0.118181818182
1026	0.513	0.772727272727	-0.330810810811	7.15660377358	1.3303030303
1027	0.5135	3.62424242424	-13.032972973	5.75062893082	-0.118181818182
1028	0.514	2.19848484848	3.90324324324	8.56257861635	-0.118181818182
1029	0.5145	-7.78181818182	-7.38756756757	8.56257861635	-3.01515151515
1030	0.515	23.5848484848	-4.56486486486	8.56257861635	2.77878787879
1031	0.5155	-4.9303030303	-4.56486486486	8.56257861635	-5.91212121212
1032	0.516	3.62424242424	-8.79891891892	7.15660377358	2.77878787879
1033	0.5165	3.62424242424	-7.38756756757	7.15660377358	-4.46363636364
1034	0.517	0.772727272727	-1.74216216216	-4.09119496855	-3.01515151515
1035	0.5175	2.19848484848	-3.15351351351	4.34465408805	1.3303030303
1036	0.518	3.62424242424	-13.032972973	5.75062893082	1.3303030303
1037	0.5185	0.772727272727	15.1940540541	5.75062893082	-0.118181818182
1038	0.519	2.19848484848	-1.74216216216	5.75062893082	2.77878787879
1039	0.5195	9.32727272727	-1.74216216216	7.15660377358	4.22727272727
1040	0.52	-2.07878787879	-1.74216216216	8.56257861635	-8.80909090909
1041	0.5205	2.19848484848	1.08054054054	11.3745283019	-8.80909090909
1042	0.521	-0.65303030303	3.90324324324	12.7805031447	-1.56666666667
1043	0.5215	2.19848484848	3.90324324324	4.34465408805	-0.118181818182
1044	0.522	0.772727272727	1.08054054054	-1.27924528302	1.3303030303
1045	0.5225	3.62424242424	-0.330810810811	8.56257861635	-3.01515151515
1046	0.523	0.772727272727	5.31459459459	11.3745283019	-1.56666666667
1047	0.5235	5.05	-0.330810810811	11.3745283019	1.3303030303
1048	0.524	-7.78181818182	2.49189189189	7.15660377358	-0.118181818182
1049	0.5245	-4.9303030303	-1.74216216216	7.15660377358	-3.01515151515
1050	0.525	0.772727272727	1.08054054054	11.3745283019	-4.46363636364
1051	0.5255	0.772727272727	-3.15351351351	-6.90314465409	-1.56666666667
1052	0.526	2.19848484848	-0.330810810811	19.8103773585	-0.118181818182
1053	0.5265	0.772727272727	1.08054054054	16.998427673	-0.118181818182
1054	0.527	3.62424242424	-4.56486486486	2.93867924528	-0.118181818182
1055	0.5275	0.772727272727	13.7827027027	2.93867924528	-0.118181818182
1056	0.528	2.19848484848	1.08054054054	4.34465408805	1.3303030303
1057	0.5285	-2.07878787879	1.08054054054	4.34465408805	-0.118181818182
1058	0.529	9.32727272727	-1.74216216216	2.93867924528	2.77878787879
1059	0.5295	-7.78181818182	1.08054054054	1.53270440252	-8.80909090909
1060	0.53	-0.65303030303	-0.330810810811	-1.27924528302	12.9181818182
1061	0.5305	0.772727272727	5.31459459459	8.56257861635	-4.46363636364
1062	0.531	-2.07878787879	-3.15351351351	-5.49716981132	-3.01515151515
1063	0.5315	-0.65303030303	2.49189189189	4.34465408805	-3.01515151515
1064	0.532	-0.65303030303	6.72594594595	5.75062893082	-1.56666666667
1065	0.5325	2.19848484848	1.08054054054	4.34465408805	-1.56666666667
1066	0.533	3.62424242424	-0.330810810811	7.15660377358	-1.56666666667
1067	0.5335	-7.78181818182	-0.330810810811	4.34465408805	-0.118181818182
1068	0.534	-3.50454545455	3.90324324324	2.93867924528	7.12424242424
1069	0.5345	-3.50454545455	2.49189189189	0.126729559748	-5.91212121212
1070	0.535	-0.65303030303	1.08054054054	12.7805031447	2.77878787879
1071	0.5355	-0.65303030303	5.31459459459	18.4044025157	1.3303030303
1072	0.536	-0.65303030303	1.08054054054	-2.68522012579	2.77878787879
1073	0.5365	3.62424242424	13.7827027027	-1.27924528302	1.3303030303
1074	0.537	-3.50454545455	-8.79891891892	-1.27924528302	4.22727272727
1075	0.5375	17.8818181818	-0.330810810811	-2.68522012579	-0.118181818182
1076	0.538	2.19848484848	-0.330810810811	-4.09119496855	-0.118181818182
1077	0.5385	-0.65303030303	-0.330810810811	-4.09119496855	15.8151515152
1078	0.539	-2.07878787879	2.49189189189	-6.90314465409	-10.2575757576
1079	0.5395	-3.50454545455	-0.330810810811	-8.30911949686	-1.56666666667
1080	0.54	-0.65303030303	1.08054054054	-4.09119496855	-1.56666666667
1081	0.5405	0.772727272727	1.08054054054	-6.90314465409	-0.118181818182
1082	0.541	0.772727272727	-0.330810810811	-4.09119496855	-1.56666666667
1083	0.5415	-3.50454545455	-8.79891891892	-1.27924528302	-4.46363636364
1084	0.542	2.19848484848	-0.330810810811	-4.09119496855	2.77878787879
1085	0.5425	-4.9303030303	2.49189189189	0.126729559748	-8.80909090909
1086	0.543	0.772727272727	1.08054054054	-1.27924528302	10.0212121212
1087	0.5435	0.772727272727	2.49189189189	-8.30911949686	-0.118181818182
1088	0.544	0.772727272727	1.08054054054	-11.1210691824	2.77878787879
1089	0.5445	0.772727272727	1.08054054054	0.126729559748	-1.56666666667
1090	0.545	2.19848484848	-8.79891891892	0.126729559748	-0.118181818182
1091	0.5455	-2.07878787879	-8.79891891892	4.34465408805	-0.118181818182
1092	0.546	-3.50454545455	2.49189189189	7.15660377358	1.3303030303
1093	0.5465	-9.20757575758	1.08054054054	8.56257861635	1.3303030303
1094	0.547	0.772727272727	5.31459459459	8.56257861635	17.2636363636
1095	0.5475	-0.65303030303	3.90324324324	7.15660377358	-8.80909090909
1096	0.548	-2.07878787879	1.08054054054	0.126729559748	-1.56666666667
1097	0.5485	-0.65303030303	3.90324324324	21.2163522013	-0.118181818182
1098	0.549	-0.65303030303	5.31459459459	1.53270440252	-0.118181818182
1099	0.5495	0.772727272727	-4.56486486486	1.53270440252	-0.118181818182
1100	0.55	-2.07878787879	6.72594594595	2.93867924528	-1.56666666667
1101	0.5505	2.19848484848	-0.330810810811	2.93867924528	1.3303030303
1102	0.551	-10.6333333333	-1.74216216216	4.34465408805	-0.118181818182
1103	0.5515	9.32727272727	1.08054054054	2.93867924528	2.77878787879
1104	0.552	0.772727272727	2.49189189189	4.34465408805	-7.36060606061
1105	0.5525	-0.65303030303	-0.330810810811	7.15660377358	-0.118181818182
1106	0.553	-0.65303030303	1.08054054054	4.34465408805	7.12424242424
1107	0.5535	0.772727272727	2.49189189189	8.56257861635	1.3303030303
1108	0.554	-0.65303030303	-5.97621621622	8.56257861635	2.77878787879
1109	0.5545	0.772727272727	6.72594594595	5.75062893082	-1.56666666667
1110	0.555	-3.50454545455	-3.15351351351	2.93867924528	1.3303030303
1111	0.5555	-13.4848484848	1.08054054054	1.53270440252	-0.118181818182
1112	0.556	9.32727272727	-0.330810810811	-1.27924528302	-5.91212121212
1113	0.5565	-2.07878787879	1.08054054054	-1.27924528302	1.3303030303
1114	0.557	-3.50454545455	-3.15351351351	-9.71509433962	-0.118181818182
1115	0.5575	-2.07878787879	-1.74216216216	2.93867924528	-0.118181818182
1116	0.558	-3.50454545455	-4.56486486486	-6.90314465409	-0.118181818182
1117	0.5585	-2.07878787879	-0.330810810811	-1.27924528302	-1.56666666667
1118	0.559	0.772727272727	-7.38756756757	0.126729559748	1.3303030303
1119	0.5595	-2.07878787879	1.08054054054	1.53270440252	-0.118181818182
1120	0.56	-14.9106060606	-3.15351351351	4.34465408805	4.22727272727
1121	0.5605	17.8818181818	-1.74216216216	1.53270440252	2.77878787879
1122	0.561	-9.20757575758	-1.74216216216	1.53270440252	-3.01515151515
1123	0.5615	-0.65303030303	-1.74216216216	4.34465408805	2.77878787879
1124	0.562	-2.07878787879	-4.56486486486	4.34465408805	-5.91212121212
1125	0.5625	-3.50454545455	-0.330810810811	-2.68522012579	-0.118181818182
1126	0.563	-2.07878787879	-0.330810810811	4.34465408805	-0.118181818182
1127	0.5635	-2.07878787879	-15.8556756757	5.75062893082	1.3303030303
1128	0.564	0.772727272727	6.72594594595	8.56257861635	-1.56666666667
1129	0.5645	-12.0590909091	-4.56486486486	7.15660377358	-4.46363636364
1130	0.565	17.8818181818	-4.56486486486	9.96855345912	-1.56666666667
1131	0.5655	10.753030303	-7.38756756757	11.3745283019	-3.01515151515
1132	0.566	-0.65303030303	-4.56486486486	0.126729559748	-0.118181818182
1133	0.5665	-2.07878787879	-1.74216216216	4.34465408805	-8.80909090909
1134	0.567	0.772727272727	-1.74216216216	8.56257861635	-0.118181818182
1135	0.5675	-0.65303030303	-5.97621621622	25.4342767296	-0.118181818182
1136	0.568	0.772727272727	-5.97621621622	7.15660377358	-0.118181818182
1137	0.5685	-3.50454545455	-10.2102702703	8.56257861635	1.3303030303
1138	0.569	-3.50454545455	1.08054054054	5.75062893082	2.77878787879
1139	0.5695	5.05	2.49189189189	7.15660377358	2.77878787879
1140	0.57	-0.65303030303	1.08054054054	7.15660377358	4.22727272727
1141	0.5705	-0.65303030303	1.08054054054	7.15660377358	-3.01515151515
1142	0.571	-0.65303030303	-0.330810810811	2.93867924528	1.3303030303
1143	0.5715	-0.65303030303	-0.330810810811	31.0581761006	2.77878787879
1144	0.572	0.772727272727	1.08054054054	19.8103773585	-1.56666666667
1145	0.5725	2.19848484848	13.7827027027	25.4342767296	-4.46363636364
1146	0.573	3.62424242424	-5.97621621622	26.8402515723	-3.01515151515
1147	0.5735	-6.35606060606	5.31459459459	26.8402515723	-1.56666666667
1148	0.574	7.90151515152	3.90324324324	25.4342767296	-10.2575757576
1149	0.5745	-6.35606060606	2.49189189189	21.2163522013	10.0212121212
1150	0.575	-2.07878787879	2.49189189189	22.622327044	-8.80909090909
1151	0.5755	-0.65303030303	-0.330810810811	12.7805031447	8.57272727273
1152	0.576	-0.65303030303	-0.330810810811	26.8402515723	-0.118181818182
1153	0.5765	-0.65303030303	1.08054054054	8.56257861635	2.77878787879
1154	0.577	3.62424242424	-3.15351351351	4.34465408805	1.3303030303
1155	0.5775	-0.65303030303	-0.330810810811	-1.27924528302	-0.118181818182
1156	0.578	-12.0590909091	-1.74216216216	-6.90314465409	-0.118181818182
1157	0.5785	16.4560606061	-4.56486486486	-6.90314465409	-3.01515151515
1158	0.579	-4.9303030303	-4.56486486486	-8.30911949686	4.22727272727
1159	0.5795	-3.50454545455	-3.15351351351	-13.9330188679	17.2636363636
1160	0.58	0.772727272727	-1.74216216216	-11.1210691824	-3.01515151515
1161	0.5805	0.772727272727	-3.15351351351	-4.09119496855	-0.118181818182
1162	0.581	-2.07878787879	-0.330810810811	-9.71509433962	-1.56666666667
1163	0.5815	-0.65303030303	-14.4443243243	-2.68522012579	-3.01515151515
1164	0.582	0.772727272727	-10.2102702703	-1.27924528302	1.3303030303
1165	0.5825	-9.20757575758	-1.74216216216	-1.27924528302	-1.56666666667
1166	0.583	17.8818181818	-3.15351351351	-2.68522012579	-0.118181818182
1167	0.5835	9.32727272727	-1.74216216216	-4.09119496855	-5.91212121212
1168	0.584	-2.07878787879	-0.330810810811	-4.09119496855	14.3666666667
1169	0.5845	2.19848484848	-1.74216216216	11.3745283019	-0.118181818182
1170	0.585	0.772727272727	-4.56486486486	-4.09119496855	-1.56666666667
1171	0.5855	2.19848484848	1.08054054054	-2.68522012579	-0.118181818182
1172	0.586	2.19848484848	-8.79891891892	-1.27924528302	2.77878787879
1173	0.5865	3.62424242424	-0.330810810811	-1.27924528302	2.77878787879
1174	0.587	-12.0590909091	-7.38756756757	-2.68522012579	2.77878787879
1175	0.5875	17.8818181818	-5.97621621622	-2.68522012579	-0.118181818182
1176	0.588	2.19848484848	-4.56486486486	-2.68522012579	-7.36060606061
1177	0.5885	3.62424242424	-7.38756756757	-6.90314465409	15.8151515152
1178	0.589	0.772727272727	-4.56486486486	2.93867924528	-1.56666666667
1179	0.5895	2.19848484848	-7.38756756757	-2.68522012579	-3.01515151515
1180	0.59	3.62424242424	-3.15351351351	1.53270440252	1.3303030303
1181	0.5905	0.772727272727	-8.79891891892	8.56257861635	2.77878787879
1182	0.591	2.19848484848	-13.032972973	18.4044025157	1.3303030303
1183	0.5915	3.62424242424	-11.6216216216	18.4044025157	-3.01515151515
1184	0.592	5.05	-10.2102702703	24.0283018868	-1.56666666667
1185	0.5925	2.19848484848	-10.2102702703	21.2163522013	15.8151515152
1186	0.593	0.772727272727	-10.2102702703	16.998427673	-5.91212121212
1187	0.5935	3.62424242424	-11.6216216216	38.0880503145	2.77878787879
1188	0.594	3.62424242424	-11.6216216216	33.8701257862	-0.118181818182
1189	0.5945	3.62424242424	-15.8556756757	19.8103773585	1.3303030303
1190	0.595	2.19848484848	5.31459459459	14.1864779874	-0.118181818182
1191	0.5955	3.62424242424	-13.032972973	8.56257861635	-0.118181818182
1192	0.596	25.0106060606	-10.2102702703	7.15660377358	-0.118181818182
1193	0.5965	-3.50454545455	-10.2102702703	4.34465408805	4.22727272727
1194	0.597	2.19848484848	-13.032972973	4.34465408805	-5.91212121212
1195	0.5975	2.19848484848	-7.38756756757	0.126729559748	8.57272727273
1196	0.598	2.19848484848	-10.2102702703	12.7805031447	-1.56666666667
1197	0.5985	3.62424242424	-5.97621621622	2.93867924528	-0.118181818182
1198	0.599	0.772727272727	-10.2102702703	5.75062893082	-0.118181818182
1199	0.5995	0.772727272727	-15.8556756757	4.34465408805	-0.118181818182
1200	0.6	-4.9303030303	-5.97621621622	4.34465408805	2.77878787879
1201	0.6005	7.90151515152	-8.79891891892	4.34465408805	1.3303030303
1202	0.601	-4.9303030303	-5.97621621622	7.15660377358	-7.36060606061
1203	0.6015	2.19848484848	-7.38756756757	7.15660377358	5.67575757576
1204	0.602	3.62424242424	-4.56486486486	18.4044025157	-0.118181818182
1205	0.6025	3.62424242424	-5.97621621622	-6.90314465409	1.3303030303
1206	0.603	0.772727272727	-10.2102702703	0.126729559748	2.77878787879
1207	0.6035	0.772727272727	-5.97621621622	-1.27924528302	5.67575757576
1208	0.604	10.753030303	-7.38756756757	2.93867924528	4.22727272727
1209	0.6045	-3.50454545455	-8.79891891892	5.75062893082	-0.118181818182
1210	0.605	3.62424242424	-7.38756756757	4.34465408805	-11.7060606061
1211	0.6055	0.772727272727	-5.97621621622	7.15660377358	1.3303030303
1212	0.606	0.772727272727	-7.38756756757	2.93867924528	4.22727272727
1213	0.6065	0.772727272727	-7.38756756757	18.4044025157	-3.01515151515
1214	0.607	2.19848484848	-10.2102702703	-4.09119496855	-0.118181818182
1215	0.6075	-0.65303030303	-10.2102702703	2.93867924528	-3.01515151515
1216	0.608	0.772727272727	-10.2102702703	2.93867924528	-3.01515151515
1217	0.6085	5.05	-8.79891891892	1.53270440252	-0.118181818182
1218	0.609	-0.65303030303	-5.97621621622	1.53270440252	-0.118181818182
1219	0.6095	5.05	-5.97621621622	2.93867924528	-8.80909090909
1220	0.61	2.19848484848	-5.97621621622	5.75062893082	4.22727272727
1221	0.6105	2.19848484848	-5.97621621622	5.75062893082	8.57272727273
1222	0.611	2.19848484848	-7.38756756757	18.4044025157	-0.118181818182
1223	0.6115	3.62424242424	-11.6216216216	-5.49716981132	-0.118181818182
1224	0.612	5.05	-11.6216216216	0.126729559748	1.3303030303
1225	0.6125	0.772727272727	-8.79891891892	0.126729559748	-0.118181818182
1226	0.613	-0.65303030303	-10.2102702703	0.126729559748	2.77878787879
1227	0.6135	0.772727272727	-7.38756756757	1.53270440252	1.3303030303
1228	0.614	0.772727272727	-8.79891891892	0.126729559748	1.3303030303
1229	0.6145	2.19848484848	-11.6216216216	1.53270440252	8.57272727273
1230	0.615	-0.65303030303	-10.2102702703	-2.68522012579	7.12424242424
1231	0.6155	3.62424242424	-10.2102702703	-12.5270440252	-5.91212121212
1232	0.616	2.19848484848	-5.97621621622	0.126729559748	-3.01515151515
1233	0.6165	2.19848484848	-17.267027027	0.126729559748	-1.56666666667
1234	0.617	2.19848484848	6.72594594595	1.53270440252	-1.56666666667
1235	0.6175	2.19848484848	-8.79891891892	0.126729559748	1.3303030303
1236	0.618	20.7333333333	-5.97621621622	1.53270440252	2.77878787879
1237	0.6185	7.90151515152	-5.97621621622	-1.27924528302	-8.80909090909
1238	0.619	0.772727272727	-4.56486486486	0.126729559748	21.6090909091
1239	0.6195	-0.65303030303	-4.56486486486	2.93867924528	-5.91212121212
1240	0.62	2.19848484848	-4.56486486486	-1.27924528302	-3.01515151515
1241	0.6205	0.772727272727	-8.79891891892	0.126729559748	2.77878787879
1242	0.621	0.772727272727	-3.15351351351	2.93867924528	-0.118181818182
1243	0.6215	0.772727272727	-1.74216216216	2.93867924528	-0.118181818182
1244	0.622	3.62424242424	-4.56486486486	0.126729559748	2.77878787879
1245	0.6225	-12.0590909091	-5.97621621622	2.93867924528	-0.118181818182
1246	0.623	-0.65303030303	-3.15351351351	-1.27924528302	-0.118181818182
1247	0.6235	-3.50454545455	-3.15351351351	0.126729559748	-1.56666666667
1248	0.624	-0.65303030303	-3.15351351351	0.126729559748	-7.36060606061
1249	0.6245	0.772727272727	-0.330810810811	0.126729559748	-0.118181818182
1250	0.625	0.772727272727	-1.74216216216	14.1864779874	-3.01515151515
1251	0.6255	-3.50454545455	-5.97621621622	-2.68522012579	1.3303030303
1252	0.626	0.772727272727	8.1372972973	-4.09119496855	1.3303030303
1253	0.6265	-0.65303030303	-10.2102702703	-2.68522012579	1.3303030303
1254	0.627	0.772727272727	-4.56486486486	-1.27924528302	1.3303030303
1255	0.6275	-3.50454545455	-3.15351351351	1.53270440252	-7.36060606061
1256	0.628	-0.65303030303	-1.74216216216	0.126729559748	10.0212121212
1257	0.6285	0.772727272727	-4.56486486486	7.15660377358	14.3666666667
1258	0.629	0.772727272727	-4.56486486486	-4.09119496855	4.22727272727
1259	0.6295	0.772727272727	-3.15351351351	2.93867924528	-5.91212121212
1260	0.63	-0.65303030303	-5.97621621622	1.53270440252	1.3303030303
1261	0.6305	-2.07878787879	-10.2102702703	2.93867924528	-1.56666666667
1262	0.631	-0.65303030303	1.08054054054	2.93867924528	-0.118181818182
1263	0.6315	-12.0590909091	-3.15351351351	1.53270440252	-1.56666666667
1264	0.632	13.6045454545	1.08054054054	0.126729559748	-5.91212121212
1265	0.6325	-4.9303030303	-0.330810810811	-1.27924528302	-1.56666666667
1266	0.633	0.772727272727	-0.330810810811	0.126729559748	7.12424242424
1267	0.6335	-0.65303030303	-0.330810810811	12.7805031447	-1.56666666667
1268	0.634	0.772727272727	-1.74216216216	-8.30911949686	2.77878787879
1269	0.6345	2.19848484848	2.49189189189	-2.68522012579	-1.56666666667
1270	0.635	3.62424242424	-11.6216216216	-1.27924528302	1.3303030303
1271	0.6355	-0.65303030303	-10.2102702703	-2.68522012579	2.77878787879
1272	0.636	-13.4848484848	-8.79891891892	-1.27924528302	2.77878787879
1273	0.6365	-9.20757575758	-5.97621621622	0.126729559748	2.77878787879
1274	0.637	-0.65303030303	-5.97621621622	5.75062893082	-4.46363636364
1275	0.6375	0.772727272727	-5.97621621622	-1.27924528302	12.9181818182
1276	0.638	-0.65303030303	-7.38756756757	11.3745283019	-0.118181818182
1277	0.6385	-0.65303030303	-4.56486486486	4.34465408805	-0.118181818182
1278	0.639	-3.50454545455	-1.74216216216	4.34465408805	-3.01515151515
1279	0.6395	2.19848484848	15.1940540541	2.93867924528	-1.56666666667
1280	0.64	-2.07878787879	-10.2102702703	1.53270440252	-1.56666666667
1281	0.6405	15.0303030303	-8.79891891892	0.126729559748	4.22727272727
1282	0.641	-7.78181818182	-4.56486486486	2.93867924528	-8.80909090909
1283	0.6415	0.772727272727	-4.56486486486	-6.90314465409	-5.91212121212
1284	0.642	0.772727272727	-3.15351351351	4.34465408805	-7.36060606061
1285	0.6425	-0.65303030303	-3.15351351351	8.56257861635	-0.118181818182
1286	0.643	3.62424242424	1.08054054054	15.5924528302	4.22727272727
1287	0.6435	0.772727272727	-1.74216216216	0.126729559748	1.3303030303
1288	0.644	0.772727272727	-1.74216216216	-1.27924528302	5.67575757576
1289	0.6445	17.8818181818	-1.74216216216	-4.09119496855	-1.56666666667
1290	0.645	7.90151515152	1.08054054054	-5.49716981132	-0.118181818182
1291	0.6455	-0.65303030303	-0.330810810811	-11.1210691824	18.7121212121
1292	0.646	-0.65303030303	-1.74216216216	-11.1210691824	-4.46363636364
1293	0.6465	0.772727272727	1.08054054054	-20.9628930818	-1.56666666667
1294	0.647	0.772727272727	-3.15351351351	-12.5270440252	-0.118181818182
1295	0.6475	-2.07878787879	-1.74216216216	-9.71509433962	-1.56666666667
1296	0.648	-3.50454545455	-7.38756756757	-8.30911949686	-1.56666666667
1297	0.6485	0.772727272727	1.08054054054	-8.30911949686	-1.56666666667
1298	0.649	-9.20757575758	1.08054054054	-8.30911949686	-3.01515151515
1299	0.6495	19.3075757576	1.08054054054	-4.09119496855	-1.56666666667
1300	0.65	-0.65303030303	3.90324324324	-1.27924528302	-5.91212121212
1301	0.6505	2.19848484848	1.08054054054	-9.71509433962	-1.56666666667
1302	0.651	2.19848484848	5.31459459459	-1.27924528302	1.3303030303
1303	0.6515	3.62424242424	-0.330810810811	-5.49716981132	2.77878787879
1304	0.652	0.772727272727	9.54864864865	1.53270440252	-0.118181818182
1305	0.6525	-0.65303030303	-5.97621621622	4.34465408805	-0.118181818182
1306	0.653	-0.65303030303	1.08054054054	1.53270440252	-1.56666666667
1307	0.6535	-10.6333333333	1.08054054054	-1.27924528302	-0.118181818182
1308	0.654	-0.65303030303	2.49189189189	-1.27924528302	2.77878787879
1309	0.6545	2.19848484848	1.08054054054	-1.27924528302	1.3303030303
1310	0.655	0.772727272727	1.08054054054	-15.3389937107	2.77878787879
1311	0.6555	-0.65303030303	1.08054054054	-12.5270440252	-7.36060606061
1312	0.656	3.62424242424	-14.4443243243	-9.71509433962	-1.56666666667
1313	0.6565	3.62424242424	-3.15351351351	-6.90314465409	-0.118181818182
1314	0.657	0.772727272727	1.08054054054	-6.90314465409	-0.118181818182
1315	0.6575	5.05	-0.330810810811	-6.90314465409	1.3303030303
1316	0.658	16.4560606061	1.08054054054	-6.90314465409	-3.01515151515
1317	0.6585	-0.65303030303	-1.74216216216	-6.90314465409	2.77878787879
1318	0.659	3.62424242424	-0.330810810811	-8.30911949686	15.8151515152
1319	0.6595	5.05	-3.15351351351	-8.30911949686	10.0212121212
1320	0.66	3.62424242424	-1.74216216216	-16.7449685535	1.3303030303
1321	0.6605	0.772727272727	-3.15351351351	-8.30911949686	1.3303030303
1322	0.661	2.19848484848	-10.2102702703	-9.71509433962	2.77878787879
1323	0.6615	-0.65303030303	-7.38756756757	-9.71509433962	2.77878787879
1324	0.662	3.62424242424	-3.15351351351	-8.30911949686	2.77878787879
1325	0.6625	0.772727272727	-1.74216216216	-5.49716981132	2.77878787879
1326	0.663	-2.07878787879	-1.74216216216	-4.09119496855	4.22727272727
1327	0.6635	0.772727272727	-1.74216216216	1.53270440252	-8.80909090909
1328	0.664	3.62424242424	-4.56486486486	1.53270440252	10.0212121212
1329	0.6645	-0.65303030303	-0.330810810811	16.998427673	-0.118181818182
1330	0.665	-0.65303030303	1.08054054054	7.15660377358	-0.118181818182
1331	0.6655	0.772727272727	1.08054054054	4.34465408805	-1.56666666667
1332	0.666	0.772727272727	-5.97621621622	8.56257861635	-3.01515151515
1333	0.6665	-0.65303030303	1.08054054054	7.15660377358	-0.118181818182
1334	0.667	-7.78181818182	2.49189189189	8.56257861635	-1.56666666667
1335	0.6675	0.772727272727	2.49189189189	12.7805031447	12.9181818182
1336	0.668	-0.65303030303	-0.330810810811	16.998427673	14.3666666667
1337	0.6685	-0.65303030303	2.49189189189	11.3745283019	-0.118181818182
1338	0.669	-3.50454545455	2.49189189189	16.998427673	-0.118181818182
1339	0.6695	-3.50454545455	-0.330810810811	32.4641509434	1.3303030303
1340	0.67	-0.65303030303	2.49189189189	15.5924528302	1.3303030303
1341	0.6705	-0.65303030303	1.08054054054	14.1864779874	2.77878787879
1342	0.671	2.19848484848	-0.330810810811	11.3745283019	-0.118181818182
1343	0.6715	13.6045454545	-0.330810810811	7.15660377358	-0.118181818182
1344	0.672	-3.50454545455	-1.74216216216	8.56257861635	-0.118181818182
1345	0.6725	-0.65303030303	1.08054054054	2.93867924528	14.3666666667
1346	0.673	0.772727272727	-1.74216216216	11.3745283019	-10.2575757576
1347	0.6735	0.772727272727	2.49189189189	-4.09119496855	-1.56666666667
1348	0.674	-0.65303030303	2.49189189189	4.34465408805	1.3303030303
1349	0.6745	-0.65303030303	-7.38756756757	0.126729559748	-1.56666666667
1350	0.675	-3.50454545455	-0.330810810811	1.53270440252	-0.118181818182
1351	0.6755	0.772727272727	-1.74216216216	-1.27924528302	-1.56666666667
1352	0.676	3.62424242424	-0.330810810811	-1.27924528302	2.77878787879
1353	0.6765	-9.20757575758	-1.74216216216	-2.68522012579	-10.2575757576
1354	0.677	-0.65303030303	-3.15351351351	0.126729559748	4.22727272727
1355	0.6775	-0.65303030303	-3.15351351351	0.126729559748	10.0212121212
1356	0.678	0.772727272727	-1.74216216216	-1.27924528302	2.77878787879
1357	0.6785	0.772727272727	-4.56486486486	-8.30911949686	1.3303030303
1358	0.679	2.19848484848	-8.79891891892	0.126729559748	2.77878787879
1359	0.6795	-0.65303030303	-5.97621621622	0.126729559748	2.77878787879
1360	0.68	-0.65303030303	-3.15351351351	2.93867924528	1.3303030303
1361	0.6805	-3.50454545455	-4.56486486486	4.34465408805	-3.01515151515
1362	0.681	-4.9303030303	-4.56486486486	7.15660377358	-3.01515151515
1363	0.6815	-0.65303030303	-5.97621621622	7.15660377358	5.67575757576
1364	0.682	-0.65303030303	-5.97621621622	-2.68522012579	-0.118181818182
1365	0.6825	-0.65303030303	-5.97621621622	0.126729559748	-0.118181818182
1366	0.683	0.772727272727	-4.56486486486	1.53270440252	-0.118181818182
1367	0.6835	0.772727272727	-20.0897297297	8.56257861635	-3.01515151515
1368	0.684	2.19848484848	-10.2102702703	8.56257861635	2.77878787879
1369	0.6845	-10.6333333333	-3.15351351351	4.34465408805	-3.01515151515
1370	0.685	19.3075757576	-5.97621621622	8.56257861635	2.77878787879
1371	0.6855	2.19848484848	-4.56486486486	7.15660377358	-10.2575757576
1372	0.686	-2.07878787879	-4.56486486486	1.53270440252	17.2636363636
1373	0.6865	-2.07878787879	1.08054054054	1.53270440252	1.3303030303
1374	0.687	2.19848484848	-1.74216216216	2.93867924528	1.3303030303
1375	0.6875	0.772727272727	-4.56486486486	-1.27924528302	-0.118181818182
1376	0.688	-0.65303030303	13.7827027027	0.126729559748	4.22727272727
1377	0.6885	0.772727272727	10.96	0.126729559748	1.3303030303
1378	0.689	-4.9303030303	-5.97621621622	0.126729559748	-4.46363636364
1379	0.6895	17.8818181818	-4.56486486486	1.53270440252	-4.46363636364
1380	0.69	-3.50454545455	-3.15351351351	-1.27924528302	15.8151515152
1381	0.6905	0.772727272727	-4.56486486486	5.75062893082	-10.2575757576
1382	0.691	2.19848484848	-5.97621621622	-4.09119496855	-5.91212121212
1383	0.6915	0.772727272727	-10.2102702703	18.4044025157	-0.118181818182
1384	0.692	2.19848484848	-4.56486486486	4.34465408805	2.77878787879
1385	0.6925	-0.65303030303	-7.38756756757	1.53270440252	-0.118181818182
1386	0.693	7.90151515152	-10.2102702703	2.93867924528	-0.118181818182
1387	0.6935	0.772727272727	-8.79891891892	2.93867924528	-0.118181818182
1388	0.694	-2.07878787879	-8.79891891892	1.53270440252	12.9181818182
1389	0.6945	-0.65303030303	-7.38756756757	4.34465408805	-5.91212121212
1390	0.695	-2.07878787879	-10.2102702703	-5.49716981132	2.77878787879
1391	0.6955	-0.65303030303	-7.38756756757	5.75062893082	-4.46363636364
1392	0.696	-2.07878787879	-5.97621621622	-12.5270440252	1.3303030303
1393	0.6965	0.772727272727	-10.2102702703	-4.09119496855	1.3303030303
1394	0.697	-2.07878787879	-8.79891891892	-5.49716981132	-0.118181818182
1395	0.6975	2.19848484848	-4.56486486486	-4.09119496855	-1.56666666667
1396	0.698	-3.50454545455	-4.56486486486	-6.90314465409	1.3303030303
1397	0.6985	12.1787878788	-5.97621621622	-8.30911949686	1.3303030303
1398	0.699	-0.65303030303	-4.56486486486	-8.30911949686	-7.36060606061
1399	0.6995	-0.65303030303	-1.74216216216	-12.5270440252	1.3303030303
1400	0.7	-0.65303030303	-1.74216216216	-5.49716981132	-3.01515151515
1401	0.7005	-3.50454545455	-1.74216216216	-13.9330188679	1.3303030303
1402	0.701	0.772727272727	-1.74216216216	-8.30911949686	2.77878787879
1403	0.7015	0.772727272727	5.31459459459	-6.90314465409	1.3303030303
1404	0.702	2.19848484848	-5.97621621622	-8.30911949686	1.3303030303
1405	0.7025	7.90151515152	-5.97621621622	-8.30911949686	1.3303030303
1406	0.703	-10.6333333333	-3.15351351351	-6.90314465409	1.3303030303
1407	0.7035	5.05	-5.97621621622	-8.30911949686	-3.01515151515
1408	0.704	3.62424242424	-4.56486486486	-4.09119496855	-0.118181818182
1409	0.7045	0.772727272727	-5.97621621622	-18.1509433962	-0.118181818182
1410	0.705	0.772727272727	-5.97621621622	-8.30911949686	-8.80909090909
1411	0.7055	0.772727272727	-5.97621621622	-5.49716981132	-1.56666666667
1412	0.706	0.772727272727	-17.267027027	-12.5270440252	-0.118181818182
1413	0.7065	0.772727272727	10.96	-16.7449685535	-1.56666666667
1414	0.707	-4.9303030303	-5.97621621622	-18.1509433962	4.22727272727
1415	0.7075	16.4560606061	-1.74216216216	-20.9628930818	1.3303030303
1416	0.708	20.7333333333	-4.56486486486	-20.9628930818	-3.01515151515
1417	0.7085	-2.07878787879	-5.97621621622	-25.1808176101	12.9181818182
1418	0.709	2.19848484848	-7.38756756757	-15.3389937107	1.3303030303
1419	0.7095	0.772727272727	-10.2102702703	-35.0226415094	1.3303030303
1420	0.71	0.772727272727	-8.79891891892	-19.556918239	-0.118181818182
1421	0.7105	0.772727272727	-17.267027027	-33.6166666667	1.3303030303
1422	0.711	-0.65303030303	-17.267027027	-30.8047169811	1.3303030303
1423	0.7115	-7.78181818182	-7.38756756757	-27.9927672956	-0.118181818182
1424	0.712	22.1590909091	-8.79891891892	-22.3688679245	1.3303030303
1425	0.7125	16.4560606061	-7.38756756757	-12.5270440252	-3.01515151515
1426	0.713	-0.65303030303	-8.79891891892	-12.5270440252	-0.118181818182
1427	0.7135	2.19848484848	-10.2102702703	-9.71509433962	-7.36060606061
1428	0.714	0.772727272727	-11.6216216216	-1.27924528302	-3.01515151515
1429	0.7145	5.05	-14.4443243243	16.998427673	-5.91212121212
1430	0.715	2.19848484848	3.90324324324	1.53270440252	-1.56666666667
1431	0.7155	2.19848484848	-10.2102702703	2.93867924528	-0.118181818182
1432	0.716	7.90151515152	-11.6216216216	4.34465408805	-0.118181818182
1433	0.7165	12.1787878788	-10.2102702703	4.34465408805	1.3303030303
1434	0.717	20.7333333333	-8.79891891892	2.93867924528	1.3303030303
1435	0.7175	0.772727272727	-8.79891891892	-12.5270440252	-1.56666666667
1436	0.718	2.19848484848	-8.79891891892	-12.5270440252	-7.36060606061
1437	0.7185	0.772727272727	-8.79891891892	-8.30911949686	2.77878787879
1438	0.719	0.772727272727	-8.79891891892	8.56257861635	2.77878787879
1439	0.7195	0.772727272727	-13.032972973	-6.90314465409	1.3303030303
1440	0.72	-3.50454545455	-13.032972973	-1.27924528302	1.3303030303
1441	0.7205	3.62424242424	-5.97621621622	-1.27924528302	1.3303030303
1442	0.721	-3.50454545455	-10.2102702703	0.126729559748	-0.118181818182
1443	0.7215	-2.07878787879	-10.2102702703	7.15660377358	-1.56666666667
1444	0.722	0.772727272727	-7.38756756757	14.1864779874	-1.56666666667
1445	0.7225	-2.07878787879	-5.97621621622	4.34465408805	-1.56666666667
1446	0.723	-0.65303030303	-10.2102702703	15.5924528302	-1.56666666667
1447	0.7235	0.772727272727	-11.6216216216	14.1864779874	2.77878787879
1448	0.724	0.772727272727	5.31459459459	14.1864779874	-3.01515151515
1449	0.7245	-3.50454545455	-17.267027027	8.56257861635	-4.46363636364
1450	0.725	5.05	-8.79891891892	5.75062893082	-0.118181818182
1451	0.7255	-6.35606060606	-8.79891891892	2.93867924528	-1.56666666667
1452	0.726	-9.20757575758	-8.79891891892	1.53270440252	-1.56666666667
1453	0.7265	0.772727272727	-8.79891891892	1.53270440252	-5.91212121212
1454	0.727	0.772727272727	-7.38756756757	-13.9330188679	-0.118181818182
1455	0.7275	-0.65303030303	-4.56486486486	-6.90314465409	-1.56666666667
1456	0.728	0.772727272727	-17.267027027	-8.30911949686	-0.118181818182
1457	0.7285	0.772727272727	6.72594594595	-8.30911949686	-1.56666666667
1458	0.729	-0.65303030303	-8.79891891892	-12.5270440252	1.3303030303
1459	0.7295	-10.6333333333	-5.97621621622	-11.1210691824	-1.56666666667
1460	0.73	9.32727272727	-10.2102702703	-9.71509433962	-7.36060606061
1461	0.7305	-0.65303030303	-5.97621621622	-9.71509433962	17.2636363636
1462	0.731	-0.65303030303	-4.56486486486	-5.49716981132	-5.91212121212
1463	0.7315	-3.50454545455	-7.38756756757	-8.30911949686	-3.01515151515
1464	0.732	-0.65303030303	-4.56486486486	11.3745283019	-0.118181818182
1465	0.7325	0.772727272727	-10.2102702703	-1.27924528302	1.3303030303
1466	0.733	-0.65303030303	10.96	1.53270440252	-1.56666666667
1467	0.7335	-7.78181818182	-3.15351351351	2.93867924528	-0.118181818182
1468	0.734	-13.4848484848	-3.15351351351	5.75062893082	1.3303030303
1469	0.7345	15.0303030303	-1.74216216216	7.15660377358	2.77878787879
1470	0.735	-4.9303030303	-1.74216216216	9.96855345912	4.22727272727
1471	0.7355	0.772727272727	-3.15351351351	7.15660377358	5.67575757576
1472	0.736	2.19848484848	-1.74216216216	0.126729559748	2.77878787879
1473	0.7365	2.19848484848	-5.97621621622	5.75062893082	-0.118181818182
1474	0.737	3.62424242424	-15.8556756757	7.15660377358	2.77878787879
1475	0.7375	-0.65303030303	-14.4443243243	7.15660377358	-0.118181818182
1476	0.738	-6.35606060606	-10.2102702703	2.93867924528	-0.118181818182
1477	0.7385	-12.0590909091	-8.79891891892	4.34465408805	-1.56666666667
1478	0.739	10.753030303	-8.79891891892	0.126729559748	-3.01515151515
1479	0.7395	0.772727272727	-7.38756756757	2.93867924528	-11.7060606061
1480	0.74	3.62424242424	-5.97621621622	4.34465408805	-1.56666666667
1481	0.7405	2.19848484848	-5.97621621622	-12.5270440252	1.3303030303
1482	0.741	2.19848484848	-7.38756756757	-6.90314465409	-0.118181818182
1483	0.7415	5.05	8.1372972973	-5.49716981132	-0.118181818182
1484	0.742	0.772727272727	-13.032972973	-6.90314465409	-0.118181818182
1485	0.7425	7.90151515152	-5.97621621622	-8.30911949686	1.3303030303
1486	0.743	-10.6333333333	-3.15351351351	-9.71509433962	2.77878787879
1487	0.7435	-3.50454545455	-4.56486486486	-11.1210691824	5.67575757576
1488	0.744	0.772727272727	-3.15351351351	-12.5270440252	-5.91212121212
1489	0.7445	3.62424242424	-1.74216216216	-4.09119496855	2.77878787879
1490	0.745	0.772727272727	-1.74216216216	-19.556918239	-0.118181818182
1491	0.7455	0.772727272727	-3.15351351351	-11.1210691824	1.3303030303
1492	0.746	6.47575757576	-5.97621621622	-8.30911949686	2.77878787879
1493	0.7465	-0.65303030303	-10.2102702703	-9.71509433962	-1.56666666667
1494	0.747	-3.50454545455	-1.74216216216	-8.30911949686	-0.118181818182
1495	0.7475	-3.50454545455	-4.56486486486	-6.90314465409	-11.7060606061
1496	0.748	-0.65303030303	-0.330810810811	-9.71509433962	5.67575757576
1497	0.7485	0.772727272727	-3.15351351351	-20.9628930818	-0.118181818182
1498	0.749	2.19848484848	-4.56486486486	-23.7748427673	-4.46363636364
1499	0.7495	-0.65303030303	-3.15351351351	-1.27924528302	1.3303030303
1500	0.75	0.772727272727	-14.4443243243	-15.3389937107	-3.01515151515
1501	0.7505	0.772727272727	15.1940540541	-16.7449685535	1.3303030303
1502	0.751	-3.50454545455	-11.6216216216	-13.9330188679	1.3303030303
1503	0.7515	-12.0590909091	-3.15351351351	-15.3389937107	1.3303030303
1504	0.752	-13.4848484848	-3.15351351351	-13.9330188679	-0.118181818182
1505	0.7525	-3.50454545455	-1.74216216216	-12.5270440252	4.22727272727
1506	0.753	-3.50454545455	-0.330810810811	-23.7748427673	-0.118181818182
1507	0.7535	-2.07878787879	-1.74216216216	11.3745283019	-0.118181818182
1508	0.754	-3.50454545455	1.08054054054	-9.71509433962	-0.118181818182
1509	0.7545	-2.07878787879	3.90324324324	-6.90314465409	4.22727272727
1510	0.755	0.772727272727	19.4281081081	-2.68522012579	1.3303030303
1511	0.7555	-2.07878787879	-5.97621621622	-2.68522012579	-3.01515151515
1512	0.756	0.772727272727	1.08054054054	-6.90314465409	-1.56666666667
1513	0.7565	-10.6333333333	1.08054054054	-4.09119496855	-0.118181818182
1514	0.757	-10.6333333333	1.08054054054	-6.90314465409	1.3303030303
1515	0.7575	-0.65303030303	1.08054054054	-8.30911949686	-4.46363636364
1516	0.758	-3.50454545455	3.90324324324	-20.9628930818	1.3303030303
1517	0.7585	-3.50454545455	3.90324324324	-20.9628930818	-3.01515151515
1518	0.759	-4.9303030303	-7.38756756757	-19.556918239	1.3303030303
1519	0.7595	-4.9303030303	-7.38756756757	-19.556918239	1.3303030303
1520	0.76	-4.9303030303	16.6054054054	-23.7748427673	1.3303030303
1521	0.7605	-14.9106060606	6.72594594595	-20.9628930818	-0.118181818182
1522	0.761	13.6045454545	8.1372972973	-23.7748427673	5.67575757576
1523	0.7615	-13.4848484848	8.1372972973	-18.1509433962	-4.46363636364
1524	0.762	-4.9303030303	6.72594594595	-16.7449685535	10.0212121212
1525	0.7625	-3.50454545455	10.96	-19.556918239	-0.118181818182
1526	0.763	-4.9303030303	6.72594594595	-19.556918239	1.3303030303
1527	0.7635	-6.35606060606	9.54864864865	-19.556918239	-0.118181818182
1528	0.764	-4.9303030303	22.2508108108	-22.3688679245	-1.56666666667
1529	0.7645	-9.20757575758	9.54864864865	-20.9628930818	-0.118181818182
1530	0.765	-3.50454545455	15.1940540541	-22.3688679245	4.22727272727
1531	0.7655	-16.3363636364	18.0167567568	-20.9628930818	-1.56666666667
1532	0.766	-6.35606060606	16.6054054054	-22.3688679245	4.22727272727
1533	0.7665	-6.35606060606	20.8394594595	-40.6465408805	-3.01515151515
1534	0.767	-3.50454545455	22.2508108108	-16.7449685535	2.77878787879
1535	0.7675	-6.35606060606	22.2508108108	-43.458490566	2.77878787879
1536	0.768	-6.35606060606	25.0735135135	-40.6465408805	1.3303030303
1537	0.7685	-7.78181818182	16.6054054054	-43.458490566	2.77878787879
1538	0.769	-9.20757575758	22.2508108108	-43.458490566	5.67575757576
1539	0.7695	-7.78181818182	23.6621621622	-49.0823899371	5.67575757576
1540	0.77	-3.50454545455	23.6621621622	-50.4883647799	7.12424242424
1541	0.7705	-6.35606060606	23.6621621622	-53.3003144654	-5.91212121212
1542	0.771	-4.9303030303	25.0735135135	-50.4883647799	-0.118181818182
1543	0.7715	-7.78181818182	25.0735135135	-57.5182389937	24.5060606061
1544	0.772	-7.78181818182	27.8962162162	-60.3301886792	2.77878787879
1545	0.7725	-3.50454545455	25.0735135135	-56.1122641509	1.3303030303
1546	0.773	-3.50454545455	25.0735135135	-58.9242138365	2.77878787879
1547	0.7735	-0.65303030303	27.8962162162	-60.3301886792	2.77878787879
1548	0.774	-2.07878787879	30.7189189189	-63.1421383648	4.22727272727
1549	0.7745	-16.3363636364	32.1302702703	-65.9540880503	4.22727272727
1550	0.775	-4.9303030303	32.1302702703	-63.1421383648	10.0212121212
1551	0.7755	-4.9303030303	33.5416216216	-63.1421383648	-3.01515151515
1552	0.776	-3.50454545455	34.952972973	-75.7959119497	7.12424242424
1553	0.7765	-3.50454545455	39.187027027	-56.1122641509	5.67575757576
1554	0.777	-4.9303030303	36.3643243243	-70.1720125786	5.67575757576
1555	0.7775	-4.9303030303	47.6551351351	-71.5779874214	4.22727272727
1556	0.778	-3.50454545455	53.3005405405	-70.1720125786	5.67575757576
1557	0.7785	-4.9303030303	29.3075675676	-68.7660377358	4.22727272727
1558	0.779	-12.0590909091	37.7756756757	-61.736163522	7.12424242424
1559	0.7795	-2.07878787879	39.187027027	-58.9242138365	-3.01515151515
1560	0.78	-6.35606060606	40.5983783784	-65.9540880503	23.0575757576
1561	0.7805	-4.9303030303	37.7756756757	-63.1421383648	-5.91212121212
1562	0.781	-4.9303030303	39.187027027	-53.3003144654	-0.118181818182
1563	0.7815	-4.9303030303	40.5983783784	-47.6764150943	1.3303030303
1564	0.782	-4.9303030303	44.8324324324	-60.3301886792	2.77878787879
1565	0.7825	2.19848484848	57.5345945946	-58.9242138365	2.77878787879
1566	0.783	-3.50454545455	29.3075675676	-58.9242138365	2.77878787879
1567	0.7835	2.19848484848	36.3643243243	-64.5481132075	5.67575757576
1568	0.784	-3.50454545455	29.3075675676	-71.5779874214	7.12424242424
1569	0.7845	-3.50454545455	25.0735135135	-81.4198113208	17.2636363636
1570	0.785	0.772727272727	25.0735135135	-88.4496855346	-8.80909090909
1571	0.7855	3.62424242424	22.2508108108	-94.0735849057	-5.91212121212
1572	0.786	7.90151515152	19.4281081081	-101.103459119	4.22727272727
1573	0.7865	7.90151515152	20.8394594595	-106.727358491	5.67575757576
1574	0.787	9.32727272727	2.49189189189	-109.539308176	5.67575757576
1575	0.7875	10.753030303	10.96	-108.133333333	4.22727272727
1576	0.788	2.19848484848	10.96	-101.103459119	4.22727272727
1577	0.7885	23.5848484848	5.31459459459	-92.6676100629	5.67575757576
1578	0.789	-0.65303030303	2.49189189189	-89.8556603774	-7.36060606061
1579	0.7895	9.32727272727	-0.330810810811	-85.6377358491	-5.91212121212
1580	0.79	9.32727272727	2.49189189189	-71.5779874214	1.3303030303
1581	0.7905	7.90151515152	3.90324324324	-91.2616352201	4.22727272727
1582	0.791	7.90151515152	3.90324324324	-87.0437106918	2.77878787879
1583	0.7915	9.32727272727	13.7827027027	-81.4198113208	-0.118181818182
1584	0.792	7.90151515152	-8.79891891892	-80.013836478	2.77878787879
1585	0.7925	3.62424242424	-3.15351351351	-82.8257861635	4.22727272727
1586	0.793	9.32727272727	-1.74216216216	-80.013836478	-7.36060606061
1587	0.7935	3.62424242424	-3.15351351351	-82.8257861635	21.6090909091
1588	0.794	3.62424242424	-1.74216216216	-82.8257861635	-4.46363636364
1589	0.7945	2.19848484848	-4.56486486486	-68.7660377358	1.3303030303
1590	0.795	5.05	-3.15351351351	-84.2317610063	2.77878787879
1591	0.7955	3.62424242424	-7.38756756757	-87.0437106918	1.3303030303
1592	0.796	7.90151515152	2.49189189189	-84.2317610063	5.67575757576
1593	0.7965	-0.65303030303	-15.8556756757	-78.6078616352	-0.118181818182
1594	0.797	2.19848484848	-10.2102702703	-74.3899371069	2.77878787879
1595	0.7975	-4.9303030303	-5.97621621622	-70.1720125786	-8.80909090909
1596	0.798	3.62424242424	-7.38756756757	-63.1421383648	1.3303030303
1597	0.7985	3.62424242424	-8.79891891892	-71.5779874214	-0.118181818182
1598	0.799	3.62424242424	-8.79891891892	-63.1421383648	-8.80909090909
1599	0.7995	2.19848484848	-10.2102702703	-51.8943396226	-0.118181818182
1600	0.8	2.19848484848	-18.6783783784	-51.8943396226	-0.118181818182
1601	0.8005	0.772727272727	10.96	-47.6764150943	1.3303030303
1602	0.801	5.05	-13.032972973	-42.0525157233	4.22727272727
1603	0.8015	-7.78181818182	-5.97621621622	-36.4286163522	-0.118181818182
1604	0.802	22.1590909091	-10.2102702703	-30.8047169811	2.77878787879
1605	0.8025	0.772727272727	-7.38756756757	-23.7748427673	-0.118181818182
1606	0.803	2.19848484848	-5.97621621622	-16.7449685535	12.9181818182
1607	0.8035	0.772727272727	-8.79891891892	-27.9927672956	-0.118181818182
1608	0.804	2.19848484848	-7.38756756757	-16.7449685535	2.77878787879
1609	0.8045	2.19848484848	-11.6216216216	-19.556918239	-0.118181818182
1610	0.805	0.772727272727	-4.56486486486	-25.1808176101	1.3303030303
1611	0.8055	-3.50454545455	-10.2102702703	-27.9927672956	-1.56666666667
1612	0.806	0.772727272727	-8.79891891892	-30.8047169811	-3.01515151515
1613	0.8065	17.8818181818	-8.79891891892	-27.9927672956	1.3303030303
1614	0.807	-6.35606060606	-7.38756756757	-23.7748427673	12.9181818182
1615	0.8075	-2.07878787879	-10.2102702703	-15.3389937107	-7.36060606061
1616	0.808	-0.65303030303	-7.38756756757	-29.3987421384	-1.56666666667
1617	0.8085	-0.65303030303	-7.38756756757	-23.7748427673	-0.118181818182
1618	0.809	-4.9303030303	-7.38756756757	-20.9628930818	4.22727272727
1619	0.8095	-3.50454545455	-17.267027027	-19.556918239	4.22727272727
1620	0.81	0.772727272727	1.08054054054	-18.1509433962	1.3303030303
1621	0.8105	-14.9106060606	-14.4443243243	-19.556918239	-0.118181818182
1622	0.811	-9.20757575758	-10.2102702703	-22.3688679245	-0.118181818182
1623	0.8115	5.05	-10.2102702703	-20.9628930818	-5.91212121212
1624	0.812	-2.07878787879	-10.2102702703	-25.1808176101	18.7121212121
1625	0.8125	-2.07878787879	-10.2102702703	-26.5867924528	-5.91212121212
1626	0.813	-2.07878787879	-10.2102702703	-36.4286163522	-1.56666666667
1627	0.8135	-2.07878787879	-10.2102702703	-35.0226415094	-0.118181818182
1628	0.814	-4.9303030303	-7.38756756757	-36.4286163522	-0.118181818182
1629	0.8145	-6.35606060606	-20.0897297297	-33.6166666667	-1.56666666667
1630	0.815	-3.50454545455	-10.2102702703	-30.8047169811	1.3303030303
1631	0.8155	-7.78181818182	-8.79891891892	-30.8047169811	-0.118181818182
1632	0.816	-6.35606060606	-10.2102702703	-32.2106918239	-4.46363636364
1633	0.8165	-4.9303030303	-10.2102702703	-30.8047169811	14.3666666667
1634	0.817	-2.07878787879	-11.6216216216	-35.0226415094	-5.91212121212
1635	0.8175	-0.65303030303	-11.6216216216	-19.556918239	-1.56666666667
1636	0.818	-4.9303030303	-11.6216216216	-16.7449685535	1.3303030303
1637	0.8185	-2.07878787879	-20.0897297297	-30.8047169811	-3.01515151515
1638	0.819	-3.50454545455	-0.330810810811	-30.8047169811	-0.118181818182
1639	0.8195	-6.35606060606	-20.0897297297	-29.3987421384	1.3303030303
1640	0.82	-4.9303030303	-13.032972973	-29.3987421384	-0.118181818182
1641	0.8205	-0.65303030303	-11.6216216216	-29.3987421384	-0.118181818182
1642	0.821	-7.78181818182	-10.2102702703	-26.5867924528	-10.2575757576
1643	0.8215	-0.65303030303	-11.6216216216	-33.6166666667	-0.118181818182
1644	0.822	-4.9303030303	-15.8556756757	-22.3688679245	-0.118181818182
1645	0.8225	-4.9303030303	-15.8556756757	-26.5867924528	-0.118181818182
1646	0.823	-2.07878787879	-11.6216216216	-23.7748427673	-1.56666666667
1647	0.8235	-3.50454545455	-18.6783783784	-18.1509433962	2.77878787879
1648	0.824	-0.65303030303	-15.8556756757	-18.1509433962	-1.56666666667
1649	0.8245	-13.4848484848	-13.032972973	-9.71509433962	-3.01515151515
1650	0.825	17.8818181818	-14.4443243243	-2.68522012579	-0.118181818182
1651	0.8255	-7.78181818182	-14.4443243243	-1.27924528302	-3.01515151515
1652	0.826	-3.50454545455	-13.032972973	-1.27924528302	10.0212121212
1653	0.8265	-4.9303030303	-11.6216216216	14.1864779874	-1.56666666667
1654	0.827	-3.50454545455	-10.2102702703	-9.71509433962	-0.118181818182
1655	0.8275	-3.50454545455	-11.6216216216	-5.49716981132	2.77878787879
1656	0.828	-2.07878787879	-22.9124324324	-8.30911949686	1.3303030303
1657	0.8285	-3.50454545455	-11.6216216216	-8.30911949686	2.77878787879
1658	0.829	-4.9303030303	-11.6216216216	-9.71509433962	-0.118181818182
1659	0.8295	13.6045454545	-13.032972973	-12.5270440252	4.22727272727
1660	0.83	-2.07878787879	-10.2102702703	-13.9330188679	-10.2575757576
1661	0.8305	-4.9303030303	-14.4443243243	-16.7449685535	-5.91212121212
1662	0.831	-0.65303030303	-10.2102702703	-12.5270440252	-0.118181818182
1663	0.8315	-2.07878787879	-8.79891891892	0.126729559748	-3.01515151515
1664	0.832	-3.50454545455	-17.267027027	-16.7449685535	1.3303030303
1665	0.8325	-3.50454545455	-8.79891891892	-20.9628930818	-0.118181818182
1666	0.833	-4.9303030303	-17.267027027	-23.7748427673	-3.01515151515
1667	0.8335	-7.78181818182	-8.79891891892	-30.8047169811	1.3303030303
1668	0.834	2.19848484848	-13.032972973	-30.8047169811	-8.80909090909
1669	0.8345	-2.07878787879	-14.4443243243	-32.2106918239	15.8151515152
1670	0.835	-0.65303030303	-14.4443243243	-29.3987421384	7.12424242424
1671	0.8355	-0.65303030303	-15.8556756757	-42.0525157233	1.3303030303
1672	0.836	-2.07878787879	-13.032972973	-23.7748427673	2.77878787879
1673	0.8365	-0.65303030303	-21.5010810811	-30.8047169811	1.3303030303
1674	0.837	0.772727272727	3.90324324324	-29.3987421384	2.77878787879
1675	0.8375	-0.65303030303	-10.2102702703	-30.8047169811	2.77878787879
1676	0.838	0.772727272727	-7.38756756757	-26.5867924528	2.77878787879
1677	0.8385	-10.6333333333	-7.38756756757	-26.5867924528	-11.7060606061
1678	0.839	-0.65303030303	-5.97621621622	-33.6166666667	15.8151515152
1679	0.8395	-2.07878787879	-5.97621621622	-36.4286163522	-5.91212121212
1680	0.84	-3.50454545455	-5.97621621622	-20.9628930818	-0.118181818182
1681	0.8405	-2.07878787879	-3.15351351351	-32.2106918239	-0.118181818182
1682	0.841	-0.65303030303	-11.6216216216	-26.5867924528	-3.01515151515
1683	0.8415	-4.9303030303	-5.97621621622	-26.5867924528	-1.56666666667
1684	0.842	0.772727272727	-8.79891891892	-23.7748427673	-0.118181818182
1685	0.8425	10.753030303	-7.38756756757	-22.3688679245	1.3303030303
1686	0.843	-7.78181818182	-8.79891891892	-25.1808176101	14.3666666667
1687	0.8435	-4.9303030303	-7.38756756757	-19.556918239	-7.36060606061
1688	0.844	-3.50454545455	-5.97621621622	-22.3688679245	-0.118181818182
1689	0.8445	-2.07878787879	-5.97621621622	-8.30911949686	2.77878787879
1690	0.845	-6.35606060606	-5.97621621622	-18.1509433962	1.3303030303
1691	0.8455	-4.9303030303	3.90324324324	-18.1509433962	1.3303030303
1692	0.846	-7.78181818182	-15.8556756757	-18.1509433962	2.77878787879
1693	0.8465	-10.6333333333	-5.97621621622	-23.7748427673	1.3303030303
1694	0.847	-4.9303030303	-5.97621621622	-25.1808176101	-10.2575757576
1695	0.8475	-7.78181818182	-4.56486486486	-29.3987421384	15.8151515152
1696	0.848	-6.35606060606	-4.56486486486	-32.2106918239	-7.36060606061
1697	0.8485	-4.9303030303	-7.38756756757	-40.6465408805	-1.56666666667
1698	0.849	-3.50454545455	-8.79891891892	-33.6166666667	-0.118181818182
1699	0.8495	-4.9303030303	-10.2102702703	-30.8047169811	-3.01515151515
1700	0.85	-0.65303030303	5.31459459459	-30.8047169811	-1.56666666667
1701	0.8505	-16.3363636364	-7.38756756757	-32.2106918239	-3.01515151515
1702	0.851	-13.4848484848	-7.38756756757	-35.0226415094	-1.56666666667
1703	0.8515	-0.65303030303	-5.97621621622	-32.2106918239	-5.91212121212
1704	0.852	-6.35606060606	-5.97621621622	-36.4286163522	17.2636363636
1705	0.8525	-0.65303030303	-4.56486486486	-35.0226415094	-7.36060606061
1706	0.853	-4.9303030303	-4.56486486486	-43.458490566	-0.118181818182
1707	0.8535	-3.50454545455	-3.15351351351	-37.834591195	-1.56666666667
1708	0.854	-4.9303030303	-17.267027027	-36.4286163522	-0.118181818182
1709	0.8545	-2.07878787879	5.31459459459	-40.6465408805	-1.56666666667
1710	0.855	0.772727272727	-13.032972973	-37.834591195	1.3303030303
1711	0.8555	-14.9106060606	-5.97621621622	-33.6166666667	-3.01515151515
1712	0.856	-3.50454545455	-8.79891891892	-32.2106918239	-5.91212121212
1713	0.8565	-3.50454545455	-7.38756756757	-32.2106918239	-1.56666666667
1714	0.857	-4.9303030303	-7.38756756757	-43.458490566	-0.118181818182
1715	0.8575	-4.9303030303	-4.56486486486	-25.1808176101	-1.56666666667
1716	0.858	-6.35606060606	-5.97621621622	-40.6465408805	-7.36060606061
1717	0.8585	-3.50454545455	5.31459459459	-36.4286163522	-0.118181818182
1718	0.859	-6.35606060606	-15.8556756757	-36.4286163522	-1.56666666667
1719	0.8595	-0.65303030303	-5.97621621622	-37.834591195	1.3303030303
1720	0.86	-6.35606060606	-7.38756756757	-37.834591195	2.77878787879
1721	0.8605	-3.50454545455	-5.97621621622	-33.6166666667	-10.2575757576
1722	0.861	-2.07878787879	-7.38756756757	-35.0226415094	-10.2575757576
1723	0.8615	0.772727272727	-5.97621621622	-23.7748427673	1.3303030303
1724	0.862	0.772727272727	-5.97621621622	-35.0226415094	1.3303030303
1725	0.8625	0.772727272727	-10.2102702703	-35.0226415094	1.3303030303
1726	0.863	0.772727272727	-4.56486486486	-25.1808176101	1.3303030303
1727	0.8635	-3.50454545455	-13.032972973	-19.556918239	-3.01515151515
1728	0.864	-3.50454545455	-5.97621621622	-20.9628930818	-1.56666666667
1729	0.8645	7.90151515152	-5.97621621622	-23.7748427673	-0.118181818182
1730	0.865	-3.50454545455	-4.56486486486	-25.1808176101	1.3303030303
1731	0.8655	-3.50454545455	-4.56486486486	-23.7748427673	12.9181818182
1732	0.866	-0.65303030303	-5.97621621622	-36.4286163522	-1.56666666667
