	Time	Channel 1	Channel 2	Channel 3	Channel 4
0	0.0	-2.11710526316	0.566666666667	3.24285714286	-3.01071428571
1	0.0005	14.9513157895	-0.875	4.68571428571	-3.01071428571
2	0.001	-10.6513157895	4.89166666667	0.357142857143	-3.01071428571
3	0.0015	-4.96184210526	0.566666666667	1.8	-4.46428571429
4	0.002	-2.11710526316	-2.31666666667	4.68571428571	-16.0928571429
5	0.0025	-0.694736842105	-6.64166666667	0.357142857143	-13.1857142857
6	0.003	-13.4960526316	0.566666666667	0.357142857143	-1.55714285714
7	0.0035	-7.80657894737	2.00833333333	0.357142857143	-3.01071428571
8	0.004	-0.694736842105	2.00833333333	-2.52857142857	2.80357142857
9	0.0045	-2.11710526316	0.566666666667	0.357142857143	-1.55714285714
10	0.005	2.15	-0.875	-1.08571428571	-4.46428571429
11	0.0055	0.727631578947	2.00833333333	-1.08571428571	-8.825
12	0.006	-3.53947368421	-0.875	10.4571428571	-5.91785714286
13	0.0065	-3.53947368421	-9.525	0.357142857143	-0.103571428571
14	0.007	0.727631578947	-9.525	0.357142857143	-4.46428571429
15	0.0075	16.3736842105	0.566666666667	1.8	-0.103571428571
16	0.008	-3.53947368421	-2.31666666667	1.8	2.80357142857
17	0.0085	-0.694736842105	-3.75833333333	-2.52857142857	5.71071428571
18	0.009	-0.694736842105	0.566666666667	0.357142857143	-3.01071428571
19	0.0095	-0.694736842105	-2.31666666667	-1.08571428571	-1.55714285714
20	0.01	-3.53947368421	-3.75833333333	-1.08571428571	-4.46428571429
21	0.0105	-12.0736842105	0.566666666667	1.8	-1.55714285714
22	0.011	-3.53947368421	-0.875	3.24285714286	11.525
23	0.0115	-3.53947368421	-2.31666666667	3.24285714286	-4.46428571429
24	0.012	-2.11710526316	-2.31666666667	3.24285714286	-4.46428571429
25	0.0125	-3.53947368421	-6.64166666667	0.357142857143	-3.01071428571
26	0.013	0.727631578947	-2.31666666667	3.24285714286	-5.91785714286
27	0.0135	3.57236842105	-0.875	3.24285714286	-10.2785714286
28	0.014	-9.22894736842	-0.875	1.8	-5.91785714286
29	0.0145	-3.53947368421	-0.875	4.68571428571	-5.91785714286
30	0.015	-4.96184210526	-0.875	9.01428571429	-7.37142857143
31	0.0155	-2.11710526316	0.566666666667	1.8	-3.01071428571
32	0.016	-7.80657894737	2.00833333333	-2.52857142857	-4.46428571429
33	0.0165	7.83947368421	-0.875	0.357142857143	-3.01071428571
34	0.017	2.15	-0.875	0.357142857143	-13.1857142857
35	0.0175	3.57236842105	-0.875	1.8	-11.7321428571
36	0.018	0.727631578947	-8.08333333333	0.357142857143	-3.01071428571
37	0.0185	3.57236842105	-9.525	0.357142857143	-4.46428571429
38	0.019	-2.11710526316	0.566666666667	0.357142857143	-5.91785714286
39	0.0195	13.5289473684	-0.875	0.357142857143	-3.01071428571
40	0.02	2.15	-2.31666666667	4.68571428571	-5.91785714286
41	0.0205	2.15	0.566666666667	-1.08571428571	-3.01071428571
42	0.021	-0.694736842105	-2.31666666667	0.357142857143	-3.01071428571
43	0.0215	2.15	9.21666666667	-1.08571428571	-3.01071428571
44	0.022	-0.694736842105	-2.31666666667	0.357142857143	-7.37142857143
45	0.0225	-4.96184210526	-2.31666666667	0.357142857143	-14.6392857143
46	0.023	-4.96184210526	0.566666666667	-2.52857142857	-4.46428571429
47	0.0235	-4.96184210526	0.566666666667	-6.85714285714	-4.46428571429
48	0.024	-0.694736842105	2.00833333333	-8.3	-4.46428571429
49	0.0245	-2.11710526316	0.566666666667	-1.08571428571	-1.55714285714
50	0.025	-6.38421052632	0.566666666667	0.357142857143	-3.01071428571
51	0.0255	-7.80657894737	-0.875	1.8	-1.55714285714
52	0.026	0.727631578947	-0.875	3.24285714286	11.525
53	0.0265	-2.11710526316	-0.875	3.24285714286	-3.01071428571
54	0.027	-0.694736842105	0.566666666667	0.357142857143	-5.91785714286
55	0.0275	2.15	-9.525	1.8	-4.46428571429
56	0.028	19.2184210526	-0.875	0.357142857143	-3.01071428571
57	0.0285	-10.6513157895	2.00833333333	1.8	-3.01071428571
58	0.029	-3.53947368421	2.00833333333	4.68571428571	-5.91785714286
59	0.0295	-3.53947368421	-0.875	17.6714285714	-4.46428571429
60	0.03	-2.11710526316	-8.08333333333	0.357142857143	-4.46428571429
61	0.0305	0.727631578947	-8.08333333333	-1.08571428571	-4.46428571429
62	0.031	2.15	-9.525	0.357142857143	-4.46428571429
63	0.0315	0.727631578947	-0.875	-1.08571428571	-13.1857142857
64	0.032	-2.11710526316	-0.875	-6.85714285714	-11.7321428571
65	0.0325	-3.53947368421	0.566666666667	-8.3	-4.46428571429
66	0.033	0.727631578947	0.566666666667	0.357142857143	-3.01071428571
67	0.0335	-3.53947368421	-0.875	-1.08571428571	-5.91785714286
68	0.034	-9.22894736842	2.00833333333	-1.08571428571	-1.55714285714
69	0.0345	0.727631578947	0.566666666667	3.24285714286	-10.2785714286
70	0.035	0.727631578947	0.566666666667	4.68571428571	-11.7321428571
71	0.0355	0.727631578947	-2.31666666667	1.8	-3.01071428571
72	0.036	2.15	-10.9666666667	0.357142857143	-4.46428571429
73	0.0365	4.99473684211	-0.875	0.357142857143	-5.91785714286
74	0.037	20.6407894737	-0.875	3.24285714286	-14.6392857143
75	0.0375	0.727631578947	-0.875	3.24285714286	-16.0928571429
76	0.038	-0.694736842105	2.00833333333	-12.6285714286	-10.2785714286
77	0.0385	-2.11710526316	2.00833333333	-3.97142857143	-4.46428571429
78	0.039	-0.694736842105	4.89166666667	0.357142857143	-4.46428571429
79	0.0395	-2.11710526316	-3.75833333333	3.24285714286	-4.46428571429
80	0.04	-4.96184210526	-0.875	0.357142857143	-7.37142857143
81	0.0405	-2.11710526316	0.566666666667	-1.08571428571	-11.7321428571
82	0.041	-2.11710526316	0.566666666667	-5.41428571429	-3.01071428571
83	0.0415	-2.11710526316	3.45	-3.97142857143	-5.91785714286
84	0.042	0.727631578947	16.425	1.8	-4.46428571429
85	0.0425	-4.96184210526	13.5416666667	0.357142857143	-3.01071428571
86	0.043	-12.0736842105	0.566666666667	4.68571428571	12.9785714286
87	0.0435	-4.96184210526	-2.31666666667	3.24285714286	-5.91785714286
88	0.044	0.727631578947	-0.875	19.1142857143	-3.01071428571
89	0.0445	0.727631578947	3.45	1.8	-4.46428571429
90	0.045	-2.11710526316	19.3083333333	-1.08571428571	-4.46428571429
91	0.0455	-12.0736842105	-0.875	1.8	-3.01071428571
92	0.046	14.9513157895	0.566666666667	0.357142857143	-5.91785714286
93	0.0465	2.15	-2.31666666667	0.357142857143	-11.7321428571
94	0.047	-0.694736842105	0.566666666667	-8.3	-7.37142857143
95	0.0475	-2.11710526316	0.566666666667	0.357142857143	-3.01071428571
96	0.048	-2.11710526316	9.21666666667	0.357142857143	-5.91785714286
97	0.0485	-0.694736842105	-2.31666666667	-1.08571428571	-4.46428571429
98	0.049	-6.38421052632	-0.875	-1.08571428571	-1.55714285714
99	0.0495	-2.11710526316	0.566666666667	1.8	-4.46428571429
100	0.05	-0.694736842105	2.00833333333	-5.41428571429	-4.46428571429
101	0.0505	-3.53947368421	7.775	0.357142857143	-4.46428571429
102	0.051	-6.38421052632	-2.31666666667	1.8	-4.46428571429
103	0.0515	-14.9184210526	-2.31666666667	-1.08571428571	-1.55714285714
104	0.052	-4.96184210526	-0.875	3.24285714286	7.16428571429
105	0.0525	-3.53947368421	-2.31666666667	16.2285714286	-4.46428571429
106	0.053	-2.11710526316	-0.875	14.7857142857	-4.46428571429
107	0.0535	-3.53947368421	-8.08333333333	3.24285714286	-4.46428571429
108	0.054	-2.11710526316	2.00833333333	1.8	-7.37142857143
109	0.0545	12.1065789474	-2.31666666667	1.8	-10.2785714286
110	0.055	-2.11710526316	-0.875	0.357142857143	-8.825
111	0.0555	-4.96184210526	-2.31666666667	-3.97142857143	-4.46428571429
112	0.056	-4.96184210526	-2.31666666667	0.357142857143	-4.46428571429
113	0.0565	-6.38421052632	0.566666666667	0.357142857143	-5.91785714286
114	0.057	3.57236842105	-0.875	1.8	-1.55714285714
115	0.0575	-6.38421052632	2.00833333333	0.357142857143	1.35
116	0.058	-4.96184210526	-0.875	-6.85714285714	-8.825
117	0.0585	-6.38421052632	0.566666666667	3.24285714286	-3.01071428571
118	0.059	-9.22894736842	9.21666666667	0.357142857143	-7.37142857143
119	0.0595	-7.80657894737	-2.31666666667	0.357142857143	-3.01071428571
120	0.06	-19.1855263158	-2.31666666667	-1.08571428571	-3.01071428571
121	0.0605	-4.96184210526	-0.875	-1.08571428571	2.80357142857
122	0.061	-6.38421052632	-3.75833333333	-1.08571428571	4.25714285714
123	0.0615	-4.96184210526	2.00833333333	-1.08571428571	-4.46428571429
124	0.062	-3.53947368421	17.8666666667	-1.08571428571	-1.55714285714
125	0.0625	-7.80657894737	-8.08333333333	-1.08571428571	-4.46428571429
126	0.063	14.9513157895	0.566666666667	0.357142857143	-7.37142857143
127	0.0635	-4.96184210526	-2.31666666667	3.24285714286	-8.825
128	0.064	-4.96184210526	-2.31666666667	3.24285714286	-10.2785714286
129	0.0645	-4.96184210526	-2.31666666667	-1.08571428571	-4.46428571429
130	0.065	-0.694736842105	-6.64166666667	0.357142857143	-3.01071428571
131	0.0655	0.727631578947	0.566666666667	0.357142857143	-3.01071428571
132	0.066	16.3736842105	0.566666666667	-1.08571428571	-5.91785714286
133	0.0665	-2.11710526316	-2.31666666667	-9.74285714286	-4.46428571429
134	0.067	-3.53947368421	-0.875	-9.74285714286	-7.37142857143
135	0.0675	-2.11710526316	4.89166666667	0.357142857143	-1.55714285714
136	0.068	-3.53947368421	0.566666666667	1.8	-3.01071428571
137	0.0685	-12.0736842105	-0.875	0.357142857143	-3.01071428571
138	0.069	2.15	2.00833333333	1.8	-3.01071428571
139	0.0695	-4.96184210526	2.00833333333	1.8	-10.2785714286
140	0.07	-4.96184210526	2.00833333333	-2.52857142857	-4.46428571429
141	0.0705	-3.53947368421	-2.31666666667	1.8	-3.01071428571
142	0.071	-0.694736842105	-0.875	0.357142857143	-1.55714285714
143	0.0715	-2.11710526316	-0.875	1.8	-3.01071428571
144	0.072	-10.6513157895	-0.875	0.357142857143	-5.91785714286
145	0.0725	-0.694736842105	0.566666666667	-2.52857142857	7.16428571429
146	0.073	-2.11710526316	2.00833333333	0.357142857143	-4.46428571429
147	0.0735	-2.11710526316	0.566666666667	1.8	-4.46428571429
148	0.074	0.727631578947	-6.64166666667	-1.08571428571	-3.01071428571
149	0.0745	-6.38421052632	-8.08333333333	-1.08571428571	-3.01071428571
150	0.075	9.26184210526	0.566666666667	1.8	-7.37142857143
151	0.0755	-0.694736842105	0.566666666667	9.01428571429	-4.46428571429
152	0.076	0.727631578947	0.566666666667	11.9	-1.55714285714
153	0.0765	-0.694736842105	6.33333333333	1.8	-4.46428571429
154	0.077	0.727631578947	-5.2	0.357142857143	-3.01071428571
155	0.0775	-3.53947368421	-5.2	0.357142857143	-1.55714285714
156	0.078	-0.694736842105	2.00833333333	0.357142857143	-8.825
157	0.0785	0.727631578947	0.566666666667	13.3428571429	-4.46428571429
158	0.079	0.727631578947	0.566666666667	13.3428571429	-5.91785714286
159	0.0795	0.727631578947	2.00833333333	3.24285714286	-4.46428571429
160	0.08	-2.11710526316	3.45	-1.08571428571	-1.55714285714
161	0.0805	14.9513157895	0.566666666667	1.8	-10.2785714286
162	0.081	-0.694736842105	2.00833333333	0.357142857143	-13.1857142857
163	0.0815	-2.11710526316	0.566666666667	-9.74285714286	-5.91785714286
164	0.082	-3.53947368421	0.566666666667	1.8	-4.46428571429
165	0.0825	2.15	3.45	0.357142857143	-5.91785714286
166	0.083	-4.96184210526	0.566666666667	-2.52857142857	-3.01071428571
167	0.0835	-7.80657894737	0.566666666667	1.8	11.525
168	0.084	-0.694736842105	0.566666666667	1.8	-1.55714285714
169	0.0845	-0.694736842105	0.566666666667	17.6714285714	-7.37142857143
170	0.085	0.727631578947	-12.4083333333	1.8	-3.01071428571
171	0.0855	-0.694736842105	-10.9666666667	1.8	-7.37142857143
172	0.086	-0.694736842105	0.566666666667	0.357142857143	-4.46428571429
173	0.0865	-3.53947368421	0.566666666667	4.68571428571	-13.1857142857
174	0.087	-0.694736842105	0.566666666667	-3.97142857143	-3.01071428571
175	0.0875	-0.694736842105	-0.875	-3.97142857143	-4.46428571429
176	0.088	-0.694736842105	0.566666666667	-3.97142857143	-3.01071428571
177	0.0885	2.15	-0.875	3.24285714286	-4.46428571429
178	0.089	3.57236842105	0.566666666667	0.357142857143	-7.37142857143
179	0.0895	-4.96184210526	0.566666666667	-1.08571428571	-5.91785714286
180	0.09	0.727631578947	2.00833333333	4.68571428571	-4.46428571429
181	0.0905	-2.11710526316	2.00833333333	1.8	-3.01071428571
182	0.091	-2.11710526316	16.425	0.357142857143	-4.46428571429
183	0.0915	-17.7631578947	0.566666666667	0.357142857143	-4.46428571429
184	0.092	17.7960526316	0.566666666667	1.8	-5.91785714286
185	0.0925	-2.11710526316	0.566666666667	0.357142857143	-13.1857142857
186	0.093	0.727631578947	2.00833333333	-3.97142857143	-4.46428571429
187	0.0935	0.727631578947	2.00833333333	-5.41428571429	-3.01071428571
188	0.094	0.727631578947	10.6583333333	3.24285714286	-4.46428571429
189	0.0945	9.26184210526	0.566666666667	0.357142857143	-3.01071428571
190	0.095	-4.96184210526	0.566666666667	0.357142857143	11.525
191	0.0955	-2.11710526316	0.566666666667	-8.3	-5.91785714286
192	0.096	-0.694736842105	3.45	0.357142857143	-4.46428571429
193	0.0965	-0.694736842105	2.00833333333	3.24285714286	-3.01071428571
194	0.097	-3.53947368421	3.45	0.357142857143	-1.55714285714
195	0.0975	-12.0736842105	0.566666666667	1.8	-3.01071428571
196	0.098	0.727631578947	3.45	4.68571428571	14.4321428571
197	0.0985	-0.694736842105	2.00833333333	17.6714285714	-3.01071428571
198	0.099	-2.11710526316	0.566666666667	3.24285714286	-4.46428571429
199	0.0995	-2.11710526316	17.8666666667	-1.08571428571	-4.46428571429
200	0.1	-9.22894736842	3.45	3.24285714286	-1.55714285714
201	0.1005	-12.0736842105	2.00833333333	0.357142857143	15.8857142857
202	0.101	-0.694736842105	2.00833333333	3.24285714286	11.525
203	0.1015	0.727631578947	2.00833333333	20.5571428571	-4.46428571429
204	0.102	-0.694736842105	-10.9666666667	1.8	-4.46428571429
205	0.1025	-2.11710526316	-9.525	1.8	-4.46428571429
206	0.103	-12.0736842105	0.566666666667	1.8	-3.01071428571
207	0.1035	0.727631578947	0.566666666667	0.357142857143	-13.1857142857
208	0.104	-0.694736842105	2.00833333333	16.2285714286	-5.91785714286
209	0.1045	0.727631578947	-0.875	14.7857142857	-4.46428571429
210	0.105	0.727631578947	-10.9666666667	0.357142857143	-3.01071428571
211	0.1055	7.83947368421	-0.875	4.68571428571	-5.91785714286
212	0.106	12.1065789474	0.566666666667	4.68571428571	-5.91785714286
213	0.1065	-0.694736842105	3.45	3.24285714286	-1.55714285714
214	0.107	0.727631578947	2.00833333333	13.3428571429	-7.37142857143
215	0.1075	-4.96184210526	0.566666666667	14.7857142857	-5.91785714286
216	0.108	-2.11710526316	-6.64166666667	1.8	-4.46428571429
217	0.1085	-0.694736842105	0.566666666667	-1.08571428571	-3.01071428571
218	0.109	17.7960526316	0.566666666667	0.357142857143	-5.91785714286
219	0.1095	-2.11710526316	0.566666666667	-9.74285714286	-3.01071428571
220	0.11	-0.694736842105	0.566666666667	-8.3	-3.01071428571
221	0.1105	-2.11710526316	2.00833333333	0.357142857143	-3.01071428571
222	0.111	-2.11710526316	16.425	-1.08571428571	-3.01071428571
223	0.1115	-4.96184210526	-0.875	1.8	-1.55714285714
224	0.112	-7.80657894737	0.566666666667	1.8	14.4321428571
225	0.1125	0.727631578947	-0.875	3.24285714286	12.9785714286
226	0.113	0.727631578947	3.45	17.6714285714	-3.01071428571
227	0.1135	0.727631578947	-9.525	1.8	-3.01071428571
228	0.114	3.57236842105	-9.525	3.24285714286	-4.46428571429
229	0.1145	0.727631578947	2.00833333333	0.357142857143	-4.46428571429
230	0.115	17.7960526316	2.00833333333	3.24285714286	-7.37142857143
231	0.1155	-3.53947368421	-2.31666666667	-6.85714285714	-11.7321428571
232	0.116	-3.53947368421	-0.875	-8.3	-5.91785714286
233	0.1165	-3.53947368421	2.00833333333	1.8	-3.01071428571
234	0.117	-4.96184210526	2.00833333333	-1.08571428571	-1.55714285714
235	0.1175	-9.22894736842	0.566666666667	0.357142857143	-1.55714285714
236	0.118	-10.6513157895	-2.31666666667	1.8	-3.01071428571
237	0.1185	-2.11710526316	0.566666666667	13.3428571429	-3.01071428571
238	0.119	-4.96184210526	2.00833333333	14.7857142857	-4.46428571429
239	0.1195	-4.96184210526	0.566666666667	0.357142857143	-4.46428571429
240	0.12	-9.22894736842	-0.875	3.24285714286	-4.46428571429
241	0.1205	-7.80657894737	4.89166666667	0.357142857143	-1.55714285714
242	0.121	-7.80657894737	-0.875	0.357142857143	7.16428571429
243	0.1215	-3.53947368421	2.00833333333	-2.52857142857	-4.46428571429
244	0.122	-0.694736842105	3.45	-1.08571428571	-1.55714285714
245	0.1225	-0.694736842105	3.45	0.357142857143	-4.46428571429
246	0.123	-7.80657894737	0.566666666667	0.357142857143	-4.46428571429
247	0.1235	4.99473684211	3.45	0.357142857143	4.25714285714
248	0.124	-2.11710526316	-0.875	0.357142857143	-0.103571428571
249	0.1245	-2.11710526316	0.566666666667	4.68571428571	-7.37142857143
250	0.125	-2.11710526316	-10.9666666667	0.357142857143	-4.46428571429
251	0.1255	0.727631578947	-9.525	3.24285714286	-3.01071428571
252	0.126	-0.694736842105	-8.08333333333	3.24285714286	-5.91785714286
253	0.1265	17.7960526316	2.00833333333	1.8	-4.46428571429
254	0.127	-0.694736842105	0.566666666667	-2.52857142857	14.4321428571
255	0.1275	-2.11710526316	0.566666666667	16.2285714286	-4.46428571429
256	0.128	0.727631578947	-0.875	14.7857142857	-3.01071428571
257	0.1285	-0.694736842105	-0.875	-1.08571428571	-4.46428571429
258	0.129	-4.96184210526	-2.31666666667	0.357142857143	-3.01071428571
259	0.1295	10.6842105263	-0.875	0.357142857143	-7.37142857143
260	0.13	-0.694736842105	3.45	1.8	-11.7321428571
261	0.1305	-0.694736842105	0.566666666667	-3.97142857143	-3.01071428571
262	0.131	2.15	-9.525	-1.08571428571	-1.55714285714
263	0.1315	3.57236842105	-10.9666666667	-1.08571428571	-5.91785714286
264	0.132	22.0631578947	-2.31666666667	0.357142857143	-14.6392857143
265	0.1325	2.15	0.566666666667	-2.52857142857	-16.0928571429
266	0.133	7.83947368421	0.566666666667	0.357142857143	-10.2785714286
267	0.1335	3.57236842105	2.00833333333	-1.08571428571	-3.01071428571
268	0.134	3.57236842105	2.00833333333	0.357142857143	-3.01071428571
269	0.1345	2.15	-0.875	0.357142857143	-7.37142857143
270	0.135	0.727631578947	0.566666666667	-1.08571428571	-7.37142857143
271	0.1355	4.99473684211	-0.875	-1.08571428571	2.80357142857
272	0.136	4.99473684211	0.566666666667	-5.41428571429	-7.37142857143
273	0.1365	6.41710526316	3.45	0.357142857143	-4.46428571429
274	0.137	2.15	2.00833333333	0.357142857143	-4.46428571429
275	0.1375	-10.6513157895	-0.875	-1.08571428571	-0.103571428571
276	0.138	-3.53947368421	-0.875	4.68571428571	7.16428571429
277	0.1385	2.15	-0.875	3.24285714286	8.61785714286
278	0.139	3.57236842105	-2.31666666667	-1.08571428571	-5.91785714286
279	0.1395	3.57236842105	-9.525	0.357142857143	-4.46428571429
280	0.14	3.57236842105	-8.08333333333	-1.08571428571	-4.46428571429
281	0.1405	10.6842105263	-9.525	-1.08571428571	-5.91785714286
282	0.141	3.57236842105	-0.875	-1.08571428571	-13.1857142857
283	0.1415	4.99473684211	2.00833333333	-3.97142857143	-5.91785714286
284	0.142	0.727631578947	0.566666666667	-8.3	-4.46428571429
285	0.1425	2.15	-0.875	-6.85714285714	-3.01071428571
286	0.143	6.41710526316	0.566666666667	-1.08571428571	-4.46428571429
287	0.1435	14.9513157895	-0.875	1.8	-4.46428571429
288	0.144	-2.11710526316	0.566666666667	1.8	-11.7321428571
289	0.1445	3.57236842105	0.566666666667	-3.97142857143	-8.825
290	0.145	0.727631578947	2.00833333333	0.357142857143	-1.55714285714
291	0.1455	0.727631578947	9.21666666667	-1.08571428571	-1.55714285714
292	0.146	-2.11710526316	-0.875	0.357142857143	-1.55714285714
293	0.1465	-9.22894736842	0.566666666667	3.24285714286	-0.103571428571
294	0.147	-0.694736842105	-0.875	4.68571428571	-10.2785714286
295	0.1475	-0.694736842105	-0.875	9.01428571429	-4.46428571429
296	0.148	0.727631578947	3.45	-1.08571428571	-4.46428571429
297	0.1485	-2.11710526316	-3.75833333333	0.357142857143	-4.46428571429
298	0.149	3.57236842105	-6.64166666667	1.8	-3.01071428571
299	0.1495	0.727631578947	0.566666666667	-1.08571428571	-14.6392857143
300	0.15	0.727631578947	-0.875	-6.85714285714	-4.46428571429
301	0.1505	0.727631578947	-5.2	-3.97142857143	-3.01071428571
302	0.151	0.727631578947	2.00833333333	-6.85714285714	-1.55714285714
303	0.1515	-0.694736842105	17.8666666667	0.357142857143	-1.55714285714
304	0.152	-10.6513157895	0.566666666667	0.357142857143	-0.103571428571
305	0.1525	-9.22894736842	-0.875	-1.08571428571	14.4321428571
306	0.153	-0.694736842105	0.566666666667	0.357142857143	11.525
307	0.1535	3.57236842105	-0.875	1.8	-3.01071428571
308	0.154	7.83947368421	-5.2	0.357142857143	-3.01071428571
309	0.1545	10.6842105263	-5.2	0.357142857143	-1.55714285714
310	0.155	2.15	-0.875	4.68571428571	-0.103571428571
311	0.1555	-0.694736842105	-2.31666666667	1.8	12.9785714286
312	0.156	-3.53947368421	0.566666666667	3.24285714286	-4.46428571429
313	0.1565	-0.694736842105	-12.4083333333	-1.08571428571	-1.55714285714
314	0.157	0.727631578947	17.8666666667	0.357142857143	-4.46428571429
315	0.1575	-13.4960526316	0.566666666667	0.357142857143	-1.55714285714
316	0.158	-7.80657894737	0.566666666667	-1.08571428571	-1.55714285714
317	0.1585	0.727631578947	-0.875	-9.74285714286	-1.55714285714
318	0.159	-0.694736842105	-0.875	-8.3	-4.46428571429
319	0.1595	0.727631578947	14.9833333333	-1.08571428571	-3.01071428571
320	0.16	-0.694736842105	-6.64166666667	-1.08571428571	-3.01071428571
321	0.1605	0.727631578947	0.566666666667	1.8	-3.01071428571
322	0.161	0.727631578947	0.566666666667	-6.85714285714	-8.825
323	0.1615	0.727631578947	0.566666666667	1.8	-3.01071428571
324	0.162	2.15	-0.875	0.357142857143	-3.01071428571
325	0.1625	0.727631578947	14.9833333333	0.357142857143	-3.01071428571
326	0.163	-2.11710526316	0.566666666667	1.8	-1.55714285714
327	0.1635	-9.22894736842	-0.875	-1.08571428571	14.4321428571
328	0.164	2.15	-0.875	-3.97142857143	-4.46428571429
329	0.1645	2.15	0.566666666667	-5.41428571429	-1.55714285714
330	0.165	-0.694736842105	-3.75833333333	-1.08571428571	-3.01071428571
331	0.1655	0.727631578947	0.566666666667	0.357142857143	-4.46428571429
332	0.166	7.83947368421	-2.31666666667	1.8	-4.46428571429
333	0.1665	-4.96184210526	0.566666666667	3.24285714286	-7.37142857143
334	0.167	2.15	2.00833333333	0.357142857143	7.16428571429
335	0.1675	-2.11710526316	2.00833333333	14.7857142857	-1.55714285714
336	0.168	-0.694736842105	-5.2	1.8	-3.01071428571
337	0.1685	-0.694736842105	-8.08333333333	1.8	-1.55714285714
338	0.169	0.727631578947	-0.875	0.357142857143	-4.46428571429
339	0.1695	0.727631578947	0.566666666667	-2.52857142857	15.8857142857
340	0.17	0.727631578947	-0.875	-1.08571428571	15.8857142857
341	0.1705	3.57236842105	2.00833333333	-6.85714285714	-3.01071428571
342	0.171	2.15	13.5416666667	0.357142857143	-4.46428571429
343	0.1715	2.15	-5.2	0.357142857143	-3.01071428571
344	0.172	-9.22894736842	-2.31666666667	0.357142857143	-3.01071428571
345	0.1725	-0.694736842105	-0.875	1.8	-13.1857142857
346	0.173	-0.694736842105	-0.875	16.2285714286	-4.46428571429
347	0.1735	-2.11710526316	-0.875	17.6714285714	-3.01071428571
348	0.174	0.727631578947	-5.2	-1.08571428571	-3.01071428571
349	0.1745	-2.11710526316	-5.2	-1.08571428571	-1.55714285714
350	0.175	3.57236842105	0.566666666667	-1.08571428571	-5.91785714286
351	0.1755	-3.53947368421	-0.875	-6.85714285714	-10.2785714286
352	0.176	3.57236842105	0.566666666667	-3.97142857143	-10.2785714286
353	0.1765	-0.694736842105	0.566666666667	1.8	-5.91785714286
354	0.177	-2.11710526316	-2.31666666667	-1.08571428571	-4.46428571429
355	0.1775	-6.38421052632	-0.875	3.24285714286	-3.01071428571
356	0.178	10.6842105263	0.566666666667	3.24285714286	-8.825
357	0.1785	-0.694736842105	-0.875	1.8	-10.2785714286
358	0.179	-3.53947368421	0.566666666667	0.357142857143	-3.01071428571
359	0.1795	-0.694736842105	-8.08333333333	-1.08571428571	-4.46428571429
360	0.18	-0.694736842105	3.45	-1.08571428571	-4.46428571429
361	0.1805	-0.694736842105	4.89166666667	0.357142857143	-5.91785714286
362	0.181	-2.11710526316	-2.31666666667	0.357142857143	-7.37142857143
363	0.1815	-2.11710526316	-2.31666666667	-11.1857142857	-3.01071428571
364	0.182	-3.53947368421	-2.31666666667	-6.85714285714	-3.01071428571
365	0.1825	0.727631578947	-10.9666666667	1.8	-1.55714285714
366	0.183	0.727631578947	-0.875	0.357142857143	-3.01071428571
367	0.1835	20.6407894737	2.00833333333	-1.08571428571	-1.55714285714
368	0.184	-6.38421052632	-0.875	1.8	-0.103571428571
369	0.1845	-0.694736842105	2.00833333333	20.5571428571	-4.46428571429
370	0.185	0.727631578947	3.45	0.357142857143	-4.46428571429
371	0.1855	-0.694736842105	-10.9666666667	1.8	-3.01071428571
372	0.186	4.99473684211	-5.2	-1.08571428571	-3.01071428571
373	0.1865	17.7960526316	-0.875	4.68571428571	-13.1857142857
374	0.187	-2.11710526316	0.566666666667	4.68571428571	-11.7321428571
375	0.1875	-2.11710526316	-0.875	-6.85714285714	-3.01071428571
376	0.188	0.727631578947	-10.9666666667	0.357142857143	-3.01071428571
377	0.1885	0.727631578947	14.9833333333	-1.08571428571	-3.01071428571
378	0.189	3.57236842105	-2.31666666667	0.357142857143	-3.01071428571
379	0.1895	-4.96184210526	-0.875	0.357142857143	-1.55714285714
380	0.19	-2.11710526316	-0.875	1.8	-7.37142857143
381	0.1905	-2.11710526316	0.566666666667	7.57142857143	-7.37142857143
382	0.191	0.727631578947	-9.525	-1.08571428571	-1.55714285714
383	0.1915	2.15	0.566666666667	0.357142857143	-4.46428571429
384	0.192	3.57236842105	0.566666666667	0.357142857143	-4.46428571429
385	0.1925	-6.38421052632	-0.875	1.8	-1.55714285714
386	0.193	-0.694736842105	-0.875	1.8	-0.103571428571
387	0.1935	-3.53947368421	-0.875	-2.52857142857	-4.46428571429
388	0.194	-3.53947368421	0.566666666667	-2.52857142857	-3.01071428571
389	0.1945	-3.53947368421	0.566666666667	0.357142857143	-4.46428571429
390	0.195	-0.694736842105	0.566666666667	-1.08571428571	-7.37142857143
391	0.1955	-10.6513157895	0.566666666667	1.8	-5.91785714286
392	0.196	-3.53947368421	0.566666666667	-2.52857142857	11.525
393	0.1965	-4.96184210526	2.00833333333	-1.08571428571	-3.01071428571
394	0.197	-4.96184210526	-2.31666666667	-1.08571428571	-3.01071428571
395	0.1975	-3.53947368421	-5.2	-1.08571428571	-4.46428571429
396	0.198	7.83947368421	-0.875	0.357142857143	-14.6392857143
397	0.1985	-2.11710526316	0.566666666667	3.24285714286	-13.1857142857
398	0.199	-3.53947368421	0.566666666667	19.1142857143	-5.91785714286
399	0.1995	-4.96184210526	0.566666666667	17.6714285714	-3.01071428571
400	0.2	-3.53947368421	-9.525	3.24285714286	-3.01071428571
401	0.2005	-3.53947368421	-2.31666666667	0.357142857143	-3.01071428571
402	0.201	10.6842105263	0.566666666667	1.8	-1.55714285714
403	0.2015	-6.38421052632	2.00833333333	3.24285714286	7.16428571429
404	0.202	-4.96184210526	0.566666666667	13.3428571429	-3.01071428571
405	0.2025	-3.53947368421	3.45	-1.08571428571	-1.55714285714
406	0.203	-4.96184210526	0.566666666667	-1.08571428571	-3.01071428571
407	0.2035	0.727631578947	0.566666666667	0.357142857143	-4.46428571429
408	0.204	4.99473684211	-0.875	0.357142857143	-11.7321428571
409	0.2045	-7.80657894737	0.566666666667	3.24285714286	-13.1857142857
410	0.205	-2.11710526316	-0.875	-3.97142857143	-3.01071428571
411	0.2055	-2.11710526316	-10.9666666667	0.357142857143	-1.55714285714
412	0.206	2.15	-6.64166666667	3.24285714286	-3.01071428571
413	0.2065	-2.11710526316	-0.875	1.8	-3.01071428571
414	0.207	-4.96184210526	2.00833333333	1.8	2.80357142857
415	0.2075	-2.11710526316	-0.875	-11.1857142857	-8.825
416	0.208	-4.96184210526	-2.31666666667	-6.85714285714	-8.825
417	0.2085	-4.96184210526	10.6583333333	0.357142857143	-3.01071428571
418	0.209	-4.96184210526	-3.75833333333	0.357142857143	-1.55714285714
419	0.2095	-12.0736842105	0.566666666667	0.357142857143	-0.103571428571
420	0.21	-2.11710526316	0.566666666667	-1.08571428571	-7.37142857143
421	0.2105	-0.694736842105	0.566666666667	1.8	-5.91785714286
422	0.211	-0.694736842105	-0.875	-1.08571428571	-4.46428571429
423	0.2115	-0.694736842105	7.775	1.8	-3.01071428571
424	0.212	0.727631578947	-3.75833333333	1.8	-3.01071428571
425	0.2125	-2.11710526316	-2.31666666667	1.8	-3.01071428571
426	0.213	-9.22894736842	0.566666666667	4.68571428571	12.9785714286
427	0.2135	-4.96184210526	0.566666666667	14.7857142857	-4.46428571429
428	0.214	-2.11710526316	0.566666666667	-1.08571428571	-3.01071428571
429	0.2145	2.15	10.6583333333	0.357142857143	-4.46428571429
430	0.215	2.15	-2.31666666667	0.357142857143	-4.46428571429
431	0.2155	-6.38421052632	-0.875	0.357142857143	-7.37142857143
432	0.216	0.727631578947	0.566666666667	1.8	2.80357142857
433	0.2165	0.727631578947	0.566666666667	9.01428571429	-3.01071428571
434	0.217	-2.11710526316	0.566666666667	3.24285714286	-3.01071428571
435	0.2175	0.727631578947	-0.875	1.8	-3.01071428571
436	0.218	-7.80657894737	-2.31666666667	-1.08571428571	-5.91785714286
437	0.2185	13.5289473684	-0.875	3.24285714286	-7.37142857143
438	0.219	-0.694736842105	0.566666666667	-1.08571428571	-10.2785714286
439	0.2195	0.727631578947	-2.31666666667	-6.85714285714	-4.46428571429
440	0.22	-2.11710526316	-0.875	0.357142857143	-3.01071428571
441	0.2205	0.727631578947	-6.64166666667	1.8	-1.55714285714
442	0.221	12.1065789474	3.45	1.8	-1.55714285714
443	0.2215	0.727631578947	0.566666666667	1.8	-0.103571428571
444	0.222	2.15	4.89166666667	19.1142857143	-5.91785714286
445	0.2225	0.727631578947	4.89166666667	1.8	-3.01071428571
446	0.223	-0.694736842105	-9.525	0.357142857143	-4.46428571429
447	0.2235	4.99473684211	-5.2	1.8	-3.01071428571
448	0.224	19.2184210526	0.566666666667	3.24285714286	-14.6392857143
449	0.2245	-3.53947368421	0.566666666667	3.24285714286	-14.6392857143
450	0.225	-2.11710526316	0.566666666667	20.5571428571	-3.01071428571
451	0.2255	-2.11710526316	-10.9666666667	1.8	-5.91785714286
452	0.226	-2.11710526316	-10.9666666667	4.68571428571	-3.01071428571
453	0.2265	0.727631578947	3.45	1.8	-3.01071428571
454	0.227	4.99473684211	-0.875	0.357142857143	-4.46428571429
455	0.2275	-6.38421052632	0.566666666667	3.24285714286	-1.55714285714
456	0.228	-4.96184210526	2.00833333333	-1.08571428571	-3.01071428571
457	0.2285	-2.11710526316	-6.64166666667	3.24285714286	-3.01071428571
458	0.229	-2.11710526316	-5.2	0.357142857143	-3.01071428571
459	0.2295	7.83947368421	0.566666666667	-1.08571428571	-3.01071428571
460	0.23	-4.96184210526	0.566666666667	3.24285714286	4.25714285714
461	0.2305	-2.11710526316	0.566666666667	-1.08571428571	7.16428571429
462	0.231	-0.694736842105	0.566666666667	14.7857142857	-5.91785714286
463	0.2315	-2.11710526316	9.21666666667	0.357142857143	-4.46428571429
464	0.232	-3.53947368421	0.566666666667	3.24285714286	-0.103571428571
465	0.2325	-3.53947368421	0.566666666667	0.357142857143	-3.01071428571
466	0.233	-10.6513157895	2.00833333333	3.24285714286	-3.01071428571
467	0.2335	-6.38421052632	0.566666666667	9.01428571429	-1.55714285714
468	0.234	-3.53947368421	-0.875	1.8	-3.01071428571
469	0.2345	-3.53947368421	-0.875	1.8	-3.01071428571
470	0.235	-4.96184210526	-5.2	1.8	-3.01071428571
471	0.2355	0.727631578947	3.45	1.8	-1.55714285714
472	0.236	-9.22894736842	-0.875	3.24285714286	1.35
473	0.2365	-4.96184210526	-0.875	7.57142857143	-3.01071428571
474	0.237	-6.38421052632	-9.525	0.357142857143	-4.46428571429
475	0.2375	-6.38421052632	-2.31666666667	4.68571428571	-3.01071428571
476	0.238	-4.96184210526	0.566666666667	1.8	-4.46428571429
477	0.2385	3.57236842105	0.566666666667	-1.08571428571	-11.7321428571
478	0.239	-4.96184210526	2.00833333333	0.357142857143	-1.55714285714
479	0.2395	-4.96184210526	3.45	-2.52857142857	-3.01071428571
480	0.24	-3.53947368421	4.89166666667	-1.08571428571	-3.01071428571
481	0.2405	-2.11710526316	14.9833333333	0.357142857143	-1.55714285714
482	0.241	-19.1855263158	-0.875	0.357142857143	-0.103571428571
483	0.2415	-13.4960526316	0.566666666667	4.68571428571	-0.103571428571
484	0.242	-4.96184210526	0.566666666667	-11.1857142857	-7.37142857143
485	0.2425	-3.53947368421	-2.31666666667	-9.74285714286	-5.91785714286
486	0.243	-4.96184210526	17.8666666667	1.8	-1.55714285714
487	0.2435	-3.53947368421	0.566666666667	0.357142857143	-4.46428571429
488	0.244	-13.4960526316	0.566666666667	-1.08571428571	-0.103571428571
489	0.2445	-14.9184210526	0.566666666667	1.8	-0.103571428571
490	0.245	-3.53947368421	-0.875	3.24285714286	-11.7321428571
491	0.2455	-2.11710526316	0.566666666667	1.8	-3.01071428571
492	0.246	-0.694736842105	-0.875	-1.08571428571	-1.55714285714
493	0.2465	0.727631578947	0.566666666667	0.357142857143	-4.46428571429
494	0.247	9.26184210526	0.566666666667	-1.08571428571	-16.0928571429
495	0.2475	-6.38421052632	-0.875	-1.08571428571	-10.2785714286
496	0.248	-3.53947368421	2.00833333333	-2.52857142857	-1.55714285714
497	0.2485	-4.96184210526	0.566666666667	-5.41428571429	-3.01071428571
498	0.249	-3.53947368421	20.75	-1.08571428571	-4.46428571429
499	0.2495	-4.96184210526	17.8666666667	-1.08571428571	-1.55714285714
500	0.25	-9.22894736842	-0.875	3.24285714286	11.525
501	0.2505	-3.53947368421	-0.875	-1.08571428571	7.16428571429
502	0.251	-3.53947368421	-0.875	-3.97142857143	-4.46428571429
503	0.2515	-3.53947368421	4.89166666667	3.24285714286	-1.55714285714
504	0.252	-6.38421052632	-0.875	3.24285714286	-3.01071428571
505	0.2525	-16.3407894737	0.566666666667	0.357142857143	-1.55714285714
506	0.253	-10.6513157895	0.566666666667	0.357142857143	-0.103571428571
507	0.2535	-0.694736842105	0.566666666667	13.3428571429	-4.46428571429
508	0.254	-3.53947368421	-5.2	3.24285714286	-4.46428571429
509	0.2545	-2.11710526316	4.89166666667	-1.08571428571	-3.01071428571
510	0.255	-2.11710526316	-5.2	-1.08571428571	-3.01071428571
511	0.2555	-6.38421052632	0.566666666667	0.357142857143	-3.01071428571
512	0.256	-3.53947368421	0.566666666667	6.12857142857	-3.01071428571
513	0.2565	-3.53947368421	0.566666666667	19.1142857143	-5.91785714286
514	0.257	-3.53947368421	6.33333333333	0.357142857143	-3.01071428571
515	0.2575	-4.96184210526	-8.08333333333	-1.08571428571	-1.55714285714
516	0.258	-13.4960526316	0.566666666667	1.8	-4.46428571429
517	0.2585	13.5289473684	0.566666666667	-1.08571428571	-5.91785714286
518	0.259	-3.53947368421	2.00833333333	-1.08571428571	-4.46428571429
519	0.2595	-4.96184210526	2.00833333333	-6.85714285714	-1.55714285714
520	0.26	-7.80657894737	6.33333333333	1.8	-3.01071428571
521	0.2605	-7.80657894737	-3.75833333333	3.24285714286	-5.91785714286
522	0.261	-3.53947368421	-2.31666666667	0.357142857143	-3.01071428571
523	0.2615	-9.22894736842	2.00833333333	1.8	-0.103571428571
524	0.262	-3.53947368421	2.00833333333	4.68571428571	-4.46428571429
525	0.2625	-4.96184210526	-10.9666666667	0.357142857143	-3.01071428571
526	0.263	-0.694736842105	-10.9666666667	0.357142857143	-3.01071428571
527	0.2635	0.727631578947	-0.875	0.357142857143	-4.46428571429
528	0.264	13.5289473684	0.566666666667	1.8	-5.91785714286
529	0.2645	-4.96184210526	0.566666666667	-9.74285714286	-1.55714285714
530	0.265	-9.22894736842	0.566666666667	-5.41428571429	-5.91785714286
531	0.2655	-6.38421052632	-3.75833333333	-5.41428571429	-4.46428571429
532	0.266	-7.80657894737	0.566666666667	0.357142857143	-3.01071428571
533	0.2665	3.57236842105	-0.875	1.8	-3.01071428571
534	0.267	-7.80657894737	-0.875	-1.08571428571	-7.37142857143
535	0.2675	-4.96184210526	-2.31666666667	-12.6285714286	-10.2785714286
536	0.268	-4.96184210526	4.89166666667	3.24285714286	-4.46428571429
537	0.2685	-6.38421052632	2.00833333333	0.357142857143	-4.46428571429
538	0.269	-9.22894736842	0.566666666667	0.357142857143	-1.55714285714
539	0.2695	-14.9184210526	0.566666666667	0.357142857143	-0.103571428571
540	0.27	-3.53947368421	0.566666666667	4.68571428571	15.8857142857
541	0.2705	-3.53947368421	2.00833333333	19.1142857143	-3.01071428571
542	0.271	-2.11710526316	2.00833333333	3.24285714286	-3.01071428571
543	0.2715	-2.11710526316	-10.9666666667	0.357142857143	-3.01071428571
544	0.272	-10.6513157895	-0.875	0.357142857143	-1.55714285714
545	0.2725	-9.22894736842	3.45	3.24285714286	-13.1857142857
546	0.273	0.727631578947	0.566666666667	1.8	-13.1857142857
547	0.2735	-3.53947368421	0.566666666667	-8.3	-4.46428571429
548	0.274	-0.694736842105	-5.2	1.8	-3.01071428571
549	0.2745	-0.694736842105	16.425	1.8	-3.01071428571
550	0.275	-2.11710526316	0.566666666667	0.357142857143	-3.01071428571
551	0.2755	-9.22894736842	2.00833333333	-1.08571428571	-4.46428571429
552	0.276	-0.694736842105	-0.875	1.8	-3.01071428571
553	0.2765	-2.11710526316	-8.08333333333	-1.08571428571	-1.55714285714
554	0.277	-3.53947368421	7.775	0.357142857143	-4.46428571429
555	0.2775	-4.96184210526	13.5416666667	1.8	-3.01071428571
556	0.278	-12.0736842105	2.00833333333	0.357142857143	-0.103571428571
557	0.2785	-3.53947368421	3.45	-8.3	-4.46428571429
558	0.279	-4.96184210526	2.00833333333	-8.3	-5.91785714286
559	0.2795	-6.38421052632	2.00833333333	-1.08571428571	-3.01071428571
560	0.28	-4.96184210526	3.45	0.357142857143	-3.01071428571
561	0.2805	-16.3407894737	3.45	3.24285714286	1.35
562	0.281	-12.0736842105	0.566666666667	1.8	2.80357142857
563	0.2815	-2.11710526316	0.566666666667	4.68571428571	-5.91785714286
564	0.282	-3.53947368421	3.45	17.6714285714	-5.91785714286
565	0.2825	-3.53947368421	-13.85	-1.08571428571	-3.01071428571
566	0.283	0.727631578947	-3.75833333333	0.357142857143	-3.01071428571
567	0.2835	-0.694736842105	-2.31666666667	3.24285714286	-1.55714285714
568	0.284	-3.53947368421	0.566666666667	0.357142857143	-14.6392857143
569	0.2845	-3.53947368421	0.566666666667	-8.3	-1.55714285714
570	0.285	-2.11710526316	-5.2	0.357142857143	-3.01071428571
571	0.2855	-0.694736842105	16.425	-1.08571428571	-1.55714285714
572	0.286	0.727631578947	0.566666666667	1.8	-1.55714285714
573	0.2865	-16.3407894737	0.566666666667	0.357142857143	-1.55714285714
574	0.287	-4.96184210526	2.00833333333	4.68571428571	-7.37142857143
575	0.2875	-3.53947368421	2.00833333333	11.9	-5.91785714286
576	0.288	-6.38421052632	-2.31666666667	9.01428571429	-4.46428571429
577	0.2885	-4.96184210526	-6.64166666667	-1.08571428571	-1.55714285714
578	0.289	-3.53947368421	4.89166666667	-1.08571428571	-4.46428571429
579	0.2895	3.57236842105	0.566666666667	0.357142857143	-3.01071428571
580	0.29	-4.96184210526	4.89166666667	-3.97142857143	-4.46428571429
581	0.2905	-6.38421052632	0.566666666667	4.68571428571	-4.46428571429
582	0.291	-2.11710526316	-8.08333333333	-1.08571428571	-3.01071428571
583	0.2915	-3.53947368421	4.89166666667	1.8	-3.01071428571
584	0.292	3.57236842105	0.566666666667	-1.08571428571	-4.46428571429
585	0.2925	-9.22894736842	0.566666666667	-1.08571428571	-0.103571428571
586	0.293	-6.38421052632	2.00833333333	-6.85714285714	-8.825
587	0.2935	-4.96184210526	0.566666666667	-2.52857142857	-3.01071428571
588	0.294	-7.80657894737	-0.875	0.357142857143	-4.46428571429
589	0.2945	-6.38421052632	-5.2	1.8	-4.46428571429
590	0.295	-7.80657894737	-6.64166666667	-1.08571428571	-1.55714285714
591	0.2955	-4.96184210526	0.566666666667	-3.97142857143	-8.825
592	0.296	-2.11710526316	0.566666666667	7.57142857143	-3.01071428571
593	0.2965	-4.96184210526	-0.875	7.57142857143	-1.55714285714
594	0.297	-7.80657894737	4.89166666667	-1.08571428571	-1.55714285714
595	0.2975	-4.96184210526	-2.31666666667	0.357142857143	-3.01071428571
596	0.298	-13.4960526316	0.566666666667	1.8	8.61785714286
597	0.2985	-3.53947368421	2.00833333333	-1.08571428571	-3.01071428571
598	0.299	-4.96184210526	3.45	-6.85714285714	-1.55714285714
599	0.2995	-0.694736842105	-2.31666666667	0.357142857143	-1.55714285714
600	0.3	-3.53947368421	-2.31666666667	-1.08571428571	-4.46428571429
601	0.3005	3.57236842105	0.566666666667	1.8	-1.55714285714
602	0.301	-3.53947368421	0.566666666667	-1.08571428571	-10.2785714286
603	0.3015	-2.11710526316	0.566666666667	-1.08571428571	-0.103571428571
604	0.302	-4.96184210526	2.00833333333	3.24285714286	-3.01071428571
605	0.3025	-4.96184210526	14.9833333333	-1.08571428571	-3.01071428571
606	0.303	-4.96184210526	-0.875	1.8	-1.55714285714
607	0.3035	-14.9184210526	-2.31666666667	0.357142857143	-3.01071428571
608	0.304	0.727631578947	2.00833333333	3.24285714286	8.61785714286
609	0.3045	-2.11710526316	3.45	16.2285714286	-3.01071428571
610	0.305	0.727631578947	3.45	-2.52857142857	-3.01071428571
611	0.3055	-3.53947368421	17.8666666667	0.357142857143	-3.01071428571
612	0.306	-17.7631578947	2.00833333333	1.8	-1.55714285714
613	0.3065	19.2184210526	0.566666666667	0.357142857143	-14.6392857143
614	0.307	-3.53947368421	0.566666666667	1.8	-11.7321428571
615	0.3075	-0.694736842105	0.566666666667	-8.3	-4.46428571429
616	0.308	0.727631578947	-10.9666666667	1.8	-1.55714285714
617	0.3085	-0.694736842105	-9.525	0.357142857143	-5.91785714286
618	0.309	2.15	2.00833333333	0.357142857143	-4.46428571429
619	0.3095	-0.694736842105	0.566666666667	0.357142857143	-13.1857142857
620	0.31	-2.11710526316	2.00833333333	-1.08571428571	11.525
621	0.3105	-2.11710526316	2.00833333333	-5.41428571429	-4.46428571429
622	0.311	-2.11710526316	20.75	0.357142857143	-4.46428571429
623	0.3115	-3.53947368421	20.75	0.357142857143	-1.55714285714
624	0.312	-19.1855263158	0.566666666667	1.8	-0.103571428571
625	0.3125	-10.6513157895	-0.875	0.357142857143	-1.55714285714
626	0.313	-4.96184210526	2.00833333333	-8.3	-3.01071428571
627	0.3135	-0.694736842105	6.33333333333	-3.97142857143	-1.55714285714
628	0.314	-3.53947368421	19.3083333333	-1.08571428571	-3.01071428571
629	0.3145	-4.96184210526	0.566666666667	0.357142857143	-3.01071428571
630	0.315	-10.6513157895	2.00833333333	3.24285714286	-3.01071428571
631	0.3155	-2.11710526316	2.00833333333	1.8	15.8857142857
632	0.316	-2.11710526316	3.45	20.5571428571	-4.46428571429
633	0.3165	-3.53947368421	2.00833333333	1.8	-5.91785714286
634	0.317	-3.53947368421	-6.64166666667	0.357142857143	-1.55714285714
635	0.3175	-6.38421052632	-5.2	-1.08571428571	-3.01071428571
636	0.318	12.1065789474	0.566666666667	3.24285714286	-14.6392857143
637	0.3185	-2.11710526316	0.566666666667	0.357142857143	-13.1857142857
638	0.319	-6.38421052632	-2.31666666667	-6.85714285714	-3.01071428571
639	0.3195	-3.53947368421	-6.64166666667	0.357142857143	-4.46428571429
640	0.32	-2.11710526316	-9.525	0.357142857143	-3.01071428571
641	0.3205	19.2184210526	0.566666666667	0.357142857143	-1.55714285714
642	0.321	-12.0736842105	2.00833333333	-2.52857142857	-1.55714285714
643	0.3215	-2.11710526316	0.566666666667	-11.1857142857	-7.37142857143
644	0.322	-4.96184210526	0.566666666667	-5.41428571429	-4.46428571429
645	0.3225	-3.53947368421	17.8666666667	-1.08571428571	-3.01071428571
646	0.323	-4.96184210526	-0.875	-1.08571428571	-3.01071428571
647	0.3235	-13.4960526316	-2.31666666667	0.357142857143	-1.55714285714
648	0.324	-6.38421052632	0.566666666667	0.357142857143	4.25714285714
649	0.3245	-0.694736842105	0.566666666667	-1.08571428571	1.35
650	0.325	-0.694736842105	2.00833333333	-2.52857142857	-1.55714285714
651	0.3255	-0.694736842105	9.21666666667	1.8	-1.55714285714
652	0.326	-3.53947368421	-3.75833333333	1.8	-3.01071428571
653	0.3265	-12.0736842105	2.00833333333	-1.08571428571	-1.55714285714
654	0.327	0.727631578947	-0.875	3.24285714286	2.80357142857
655	0.3275	-2.11710526316	-0.875	0.357142857143	2.80357142857
656	0.328	-0.694736842105	-2.31666666667	-3.97142857143	-1.55714285714
657	0.3285	2.15	-0.875	1.8	-1.55714285714
658	0.329	2.15	-2.31666666667	0.357142857143	-3.01071428571
659	0.3295	14.9513157895	-0.875	0.357142857143	-0.103571428571
660	0.33	0.727631578947	0.566666666667	-8.3	-5.91785714286
661	0.3305	0.727631578947	0.566666666667	-5.41428571429	-3.01071428571
662	0.331	0.727631578947	0.566666666667	-2.52857142857	-4.46428571429
663	0.3315	0.727631578947	16.425	0.357142857143	-1.55714285714
664	0.332	-3.53947368421	-0.875	-1.08571428571	-0.103571428571
665	0.3325	-10.6513157895	2.00833333333	1.8	-0.103571428571
666	0.333	3.57236842105	0.566666666667	0.357142857143	-1.55714285714
667	0.3335	3.57236842105	0.566666666667	14.7857142857	-1.55714285714
668	0.334	-0.694736842105	-2.31666666667	0.357142857143	-3.01071428571
669	0.3345	2.15	-6.64166666667	-1.08571428571	-1.55714285714
670	0.335	-0.694736842105	-6.64166666667	0.357142857143	-1.55714285714
671	0.3355	9.26184210526	0.566666666667	-1.08571428571	-3.01071428571
672	0.336	0.727631578947	0.566666666667	-2.52857142857	-8.825
673	0.3365	3.57236842105	2.00833333333	0.357142857143	-1.55714285714
674	0.337	0.727631578947	3.45	0.357142857143	-3.01071428571
675	0.3375	2.15	-6.64166666667	1.8	-3.01071428571
676	0.338	-4.96184210526	0.566666666667	3.24285714286	-3.01071428571
677	0.3385	10.6842105263	0.566666666667	3.24285714286	-3.01071428571
678	0.339	2.15	3.45	4.68571428571	-8.825
679	0.3395	0.727631578947	0.566666666667	-3.97142857143	-1.55714285714
680	0.34	-2.11710526316	-0.875	1.8	-3.01071428571
681	0.3405	-0.694736842105	-3.75833333333	1.8	-4.46428571429
682	0.341	3.57236842105	2.00833333333	3.24285714286	-8.825
683	0.3415	-7.80657894737	0.566666666667	0.357142857143	-8.825
684	0.342	-0.694736842105	-0.875	13.3428571429	-3.01071428571
685	0.3425	-2.11710526316	-8.08333333333	-1.08571428571	-3.01071428571
686	0.343	0.727631578947	0.566666666667	-1.08571428571	-1.55714285714
687	0.3435	0.727631578947	3.45	0.357142857143	-3.01071428571
688	0.344	10.6842105263	0.566666666667	0.357142857143	-13.1857142857
689	0.3445	-2.11710526316	0.566666666667	0.357142857143	-8.825
690	0.345	-2.11710526316	-0.875	0.357142857143	-3.01071428571
691	0.3455	-0.694736842105	-10.9666666667	1.8	-4.46428571429
692	0.346	-0.694736842105	-3.75833333333	1.8	-4.46428571429
693	0.3465	16.3736842105	0.566666666667	0.357142857143	-0.103571428571
694	0.347	-6.38421052632	0.566666666667	0.357142857143	-0.103571428571
695	0.3475	-3.53947368421	0.566666666667	-11.1857142857	-4.46428571429
696	0.348	-4.96184210526	-0.875	-8.3	-8.825
697	0.3485	-3.53947368421	16.425	0.357142857143	-1.55714285714
698	0.349	-4.96184210526	-2.31666666667	-1.08571428571	-3.01071428571
699	0.3495	-13.4960526316	2.00833333333	0.357142857143	-3.01071428571
700	0.35	-3.53947368421	0.566666666667	3.24285714286	-0.103571428571
701	0.3505	-3.53947368421	0.566666666667	4.68571428571	-1.55714285714
702	0.351	-0.694736842105	-2.31666666667	4.68571428571	-4.46428571429
703	0.3515	-0.694736842105	4.89166666667	1.8	-4.46428571429
704	0.352	0.727631578947	-2.31666666667	0.357142857143	-3.01071428571
705	0.3525	2.15	-0.875	0.357142857143	-3.01071428571
706	0.353	0.727631578947	2.00833333333	-2.52857142857	-8.825
707	0.3535	0.727631578947	3.45	1.8	-8.825
708	0.354	-0.694736842105	-2.31666666667	4.68571428571	-1.55714285714
709	0.3545	-2.11710526316	-0.875	1.8	-3.01071428571
710	0.355	-3.53947368421	0.566666666667	1.8	-0.103571428571
711	0.3555	16.3736842105	-0.875	0.357142857143	-11.7321428571
712	0.356	-0.694736842105	2.00833333333	0.357142857143	-14.6392857143
713	0.3565	-0.694736842105	-2.31666666667	-2.52857142857	-8.825
714	0.357	-2.11710526316	3.45	-6.85714285714	-4.46428571429
715	0.3575	0.727631578947	14.9833333333	0.357142857143	-3.01071428571
716	0.358	-0.694736842105	16.425	-1.08571428571	-3.01071428571
717	0.3585	-7.80657894737	0.566666666667	0.357142857143	-3.01071428571
718	0.359	0.727631578947	3.45	1.8	8.61785714286
719	0.3595	-0.694736842105	0.566666666667	-2.52857142857	-10.2785714286
720	0.36	0.727631578947	6.33333333333	-2.52857142857	-3.01071428571
721	0.3605	0.727631578947	-2.31666666667	1.8	-1.55714285714
722	0.361	-2.11710526316	3.45	3.24285714286	-1.55714285714
723	0.3615	-0.694736842105	0.566666666667	-1.08571428571	7.16428571429
724	0.362	2.15	0.566666666667	-1.08571428571	12.9785714286
725	0.3625	0.727631578947	3.45	-3.97142857143	-3.01071428571
726	0.363	-0.694736842105	2.00833333333	0.357142857143	-1.55714285714
727	0.3635	-0.694736842105	2.00833333333	0.357142857143	-4.46428571429
728	0.364	-10.6513157895	3.45	0.357142857143	-3.01071428571
729	0.3645	-9.22894736842	0.566666666667	-3.97142857143	12.9785714286
730	0.365	-0.694736842105	0.566666666667	-1.08571428571	7.16428571429
731	0.3655	-0.694736842105	3.45	-2.52857142857	-4.46428571429
732	0.366	-0.694736842105	10.6583333333	3.24285714286	-1.55714285714
733	0.3665	-0.694736842105	-2.31666666667	1.8	-1.55714285714
734	0.367	-0.694736842105	0.566666666667	-1.08571428571	-4.46428571429
735	0.3675	-9.22894736842	2.00833333333	-1.08571428571	8.61785714286
736	0.368	-4.96184210526	0.566666666667	0.357142857143	12.9785714286
737	0.3685	-0.694736842105	-2.31666666667	-1.08571428571	-1.55714285714
738	0.369	0.727631578947	9.21666666667	0.357142857143	-3.01071428571
739	0.3695	0.727631578947	-2.31666666667	-1.08571428571	-1.55714285714
740	0.37	-6.38421052632	0.566666666667	-1.08571428571	-1.55714285714
741	0.3705	-2.11710526316	-0.875	-8.3	-1.55714285714
742	0.371	0.727631578947	3.45	-5.41428571429	-1.55714285714
743	0.3715	-2.11710526316	2.00833333333	1.8	-1.55714285714
744	0.372	-2.11710526316	3.45	0.357142857143	-4.46428571429
745	0.3725	-13.4960526316	-0.875	-1.08571428571	-0.103571428571
746	0.373	-0.694736842105	0.566666666667	-1.08571428571	1.35
747	0.3735	-0.694736842105	2.00833333333	4.68571428571	-3.01071428571
748	0.374	-0.694736842105	0.566666666667	6.12857142857	-4.46428571429
749	0.3745	-2.11710526316	9.21666666667	1.8	-1.55714285714
750	0.375	-4.96184210526	6.33333333333	0.357142857143	-4.46428571429
751	0.3755	-9.22894736842	-0.875	3.24285714286	-4.46428571429
752	0.376	-2.11710526316	-0.875	3.24285714286	-5.91785714286
753	0.3765	-0.694736842105	2.00833333333	3.24285714286	4.25714285714
754	0.377	-0.694736842105	2.00833333333	-2.52857142857	-5.91785714286
755	0.3775	-2.11710526316	3.45	1.8	-3.01071428571
756	0.378	-2.11710526316	2.00833333333	1.8	-3.01071428571
757	0.3785	7.83947368421	-0.875	-1.08571428571	-4.46428571429
758	0.379	-6.38421052632	0.566666666667	3.24285714286	-4.46428571429
759	0.3795	-3.53947368421	0.566666666667	3.24285714286	-3.01071428571
760	0.38	0.727631578947	-8.08333333333	3.24285714286	-4.46428571429
761	0.3805	0.727631578947	-5.2	3.24285714286	-3.01071428571
762	0.381	4.99473684211	3.45	1.8	-5.91785714286
763	0.3815	-0.694736842105	2.00833333333	0.357142857143	-1.55714285714
764	0.382	0.727631578947	2.00833333333	-11.1857142857	-5.91785714286
765	0.3825	-2.11710526316	0.566666666667	-9.74285714286	-7.37142857143
766	0.383	-0.694736842105	19.3083333333	4.68571428571	-4.46428571429
767	0.3835	-3.53947368421	0.566666666667	0.357142857143	-5.91785714286
768	0.384	-13.4960526316	0.566666666667	3.24285714286	-1.55714285714
769	0.3845	-2.11710526316	0.566666666667	3.24285714286	-3.01071428571
770	0.385	-0.694736842105	0.566666666667	17.6714285714	-1.55714285714
771	0.3855	-0.694736842105	4.89166666667	-1.08571428571	-3.01071428571
772	0.386	-2.11710526316	20.75	1.8	-3.01071428571
773	0.3865	-4.96184210526	0.566666666667	4.68571428571	-1.55714285714
774	0.387	-12.0736842105	0.566666666667	3.24285714286	-7.37142857143
775	0.3875	-3.53947368421	-0.875	-1.08571428571	-14.6392857143
776	0.388	-4.96184210526	-0.875	-8.3	-3.01071428571
777	0.3885	0.727631578947	6.33333333333	-6.85714285714	-0.103571428571
778	0.389	0.727631578947	17.8666666667	1.8	-5.91785714286
779	0.3895	-2.11710526316	0.566666666667	3.24285714286	-3.01071428571
780	0.39	-6.38421052632	-0.875	1.8	2.80357142857
781	0.3905	-0.694736842105	0.566666666667	3.24285714286	4.25714285714
782	0.391	-0.694736842105	0.566666666667	7.57142857143	-5.91785714286
783	0.3915	0.727631578947	6.33333333333	0.357142857143	-1.55714285714
784	0.392	3.57236842105	-0.875	0.357142857143	-5.91785714286
785	0.3925	-10.6513157895	-0.875	0.357142857143	-4.46428571429
786	0.393	-0.694736842105	-0.875	3.24285714286	11.525
787	0.3935	-0.694736842105	-0.875	4.68571428571	-4.46428571429
788	0.394	2.15	0.566666666667	0.357142857143	-0.103571428571
789	0.3945	3.57236842105	-9.525	0.357142857143	-5.91785714286
790	0.395	4.99473684211	-8.08333333333	1.8	-4.46428571429
791	0.3955	20.6407894737	0.566666666667	0.357142857143	-5.91785714286
792	0.396	0.727631578947	0.566666666667	-1.08571428571	-13.1857142857
793	0.3965	-2.11710526316	0.566666666667	-2.52857142857	-1.55714285714
794	0.397	0.727631578947	0.566666666667	-5.41428571429	-4.46428571429
795	0.3975	0.727631578947	2.00833333333	0.357142857143	-4.46428571429
796	0.398	13.5289473684	-2.31666666667	0.357142857143	-10.2785714286
797	0.3985	-3.53947368421	0.566666666667	4.68571428571	-11.7321428571
798	0.399	-2.11710526316	2.00833333333	4.68571428571	-7.37142857143
799	0.3995	-0.694736842105	0.566666666667	-2.52857142857	-1.55714285714
800	0.4	-4.96184210526	-2.31666666667	1.8	-1.55714285714
801	0.4005	-2.11710526316	0.566666666667	4.68571428571	-3.01071428571
802	0.401	13.5289473684	2.00833333333	0.357142857143	-5.91785714286
803	0.4015	-3.53947368421	-2.31666666667	-1.08571428571	-0.103571428571
804	0.402	-3.53947368421	3.45	14.7857142857	-1.55714285714
805	0.4025	-4.96184210526	2.00833333333	9.01428571429	-1.55714285714
806	0.403	-4.96184210526	2.00833333333	-1.08571428571	-1.55714285714
807	0.4035	-13.4960526316	0.566666666667	-1.08571428571	-1.55714285714
808	0.404	-6.38421052632	0.566666666667	4.68571428571	4.25714285714
809	0.4045	-6.38421052632	0.566666666667	4.68571428571	-5.91785714286
810	0.405	-4.96184210526	-0.875	13.3428571429	-4.46428571429
811	0.4055	-7.80657894737	-10.9666666667	0.357142857143	-4.46428571429
812	0.406	-2.11710526316	-9.525	3.24285714286	-4.46428571429
813	0.4065	10.6842105263	3.45	0.357142857143	-13.1857142857
814	0.407	-6.38421052632	3.45	-3.97142857143	-13.1857142857
815	0.4075	-4.96184210526	3.45	-3.97142857143	-4.46428571429
816	0.408	-0.694736842105	2.00833333333	-6.85714285714	-4.46428571429
817	0.4085	-3.53947368421	16.425	0.357142857143	-3.01071428571
818	0.409	-2.11710526316	-0.875	0.357142857143	-0.103571428571
819	0.4095	-7.80657894737	2.00833333333	1.8	-4.46428571429
820	0.41	-4.96184210526	0.566666666667	0.357142857143	-4.46428571429
821	0.4105	-2.11710526316	2.00833333333	6.12857142857	-4.46428571429
822	0.411	-2.11710526316	2.00833333333	3.24285714286	-1.55714285714
823	0.4115	-0.694736842105	13.5416666667	3.24285714286	-4.46428571429
824	0.412	-13.4960526316	0.566666666667	0.357142857143	-1.55714285714
825	0.4125	14.9513157895	2.00833333333	3.24285714286	-13.1857142857
826	0.413	-3.53947368421	-0.875	3.24285714286	-13.1857142857
827	0.4135	-3.53947368421	-0.875	-6.85714285714	-4.46428571429
828	0.414	-2.11710526316	-10.9666666667	1.8	-3.01071428571
829	0.4145	2.15	-6.64166666667	1.8	-1.55714285714
830	0.415	0.727631578947	2.00833333333	-1.08571428571	-7.37142857143
831	0.4155	-3.53947368421	3.45	-1.08571428571	-13.1857142857
832	0.416	-0.694736842105	0.566666666667	-1.08571428571	14.4321428571
833	0.4165	-0.694736842105	-0.875	-6.85714285714	-3.01071428571
834	0.417	-0.694736842105	0.566666666667	-8.3	-3.01071428571
835	0.4175	-2.11710526316	0.566666666667	-1.08571428571	-3.01071428571
836	0.418	-13.4960526316	3.45	0.357142857143	-1.55714285714
837	0.4185	-10.6513157895	2.00833333333	0.357142857143	12.9785714286
838	0.419	-3.53947368421	3.45	17.6714285714	-4.46428571429
839	0.4195	-3.53947368421	4.89166666667	19.1142857143	-3.01071428571
840	0.42	-4.96184210526	-6.64166666667	1.8	-5.91785714286
841	0.4205	-0.694736842105	-9.525	1.8	-1.55714285714
842	0.421	10.6842105263	3.45	0.357142857143	-3.01071428571
843	0.4215	-2.11710526316	0.566666666667	-1.08571428571	-11.7321428571
844	0.422	-2.11710526316	0.566666666667	1.8	-8.825
845	0.4225	-0.694736842105	2.00833333333	-6.85714285714	-1.55714285714
846	0.423	-3.53947368421	4.89166666667	-2.52857142857	-3.01071428571
847	0.4235	-0.694736842105	2.00833333333	3.24285714286	-4.46428571429
848	0.424	14.9513157895	0.566666666667	1.8	-4.46428571429
849	0.4245	-2.11710526316	0.566666666667	-9.74285714286	-3.01071428571
850	0.425	-0.694736842105	3.45	-2.52857142857	-4.46428571429
851	0.4255	-2.11710526316	-3.75833333333	1.8	-4.46428571429
852	0.426	-4.96184210526	7.775	-1.08571428571	-3.01071428571
853	0.4265	9.26184210526	2.00833333333	0.357142857143	-3.01071428571
854	0.427	-4.96184210526	3.45	-1.08571428571	-5.91785714286
855	0.4275	-3.53947368421	2.00833333333	-9.74285714286	-7.37142857143
856	0.428	-4.96184210526	4.89166666667	-8.3	-1.55714285714
857	0.4285	-4.96184210526	4.89166666667	0.357142857143	-3.01071428571
858	0.429	-10.6513157895	0.566666666667	0.357142857143	-1.55714285714
859	0.4295	-17.7631578947	3.45	-1.08571428571	1.35
860	0.43	-14.9184210526	3.45	-1.08571428571	-0.103571428571
861	0.4305	-2.11710526316	0.566666666667	14.7857142857	-4.46428571429
862	0.431	-3.53947368421	-0.875	0.357142857143	-3.01071428571
863	0.4315	-3.53947368421	17.8666666667	-1.08571428571	-3.01071428571
864	0.432	-3.53947368421	-5.2	0.357142857143	-1.55714285714
865	0.4325	12.1065789474	0.566666666667	1.8	-3.01071428571
866	0.433	-2.11710526316	0.566666666667	-2.52857142857	-8.825
867	0.4335	-3.53947368421	0.566666666667	7.57142857143	-1.55714285714
868	0.434	-0.694736842105	4.89166666667	-1.08571428571	-3.01071428571
869	0.4345	-4.96184210526	-2.31666666667	1.8	-1.55714285714
870	0.435	-10.6513157895	0.566666666667	-1.08571428571	-1.55714285714
871	0.4355	0.727631578947	2.00833333333	0.357142857143	-0.103571428571
872	0.436	-0.694736842105	2.00833333333	1.8	-3.01071428571
873	0.4365	-0.694736842105	0.566666666667	-3.97142857143	-1.55714285714
874	0.437	-2.11710526316	-5.2	-1.08571428571	-1.55714285714
875	0.4375	-2.11710526316	-3.75833333333	0.357142857143	-3.01071428571
876	0.438	0.727631578947	2.00833333333	3.24285714286	-1.55714285714
877	0.4385	-3.53947368421	4.89166666667	-1.08571428571	12.9785714286
878	0.439	-3.53947368421	3.45	-1.08571428571	15.8857142857
879	0.4395	-2.11710526316	3.45	14.7857142857	-1.55714285714
880	0.44	-3.53947368421	-6.64166666667	-2.52857142857	-1.55714285714
881	0.4405	0.727631578947	-8.08333333333	0.357142857143	-1.55714285714
882	0.441	2.15	3.45	-1.08571428571	-4.46428571429
883	0.4415	-0.694736842105	0.566666666667	-1.08571428571	-1.55714285714
884	0.442	-0.694736842105	0.566666666667	-6.85714285714	5.71071428571
885	0.4425	0.727631578947	2.00833333333	-1.08571428571	-3.01071428571
886	0.443	3.57236842105	3.45	-1.08571428571	-1.55714285714
887	0.4435	0.727631578947	-3.75833333333	-1.08571428571	-3.01071428571
888	0.444	-3.53947368421	0.566666666667	0.357142857143	-14.6392857143
889	0.4445	3.57236842105	0.566666666667	1.8	-11.7321428571
890	0.445	0.727631578947	0.566666666667	13.3428571429	-3.01071428571
891	0.4455	2.15	0.566666666667	-1.08571428571	-3.01071428571
892	0.446	3.57236842105	6.33333333333	0.357142857143	-3.01071428571
893	0.4465	-4.96184210526	-0.875	-1.08571428571	1.35
894	0.447	-2.11710526316	0.566666666667	-1.08571428571	-3.01071428571
895	0.4475	0.727631578947	0.566666666667	-1.08571428571	-10.2785714286
896	0.448	3.57236842105	0.566666666667	-5.41428571429	-4.46428571429
897	0.4485	2.15	2.00833333333	-6.85714285714	-3.01071428571
898	0.449	0.727631578947	16.425	-2.52857142857	-1.55714285714
899	0.4495	-12.0736842105	2.00833333333	-2.52857142857	-4.46428571429
900	0.45	26.3302631579	0.566666666667	-5.41428571429	-4.46428571429
901	0.4505	7.83947368421	-0.875	-5.41428571429	-14.6392857143
902	0.451	7.83947368421	0.566666666667	-11.1857142857	-3.01071428571
903	0.4515	9.26184210526	0.566666666667	-1.08571428571	-0.103571428571
904	0.452	6.41710526316	-10.9666666667	0.357142857143	-3.01071428571
905	0.4525	12.1065789474	-12.4083333333	-3.97142857143	-3.01071428571
906	0.453	27.7526315789	-0.875	-2.52857142857	-3.01071428571
907	0.4535	14.9513157895	-2.31666666667	-9.74285714286	-1.55714285714
908	0.454	12.1065789474	0.566666666667	-11.1857142857	-1.55714285714
909	0.4545	13.5289473684	-2.31666666667	-2.52857142857	-4.46428571429
910	0.455	12.1065789474	-12.4083333333	3.24285714286	-3.01071428571
911	0.4555	14.9513157895	-2.31666666667	-1.08571428571	-3.01071428571
912	0.456	26.3302631579	-2.31666666667	-2.52857142857	-7.37142857143
913	0.4565	17.7960526316	-3.75833333333	-1.08571428571	-8.825
914	0.457	22.0631578947	-3.75833333333	-6.85714285714	-4.46428571429
915	0.4575	19.2184210526	-2.31666666667	-6.85714285714	-1.55714285714
916	0.458	22.0631578947	-3.75833333333	-3.97142857143	-4.46428571429
917	0.4585	26.3302631579	-5.2	-2.52857142857	-4.46428571429
918	0.459	17.7960526316	-5.2	-2.52857142857	-7.37142857143
919	0.4595	23.4855263158	-5.2	0.357142857143	12.9785714286
920	0.46	23.4855263158	-5.2	16.2285714286	-3.01071428571
921	0.4605	23.4855263158	-18.175	-1.08571428571	-5.91785714286
922	0.461	24.9078947368	-5.2	-1.08571428571	-3.01071428571
923	0.4615	40.5539473684	-5.2	-1.08571428571	-1.55714285714
924	0.462	12.1065789474	-5.2	-2.52857142857	-1.55714285714
925	0.4625	17.7960526316	-0.875	16.2285714286	-5.91785714286
926	0.463	17.7960526316	-6.64166666667	14.7857142857	-4.46428571429
927	0.4635	12.1065789474	-16.7333333333	-2.52857142857	-4.46428571429
928	0.464	14.9513157895	-5.2	-1.08571428571	-3.01071428571
929	0.4645	27.7526315789	-2.31666666667	0.357142857143	-14.6392857143
930	0.465	7.83947368421	-3.75833333333	-2.52857142857	-16.0928571429
931	0.4655	9.26184210526	-3.75833333333	-1.08571428571	-7.37142857143
932	0.466	7.83947368421	-0.875	-3.97142857143	-4.46428571429
933	0.4665	3.57236842105	17.8666666667	-1.08571428571	-1.55714285714
934	0.467	2.15	-5.2	-2.52857142857	-4.46428571429
935	0.4675	-0.694736842105	-0.875	-1.08571428571	-1.55714285714
936	0.468	4.99473684211	0.566666666667	1.8	-1.55714285714
937	0.4685	4.99473684211	0.566666666667	-1.08571428571	-1.55714285714
938	0.469	4.99473684211	-9.525	-2.52857142857	-3.01071428571
939	0.4695	2.15	-9.525	-1.08571428571	-5.91785714286
940	0.47	2.15	0.566666666667	-2.52857142857	-7.37142857143
941	0.4705	19.2184210526	0.566666666667	-2.52857142857	-5.91785714286
942	0.471	-2.11710526316	3.45	-3.97142857143	-0.103571428571
943	0.4715	-2.11710526316	4.89166666667	-5.41428571429	-1.55714285714
944	0.472	-3.53947368421	2.00833333333	-2.52857142857	-1.55714285714
945	0.4725	-6.38421052632	7.775	-1.08571428571	-1.55714285714
946	0.473	9.26184210526	3.45	0.357142857143	-1.55714285714
947	0.4735	-10.6513157895	4.89166666667	-2.52857142857	-10.2785714286
948	0.474	-7.80657894737	4.89166666667	-11.1857142857	-1.55714285714
949	0.4745	-10.6513157895	4.89166666667	0.357142857143	-1.55714285714
950	0.475	-12.0736842105	6.33333333333	3.24285714286	-1.55714285714
951	0.4755	-16.3407894737	4.89166666667	0.357142857143	-1.55714285714
952	0.476	-19.1855263158	6.33333333333	3.24285714286	-3.01071428571
953	0.4765	-19.1855263158	4.89166666667	4.68571428571	-1.55714285714
954	0.477	-13.4960526316	3.45	17.6714285714	-3.01071428571
955	0.4775	-12.0736842105	0.566666666667	0.357142857143	-5.91785714286
956	0.478	-10.6513157895	16.425	3.24285714286	-8.825
957	0.4785	-16.3407894737	2.00833333333	4.68571428571	-7.37142857143
958	0.479	-3.53947368421	0.566666666667	7.57142857143	-7.37142857143
959	0.4795	-12.0736842105	2.00833333333	4.68571428571	-8.825
960	0.48	-10.6513157895	3.45	1.8	-5.91785714286
961	0.4805	-14.9184210526	4.89166666667	-1.08571428571	-10.2785714286
962	0.481	-9.22894736842	6.33333333333	7.57142857143	-7.37142857143
963	0.4815	-7.80657894737	2.00833333333	4.68571428571	-8.825
964	0.482	-20.6078947368	2.00833333333	4.68571428571	-7.37142857143
965	0.4825	-10.6513157895	0.566666666667	4.68571428571	-3.01071428571
966	0.483	-10.6513157895	3.45	0.357142857143	-5.91785714286
967	0.4835	-9.22894736842	13.5416666667	7.57142857143	-3.01071428571
968	0.484	-9.22894736842	-2.31666666667	6.12857142857	-4.46428571429
969	0.4845	-10.6513157895	0.566666666667	4.68571428571	-7.37142857143
970	0.485	-17.7631578947	4.89166666667	6.12857142857	-7.37142857143
971	0.4855	-12.0736842105	4.89166666667	7.57142857143	-13.1857142857
972	0.486	-12.0736842105	3.45	6.12857142857	-3.01071428571
973	0.4865	-10.6513157895	2.00833333333	4.68571428571	-1.55714285714
974	0.487	-7.80657894737	-2.31666666667	4.68571428571	-7.37142857143
975	0.4875	2.15	2.00833333333	6.12857142857	-5.91785714286
976	0.488	-9.22894736842	2.00833333333	4.68571428571	-7.37142857143
977	0.4885	-7.80657894737	0.566666666667	1.8	-13.1857142857
978	0.489	-7.80657894737	4.89166666667	-1.08571428571	-4.46428571429
979	0.4895	-6.38421052632	10.6583333333	6.12857142857	-3.01071428571
980	0.49	-4.96184210526	0.566666666667	3.24285714286	-3.01071428571
981	0.4905	-2.11710526316	2.00833333333	4.68571428571	-1.55714285714
982	0.491	-4.96184210526	2.00833333333	-8.3	-1.55714285714
983	0.4915	-4.96184210526	2.00833333333	-6.85714285714	-3.01071428571
984	0.492	-7.80657894737	4.89166666667	3.24285714286	-1.55714285714
985	0.4925	-9.22894736842	-0.875	3.24285714286	-3.01071428571
986	0.493	-16.3407894737	2.00833333333	4.68571428571	-3.01071428571
987	0.4935	-10.6513157895	0.566666666667	4.68571428571	-13.1857142857
988	0.494	-3.53947368421	-0.875	-8.3	-8.825
989	0.4945	-2.11710526316	-2.31666666667	-6.85714285714	-1.55714285714
990	0.495	-0.694736842105	-6.64166666667	0.357142857143	-5.91785714286
991	0.4955	0.727631578947	2.00833333333	1.8	-1.55714285714
992	0.496	-10.6513157895	2.00833333333	1.8	-0.103571428571
993	0.4965	-10.6513157895	0.566666666667	0.357142857143	12.9785714286
994	0.497	-3.53947368421	0.566666666667	0.357142857143	17.3392857143
995	0.4975	-2.11710526316	4.89166666667	1.8	-5.91785714286
996	0.498	-0.694736842105	16.425	0.357142857143	-3.01071428571
997	0.4985	-0.694736842105	0.566666666667	1.8	-3.01071428571
998	0.499	-10.6513157895	3.45	0.357142857143	-4.46428571429
999	0.4995	-2.11710526316	0.566666666667	0.357142857143	-8.825
1000	0.5	0.727631578947	4.89166666667	14.7857142857	-3.01071428571
1001	0.5005	0.727631578947	0.566666666667	17.6714285714	-3.01071428571
1002	0.501	-0.694736842105	-6.64166666667	1.8	-1.55714285714
1003	0.5015	0.727631578947	0.566666666667	0.357142857143	-3.01071428571
1004	0.502	16.3736842105	2.00833333333	-1.08571428571	-4.46428571429
1005	0.5025	-0.694736842105	2.00833333333	-2.52857142857	14.4321428571
1006	0.503	0.727631578947	4.89166666667	-6.85714285714	-1.55714285714
1007	0.5035	-2.11710526316	0.566666666667	-1.08571428571	-5.91785714286
1008	0.504	-2.11710526316	4.89166666667	0.357142857143	-1.55714285714
1009	0.5045	-10.6513157895	3.45	0.357142857143	1.35
1010	0.505	-10.6513157895	0.566666666667	0.357142857143	2.80357142857
1011	0.5055	0.727631578947	0.566666666667	1.8	15.8857142857
1012	0.506	-2.11710526316	0.566666666667	19.1142857143	-1.55714285714
1013	0.5065	0.727631578947	-9.525	3.24285714286	-1.55714285714
1014	0.507	3.57236842105	-10.9666666667	0.357142857143	-3.01071428571
1015	0.5075	17.7960526316	2.00833333333	-2.52857142857	-8.825
1016	0.508	2.15	0.566666666667	0.357142857143	-10.2785714286
1017	0.5085	2.15	0.566666666667	-2.52857142857	-11.7321428571
1018	0.509	-0.694736842105	3.45	-1.08571428571	-1.55714285714
1019	0.5095	0.727631578947	-3.75833333333	0.357142857143	-1.55714285714
1020	0.51	2.15	2.00833333333	0.357142857143	-3.01071428571
1021	0.5105	10.6842105263	0.566666666667	0.357142857143	-8.825
1022	0.511	-3.53947368421	0.566666666667	1.8	-13.1857142857
1023	0.5115	2.15	-2.31666666667	-2.52857142857	-1.55714285714
1024	0.512	0.727631578947	-13.85	3.24285714286	-3.01071428571
1025	0.5125	-0.694736842105	-2.31666666667	1.8	-1.55714285714
1026	0.513	3.57236842105	2.00833333333	0.357142857143	-3.01071428571
1027	0.5135	-4.96184210526	0.566666666667	-1.08571428571	-11.7321428571
1028	0.514	-3.53947368421	2.00833333333	-8.3	-7.37142857143
1029	0.5145	-3.53947368421	0.566666666667	-9.74285714286	-5.91785714286
1030	0.515	-3.53947368421	19.3083333333	-2.52857142857	-1.55714285714
1031	0.5155	-4.96184210526	-0.875	-1.08571428571	-0.103571428571
1032	0.516	-12.0736842105	0.566666666667	3.24285714286	-1.55714285714
1033	0.5165	-4.96184210526	2.00833333333	1.8	5.71071428571
1034	0.517	-2.11710526316	3.45	9.01428571429	-1.55714285714
1035	0.5175	-2.11710526316	6.33333333333	-2.52857142857	-1.55714285714
1036	0.518	-2.11710526316	-10.9666666667	-2.52857142857	-1.55714285714
1037	0.5185	-3.53947368421	-5.2	0.357142857143	-4.46428571429
1038	0.519	17.7960526316	0.566666666667	1.8	-13.1857142857
1039	0.5195	-2.11710526316	0.566666666667	1.8	-14.6392857143
1040	0.52	-3.53947368421	2.00833333333	17.6714285714	-1.55714285714
1041	0.5205	-2.11710526316	0.566666666667	-1.08571428571	-1.55714285714
1042	0.521	-0.694736842105	-3.75833333333	0.357142857143	-1.55714285714
1043	0.5215	2.15	0.566666666667	0.357142857143	-3.01071428571
1044	0.522	10.6842105263	2.00833333333	1.8	-8.825
1045	0.5225	-7.80657894737	2.00833333333	3.24285714286	1.35
1046	0.523	-3.53947368421	3.45	3.24285714286	4.25714285714
1047	0.5235	-4.96184210526	-9.525	1.8	-4.46428571429
1048	0.524	0.727631578947	2.00833333333	0.357142857143	-3.01071428571
1049	0.5245	-0.694736842105	2.00833333333	3.24285714286	-3.01071428571
1050	0.525	-6.38421052632	0.566666666667	0.357142857143	-0.103571428571
1051	0.5255	-6.38421052632	0.566666666667	-11.1857142857	-5.91785714286
1052	0.526	-3.53947368421	0.566666666667	-8.3	-4.46428571429
1053	0.5265	-7.80657894737	16.425	1.8	-1.55714285714
1054	0.527	-6.38421052632	-3.75833333333	-1.08571428571	-0.103571428571
1055	0.5275	-16.3407894737	2.00833333333	0.357142857143	-3.01071428571
1056	0.528	-4.96184210526	0.566666666667	4.68571428571	-10.2785714286
1057	0.5285	-4.96184210526	2.00833333333	4.68571428571	-5.91785714286
1058	0.529	-3.53947368421	-2.31666666667	0.357142857143	-0.103571428571
1059	0.5295	-3.53947368421	-2.31666666667	-1.08571428571	-3.01071428571
1060	0.53	2.15	2.00833333333	-1.08571428571	-3.01071428571
1061	0.5305	16.3736842105	0.566666666667	0.357142857143	-11.7321428571
1062	0.531	-3.53947368421	2.00833333333	-1.08571428571	-13.1857142857
1063	0.5315	-6.38421052632	0.566666666667	-11.1857142857	-3.01071428571
1064	0.532	-4.96184210526	4.89166666667	-9.74285714286	-1.55714285714
1065	0.5325	-4.96184210526	20.75	0.357142857143	-3.01071428571
1066	0.533	-6.38421052632	2.00833333333	-1.08571428571	-1.55714285714
1067	0.5335	-12.0736842105	-0.875	0.357142857143	17.3392857143
1068	0.534	-3.53947368421	3.45	-8.3	-1.55714285714
1069	0.5345	-4.96184210526	0.566666666667	-6.85714285714	-1.55714285714
1070	0.535	-0.694736842105	0.566666666667	1.8	-1.55714285714
1071	0.5355	-3.53947368421	9.21666666667	-1.08571428571	-1.55714285714
1072	0.536	2.15	2.00833333333	0.357142857143	-1.55714285714
1073	0.5365	-7.80657894737	0.566666666667	-1.08571428571	4.25714285714
1074	0.537	-4.96184210526	2.00833333333	-5.41428571429	2.80357142857
1075	0.5375	-4.96184210526	-0.875	-1.08571428571	-1.55714285714
1076	0.538	-2.11710526316	17.8666666667	-1.08571428571	-4.46428571429
1077	0.5385	-3.53947368421	0.566666666667	1.8	-3.01071428571
1078	0.539	-17.7631578947	-0.875	0.357142857143	-1.55714285714
1079	0.5395	-2.11710526316	0.566666666667	3.24285714286	1.35
1080	0.54	-4.96184210526	2.00833333333	11.9	-8.825
1081	0.5405	-2.11710526316	3.45	-3.97142857143	-1.55714285714
1082	0.541	-2.11710526316	3.45	0.357142857143	-1.55714285714
1083	0.5415	-9.22894736842	-0.875	1.8	-1.55714285714
1084	0.542	3.57236842105	2.00833333333	-1.08571428571	-4.46428571429
1085	0.5425	-2.11710526316	2.00833333333	-2.52857142857	-11.7321428571
1086	0.543	-3.53947368421	2.00833333333	16.2285714286	-4.46428571429
1087	0.5435	0.727631578947	-10.9666666667	0.357142857143	-4.46428571429
1088	0.544	0.727631578947	-9.525	0.357142857143	-3.01071428571
1089	0.5445	0.727631578947	0.566666666667	-1.08571428571	-3.01071428571
1090	0.545	10.6842105263	-0.875	-1.08571428571	-1.55714285714
1091	0.5455	-0.694736842105	0.566666666667	-2.52857142857	4.25714285714
1092	0.546	-2.11710526316	0.566666666667	4.68571428571	-3.01071428571
1093	0.5465	0.727631578947	-6.64166666667	1.8	-1.55714285714
1094	0.547	-0.694736842105	4.89166666667	-1.08571428571	-3.01071428571
1095	0.5475	12.1065789474	2.00833333333	-1.08571428571	-3.01071428571
1096	0.548	-6.38421052632	0.566666666667	-1.08571428571	4.25714285714
1097	0.5485	-3.53947368421	0.566666666667	-2.52857142857	4.25714285714
1098	0.549	-2.11710526316	2.00833333333	-1.08571428571	-1.55714285714
1099	0.5495	-3.53947368421	-9.525	-3.97142857143	-3.01071428571
1100	0.55	-4.96184210526	-5.2	0.357142857143	-3.01071428571
1101	0.5505	16.3736842105	-0.875	1.8	-14.6392857143
1102	0.551	-3.53947368421	2.00833333333	0.357142857143	-7.37142857143
1103	0.5515	-0.694736842105	0.566666666667	1.8	-3.01071428571
1104	0.552	-4.96184210526	2.00833333333	-8.3	-3.01071428571
1105	0.5525	-2.11710526316	17.8666666667	-1.08571428571	-5.91785714286
1106	0.553	-0.694736842105	2.00833333333	3.24285714286	-3.01071428571
1107	0.5535	-12.0736842105	0.566666666667	1.8	-1.55714285714
1108	0.554	2.15	0.566666666667	4.68571428571	-14.6392857143
1109	0.5545	-0.694736842105	0.566666666667	19.1142857143	-1.55714285714
1110	0.555	-0.694736842105	0.566666666667	0.357142857143	-3.01071428571
1111	0.5555	-0.694736842105	-2.31666666667	-2.52857142857	-1.55714285714
1112	0.556	3.57236842105	0.566666666667	-1.08571428571	-3.01071428571
1113	0.5565	19.2184210526	2.00833333333	-1.08571428571	-13.1857142857
1114	0.557	-2.11710526316	2.00833333333	-3.97142857143	-11.7321428571
1115	0.5575	0.727631578947	2.00833333333	-12.6285714286	-7.37142857143
1116	0.558	-0.694736842105	6.33333333333	-1.08571428571	-0.103571428571
1117	0.5585	-0.694736842105	2.00833333333	0.357142857143	-3.01071428571
1118	0.559	-2.11710526316	-0.875	1.8	-1.55714285714
1119	0.5595	-6.38421052632	-0.875	-1.08571428571	15.8857142857
1120	0.56	0.727631578947	0.566666666667	-8.3	-1.55714285714
1121	0.5605	0.727631578947	-2.31666666667	-12.6285714286	-1.55714285714
1122	0.561	-2.11710526316	4.89166666667	-1.08571428571	-1.55714285714
1123	0.5615	-2.11710526316	20.75	0.357142857143	-4.46428571429
1124	0.562	-10.6513157895	2.00833333333	0.357142857143	-0.103571428571
1125	0.5625	-10.6513157895	-0.875	0.357142857143	1.35
1126	0.563	2.15	0.566666666667	-11.1857142857	-3.01071428571
1127	0.5635	4.99473684211	0.566666666667	-9.74285714286	-3.01071428571
1128	0.564	-2.11710526316	17.8666666667	0.357142857143	-0.103571428571
1129	0.5645	-3.53947368421	-0.875	-1.08571428571	-1.55714285714
1130	0.565	-12.0736842105	0.566666666667	-1.08571428571	-1.55714285714
1131	0.5655	-10.6513157895	3.45	-1.08571428571	-0.103571428571
1132	0.566	2.15	0.566666666667	1.8	-10.2785714286
1133	0.5665	-0.694736842105	2.00833333333	3.24285714286	-4.46428571429
1134	0.567	0.727631578947	0.566666666667	1.8	-3.01071428571
1135	0.5675	-4.96184210526	0.566666666667	-1.08571428571	-3.01071428571
1136	0.568	9.26184210526	-2.31666666667	1.8	-7.37142857143
1137	0.5685	3.57236842105	-0.875	3.24285714286	-4.46428571429
1138	0.569	4.99473684211	2.00833333333	0.357142857143	-0.103571428571
1139	0.5695	3.57236842105	-3.75833333333	-2.52857142857	-3.01071428571
1140	0.57	0.727631578947	-0.875	0.357142857143	-4.46428571429
1141	0.5705	4.99473684211	-5.2	1.8	-1.55714285714
1142	0.571	0.727631578947	-0.875	-2.52857142857	-11.7321428571
1143	0.5715	-0.694736842105	2.00833333333	-9.74285714286	-3.01071428571
1144	0.572	-2.11710526316	-3.75833333333	-6.85714285714	-0.103571428571
1145	0.5725	-2.11710526316	-10.9666666667	0.357142857143	-3.01071428571
1146	0.573	0.727631578947	2.00833333333	1.8	-3.01071428571
1147	0.5735	-12.0736842105	0.566666666667	0.357142857143	2.80357142857
1148	0.574	-10.6513157895	3.45	0.357142857143	1.35
1149	0.5745	0.727631578947	2.00833333333	17.6714285714	-0.103571428571
1150	0.575	-0.694736842105	2.00833333333	4.68571428571	-5.91785714286
1151	0.5755	-4.96184210526	10.6583333333	-1.08571428571	-1.55714285714
1152	0.576	0.727631578947	-3.75833333333	1.8	-3.01071428571
1153	0.5765	-6.38421052632	0.566666666667	3.24285714286	10.0714285714
1154	0.577	-2.11710526316	2.00833333333	4.68571428571	7.16428571429
1155	0.5775	-2.11710526316	2.00833333333	16.2285714286	-4.46428571429
1156	0.578	-0.694736842105	-12.4083333333	-1.08571428571	-1.55714285714
1157	0.5785	-2.11710526316	-9.525	3.24285714286	-1.55714285714
1158	0.579	0.727631578947	-6.64166666667	0.357142857143	-3.01071428571
1159	0.5795	-2.11710526316	-0.875	-2.52857142857	-13.1857142857
1160	0.58	-2.11710526316	-0.875	0.357142857143	-10.2785714286
1161	0.5805	0.727631578947	4.89166666667	-15.5142857143	-4.46428571429
1162	0.581	-0.694736842105	19.3083333333	-1.08571428571	-1.55714285714
1163	0.5815	-4.96184210526	0.566666666667	1.8	-3.01071428571
1164	0.582	-6.38421052632	2.00833333333	0.357142857143	-1.55714285714
1165	0.5825	-9.22894736842	0.566666666667	-1.08571428571	-1.55714285714
1166	0.583	-2.11710526316	3.45	-1.08571428571	-10.2785714286
1167	0.5835	0.727631578947	2.00833333333	-6.85714285714	-1.55714285714
1168	0.584	-2.11710526316	0.566666666667	-1.08571428571	-1.55714285714
1169	0.5845	3.57236842105	3.45	1.8	-3.01071428571
1170	0.585	19.2184210526	0.566666666667	1.8	-11.7321428571
1171	0.5855	-4.96184210526	-0.875	3.24285714286	-11.7321428571
1172	0.586	-0.694736842105	3.45	-5.41428571429	1.35
1173	0.5865	-3.53947368421	6.33333333333	0.357142857143	-1.55714285714
1174	0.587	-0.694736842105	0.566666666667	0.357142857143	1.35
1175	0.5875	-14.9184210526	0.566666666667	0.357142857143	1.35
1176	0.588	-2.11710526316	2.00833333333	0.357142857143	14.4321428571
1177	0.5885	-0.694736842105	2.00833333333	-1.08571428571	-7.37142857143
1178	0.589	0.727631578947	2.00833333333	1.8	-1.55714285714
1179	0.5895	0.727631578947	10.6583333333	1.8	-1.55714285714
1180	0.59	-9.22894736842	0.566666666667	1.8	-1.55714285714
1181	0.5905	-6.38421052632	-0.875	3.24285714286	1.35
1182	0.591	3.57236842105	0.566666666667	-11.1857142857	-4.46428571429
1183	0.5915	0.727631578947	2.00833333333	-6.85714285714	-3.01071428571
1184	0.592	0.727631578947	2.00833333333	-8.3	-1.55714285714
1185	0.5925	-0.694736842105	-0.875	-1.08571428571	-3.01071428571
1186	0.593	-12.0736842105	0.566666666667	-1.08571428571	-0.103571428571
1187	0.5935	-4.96184210526	2.00833333333	1.8	-1.55714285714
1188	0.594	2.15	-2.31666666667	3.24285714286	-7.37142857143
1189	0.5945	3.57236842105	-2.31666666667	0.357142857143	-1.55714285714
1190	0.595	3.57236842105	-9.525	1.8	-4.46428571429
1191	0.5955	4.99473684211	-6.64166666667	0.357142857143	-4.46428571429
1192	0.596	16.3736842105	0.566666666667	0.357142857143	-7.37142857143
1193	0.5965	0.727631578947	0.566666666667	1.8	-7.37142857143
1194	0.597	4.99473684211	0.566666666667	6.12857142857	-4.46428571429
1195	0.5975	3.57236842105	-2.31666666667	4.68571428571	-3.01071428571
1196	0.598	4.99473684211	-0.875	0.357142857143	-3.01071428571
1197	0.5985	4.99473684211	-2.31666666667	1.8	-1.55714285714
1198	0.599	-0.694736842105	0.566666666667	0.357142857143	-1.55714285714
1199	0.5995	0.727631578947	2.00833333333	-5.41428571429	-7.37142857143
1200	0.6	3.57236842105	2.00833333333	4.68571428571	-3.01071428571
1201	0.6005	3.57236842105	-2.31666666667	6.12857142857	-1.55714285714
1202	0.601	2.15	-5.2	0.357142857143	-1.55714285714
1203	0.6015	-4.96184210526	2.00833333333	-1.08571428571	-0.103571428571
1204	0.602	9.26184210526	2.00833333333	1.8	-3.01071428571
1205	0.6025	3.57236842105	-0.875	-1.08571428571	-8.825
1206	0.603	2.15	0.566666666667	-1.08571428571	-1.55714285714
1207	0.6035	3.57236842105	-9.525	0.357142857143	-3.01071428571
1208	0.604	4.99473684211	9.21666666667	3.24285714286	-3.01071428571
1209	0.6045	-9.22894736842	0.566666666667	-2.52857142857	-3.01071428571
1210	0.605	-4.96184210526	2.00833333333	-1.08571428571	11.525
1211	0.6055	3.57236842105	2.00833333333	-9.74285714286	-4.46428571429
1212	0.606	3.57236842105	0.566666666667	-8.3	-5.91785714286
1213	0.6065	-0.694736842105	19.3083333333	-1.08571428571	-1.55714285714
1214	0.607	-0.694736842105	-6.64166666667	-1.08571428571	-1.55714285714
1215	0.6075	-12.0736842105	2.00833333333	0.357142857143	-5.91785714286
1216	0.608	0.727631578947	3.45	3.24285714286	-10.2785714286
1217	0.6085	-0.694736842105	2.00833333333	3.24285714286	-7.37142857143
1218	0.609	2.15	0.566666666667	-1.08571428571	-3.01071428571
1219	0.6095	2.15	-0.875	-3.97142857143	-1.55714285714
1220	0.61	9.26184210526	0.566666666667	1.8	-3.01071428571
1221	0.6105	20.6407894737	2.00833333333	-1.08571428571	-3.01071428571
1222	0.611	2.15	0.566666666667	-1.08571428571	-7.37142857143
1223	0.6115	4.99473684211	2.00833333333	-9.74285714286	-4.46428571429
1224	0.612	4.99473684211	4.89166666667	-1.08571428571	-3.01071428571
1225	0.6125	4.99473684211	6.33333333333	-1.08571428571	-1.55714285714
1226	0.613	-0.694736842105	2.00833333333	1.8	-1.55714285714
1227	0.6135	-4.96184210526	2.00833333333	0.357142857143	1.35
1228	0.614	3.57236842105	2.00833333333	3.24285714286	-4.46428571429
1229	0.6145	4.99473684211	3.45	19.1142857143	-1.55714285714
1230	0.615	2.15	6.33333333333	-2.52857142857	-1.55714285714
1231	0.6155	0.727631578947	-5.2	-1.08571428571	-4.46428571429
1232	0.616	-7.80657894737	0.566666666667	-1.08571428571	-4.46428571429
1233	0.6165	22.0631578947	0.566666666667	3.24285714286	-13.1857142857
1234	0.617	3.57236842105	2.00833333333	3.24285714286	-13.1857142857
1235	0.6175	0.727631578947	0.566666666667	0.357142857143	-3.01071428571
1236	0.618	3.57236842105	-2.31666666667	1.8	-4.46428571429
1237	0.6185	7.83947368421	-8.08333333333	0.357142857143	-3.01071428571
1238	0.619	4.99473684211	0.566666666667	0.357142857143	-1.55714285714
1239	0.6195	4.99473684211	0.566666666667	-1.08571428571	-1.55714285714
1240	0.62	3.57236842105	0.566666666667	-6.85714285714	-1.55714285714
1241	0.6205	4.99473684211	0.566666666667	-6.85714285714	-3.01071428571
1242	0.621	2.15	0.566666666667	-8.3	-3.01071428571
1243	0.6215	0.727631578947	2.00833333333	0.357142857143	-1.55714285714
1244	0.622	-2.11710526316	4.89166666667	-1.08571428571	-0.103571428571
1245	0.6225	-3.53947368421	2.00833333333	-2.52857142857	-1.55714285714
1246	0.623	0.727631578947	2.00833333333	-2.52857142857	-7.37142857143
1247	0.6235	0.727631578947	2.00833333333	1.8	-3.01071428571
1248	0.624	0.727631578947	6.33333333333	-1.08571428571	-1.55714285714
1249	0.6245	-2.11710526316	-0.875	-1.08571428571	-3.01071428571
1250	0.625	-9.22894736842	-2.31666666667	-1.08571428571	-0.103571428571
1251	0.6255	7.83947368421	0.566666666667	3.24285714286	-1.55714285714
1252	0.626	7.83947368421	3.45	17.6714285714	-7.37142857143
1253	0.6265	3.57236842105	-2.31666666667	19.1142857143	-3.01071428571
1254	0.627	4.99473684211	-8.08333333333	-1.08571428571	-4.46428571429
1255	0.6275	4.99473684211	2.00833333333	0.357142857143	-4.46428571429
1256	0.628	20.6407894737	2.00833333333	0.357142857143	-3.01071428571
1257	0.6285	4.99473684211	0.566666666667	-1.08571428571	-11.7321428571
1258	0.629	-0.694736842105	0.566666666667	-6.85714285714	-1.55714285714
1259	0.6295	0.727631578947	-5.2	-1.08571428571	-0.103571428571
1260	0.63	0.727631578947	14.9833333333	-1.08571428571	-3.01071428571
1261	0.6305	2.15	0.566666666667	1.8	-3.01071428571
1262	0.631	-0.694736842105	0.566666666667	-2.52857142857	-7.37142857143
1263	0.6315	3.57236842105	0.566666666667	-6.85714285714	2.80357142857
1264	0.632	2.15	3.45	-1.08571428571	-3.01071428571
1265	0.6325	2.15	9.21666666667	-1.08571428571	-0.103571428571
1266	0.633	-0.694736842105	9.21666666667	0.357142857143	-3.01071428571
1267	0.6335	2.15	0.566666666667	0.357142857143	7.16428571429
1268	0.634	2.15	0.566666666667	3.24285714286	2.80357142857
1269	0.6345	4.99473684211	2.00833333333	13.3428571429	-1.55714285714
1270	0.635	3.57236842105	4.89166666667	-1.08571428571	-1.55714285714
1271	0.6355	-0.694736842105	-6.64166666667	-1.08571428571	-4.46428571429
1272	0.636	3.57236842105	0.566666666667	-1.08571428571	-3.01071428571
1273	0.6365	22.0631578947	0.566666666667	1.8	-11.7321428571
1274	0.637	3.57236842105	2.00833333333	0.357142857143	-11.7321428571
1275	0.6375	0.727631578947	0.566666666667	-8.3	-3.01071428571
1276	0.638	3.57236842105	2.00833333333	-5.41428571429	-1.55714285714
1277	0.6385	2.15	14.9833333333	0.357142857143	-3.01071428571
1278	0.639	0.727631578947	0.566666666667	-2.52857142857	-1.55714285714
1279	0.6395	-3.53947368421	2.00833333333	-1.08571428571	-8.825
1280	0.64	4.99473684211	0.566666666667	-3.97142857143	-1.55714285714
1281	0.6405	4.99473684211	0.566666666667	0.357142857143	-1.55714285714
1282	0.641	3.57236842105	3.45	3.24285714286	-1.55714285714
1283	0.6415	2.15	0.566666666667	-1.08571428571	-0.103571428571
1284	0.642	-7.80657894737	0.566666666667	-1.08571428571	-0.103571428571
1285	0.6425	2.15	0.566666666667	3.24285714286	15.8857142857
1286	0.643	-2.11710526316	-0.875	1.8	-0.103571428571
1287	0.6435	0.727631578947	-2.31666666667	-1.08571428571	-4.46428571429
1288	0.644	-0.694736842105	-9.525	0.357142857143	-1.55714285714
1289	0.6445	-3.53947368421	-5.2	0.357142857143	-3.01071428571
1290	0.645	9.26184210526	-0.875	0.357142857143	-5.91785714286
1291	0.6455	3.57236842105	-2.31666666667	7.57142857143	-3.01071428571
1292	0.646	2.15	-0.875	-2.52857142857	-1.55714285714
1293	0.6465	3.57236842105	-0.875	-3.97142857143	-1.55714285714
1294	0.647	3.57236842105	-2.31666666667	-1.08571428571	-0.103571428571
1295	0.6475	4.99473684211	-2.31666666667	3.24285714286	-1.55714285714
1296	0.648	-2.11710526316	2.00833333333	-1.08571428571	7.16428571429
1297	0.6485	7.83947368421	-0.875	-6.85714285714	7.16428571429
1298	0.649	2.15	3.45	3.24285714286	-1.55714285714
1299	0.6495	0.727631578947	3.45	3.24285714286	-1.55714285714
1300	0.65	2.15	-2.31666666667	0.357142857143	-1.55714285714
1301	0.6505	-7.80657894737	-0.875	1.8	1.35
1302	0.651	3.57236842105	-0.875	3.24285714286	12.9785714286
1303	0.6515	4.99473684211	2.00833333333	17.6714285714	-4.46428571429
1304	0.652	6.41710526316	-0.875	17.6714285714	-3.01071428571
1305	0.6525	9.26184210526	-10.9666666667	0.357142857143	-3.01071428571
1306	0.653	4.99473684211	-5.2	1.8	-0.103571428571
1307	0.6535	22.0631578947	0.566666666667	3.24285714286	-13.1857142857
1308	0.654	4.99473684211	0.566666666667	3.24285714286	-5.91785714286
1309	0.6545	3.57236842105	0.566666666667	-1.08571428571	-3.01071428571
1310	0.655	2.15	-0.875	0.357142857143	-1.55714285714
1311	0.6555	2.15	-6.64166666667	0.357142857143	-1.55714285714
1312	0.656	4.99473684211	-5.2	1.8	-3.01071428571
1313	0.6565	-0.694736842105	0.566666666667	-1.08571428571	-10.2785714286
1314	0.657	0.727631578947	4.89166666667	0.357142857143	-8.825
1315	0.6575	-2.11710526316	2.00833333333	-6.85714285714	-3.01071428571
1316	0.658	-2.11710526316	4.89166666667	-6.85714285714	-0.103571428571
1317	0.6585	-0.694736842105	20.75	0.357142857143	-3.01071428571
1318	0.659	-10.6513157895	2.00833333333	0.357142857143	1.35
1319	0.6595	-9.22894736842	0.566666666667	0.357142857143	2.80357142857
1320	0.66	-0.694736842105	4.89166666667	16.2285714286	-3.01071428571
1321	0.6605	-0.694736842105	3.45	1.8	-1.55714285714
1322	0.661	-0.694736842105	20.75	-2.52857142857	-1.55714285714
1323	0.6615	-3.53947368421	0.566666666667	-1.08571428571	-3.01071428571
1324	0.662	-4.96184210526	3.45	1.8	-11.7321428571
1325	0.6625	0.727631578947	0.566666666667	3.24285714286	-8.825
1326	0.663	0.727631578947	3.45	1.8	-8.825
1327	0.6635	0.727631578947	0.566666666667	0.357142857143	-0.103571428571
1328	0.664	0.727631578947	-8.08333333333	1.8	-3.01071428571
1329	0.6645	4.99473684211	-0.875	-1.08571428571	-4.46428571429
1330	0.665	22.0631578947	0.566666666667	-2.52857142857	-3.01071428571
1331	0.6655	-2.11710526316	2.00833333333	-1.08571428571	-8.825
1332	0.666	0.727631578947	4.89166666667	-11.1857142857	-1.55714285714
1333	0.6665	-2.11710526316	2.00833333333	-5.41428571429	-1.55714285714
1334	0.667	-0.694736842105	20.75	0.357142857143	-1.55714285714
1335	0.6675	-3.53947368421	17.8666666667	0.357142857143	-1.55714285714
1336	0.668	-4.96184210526	2.00833333333	0.357142857143	-0.103571428571
1337	0.6685	2.15	3.45	1.8	-3.01071428571
1338	0.669	-0.694736842105	2.00833333333	9.01428571429	-5.91785714286
1339	0.6695	0.727631578947	-6.64166666667	0.357142857143	-1.55714285714
1340	0.67	3.57236842105	-3.75833333333	0.357142857143	-0.103571428571
1341	0.6705	7.83947368421	2.00833333333	-1.08571428571	-0.103571428571
1342	0.671	-4.96184210526	0.566666666667	-1.08571428571	-3.01071428571
1343	0.6715	3.57236842105	0.566666666667	-2.52857142857	-7.37142857143
1344	0.672	2.15	0.566666666667	1.8	-8.825
1345	0.6725	3.57236842105	-3.75833333333	1.8	1.35
1346	0.673	2.15	-8.08333333333	0.357142857143	-1.55714285714
1347	0.6735	2.15	0.566666666667	0.357142857143	-3.01071428571
1348	0.674	-4.96184210526	0.566666666667	4.68571428571	1.35
1349	0.6745	2.15	0.566666666667	3.24285714286	-11.7321428571
1350	0.675	0.727631578947	0.566666666667	17.6714285714	-3.01071428571
1351	0.6755	0.727631578947	-8.08333333333	0.357142857143	-4.46428571429
1352	0.676	0.727631578947	16.425	-1.08571428571	-3.01071428571
1353	0.6765	-2.11710526316	2.00833333333	-1.08571428571	-4.46428571429
1354	0.677	-6.38421052632	-0.875	3.24285714286	-1.55714285714
1355	0.6775	-2.11710526316	2.00833333333	0.357142857143	-1.55714285714
1356	0.678	-0.694736842105	0.566666666667	16.2285714286	-3.01071428571
1357	0.6785	0.727631578947	-0.875	19.1142857143	-1.55714285714
1358	0.679	0.727631578947	-8.08333333333	0.357142857143	-1.55714285714
1359	0.6795	0.727631578947	-9.525	1.8	-4.46428571429
1360	0.68	17.7960526316	2.00833333333	3.24285714286	-13.1857142857
1361	0.6805	-2.11710526316	2.00833333333	4.68571428571	-11.7321428571
1362	0.681	-0.694736842105	-0.875	-1.08571428571	-1.55714285714
1363	0.6815	-2.11710526316	-10.9666666667	1.8	-3.01071428571
1364	0.682	-0.694736842105	-3.75833333333	-1.08571428571	-3.01071428571
1365	0.6825	0.727631578947	-6.64166666667	1.8	-1.55714285714
1366	0.683	14.9513157895	-2.31666666667	0.357142857143	-11.7321428571
1367	0.6835	-4.96184210526	0.566666666667	7.57142857143	-3.01071428571
1368	0.684	-3.53947368421	0.566666666667	-2.52857142857	-3.01071428571
1369	0.6845	-3.53947368421	2.00833333333	-6.85714285714	-3.01071428571
1370	0.685	-3.53947368421	16.425	0.357142857143	-1.55714285714
1371	0.6855	-4.96184210526	20.75	0.357142857143	-3.01071428571
1372	0.686	-12.0736842105	3.45	6.12857142857	14.4321428571
1373	0.6865	-3.53947368421	0.566666666667	0.357142857143	11.525
1374	0.687	0.727631578947	3.45	-1.08571428571	-1.55714285714
1375	0.6875	-2.11710526316	-0.875	-2.52857142857	-0.103571428571
1376	0.688	-0.694736842105	-5.2	1.8	-1.55714285714
1377	0.6885	-6.38421052632	0.566666666667	-1.08571428571	-0.103571428571
1378	0.689	0.727631578947	0.566666666667	3.24285714286	5.71071428571
1379	0.6895	-3.53947368421	0.566666666667	3.24285714286	1.35
1380	0.69	-2.11710526316	0.566666666667	-1.08571428571	-1.55714285714
1381	0.6905	0.727631578947	-8.08333333333	0.357142857143	-3.01071428571
1382	0.691	0.727631578947	-9.525	-1.08571428571	-1.55714285714
1383	0.6915	14.9513157895	0.566666666667	-1.08571428571	-13.1857142857
1384	0.692	-0.694736842105	2.00833333333	0.357142857143	-8.825
1385	0.6925	-3.53947368421	-0.875	-11.1857142857	-10.2785714286
1386	0.693	-2.11710526316	4.89166666667	-6.85714285714	-1.55714285714
1387	0.6935	-4.96184210526	3.45	0.357142857143	-1.55714285714
1388	0.694	-4.96184210526	0.566666666667	0.357142857143	-1.55714285714
1389	0.6945	-10.6513157895	-0.875	0.357142857143	-1.55714285714
1390	0.695	-3.53947368421	-0.875	3.24285714286	1.35
1391	0.6955	-4.96184210526	0.566666666667	3.24285714286	-7.37142857143
1392	0.696	-3.53947368421	2.00833333333	-3.97142857143	-1.55714285714
1393	0.6965	-0.694736842105	10.6583333333	-1.08571428571	-4.46428571429
1394	0.697	-3.53947368421	2.00833333333	-1.08571428571	-0.103571428571
1395	0.6975	-13.4960526316	-0.875	1.8	-0.103571428571
1396	0.698	-4.96184210526	-0.875	4.68571428571	-10.2785714286
1397	0.6985	-3.53947368421	0.566666666667	0.357142857143	-7.37142857143
1398	0.699	-4.96184210526	-2.31666666667	-5.41428571429	-1.55714285714
1399	0.6995	-2.11710526316	14.9833333333	0.357142857143	-1.55714285714
1400	0.7	-0.694736842105	-2.31666666667	1.8	-1.55714285714
1401	0.7005	-9.22894736842	-3.75833333333	0.357142857143	-1.55714285714
1402	0.701	-2.11710526316	0.566666666667	0.357142857143	-7.37142857143
1403	0.7015	-3.53947368421	-0.875	-6.85714285714	-10.2785714286
1404	0.702	-6.38421052632	2.00833333333	-8.3	-1.55714285714
1405	0.7025	-3.53947368421	2.00833333333	-1.08571428571	-1.55714285714
1406	0.703	-4.96184210526	0.566666666667	1.8	-3.01071428571
1407	0.7035	-13.4960526316	-2.31666666667	1.8	-1.55714285714
1408	0.704	-3.53947368421	2.00833333333	0.357142857143	4.25714285714
1409	0.7045	-4.96184210526	2.00833333333	1.8	-1.55714285714
1410	0.705	-3.53947368421	4.89166666667	1.8	-0.103571428571
1411	0.7055	-2.11710526316	3.45	0.357142857143	-3.01071428571
1412	0.706	-2.11710526316	-0.875	1.8	-1.55714285714
1413	0.7065	-14.9184210526	0.566666666667	0.357142857143	-0.103571428571
1414	0.707	-3.53947368421	-0.875	-8.3	-4.46428571429
1415	0.7075	-0.694736842105	4.89166666667	0.357142857143	-1.55714285714
1416	0.708	0.727631578947	3.45	3.24285714286	-3.01071428571
1417	0.7085	-3.53947368421	9.21666666667	1.8	-1.55714285714
1418	0.709	-3.53947368421	7.775	3.24285714286	-1.55714285714
1419	0.7095	-4.96184210526	2.00833333333	3.24285714286	-0.103571428571
1420	0.71	-3.53947368421	2.00833333333	6.12857142857	-8.825
1421	0.7105	-3.53947368421	2.00833333333	13.3428571429	-1.55714285714
1422	0.711	-2.11710526316	4.89166666667	-2.52857142857	-1.55714285714
1423	0.7115	-4.96184210526	3.45	0.357142857143	-3.01071428571
1424	0.712	-4.96184210526	0.566666666667	1.8	-1.55714285714
1425	0.7125	-4.96184210526	0.566666666667	1.8	-1.55714285714
1426	0.713	-2.11710526316	-0.875	3.24285714286	17.3392857143
1427	0.7135	-4.96184210526	0.566666666667	3.24285714286	-3.01071428571
1428	0.714	-3.53947368421	-0.875	1.8	-3.01071428571
1429	0.7145	-0.694736842105	-6.64166666667	3.24285714286	-4.46428571429
1430	0.715	-0.694736842105	2.00833333333	-1.08571428571	-1.55714285714
1431	0.7155	2.15	-0.875	1.8	-7.37142857143
1432	0.716	-7.80657894737	2.00833333333	1.8	-5.91785714286
1433	0.7165	-4.96184210526	0.566666666667	6.12857142857	-3.01071428571
1434	0.717	-4.96184210526	-3.75833333333	0.357142857143	-1.55714285714
1435	0.7175	-2.11710526316	13.5416666667	1.8	-4.46428571429
1436	0.718	-10.6513157895	2.00833333333	-1.08571428571	-3.01071428571
1437	0.7185	13.5289473684	0.566666666667	0.357142857143	-10.2785714286
1438	0.719	-4.96184210526	2.00833333333	3.24285714286	-13.1857142857
1439	0.7195	-4.96184210526	-2.31666666667	-8.3	-4.46428571429
1440	0.72	-4.96184210526	-6.64166666667	-1.08571428571	-1.55714285714
1441	0.7205	-3.53947368421	-8.08333333333	0.357142857143	-4.46428571429
1442	0.721	-2.11710526316	0.566666666667	0.357142857143	-3.01071428571
1443	0.7215	-6.38421052632	-0.875	-2.52857142857	17.3392857143
1444	0.722	-3.53947368421	0.566666666667	-1.08571428571	14.4321428571
1445	0.7225	-2.11710526316	0.566666666667	-8.3	-3.01071428571
1446	0.723	-3.53947368421	0.566666666667	1.8	-3.01071428571
1447	0.7235	-3.53947368421	0.566666666667	3.24285714286	-1.55714285714
1448	0.724	-6.38421052632	-0.875	3.24285714286	-0.103571428571
1449	0.7245	-10.6513157895	-0.875	0.357142857143	-0.103571428571
1450	0.725	-0.694736842105	-0.875	-6.85714285714	-5.91785714286
1451	0.7255	-2.11710526316	2.00833333333	-3.97142857143	-3.01071428571
1452	0.726	0.727631578947	23.6333333333	1.8	-1.55714285714
1453	0.7265	-2.11710526316	17.8666666667	-1.08571428571	-4.46428571429
1454	0.727	-12.0736842105	2.00833333333	3.24285714286	-1.55714285714
1455	0.7275	-4.96184210526	-0.875	0.357142857143	1.35
1456	0.728	-4.96184210526	0.566666666667	13.3428571429	-7.37142857143
1457	0.7285	-4.96184210526	2.00833333333	-1.08571428571	-1.55714285714
1458	0.729	-2.11710526316	13.5416666667	1.8	-3.01071428571
1459	0.7295	-2.11710526316	-3.75833333333	-1.08571428571	-3.01071428571
1460	0.73	-0.694736842105	0.566666666667	0.357142857143	-1.55714285714
1461	0.7305	0.727631578947	0.566666666667	4.68571428571	-4.46428571429
1462	0.731	0.727631578947	0.566666666667	4.68571428571	1.35
1463	0.7315	-2.11710526316	-10.9666666667	0.357142857143	-1.55714285714
1464	0.732	0.727631578947	0.566666666667	-1.08571428571	-4.46428571429
1465	0.7325	3.57236842105	-2.31666666667	3.24285714286	-3.01071428571
1466	0.733	-0.694736842105	-0.875	-1.08571428571	-4.46428571429
1467	0.7335	-2.11710526316	-0.875	-6.85714285714	-10.2785714286
1468	0.734	-3.53947368421	0.566666666667	-5.41428571429	-7.37142857143
1469	0.7345	-3.53947368421	2.00833333333	1.8	-4.46428571429
1470	0.735	-3.53947368421	-3.75833333333	3.24285714286	-4.46428571429
1471	0.7355	-12.0736842105	0.566666666667	1.8	-0.103571428571
1472	0.736	-4.96184210526	-0.875	1.8	-1.55714285714
1473	0.7365	-2.11710526316	0.566666666667	3.24285714286	-5.91785714286
1474	0.737	-3.53947368421	-2.31666666667	14.7857142857	-3.01071428571
1475	0.7375	-2.11710526316	-12.4083333333	-1.08571428571	-3.01071428571
1476	0.738	-0.694736842105	-10.9666666667	0.357142857143	-0.103571428571
1477	0.7385	14.9513157895	-0.875	0.357142857143	-5.91785714286
1478	0.739	0.727631578947	-0.875	3.24285714286	-11.7321428571
1479	0.7395	0.727631578947	-0.875	-8.3	-3.01071428571
1480	0.74	-0.694736842105	-0.875	1.8	-4.46428571429
1481	0.7405	-2.11710526316	13.5416666667	0.357142857143	-5.91785714286
1482	0.741	-0.694736842105	17.8666666667	0.357142857143	-3.01071428571
1483	0.7415	-4.96184210526	3.45	0.357142857143	-3.01071428571
1484	0.742	-10.6513157895	0.566666666667	1.8	-0.103571428571
1485	0.7425	-0.694736842105	0.566666666667	20.5571428571	-3.01071428571
1486	0.743	0.727631578947	2.00833333333	1.8	-1.55714285714
1487	0.7435	0.727631578947	19.3083333333	-1.08571428571	-1.55714285714
1488	0.744	-4.96184210526	3.45	0.357142857143	-3.01071428571
1489	0.7445	-12.0736842105	2.00833333333	1.8	-13.1857142857
1490	0.745	-2.11710526316	2.00833333333	1.8	-11.7321428571
1491	0.7455	-3.53947368421	-0.875	-8.3	-1.55714285714
1492	0.746	-0.694736842105	-6.64166666667	1.8	-4.46428571429
1493	0.7465	0.727631578947	-8.08333333333	1.8	-3.01071428571
1494	0.747	-0.694736842105	0.566666666667	0.357142857143	-5.91785714286
1495	0.7475	0.727631578947	-0.875	1.8	-13.1857142857
1496	0.748	-0.694736842105	-0.875	-8.3	-3.01071428571
1497	0.7485	0.727631578947	0.566666666667	-8.3	-1.55714285714
1498	0.749	-0.694736842105	3.45	1.8	-4.46428571429
1499	0.7495	-2.11710526316	2.00833333333	3.24285714286	-1.55714285714
1500	0.75	-10.6513157895	0.566666666667	0.357142857143	-4.46428571429
1501	0.7505	-2.11710526316	2.00833333333	6.12857142857	11.525
1502	0.751	-2.11710526316	0.566666666667	19.1142857143	-1.55714285714
1503	0.7515	-6.38421052632	-0.875	17.6714285714	-4.46428571429
1504	0.752	-0.694736842105	-8.08333333333	4.68571428571	-3.01071428571
1505	0.7525	-4.96184210526	-5.2	4.68571428571	-1.55714285714
1506	0.753	10.6842105263	0.566666666667	1.8	-13.1857142857
1507	0.7535	-3.53947368421	-0.875	3.24285714286	-13.1857142857
1508	0.754	-3.53947368421	-2.31666666667	1.8	-3.01071428571
1509	0.7545	-3.53947368421	-3.75833333333	0.357142857143	-3.01071428571
1510	0.755	-4.96184210526	-9.525	-1.08571428571	-1.55714285714
1511	0.7555	-3.53947368421	-8.08333333333	1.8	-4.46428571429
1512	0.756	-4.96184210526	0.566666666667	1.8	-7.37142857143
1513	0.7565	-3.53947368421	0.566666666667	3.24285714286	-10.2785714286
1514	0.757	-4.96184210526	-0.875	-5.41428571429	-3.01071428571
1515	0.7575	-3.53947368421	-0.875	3.24285714286	-3.01071428571
1516	0.758	-3.53947368421	0.566666666667	1.8	-3.01071428571
1517	0.7585	-2.11710526316	0.566666666667	1.8	-5.91785714286
1518	0.759	-6.38421052632	0.566666666667	-3.97142857143	-4.46428571429
1519	0.7595	-3.53947368421	-0.875	9.01428571429	-3.01071428571
1520	0.76	-2.11710526316	4.89166666667	4.68571428571	-1.55714285714
1521	0.7605	0.727631578947	10.6583333333	1.8	-1.55714285714
1522	0.761	-14.9184210526	0.566666666667	3.24285714286	-1.55714285714
1523	0.7615	-12.0736842105	-0.875	-1.08571428571	14.4321428571
1524	0.762	-4.96184210526	0.566666666667	0.357142857143	12.9785714286
1525	0.7625	-3.53947368421	0.566666666667	-6.85714285714	-4.46428571429
1526	0.763	-3.53947368421	16.425	1.8	-5.91785714286
1527	0.7635	-4.96184210526	-0.875	0.357142857143	-0.103571428571
1528	0.764	-10.6513157895	0.566666666667	0.357142857143	-1.55714285714
1529	0.7645	-10.6513157895	0.566666666667	1.8	-3.01071428571
1530	0.765	-2.11710526316	3.45	-1.08571428571	-10.2785714286
1531	0.7655	-3.53947368421	3.45	1.8	-0.103571428571
1532	0.766	-4.96184210526	4.89166666667	1.8	-3.01071428571
1533	0.7665	-4.96184210526	6.33333333333	3.24285714286	-1.55714285714
1534	0.767	-3.53947368421	2.00833333333	0.357142857143	-1.55714285714
1535	0.7675	-3.53947368421	-0.875	3.24285714286	-10.2785714286
1536	0.768	-4.96184210526	2.00833333333	4.68571428571	-10.2785714286
1537	0.7685	-3.53947368421	-6.64166666667	-3.97142857143	-4.46428571429
1538	0.769	-6.38421052632	-2.31666666667	4.68571428571	-4.46428571429
1539	0.7695	0.727631578947	0.566666666667	0.357142857143	-1.55714285714
1540	0.77	-4.96184210526	3.45	1.8	-10.2785714286
1541	0.7705	-6.38421052632	-2.31666666667	-5.41428571429	-3.01071428571
1542	0.771	-4.96184210526	0.566666666667	11.9	-7.37142857143
1543	0.7715	-6.38421052632	-5.2	4.68571428571	-3.01071428571
1544	0.772	-4.96184210526	-5.2	1.8	-4.46428571429
1545	0.7725	-10.6513157895	-5.2	3.24285714286	-5.91785714286
1546	0.773	-0.694736842105	0.566666666667	4.68571428571	-0.103571428571
1547	0.7735	-2.11710526316	3.45	16.2285714286	-7.37142857143
1548	0.774	-3.53947368421	2.00833333333	4.68571428571	-3.01071428571
1549	0.7745	-4.96184210526	17.8666666667	4.68571428571	-4.46428571429
1550	0.775	-6.38421052632	-8.08333333333	4.68571428571	-3.01071428571
1551	0.7755	16.3736842105	-3.75833333333	3.24285714286	-4.46428571429
1552	0.776	-2.11710526316	2.00833333333	4.68571428571	-11.7321428571
1553	0.7765	-6.38421052632	-2.31666666667	17.6714285714	-3.01071428571
1554	0.777	-6.38421052632	0.566666666667	14.7857142857	-3.01071428571
1555	0.7775	-4.96184210526	-6.64166666667	0.357142857143	-3.01071428571
1556	0.778	-4.96184210526	0.566666666667	1.8	-4.46428571429
1557	0.7785	10.6842105263	0.566666666667	1.8	-11.7321428571
1558	0.779	-4.96184210526	0.566666666667	-1.08571428571	-14.6392857143
1559	0.7795	-6.38421052632	0.566666666667	-5.41428571429	-4.46428571429
1560	0.78	-6.38421052632	-0.875	-6.85714285714	-4.46428571429
1561	0.7805	-4.96184210526	17.8666666667	1.8	-1.55714285714
1562	0.781	-17.7631578947	-0.875	0.357142857143	-1.55714285714
1563	0.7815	-12.0736842105	0.566666666667	3.24285714286	-14.6392857143
1564	0.782	-7.80657894737	0.566666666667	3.24285714286	-16.0928571429
1565	0.7825	-6.38421052632	-5.2	-6.85714285714	-1.55714285714
1566	0.783	-6.38421052632	-12.4083333333	-1.08571428571	-3.01071428571
1567	0.7835	-4.96184210526	-9.525	1.8	-3.01071428571
1568	0.784	-3.53947368421	0.566666666667	1.8	-4.46428571429
1569	0.7845	-6.38421052632	-0.875	0.357142857143	-8.825
1570	0.785	-6.38421052632	0.566666666667	-2.52857142857	-3.01071428571
1571	0.7855	-3.53947368421	-0.875	-3.97142857143	-4.46428571429
1572	0.786	-4.96184210526	9.21666666667	0.357142857143	-1.55714285714
1573	0.7865	-4.96184210526	-8.08333333333	0.357142857143	-3.01071428571
1574	0.787	-7.80657894737	0.566666666667	3.24285714286	-3.01071428571
1575	0.7875	-3.53947368421	-0.875	-1.08571428571	-8.825
1576	0.788	-3.53947368421	0.566666666667	11.9	-1.55714285714
1577	0.7885	-6.38421052632	0.566666666667	11.9	-5.91785714286
1578	0.789	-4.96184210526	-2.31666666667	0.357142857143	-4.46428571429
1579	0.7895	-2.11710526316	-6.64166666667	0.357142857143	-1.55714285714
1580	0.79	3.57236842105	2.00833333333	0.357142857143	-4.46428571429
1581	0.7905	-3.53947368421	2.00833333333	-3.97142857143	-8.825
1582	0.791	-2.11710526316	3.45	-3.97142857143	-8.825
1583	0.7915	-0.694736842105	0.566666666667	1.8	-4.46428571429
1584	0.792	-3.53947368421	2.00833333333	0.357142857143	-3.01071428571
1585	0.7925	-16.3407894737	-0.875	1.8	-0.103571428571
1586	0.793	-12.0736842105	2.00833333333	3.24285714286	-0.103571428571
1587	0.7935	-4.96184210526	-2.31666666667	1.8	-1.55714285714
1588	0.794	-3.53947368421	2.00833333333	16.2285714286	-5.91785714286
1589	0.7945	-3.53947368421	-10.9666666667	0.357142857143	-4.46428571429
1590	0.795	-4.96184210526	-5.2	3.24285714286	-5.91785714286
1591	0.7955	-3.53947368421	2.00833333333	1.8	-4.46428571429
1592	0.796	-9.22894736842	0.566666666667	-1.08571428571	-11.7321428571
1593	0.7965	-4.96184210526	0.566666666667	-6.85714285714	-3.01071428571
1594	0.797	-2.11710526316	0.566666666667	4.68571428571	-3.01071428571
1595	0.7975	-2.11710526316	6.33333333333	3.24285714286	-4.46428571429
1596	0.798	-3.53947368421	-5.2	1.8	-0.103571428571
1597	0.7985	-14.9184210526	-0.875	1.8	-3.01071428571
1598	0.799	-7.80657894737	2.00833333333	3.24285714286	-1.55714285714
1599	0.7995	-7.80657894737	2.00833333333	3.24285714286	-3.01071428571
1600	0.8	-4.96184210526	3.45	-3.97142857143	-4.46428571429
1601	0.8005	-4.96184210526	3.45	3.24285714286	-4.46428571429
1602	0.801	-13.4960526316	2.00833333333	0.357142857143	-4.46428571429
1603	0.8015	-0.694736842105	0.566666666667	4.68571428571	-7.37142857143
1604	0.802	-9.22894736842	0.566666666667	4.68571428571	-5.91785714286
1605	0.8025	-3.53947368421	0.566666666667	3.24285714286	-4.46428571429
1606	0.803	-3.53947368421	-5.2	0.357142857143	-3.01071428571
1607	0.8035	-3.53947368421	6.33333333333	1.8	-3.01071428571
1608	0.804	-4.96184210526	4.89166666667	-1.08571428571	-1.55714285714
1609	0.8045	-4.96184210526	0.566666666667	3.24285714286	-1.55714285714
1610	0.805	-4.96184210526	0.566666666667	4.68571428571	-7.37142857143
1611	0.8055	-6.38421052632	0.566666666667	4.68571428571	-8.825
1612	0.806	-4.96184210526	-6.64166666667	1.8	-4.46428571429
1613	0.8065	-7.80657894737	-3.75833333333	1.8	-5.91785714286
1614	0.807	-6.38421052632	0.566666666667	0.357142857143	-3.01071428571
1615	0.8075	-4.96184210526	0.566666666667	0.357142857143	-3.01071428571
1616	0.808	-4.96184210526	0.566666666667	0.357142857143	11.525
1617	0.8085	-2.11710526316	2.00833333333	-1.08571428571	-3.01071428571
1618	0.809	-3.53947368421	-0.875	14.7857142857	-3.01071428571
1619	0.8095	-6.38421052632	-2.31666666667	1.8	-3.01071428571
1620	0.81	-13.4960526316	2.00833333333	1.8	-3.01071428571
1621	0.8105	-6.38421052632	2.00833333333	1.8	-13.1857142857
1622	0.811	-3.53947368421	-0.875	16.2285714286	-4.46428571429
1623	0.8115	-2.11710526316	2.00833333333	16.2285714286	-3.01071428571
1624	0.812	-3.53947368421	-10.9666666667	-1.08571428571	-3.01071428571
1625	0.8125	-0.694736842105	-0.875	1.8	-1.55714285714
1626	0.813	-16.3407894737	-0.875	3.24285714286	-3.01071428571
1627	0.8135	-10.6513157895	2.00833333333	-1.08571428571	5.71071428571
1628	0.814	-3.53947368421	3.45	13.3428571429	-7.37142857143
1629	0.8145	-4.96184210526	2.00833333333	-1.08571428571	-3.01071428571
1630	0.815	-3.53947368421	-10.9666666667	-1.08571428571	-5.91785714286
1631	0.8155	0.727631578947	-2.31666666667	-1.08571428571	-4.46428571429
1632	0.816	12.1065789474	0.566666666667	3.24285714286	-11.7321428571
1633	0.8165	-6.38421052632	0.566666666667	4.68571428571	-16.0928571429
1634	0.817	-6.38421052632	2.00833333333	16.2285714286	-4.46428571429
1635	0.8175	-6.38421052632	-12.4083333333	1.8	-1.55714285714
1636	0.818	-4.96184210526	-5.2	0.357142857143	-3.01071428571
1637	0.8185	0.727631578947	2.00833333333	0.357142857143	-4.46428571429
1638	0.819	-10.6513157895	0.566666666667	0.357142857143	1.35
1639	0.8195	-3.53947368421	3.45	-9.74285714286	-5.91785714286
1640	0.82	-4.96184210526	0.566666666667	-6.85714285714	-1.55714285714
1641	0.8205	-4.96184210526	3.45	-5.41428571429	-1.55714285714
1642	0.821	-6.38421052632	3.45	1.8	-1.55714285714
1643	0.8215	-16.3407894737	0.566666666667	1.8	-1.55714285714
1644	0.822	-14.9184210526	-0.875	0.357142857143	-1.55714285714
1645	0.8225	-4.96184210526	-0.875	1.8	-11.7321428571
1646	0.823	-4.96184210526	-0.875	0.357142857143	-1.55714285714
1647	0.8235	-3.53947368421	0.566666666667	0.357142857143	-1.55714285714
1648	0.824	-2.11710526316	-5.2	0.357142857143	-1.55714285714
1649	0.8245	7.83947368421	-0.875	0.357142857143	-4.46428571429
1650	0.825	-4.96184210526	0.566666666667	-2.52857142857	-13.1857142857
1651	0.8255	-4.96184210526	0.566666666667	-1.08571428571	-13.1857142857
1652	0.826	-4.96184210526	4.89166666667	-8.3	-3.01071428571
1653	0.8265	-7.80657894737	17.8666666667	1.8	-4.46428571429
1654	0.827	-9.22894736842	19.3083333333	0.357142857143	-4.46428571429
1655	0.8275	-16.3407894737	0.566666666667	-1.08571428571	-1.55714285714
1656	0.828	-4.96184210526	2.00833333333	-6.85714285714	-4.46428571429
1657	0.8285	-4.96184210526	3.45	-6.85714285714	-4.46428571429
1658	0.829	-3.53947368421	3.45	-3.97142857143	-3.01071428571
1659	0.8295	-2.11710526316	22.1916666667	0.357142857143	-1.55714285714
1660	0.83	-3.53947368421	19.3083333333	3.24285714286	-0.103571428571
1661	0.8305	-12.0736842105	0.566666666667	3.24285714286	1.35
1662	0.831	-3.53947368421	0.566666666667	3.24285714286	-3.01071428571
1663	0.8315	-3.53947368421	0.566666666667	20.5571428571	-7.37142857143
1664	0.832	-3.53947368421	-9.525	-1.08571428571	-3.01071428571
1665	0.8325	-7.80657894737	-5.2	0.357142857143	-3.01071428571
1666	0.833	-2.11710526316	-8.08333333333	3.24285714286	-4.46428571429
1667	0.8335	-3.53947368421	0.566666666667	-1.08571428571	-11.7321428571
1668	0.834	-4.96184210526	0.566666666667	-9.74285714286	-7.37142857143
1669	0.8345	-3.53947368421	-0.875	-2.52857142857	-3.01071428571
1670	0.835	-2.11710526316	14.9833333333	1.8	-4.46428571429
1671	0.8355	-2.11710526316	-2.31666666667	1.8	-0.103571428571
1672	0.836	-3.53947368421	-0.875	0.357142857143	-1.55714285714
1673	0.8365	-10.6513157895	-0.875	0.357142857143	-1.55714285714
1674	0.837	-4.96184210526	-0.875	3.24285714286	-13.1857142857
1675	0.8375	-4.96184210526	-0.875	-6.85714285714	-3.01071428571
1676	0.838	-4.96184210526	17.8666666667	1.8	-1.55714285714
1677	0.8385	-3.53947368421	0.566666666667	0.357142857143	-3.01071428571
1678	0.839	16.3736842105	-0.875	3.24285714286	-13.1857142857
1679	0.8395	-3.53947368421	3.45	1.8	-14.6392857143
1680	0.84	-2.11710526316	-0.875	-5.41428571429	-3.01071428571
1681	0.8405	-4.96184210526	2.00833333333	0.357142857143	-1.55714285714
1682	0.841	-3.53947368421	0.566666666667	1.8	-4.46428571429
1683	0.8415	-10.6513157895	-0.875	1.8	-3.01071428571
1684	0.842	-9.22894736842	-0.875	0.357142857143	-0.103571428571
1685	0.8425	-6.38421052632	0.566666666667	3.24285714286	-1.55714285714
1686	0.843	-4.96184210526	3.45	16.2285714286	-3.01071428571
1687	0.8435	-2.11710526316	-8.08333333333	0.357142857143	-5.91785714286
1688	0.844	-3.53947368421	-9.525	0.357142857143	-1.55714285714
1689	0.8445	17.7960526316	0.566666666667	1.8	-7.37142857143
1690	0.845	-2.11710526316	0.566666666667	0.357142857143	-10.2785714286
1691	0.8455	-0.694736842105	2.00833333333	-9.74285714286	-11.7321428571
1692	0.846	-0.694736842105	2.00833333333	-12.6285714286	-3.01071428571
1693	0.8465	-0.694736842105	2.00833333333	0.357142857143	-1.55714285714
1694	0.847	-3.53947368421	-0.875	-1.08571428571	-3.01071428571
1695	0.8475	-12.0736842105	0.566666666667	-1.08571428571	-0.103571428571
1696	0.848	-2.11710526316	2.00833333333	1.8	12.9785714286
1697	0.8485	-2.11710526316	-0.875	19.1142857143	-1.55714285714
1698	0.849	-0.694736842105	0.566666666667	-1.08571428571	-1.55714285714
1699	0.8495	-3.53947368421	-6.64166666667	0.357142857143	-4.46428571429
1700	0.85	-3.53947368421	-8.08333333333	-1.08571428571	-3.01071428571
1701	0.8505	16.3736842105	0.566666666667	1.8	-13.1857142857
1702	0.851	-2.11710526316	0.566666666667	1.8	-13.1857142857
1703	0.8515	-0.694736842105	-0.875	-5.41428571429	-4.46428571429
1704	0.852	-2.11710526316	-5.2	-1.08571428571	-3.01071428571
1705	0.8525	-0.694736842105	-8.08333333333	1.8	-3.01071428571
1706	0.853	-2.11710526316	0.566666666667	0.357142857143	-5.91785714286
1707	0.8535	2.15	2.00833333333	-2.52857142857	-10.2785714286
1708	0.854	-2.11710526316	0.566666666667	-9.74285714286	-11.7321428571
1709	0.8545	0.727631578947	-0.875	-8.3	-4.46428571429
1710	0.855	2.15	-10.9666666667	0.357142857143	-3.01071428571
1711	0.8555	-2.11710526316	-0.875	0.357142857143	-4.46428571429
1712	0.856	17.7960526316	0.566666666667	0.357142857143	2.80357142857
1713	0.8565	-9.22894736842	3.45	-1.08571428571	-0.103571428571
1714	0.857	-4.96184210526	3.45	20.5571428571	-4.46428571429
1715	0.8575	-3.53947368421	3.45	-1.08571428571	-1.55714285714
1716	0.858	-3.53947368421	20.75	0.357142857143	-4.46428571429
1717	0.8585	-7.80657894737	0.566666666667	1.8	-3.01071428571
1718	0.859	-12.0736842105	0.566666666667	-1.08571428571	-0.103571428571
1719	0.8595	-0.694736842105	0.566666666667	0.357142857143	-14.6392857143
1720	0.86	-0.694736842105	2.00833333333	-6.85714285714	-13.1857142857
1721	0.8605	-0.694736842105	0.566666666667	-6.85714285714	-3.01071428571
1722	0.861	-4.96184210526	7.775	0.357142857143	-4.46428571429
1723	0.8615	-0.694736842105	0.566666666667	3.24285714286	-4.46428571429
1724	0.862	-9.22894736842	0.566666666667	0.357142857143	5.71071428571
1725	0.8625	-3.53947368421	2.00833333333	7.57142857143	-4.46428571429
1726	0.863	-4.96184210526	0.566666666667	1.8	-1.55714285714
1727	0.8635	-4.96184210526	-2.31666666667	3.24285714286	-3.01071428571
1728	0.864	-3.53947368421	-5.2	0.357142857143	-3.01071428571
1729	0.8645	3.57236842105	0.566666666667	0.357142857143	-1.55714285714
1730	0.865	-0.694736842105	3.45	-1.08571428571	4.25714285714
1731	0.8655	-2.11710526316	0.566666666667	0.357142857143	2.80357142857
1732	0.866	-4.96184210526	-0.875	16.2285714286	-4.46428571429
1733	0.8665	-0.694736842105	-13.85	-1.08571428571	-3.01071428571
1734	0.867	-0.694736842105	-10.9666666667	1.8	-5.91785714286
1735	0.8675	12.1065789474	2.00833333333	0.357142857143	-11.7321428571
1736	0.868	-4.96184210526	0.566666666667	-1.08571428571	-13.1857142857
1737	0.8685	-4.96184210526	0.566666666667	-5.41428571429	-11.7321428571
1738	0.869	-3.53947368421	0.566666666667	-5.41428571429	-4.46428571429
1739	0.8695	-4.96184210526	9.21666666667	0.357142857143	-3.01071428571
1740	0.87	-6.38421052632	0.566666666667	1.8	-3.01071428571
1741	0.8705	0.727631578947	0.566666666667	0.357142857143	-3.01071428571
1742	0.871	-0.694736842105	-0.875	-6.85714285714	1.35
1743	0.8715	-2.11710526316	0.566666666667	0.357142857143	-4.46428571429
1744	0.872	-0.694736842105	4.89166666667	1.8	-4.46428571429
1745	0.8725	-3.53947368421	9.21666666667	1.8	-5.91785714286
1746	0.873	-10.6513157895	-0.875	-1.08571428571	-0.103571428571
1747	0.8735	-7.80657894737	-0.875	-1.08571428571	11.525
1748	0.874	-2.11710526316	0.566666666667	0.357142857143	7.16428571429
1749	0.8745	-0.694736842105	2.00833333333	-1.08571428571	-4.46428571429
1750	0.875	-2.11710526316	19.3083333333	1.8	-4.46428571429
1751	0.8755	-4.96184210526	-9.525	-1.08571428571	-4.46428571429
1752	0.876	14.9513157895	0.566666666667	1.8	-1.55714285714
1753	0.8765	-3.53947368421	0.566666666667	3.24285714286	-1.55714285714
1754	0.877	-4.96184210526	0.566666666667	-6.85714285714	-3.01071428571
1755	0.8775	-3.53947368421	-0.875	0.357142857143	-3.01071428571
1756	0.878	-2.11710526316	-2.31666666667	0.357142857143	-3.01071428571
1757	0.8785	2.15	-5.2	-1.08571428571	-5.91785714286
1758	0.879	0.727631578947	2.00833333333	3.24285714286	-3.01071428571
1759	0.8795	0.727631578947	0.566666666667	3.24285714286	-7.37142857143
1760	0.88	-2.11710526316	2.00833333333	4.68571428571	-7.37142857143
1761	0.8805	-2.11710526316	-0.875	4.68571428571	-4.46428571429
1762	0.881	0.727631578947	-6.64166666667	4.68571428571	-4.46428571429
1763	0.8815	0.727631578947	-0.875	1.8	-5.91785714286
1764	0.882	4.99473684211	2.00833333333	0.357142857143	-3.01071428571
1765	0.8825	-2.11710526316	-0.875	0.357142857143	-4.46428571429
1766	0.883	-2.11710526316	0.566666666667	14.7857142857	-3.01071428571
1767	0.8835	2.15	-0.875	1.8	-4.46428571429
1768	0.884	0.727631578947	19.3083333333	0.357142857143	-4.46428571429
1769	0.8845	-6.38421052632	0.566666666667	-1.08571428571	-3.01071428571
1770	0.885	-4.96184210526	0.566666666667	-1.08571428571	-3.01071428571
1771	0.8855	0.727631578947	0.566666666667	3.24285714286	-13.1857142857
1772	0.886	0.727631578947	-0.875	0.357142857143	-1.55714285714
1773	0.8865	-2.11710526316	0.566666666667	1.8	-4.46428571429
1774	0.887	3.57236842105	-10.9666666667	1.8	-0.103571428571
1775	0.8875	0.727631578947	-6.64166666667	0.357142857143	-5.91785714286
1776	0.888	-2.11710526316	-0.875	-1.08571428571	-13.1857142857
1777	0.8885	-2.11710526316	0.566666666667	-2.52857142857	-10.2785714286
1778	0.889	0.727631578947	2.00833333333	-11.1857142857	-3.01071428571
1779	0.8895	0.727631578947	19.3083333333	0.357142857143	-3.01071428571
1780	0.89	-2.11710526316	2.00833333333	3.24285714286	-3.01071428571
1781	0.8905	-13.4960526316	0.566666666667	3.24285714286	-4.46428571429
1782	0.891	0.727631578947	-0.875	3.24285714286	-10.2785714286
1783	0.8915	0.727631578947	-0.875	14.7857142857	-4.46428571429
1784	0.892	-0.694736842105	0.566666666667	7.57142857143	-1.55714285714
1785	0.8925	3.57236842105	-0.875	-1.08571428571	-1.55714285714
1786	0.893	3.57236842105	2.00833333333	0.357142857143	-5.91785714286
1787	0.8935	13.5289473684	0.566666666667	1.8	-3.01071428571
1788	0.894	-3.53947368421	2.00833333333	0.357142857143	-0.103571428571
1789	0.8945	-0.694736842105	2.00833333333	14.7857142857	-1.55714285714
1790	0.895	0.727631578947	3.45	0.357142857143	-4.46428571429
1791	0.8955	-0.694736842105	16.425	0.357142857143	-3.01071428571
1792	0.896	-3.53947368421	-6.64166666667	0.357142857143	-1.55714285714
1793	0.8965	19.2184210526	2.00833333333	1.8	-14.6392857143
1794	0.897	-3.53947368421	2.00833333333	0.357142857143	-14.6392857143
1795	0.8975	-0.694736842105	0.566666666667	-9.74285714286	-11.7321428571
1796	0.898	-2.11710526316	4.89166666667	-3.97142857143	-1.55714285714
1797	0.8985	-3.53947368421	3.45	3.24285714286	-4.46428571429
1798	0.899	-3.53947368421	0.566666666667	-1.08571428571	-3.01071428571
1799	0.8995	-13.4960526316	0.566666666667	0.357142857143	-1.55714285714
1800	0.9	2.15	0.566666666667	4.68571428571	14.4321428571
1801	0.9005	-0.694736842105	4.89166666667	16.2285714286	-1.55714285714
1802	0.901	0.727631578947	6.33333333333	-1.08571428571	-4.46428571429
1803	0.9015	0.727631578947	-3.75833333333	1.8	-4.46428571429
1804	0.902	3.57236842105	0.566666666667	-1.08571428571	-3.01071428571
1805	0.9025	17.7960526316	2.00833333333	4.68571428571	-11.7321428571
1806	0.903	-3.53947368421	0.566666666667	3.24285714286	-8.825
1807	0.9035	-0.694736842105	-0.875	0.357142857143	-1.55714285714
1808	0.904	-3.53947368421	-8.08333333333	1.8	-1.55714285714
1809	0.9045	0.727631578947	0.566666666667	3.24285714286	-3.01071428571
1810	0.905	16.3736842105	0.566666666667	1.8	-1.55714285714
1811	0.9055	-2.11710526316	3.45	-1.08571428571	-3.01071428571
1812	0.906	3.57236842105	2.00833333333	1.8	-4.46428571429
1813	0.9065	-0.694736842105	3.45	-2.52857142857	-4.46428571429
1814	0.907	-2.11710526316	13.5416666667	-1.08571428571	-1.55714285714
1815	0.9075	-4.96184210526	2.00833333333	1.8	-3.01071428571
1816	0.908	9.26184210526	2.00833333333	0.357142857143	-4.46428571429
1817	0.9085	-6.38421052632	2.00833333333	3.24285714286	4.25714285714
1818	0.909	-2.11710526316	0.566666666667	-1.08571428571	8.61785714286
1819	0.9095	0.727631578947	-8.08333333333	1.8	-4.46428571429
1820	0.91	0.727631578947	4.89166666667	1.8	-3.01071428571
1821	0.9105	-0.694736842105	-6.64166666667	0.357142857143	-3.01071428571
1822	0.911	0.727631578947	2.00833333333	-1.08571428571	-3.01071428571
1823	0.9115	-2.11710526316	-0.875	0.357142857143	-7.37142857143
1824	0.912	-4.96184210526	2.00833333333	0.357142857143	-8.825
1825	0.9125	-2.11710526316	2.00833333333	-1.08571428571	-3.01071428571
1826	0.913	-0.694736842105	-2.31666666667	-1.08571428571	-3.01071428571
1827	0.9135	-0.694736842105	2.00833333333	0.357142857143	-1.55714285714
1828	0.914	-2.11710526316	2.00833333333	3.24285714286	-5.91785714286
1829	0.9145	-2.11710526316	2.00833333333	0.357142857143	-1.55714285714
1830	0.915	-3.53947368421	4.89166666667	7.57142857143	-7.37142857143
1831	0.9155	-6.38421052632	3.45	-2.52857142857	-5.91785714286
1832	0.916	-4.96184210526	-3.75833333333	1.8	-3.01071428571
1833	0.9165	-0.694736842105	2.00833333333	-1.08571428571	-5.91785714286
1834	0.917	12.1065789474	-0.875	4.68571428571	-11.7321428571
1835	0.9175	-4.96184210526	-0.875	4.68571428571	-5.91785714286
1836	0.918	-4.96184210526	0.566666666667	-2.52857142857	-4.46428571429
1837	0.9185	-0.694736842105	0.566666666667	3.24285714286	-1.55714285714
1838	0.919	-0.694736842105	13.5416666667	0.357142857143	-3.01071428571
1839	0.9195	-12.0736842105	2.00833333333	1.8	-1.55714285714
1840	0.92	-0.694736842105	2.00833333333	4.68571428571	2.80357142857
1841	0.9205	-2.11710526316	0.566666666667	1.8	-5.91785714286
1842	0.921	-4.96184210526	2.00833333333	11.9	-1.55714285714
1843	0.9215	-3.53947368421	3.45	-1.08571428571	-4.46428571429
1844	0.922	-6.38421052632	-5.2	3.24285714286	-3.01071428571
1845	0.9225	-17.7631578947	0.566666666667	0.357142857143	-3.01071428571
1846	0.923	14.9513157895	0.566666666667	1.8	-4.46428571429
1847	0.9235	-3.53947368421	-0.875	-11.1857142857	-4.46428571429
1848	0.924	-0.694736842105	-0.875	-3.97142857143	-4.46428571429
1849	0.9245	0.727631578947	-10.9666666667	-1.08571428571	-4.46428571429
1850	0.925	2.15	6.33333333333	0.357142857143	-1.55714285714
1851	0.9255	-9.22894736842	-5.2	1.8	-1.55714285714
