	Time	Channel 1	Channel 2	Channel 3	Channel 4
0	0.0	-17.9595744681	0.5	0.389285714286	-1.54
1	0.0005	-7.92127659574	1.95	1.84285714286	-5.92
2	0.001	-6.48723404255	0.5	4.75	5.76
3	0.0015	-5.05319148936	-6.75	0.389285714286	-4.46
4	0.002	-22.2617021277	-2.4	-2.51785714286	-1.54
5	0.0025	-16.5255319149	0.5	1.84285714286	-1.54
6	0.003	-6.48723404255	-0.95	-3.97142857143	-4.46
7	0.0035	-5.05319148936	-2.4	-5.425	-11.76
8	0.004	-2.18510638298	-6.75	-1.06428571429	-3.0
9	0.0045	-5.05319148936	-0.95	1.84285714286	-8.84
10	0.005	-6.48723404255	1.95	14.925	-4.46
11	0.0055	-6.48723404255	-0.95	1.84285714286	-4.46
12	0.006	3.55106382979	-2.4	-1.06428571429	-3.0
13	0.0065	-6.48723404255	0.5	3.29642857143	-1.54
14	0.007	-7.92127659574	-0.95	1.84285714286	4.3
15	0.0075	-7.92127659574	0.5	6.20357142857	-3.0
16	0.008	-3.61914893617	6.3	-1.06428571429	-1.54
17	0.0085	-5.05319148936	-5.3	0.389285714286	-1.54
18	0.009	-10.7893617021	-0.95	-1.06428571429	1.38
19	0.0095	-6.48723404255	-0.95	0.389285714286	2.84
20	0.01	-5.05319148936	0.5	13.4714285714	-3.0
21	0.0105	-7.92127659574	3.4	-1.06428571429	-3.0
22	0.011	-3.61914893617	10.65	-1.06428571429	-0.08
23	0.0115	-10.7893617021	-5.3	0.389285714286	-3.0
24	0.012	12.1553191489	-2.4	-1.06428571429	-4.46
25	0.0125	-10.7893617021	-0.95	-1.06428571429	-4.46
26	0.013	-6.48723404255	0.5	14.925	-1.54
27	0.0135	-6.48723404255	4.85	1.84285714286	-3.0
28	0.014	-5.05319148936	-9.65	-2.51785714286	-4.46
29	0.0145	-3.61914893617	-0.95	0.389285714286	-4.46
30	0.015	9.28723404255	0.5	4.75	-4.46
31	0.0155	-9.35531914894	0.5	0.389285714286	4.3
32	0.016	-6.48723404255	1.95	13.4714285714	-10.3
33	0.0165	-7.92127659574	0.5	9.11071428571	-4.46
34	0.017	-6.48723404255	-8.2	0.389285714286	-4.46
35	0.0175	-3.61914893617	0.5	-1.06428571429	-3.0
36	0.018	9.28723404255	1.95	0.389285714286	-4.46
37	0.0185	-6.48723404255	-0.95	1.84285714286	1.38
38	0.019	-5.05319148936	-0.95	1.84285714286	-4.46
39	0.0195	-5.05319148936	-0.95	-2.51785714286	-3.0
40	0.02	-5.05319148936	-2.4	-1.06428571429	-4.46
41	0.0205	-0.751063829787	0.5	0.389285714286	-7.38
42	0.021	12.1553191489	-0.95	1.84285714286	-4.46
43	0.0215	-9.35531914894	1.95	3.29642857143	-11.76
44	0.022	-5.05319148936	-0.95	-5.425	-7.38
45	0.0225	-6.48723404255	3.4	1.84285714286	-3.0
46	0.023	-5.05319148936	13.55	0.389285714286	-1.54
47	0.0235	-5.05319148936	6.3	0.389285714286	-4.46
48	0.024	-5.05319148936	0.5	-2.51785714286	-1.54
49	0.0245	-7.92127659574	0.5	-1.06428571429	-3.0
50	0.025	-3.61914893617	-0.95	3.29642857143	-3.0
51	0.0255	-6.48723404255	-2.4	-1.06428571429	-1.54
52	0.026	-5.05319148936	10.65	-2.51785714286	-3.0
53	0.0265	-7.92127659574	-0.95	-1.06428571429	-1.54
54	0.027	-7.92127659574	0.5	3.29642857143	-4.46
55	0.0275	-16.5255319149	0.5	-1.06428571429	13.06
56	0.028	-7.92127659574	-2.4	-1.06428571429	14.52
57	0.0285	-7.92127659574	-0.95	12.0178571429	-1.54
58	0.029	-5.05319148936	-0.95	3.29642857143	-3.0
59	0.0295	-6.48723404255	-9.65	1.84285714286	-3.0
60	0.03	0.682978723404	1.95	1.84285714286	-4.46
61	0.0305	-7.92127659574	0.5	1.84285714286	-5.92
62	0.031	-5.05319148936	0.5	-6.87857142857	1.38
63	0.0315	-6.48723404255	3.4	1.84285714286	-4.46
64	0.032	-6.48723404255	9.2	1.84285714286	-3.0
65	0.0325	-20.8276595745	-0.95	-1.06428571429	-5.92
66	0.033	15.0234042553	-0.95	0.389285714286	-13.22
67	0.0335	-6.48723404255	0.5	-2.51785714286	-14.68
68	0.034	-6.48723404255	-2.4	1.84285714286	-8.84
69	0.0345	-3.61914893617	-0.95	-2.51785714286	-5.92
70	0.035	-3.61914893617	-0.95	3.29642857143	-3.0
71	0.0355	0.682978723404	-2.4	-1.06428571429	-4.46
72	0.036	15.0234042553	-2.4	0.389285714286	-13.22
73	0.0365	-5.05319148936	0.5	-9.78571428571	-3.0
74	0.037	-6.48723404255	1.95	-5.425	-4.46
75	0.0375	-2.18510638298	0.5	-6.87857142857	-1.54
76	0.038	-2.18510638298	17.9	1.84285714286	-3.0
77	0.0385	-15.0914893617	0.5	1.84285714286	-3.0
78	0.039	16.4574468085	-0.95	1.84285714286	-13.22
79	0.0395	-3.61914893617	-0.95	1.84285714286	-11.76
80	0.04	-5.05319148936	-0.95	20.7392857143	-4.46
81	0.0405	-5.05319148936	-6.75	3.29642857143	-4.46
82	0.041	-3.61914893617	16.45	-1.06428571429	-3.0
83	0.0415	-0.751063829787	0.5	0.389285714286	-1.54
84	0.042	-15.0914893617	0.5	1.84285714286	-0.08
85	0.0425	-5.05319148936	0.5	3.29642857143	-4.46
86	0.043	-6.48723404255	3.4	19.2857142857	-4.46
87	0.0435	-6.48723404255	-0.95	16.3785714286	-3.0
88	0.044	-5.05319148936	-11.1	0.389285714286	-5.92
89	0.0445	-0.751063829787	0.5	1.84285714286	-4.46
90	0.045	4.98510638298	0.5	4.75	-8.84
91	0.0455	-5.05319148936	0.5	-1.06428571429	1.38
92	0.046	-6.48723404255	1.95	9.11071428571	-3.0
93	0.0465	-5.05319148936	0.5	14.925	-3.0
94	0.047	-6.48723404255	-6.75	3.29642857143	-1.54
95	0.0475	-10.7893617021	1.95	1.84285714286	-1.54
96	0.048	10.7212765957	-0.95	0.389285714286	-4.46
97	0.0485	-3.61914893617	1.95	0.389285714286	13.06
98	0.049	-5.05319148936	0.5	-8.33214285714	-4.46
99	0.0495	-5.05319148936	3.4	1.84285714286	-4.46
100	0.05	-5.05319148936	19.35	1.84285714286	-3.0
101	0.0505	-5.05319148936	0.5	-1.06428571429	-1.54
102	0.051	-13.6574468085	-0.95	-1.06428571429	-1.54
103	0.0515	-3.61914893617	-2.4	-1.06428571429	14.52
104	0.052	-3.61914893617	-0.95	-1.06428571429	-4.46
105	0.0525	-3.61914893617	-0.95	16.3785714286	-3.0
106	0.053	-3.61914893617	-9.65	-1.06428571429	-4.46
107	0.0535	-3.61914893617	-0.95	0.389285714286	-5.92
108	0.054	-19.3936170213	-0.95	0.389285714286	-0.08
109	0.0545	-3.61914893617	-2.4	4.75	14.52
110	0.055	-6.48723404255	-2.4	14.925	-7.38
111	0.0555	-5.05319148936	-0.95	7.65714285714	-1.54
112	0.056	-3.61914893617	-9.65	0.389285714286	-1.54
113	0.0565	-3.61914893617	-0.95	1.84285714286	-7.38
114	0.057	-2.18510638298	-2.4	1.84285714286	-1.54
115	0.0575	-10.7893617021	0.5	1.84285714286	-3.0
116	0.058	-3.61914893617	0.5	19.2857142857	-4.46
117	0.0585	-5.05319148936	6.3	0.389285714286	-4.46
118	0.059	-6.48723404255	-12.55	-1.06428571429	-1.54
119	0.0595	-7.92127659574	-5.3	-1.06428571429	-4.46
120	0.06	10.7212765957	0.5	0.389285714286	-1.54
121	0.0605	-9.35531914894	-0.95	0.389285714286	5.76
122	0.061	-5.05319148936	-0.95	0.389285714286	-5.92
123	0.0615	-3.61914893617	0.5	16.3785714286	-1.54
124	0.062	-0.751063829787	-9.65	3.29642857143	-3.0
125	0.0625	-3.61914893617	-11.1	-1.06428571429	-1.54
126	0.063	-2.18510638298	-0.95	3.29642857143	-1.54
127	0.0635	-3.61914893617	0.5	-2.51785714286	-13.22
128	0.064	0.682978723404	-2.4	-11.2392857143	-3.0
129	0.0645	-2.18510638298	-3.85	-1.06428571429	-4.46
130	0.065	-3.61914893617	-11.1	-1.06428571429	-1.54
131	0.0655	2.1170212766	-2.4	1.84285714286	-3.0
132	0.066	-13.6574468085	-2.4	-2.51785714286	-1.54
133	0.0665	-3.61914893617	0.5	0.389285714286	-1.54
134	0.067	-2.18510638298	-0.95	3.29642857143	2.84
135	0.0675	-2.18510638298	-0.95	-2.51785714286	-4.46
136	0.068	-0.751063829787	-0.95	-6.87857142857	-3.0
137	0.0685	-2.18510638298	7.75	-1.06428571429	-4.46
138	0.069	3.55106382979	0.5	0.389285714286	-0.08
139	0.0695	0.682978723404	-0.95	-1.06428571429	1.38
140	0.07	-3.61914893617	-0.95	-5.425	-5.92
141	0.0705	-3.61914893617	1.95	-3.97142857143	-1.54
142	0.071	-2.18510638298	-9.65	-3.97142857143	-1.54
143	0.0715	-3.61914893617	0.5	3.29642857143	-4.46
144	0.072	10.7212765957	-0.95	3.29642857143	-8.84
145	0.0725	-6.48723404255	-2.4	4.75	1.38
146	0.073	-3.61914893617	0.5	3.29642857143	4.3
147	0.0735	-0.751063829787	0.5	1.84285714286	-1.54
148	0.074	-0.751063829787	1.95	-1.06428571429	-4.46
149	0.0745	-5.05319148936	0.5	-1.06428571429	-1.54
150	0.075	-12.2234042553	0.5	0.389285714286	-3.0
151	0.0755	-12.2234042553	-0.95	1.84285714286	11.6
152	0.076	-2.18510638298	-0.95	-1.06428571429	-8.84
153	0.0765	-3.61914893617	-2.4	-1.06428571429	-1.54
154	0.077	0.682978723404	-6.75	0.389285714286	-4.46
155	0.0775	2.1170212766	-6.75	1.84285714286	-4.46
156	0.078	12.1553191489	0.5	-1.06428571429	-8.84
157	0.0785	0.682978723404	0.5	-1.06428571429	-13.22
158	0.079	0.682978723404	0.5	-5.425	-1.54
159	0.0795	-3.61914893617	-2.4	-5.425	-3.0
160	0.08	-0.751063829787	15.0	1.84285714286	-3.0
161	0.0805	-5.05319148936	17.9	0.389285714286	-1.54
162	0.081	-15.0914893617	-0.95	0.389285714286	4.3
163	0.0815	-13.6574468085	-0.95	-1.06428571429	13.06
164	0.082	-2.18510638298	-0.95	19.2857142857	-4.46
165	0.0825	-3.61914893617	-0.95	4.75	-3.0
166	0.083	-2.18510638298	16.45	0.389285714286	-4.46
167	0.0835	-7.92127659574	-0.95	3.29642857143	-1.54
168	0.084	-15.0914893617	-0.95	0.389285714286	-0.08
169	0.0845	-5.05319148936	-0.95	6.20357142857	-7.38
170	0.085	-6.48723404255	-2.4	4.75	-5.92
171	0.0855	-3.61914893617	-2.4	-1.06428571429	-3.0
172	0.086	-6.48723404255	-3.85	1.84285714286	-4.46
173	0.0865	-3.61914893617	4.85	3.29642857143	-4.46
174	0.087	7.85319148936	1.95	-1.06428571429	-13.22
175	0.0875	-5.05319148936	0.5	3.29642857143	-7.38
176	0.088	-2.18510638298	-3.85	-1.06428571429	-3.0
177	0.0885	-0.751063829787	-12.55	-1.06428571429	-3.0
178	0.089	2.1170212766	-11.1	-1.06428571429	-4.46
179	0.0895	-0.751063829787	0.5	-1.06428571429	-3.0
180	0.09	-3.61914893617	-2.4	1.84285714286	-7.38
181	0.0905	-2.18510638298	0.5	-5.425	4.3
182	0.091	-2.18510638298	-0.95	-8.33214285714	-3.0
183	0.0915	-3.61914893617	1.95	-1.06428571429	-3.0
184	0.092	-5.05319148936	-2.4	1.84285714286	-3.0
185	0.0925	-16.5255319149	0.5	-1.06428571429	1.38
186	0.093	-3.61914893617	-0.95	3.29642857143	-13.22
187	0.0935	-5.05319148936	-0.95	19.2857142857	-3.0
188	0.094	-2.18510638298	-2.4	1.84285714286	-4.46
189	0.0945	-2.18510638298	-11.1	0.389285714286	-3.0
190	0.095	-2.18510638298	-0.95	0.389285714286	-1.54
191	0.0955	17.8914893617	-2.4	0.389285714286	-16.14
192	0.096	-3.61914893617	-0.95	-3.97142857143	-10.3
193	0.0965	0.682978723404	0.5	-8.33214285714	-3.0
194	0.097	-3.61914893617	-2.4	-2.51785714286	-3.0
195	0.0975	-0.751063829787	16.45	1.84285714286	-1.54
196	0.098	-0.751063829787	-2.4	1.84285714286	-0.08
197	0.0985	-16.5255319149	-0.95	0.389285714286	-3.0
198	0.099	-3.61914893617	-0.95	4.75	-5.92
199	0.0995	-5.05319148936	3.4	9.11071428571	-5.92
200	0.1	-5.05319148936	4.85	-1.06428571429	-1.54
201	0.1005	-5.05319148936	3.4	0.389285714286	-3.0
202	0.101	-7.92127659574	1.95	0.389285714286	-4.46
203	0.1015	-5.05319148936	0.5	1.84285714286	-3.0
204	0.102	-13.6574468085	-0.95	0.389285714286	14.52
205	0.1025	-5.05319148936	-0.95	-8.33214285714	-3.0
206	0.103	-5.05319148936	-0.95	1.84285714286	-4.46
207	0.1035	-3.61914893617	17.9	0.389285714286	-1.54
208	0.104	-5.05319148936	-0.95	-1.06428571429	-1.54
209	0.1045	-17.9595744681	0.5	0.389285714286	-0.08
210	0.105	-6.48723404255	-0.95	3.29642857143	-7.38
211	0.1055	-3.61914893617	0.5	7.65714285714	-4.46
212	0.106	-2.18510638298	-2.4	-3.97142857143	-3.0
213	0.1065	-0.751063829787	-0.95	-6.87857142857	-3.0
214	0.107	-0.751063829787	0.5	-2.51785714286	-3.0
215	0.1075	-0.751063829787	-0.95	3.29642857143	-3.0
216	0.108	-10.7893617021	-0.95	3.29642857143	-3.0
217	0.1085	-2.18510638298	3.4	1.84285714286	-10.3
218	0.109	-0.751063829787	0.5	-1.06428571429	-1.54
219	0.1095	-3.61914893617	-0.95	-1.06428571429	-1.54
220	0.11	3.55106382979	3.4	-1.06428571429	-4.46
221	0.1105	13.5893617021	0.5	0.389285714286	-3.0
222	0.111	-3.61914893617	0.5	-1.06428571429	-8.84
223	0.1115	2.1170212766	1.95	1.84285714286	-1.54
224	0.112	2.1170212766	0.5	7.65714285714	-3.0
225	0.1125	-2.18510638298	1.95	-1.06428571429	-4.46
226	0.113	0.682978723404	-0.95	0.389285714286	-1.54
227	0.1135	17.8914893617	-2.4	-1.06428571429	-3.0
228	0.114	-2.18510638298	0.5	0.389285714286	-14.68
229	0.1145	0.682978723404	0.5	-6.87857142857	-3.0
230	0.115	2.1170212766	1.95	-11.2392857143	-1.54
231	0.1155	-0.751063829787	16.45	0.389285714286	-4.46
232	0.116	-2.18510638298	15.0	-1.06428571429	-1.54
233	0.1165	-3.61914893617	0.5	3.29642857143	-0.08
234	0.117	3.55106382979	-0.95	3.29642857143	-8.84
235	0.1175	3.55106382979	-0.95	1.84285714286	-10.3
236	0.118	0.682978723404	0.5	-8.33214285714	-1.54
237	0.1185	3.55106382979	15.0	-1.06428571429	-1.54
238	0.119	3.55106382979	16.45	0.389285714286	-3.0
239	0.1195	-7.92127659574	-0.95	-1.06428571429	-0.08
240	0.12	3.55106382979	-0.95	-9.78571428571	-4.46
241	0.1205	2.1170212766	0.5	-6.87857142857	-1.54
242	0.121	0.682978723404	1.95	1.84285714286	-4.46
243	0.1215	0.682978723404	7.75	1.84285714286	-4.46
244	0.122	-7.92127659574	-0.95	1.84285714286	-4.46
245	0.1225	3.55106382979	0.5	3.29642857143	-5.92
246	0.123	-10.7893617021	-2.4	0.389285714286	11.6
247	0.1235	-2.18510638298	0.5	-1.06428571429	11.6
248	0.124	-5.05319148936	0.5	1.84285714286	-3.0
249	0.1245	-2.18510638298	13.55	0.389285714286	-1.54
250	0.125	-3.61914893617	-0.95	0.389285714286	-3.0
251	0.1255	-12.2234042553	0.5	1.84285714286	-1.54
252	0.126	-3.61914893617	-0.95	3.29642857143	-7.38
253	0.1265	-3.61914893617	-2.4	3.29642857143	-7.38
254	0.127	-3.61914893617	-3.85	-2.51785714286	-3.0
255	0.1275	-0.751063829787	-6.75	0.389285714286	-4.46
256	0.128	0.682978723404	-0.95	0.389285714286	-5.92
257	0.1285	9.28723404255	-2.4	0.389285714286	-3.0
258	0.129	-3.61914893617	-2.4	0.389285714286	-8.84
259	0.1295	-2.18510638298	-3.85	-8.33214285714	-8.84
260	0.13	-3.61914893617	1.95	-5.425	-3.0
261	0.1305	-2.18510638298	6.3	0.389285714286	-0.08
262	0.131	-7.92127659574	-0.95	0.389285714286	-4.46
263	0.1315	0.682978723404	0.5	0.389285714286	-5.92
264	0.132	-6.48723404255	-2.4	1.84285714286	5.76
265	0.1325	-2.18510638298	0.5	-1.06428571429	13.06
266	0.133	-2.18510638298	-2.4	0.389285714286	-3.0
267	0.1335	0.682978723404	9.2	1.84285714286	-3.0
268	0.134	0.682978723404	0.5	0.389285714286	-0.08
269	0.1345	0.682978723404	-0.95	1.84285714286	-0.08
270	0.135	0.682978723404	-2.4	-1.06428571429	-10.3
271	0.1355	0.682978723404	0.5	0.389285714286	-10.3
272	0.136	0.682978723404	-2.4	-6.87857142857	-1.54
273	0.1365	0.682978723404	-6.75	0.389285714286	-3.0
274	0.137	0.682978723404	1.95	1.84285714286	-4.46
275	0.1375	17.8914893617	-0.95	0.389285714286	-3.0
276	0.138	-6.48723404255	0.5	-1.06428571429	14.52
277	0.1385	-2.18510638298	-0.95	-2.51785714286	15.98
278	0.139	0.682978723404	3.4	1.84285714286	-1.54
279	0.1395	-2.18510638298	20.8	-1.06428571429	-3.0
280	0.14	-3.61914893617	1.95	-1.06428571429	-0.08
281	0.1405	-12.2234042553	1.95	1.84285714286	-1.54
282	0.141	-0.751063829787	1.95	1.84285714286	-10.3
283	0.1415	0.682978723404	1.95	13.4714285714	-3.0
284	0.142	0.682978723404	0.5	-3.97142857143	-3.0
285	0.1425	-0.751063829787	0.5	-3.97142857143	-4.46
286	0.143	0.682978723404	-0.95	-1.06428571429	-1.54
287	0.1435	9.28723404255	0.5	1.84285714286	-5.92
288	0.144	-7.92127659574	0.5	0.389285714286	5.76
289	0.1445	0.682978723404	0.5	-2.51785714286	-1.54
290	0.145	-0.751063829787	0.5	12.0178571429	-1.54
291	0.1455	0.682978723404	-2.4	0.389285714286	-4.46
292	0.146	0.682978723404	-2.4	0.389285714286	-3.0
293	0.1465	-5.05319148936	0.5	1.84285714286	-4.46
294	0.147	-3.61914893617	0.5	1.84285714286	5.76
295	0.1475	-0.751063829787	1.95	-1.06428571429	-0.08
296	0.148	-2.18510638298	1.95	-6.87857142857	-3.0
297	0.1485	-3.61914893617	0.5	-8.33214285714	-3.0
298	0.149	-6.48723404255	1.95	3.29642857143	-3.0
299	0.1495	-16.5255319149	1.95	0.389285714286	-1.54
300	0.15	-10.7893617021	0.5	0.389285714286	-11.76
301	0.1505	-3.61914893617	1.95	9.11071428571	-5.92
302	0.151	-2.18510638298	-0.95	-3.97142857143	-1.54
303	0.1515	-2.18510638298	3.4	-5.425	-1.54
304	0.152	-2.18510638298	10.65	3.29642857143	-3.0
305	0.1525	-6.48723404255	0.5	-1.06428571429	-1.54
306	0.153	-13.6574468085	0.5	3.29642857143	14.52
307	0.1535	-5.05319148936	0.5	3.29642857143	13.06
308	0.154	-3.61914893617	0.5	3.29642857143	-7.38
309	0.1545	-0.751063829787	-11.1	-1.06428571429	-3.0
310	0.155	-2.18510638298	-0.95	-1.06428571429	-1.54
311	0.1555	0.682978723404	0.5	0.389285714286	-3.0
312	0.156	-0.751063829787	0.5	0.389285714286	-4.46
313	0.1565	-5.05319148936	0.5	1.84285714286	-8.84
314	0.157	-3.61914893617	1.95	-9.78571428571	-8.84
315	0.1575	-3.61914893617	4.85	-6.87857142857	-3.0
316	0.158	-5.05319148936	17.9	0.389285714286	-4.46
317	0.1585	-5.05319148936	-2.4	0.389285714286	-1.54
318	0.159	-3.61914893617	0.5	0.389285714286	-3.0
319	0.1595	-9.35531914894	0.5	-1.06428571429	11.6
320	0.16	-2.18510638298	-0.95	-6.87857142857	-4.46
321	0.1605	-3.61914893617	0.5	-11.2392857143	-7.38
322	0.161	-2.18510638298	19.35	1.84285714286	-5.92
323	0.1615	-5.05319148936	-0.95	0.389285714286	-3.0
324	0.162	-16.5255319149	-0.95	1.84285714286	1.38
325	0.1625	-9.35531914894	0.5	3.29642857143	10.14
326	0.163	-6.48723404255	0.5	4.75	2.84
327	0.1635	-5.05319148936	0.5	-1.06428571429	-4.46
328	0.164	-2.18510638298	0.5	-2.51785714286	-3.0
329	0.1645	-2.18510638298	9.2	3.29642857143	-3.0
330	0.165	-3.61914893617	1.95	0.389285714286	-1.54
331	0.1655	-10.7893617021	0.5	3.29642857143	13.06
332	0.166	-5.05319148936	1.95	0.389285714286	-3.0
333	0.1665	-3.61914893617	1.95	19.2857142857	-3.0
334	0.167	-5.05319148936	-9.65	0.389285714286	-4.46
335	0.1675	-5.05319148936	-9.65	0.389285714286	-3.0
336	0.168	-2.18510638298	-0.95	-1.06428571429	-1.54
337	0.1685	2.1170212766	1.95	1.84285714286	-8.84
338	0.169	-6.48723404255	0.5	-5.425	5.76
339	0.1695	-5.05319148936	0.5	9.11071428571	-3.0
340	0.17	-7.92127659574	0.5	1.84285714286	-4.46
341	0.1705	-6.48723404255	16.45	0.389285714286	-3.0
342	0.171	-9.35531914894	-0.95	-1.06428571429	-1.54
343	0.1715	-16.5255319149	3.4	3.29642857143	-7.38
344	0.172	-6.48723404255	-0.95	4.75	-11.76
345	0.1725	-5.05319148936	-0.95	14.925	-1.54
346	0.173	-7.92127659574	0.5	-1.06428571429	-3.0
347	0.1735	-6.48723404255	-5.3	-1.06428571429	-3.0
348	0.174	-3.61914893617	-2.4	1.84285714286	-4.46
349	0.1745	2.1170212766	1.95	-1.06428571429	-7.38
350	0.175	-10.7893617021	1.95	0.389285714286	-5.92
351	0.1755	-5.05319148936	0.5	14.925	-4.46
352	0.176	-5.05319148936	0.5	19.2857142857	-4.46
353	0.1765	-5.05319148936	-2.4	0.389285714286	-3.0
354	0.177	-6.48723404255	0.5	0.389285714286	-3.0
355	0.1775	-9.35531914894	1.95	0.389285714286	-1.54
356	0.178	-15.0914893617	1.95	-1.06428571429	-1.54
357	0.1785	-5.05319148936	0.5	0.389285714286	-8.84
358	0.179	-6.48723404255	-2.4	-6.87857142857	-1.54
359	0.1795	-6.48723404255	6.3	-2.51785714286	-4.46
360	0.18	-7.92127659574	0.5	0.389285714286	-1.54
361	0.1805	-20.8276595745	0.5	0.389285714286	-0.08
362	0.181	-12.2234042553	1.95	0.389285714286	7.22
363	0.1815	-5.05319148936	-2.4	-5.425	-5.92
364	0.182	-5.05319148936	0.5	-3.97142857143	-8.84
365	0.1825	-5.05319148936	0.5	1.84285714286	-3.0
366	0.183	-5.05319148936	-5.3	0.389285714286	-1.54
367	0.1835	-7.92127659574	1.95	1.84285714286	-3.0
368	0.184	7.85319148936	0.5	0.389285714286	-5.92
369	0.1845	-5.05319148936	0.5	0.389285714286	-3.0
370	0.185	-5.05319148936	4.85	-8.33214285714	-3.0
371	0.1855	-5.05319148936	-2.4	0.389285714286	-1.54
372	0.186	-5.05319148936	16.45	0.389285714286	-4.46
373	0.1865	-6.48723404255	1.95	3.29642857143	-1.54
374	0.187	-16.5255319149	0.5	3.29642857143	1.38
375	0.1875	-3.61914893617	-0.95	4.75	-1.54
376	0.188	-5.05319148936	1.95	20.7392857143	-1.54
377	0.1885	-5.05319148936	-2.4	19.2857142857	-4.46
378	0.189	-5.05319148936	-3.85	-1.06428571429	-3.0
379	0.1895	-3.61914893617	-0.95	-1.06428571429	-5.92
380	0.19	-16.5255319149	-0.95	3.29642857143	-4.46
381	0.1905	-15.0914893617	-0.95	1.84285714286	-1.54
382	0.191	-5.05319148936	0.5	17.8321428571	-3.0
383	0.1915	-7.92127659574	0.5	20.7392857143	-4.46
384	0.192	-5.05319148936	-6.75	0.389285714286	-4.46
385	0.1925	-3.61914893617	10.65	3.29642857143	-3.0
386	0.193	-6.48723404255	1.95	3.29642857143	-5.92
387	0.1935	-7.92127659574	0.5	0.389285714286	-7.38
388	0.194	-5.05319148936	1.95	-1.06428571429	11.6
389	0.1945	-5.05319148936	0.5	13.4714285714	-4.46
390	0.195	-2.18510638298	-0.95	14.925	-3.0
391	0.1955	-3.61914893617	-6.75	1.84285714286	-1.54
392	0.196	-5.05319148936	0.5	3.29642857143	-3.0
393	0.1965	-12.2234042553	0.5	3.29642857143	11.6
394	0.197	-5.05319148936	0.5	0.389285714286	-5.92
395	0.1975	-5.05319148936	1.95	19.2857142857	-1.54
396	0.198	-5.05319148936	-0.95	17.8321428571	-3.0
397	0.1985	-5.05319148936	-9.65	-1.06428571429	-0.08
398	0.199	-5.05319148936	0.5	0.389285714286	-3.0
399	0.1995	10.7212765957	0.5	1.84285714286	-13.22
400	0.2	-7.92127659574	0.5	0.389285714286	-13.22
401	0.2005	-6.48723404255	1.95	-6.87857142857	-10.3
402	0.201	-6.48723404255	-0.95	-5.425	-3.0
403	0.2015	-3.61914893617	12.1	4.75	-3.0
404	0.202	-5.05319148936	-0.95	0.389285714286	-3.0
405	0.2025	-5.05319148936	0.5	4.75	-3.0
406	0.203	-10.7893617021	0.5	1.84285714286	8.68
407	0.2035	-5.05319148936	-2.4	-1.06428571429	-1.54
408	0.204	-3.61914893617	-2.4	3.29642857143	-3.0
409	0.2045	-3.61914893617	1.95	3.29642857143	-7.38
410	0.205	-2.18510638298	-3.85	1.84285714286	-3.0
411	0.2055	9.28723404255	1.95	0.389285714286	-3.0
412	0.206	-2.18510638298	0.5	-3.97142857143	-10.3
413	0.2065	-2.18510638298	0.5	-11.2392857143	-3.0
414	0.207	-2.18510638298	-0.95	-1.06428571429	-1.54
415	0.2075	0.682978723404	6.3	0.389285714286	-1.54
416	0.208	2.1170212766	-0.95	0.389285714286	-1.54
417	0.2085	-9.35531914894	0.5	-1.06428571429	-4.46
418	0.209	2.1170212766	0.5	-1.06428571429	-11.76
419	0.2095	0.682978723404	1.95	-3.97142857143	-3.0
420	0.21	0.682978723404	0.5	-5.425	-4.46
421	0.2105	-2.18510638298	4.85	1.84285714286	-1.54
422	0.211	0.682978723404	1.95	1.84285714286	-1.54
423	0.2115	13.5893617021	0.5	1.84285714286	-1.54
424	0.212	0.682978723404	0.5	4.75	-4.46
425	0.2125	2.1170212766	1.95	16.3785714286	-4.46
426	0.213	0.682978723404	-2.4	14.925	-3.0
427	0.2135	-2.18510638298	-11.1	4.75	-1.54
428	0.214	0.682978723404	1.95	0.389285714286	-5.92
429	0.2145	20.7595744681	0.5	1.84285714286	-14.68
430	0.215	0.682978723404	1.95	-1.06428571429	-13.22
431	0.2155	2.1170212766	1.95	-6.87857142857	-4.46
432	0.216	3.55106382979	1.95	-3.97142857143	-4.46
433	0.2165	2.1170212766	16.45	3.29642857143	-3.0
434	0.217	3.55106382979	0.5	3.29642857143	-1.54
435	0.2175	3.55106382979	0.5	1.84285714286	-1.54
436	0.218	0.682978723404	0.5	4.75	-10.3
437	0.2185	2.1170212766	0.5	-9.78571428571	-1.54
438	0.219	2.1170212766	4.85	3.29642857143	-3.0
439	0.2195	0.682978723404	13.55	-1.06428571429	-1.54
440	0.22	-3.61914893617	-0.95	1.84285714286	-4.46
441	0.2205	-12.2234042553	1.95	1.84285714286	-1.54
442	0.221	-3.61914893617	3.4	0.389285714286	-7.38
443	0.2215	-0.751063829787	0.5	-1.06428571429	13.06
444	0.222	-0.751063829787	3.4	1.84285714286	-4.46
445	0.2225	0.682978723404	17.9	1.84285714286	-3.0
446	0.223	-0.751063829787	0.5	4.75	-3.0
447	0.2235	-5.05319148936	1.95	1.84285714286	-3.0
448	0.224	0.682978723404	0.5	3.29642857143	-1.54
449	0.2245	0.682978723404	1.95	4.75	-0.08
450	0.225	-0.751063829787	0.5	-2.51785714286	-3.0
451	0.2255	-3.61914893617	1.95	1.84285714286	-1.54
452	0.226	0.682978723404	0.5	1.84285714286	-1.54
453	0.2265	0.682978723404	1.95	1.84285714286	-1.54
454	0.227	-0.751063829787	0.5	7.65714285714	2.84
455	0.2275	-2.18510638298	3.4	4.75	-7.38
456	0.228	-0.751063829787	1.95	-6.87857142857	-1.54
457	0.2285	0.682978723404	3.4	1.84285714286	-3.0
458	0.229	-2.18510638298	0.5	0.389285714286	-3.0
459	0.2295	-10.7893617021	0.5	3.29642857143	-1.54
460	0.23	0.682978723404	0.5	-1.06428571429	-8.84
461	0.2305	0.682978723404	1.95	-8.33214285714	-3.0
462	0.231	-0.751063829787	0.5	-6.87857142857	-1.54
463	0.2315	-2.18510638298	1.95	-5.425	-3.0
464	0.232	0.682978723404	-6.75	4.75	-3.0
465	0.2325	-5.05319148936	-0.95	3.29642857143	1.38
466	0.233	-3.61914893617	0.5	0.389285714286	-8.84
467	0.2335	-0.751063829787	0.5	-6.87857142857	-3.0
468	0.234	-2.18510638298	4.85	-8.33214285714	-5.92
469	0.2345	0.682978723404	-9.65	-1.06428571429	-3.0
470	0.235	3.55106382979	-9.65	0.389285714286	-4.46
471	0.2355	23.6276595745	-0.95	0.389285714286	-11.76
472	0.236	3.55106382979	0.5	-1.06428571429	1.38
473	0.2365	0.682978723404	1.95	3.29642857143	15.98
474	0.237	-0.751063829787	1.95	-1.06428571429	-4.46
475	0.2375	-0.751063829787	1.95	3.29642857143	-3.0
476	0.238	-0.751063829787	-2.4	0.389285714286	-1.54
477	0.2385	-7.92127659574	0.5	0.389285714286	-3.0
478	0.239	-5.05319148936	1.95	-1.06428571429	1.38
479	0.2395	-3.61914893617	-0.95	-1.06428571429	4.3
480	0.24	-5.05319148936	0.5	12.0178571429	-3.0
481	0.2405	-3.61914893617	-11.1	-2.51785714286	-1.54
482	0.241	-0.751063829787	17.9	0.389285714286	-1.54
483	0.2415	-12.2234042553	0.5	-1.06428571429	1.38
484	0.242	15.0234042553	-0.95	-1.06428571429	-4.46
485	0.2425	-2.18510638298	3.4	0.389285714286	7.22
486	0.243	0.682978723404	0.5	3.29642857143	-3.0
487	0.2435	3.55106382979	4.85	-6.87857142857	-3.0
488	0.244	-0.751063829787	-2.4	-1.06428571429	-3.0
489	0.2445	-12.2234042553	-0.95	3.29642857143	-1.54
490	0.245	20.7595744681	-2.4	-1.06428571429	-5.92
491	0.2455	3.55106382979	0.5	-3.97142857143	14.52
492	0.246	4.98510638298	1.95	17.8321428571	-1.54
493	0.2465	3.55106382979	3.4	-1.06428571429	-3.0
494	0.247	0.682978723404	-9.65	-2.51785714286	-3.0
495	0.2475	4.98510638298	0.5	1.84285714286	-5.92
496	0.248	19.3255319149	0.5	-1.06428571429	-5.92
497	0.2485	7.85319148936	-0.95	-2.51785714286	-11.76
498	0.249	7.85319148936	-2.4	-11.2392857143	-3.0
499	0.2495	9.28723404255	-5.3	-1.06428571429	-5.92
500	0.25	9.28723404255	3.4	0.389285714286	-3.0
501	0.2505	9.28723404255	0.5	-3.97142857143	-4.46
502	0.251	23.6276595745	-0.95	-3.97142857143	-1.54
503	0.2515	10.7212765957	0.5	-2.51785714286	8.68
504	0.252	10.7212765957	0.5	17.8321428571	-5.92
505	0.2525	9.28723404255	-14.0	-1.06428571429	-5.92
506	0.253	10.7212765957	-11.1	-2.51785714286	-5.92
507	0.2535	15.0234042553	0.5	-3.97142857143	-4.46
508	0.254	3.55106382979	-5.3	-1.06428571429	2.84
509	0.2545	13.5893617021	-3.85	4.75	-4.46
510	0.255	16.4574468085	-6.75	-1.06428571429	-4.46
511	0.2555	17.8914893617	0.5	-6.87857142857	-4.46
512	0.256	16.4574468085	-2.4	0.389285714286	-4.46
513	0.2565	17.8914893617	-3.85	-1.06428571429	-3.0
514	0.257	15.0234042553	-6.75	-2.51785714286	-4.46
515	0.2575	17.8914893617	-8.2	0.389285714286	-8.84
516	0.258	23.6276595745	-11.1	-2.51785714286	-5.92
517	0.2585	22.1936170213	-18.35	-1.06428571429	-4.46
518	0.259	22.1936170213	-11.1	-1.06428571429	-4.46
519	0.2595	33.6659574468	-3.85	0.389285714286	-3.0
520	0.26	4.98510638298	-6.75	0.389285714286	14.52
521	0.2605	13.5893617021	-6.75	-1.06428571429	13.06
522	0.261	12.1553191489	-5.3	-1.06428571429	-4.46
523	0.2615	10.7212765957	-6.75	0.389285714286	-4.46
524	0.262	7.85319148936	-14.0	1.84285714286	-5.92
525	0.2625	-5.05319148936	-2.4	-1.06428571429	-1.54
526	0.263	-0.751063829787	-5.3	0.389285714286	-5.92
527	0.2635	9.28723404255	-3.85	1.84285714286	-13.22
528	0.264	9.28723404255	-0.95	-5.425	-4.46
529	0.2645	4.98510638298	1.95	0.389285714286	-4.46
530	0.265	4.98510638298	0.5	-1.06428571429	-4.46
531	0.2655	17.8914893617	0.5	3.29642857143	-13.22
532	0.266	0.682978723404	-2.4	1.84285714286	-13.22
533	0.2665	0.682978723404	0.5	-1.06428571429	17.44
534	0.267	-0.751063829787	1.95	20.7392857143	-1.54
535	0.2675	-0.751063829787	-9.65	0.389285714286	1.38
536	0.268	-0.751063829787	-8.2	3.29642857143	-1.54
537	0.2685	-2.18510638298	-6.75	-1.06428571429	-0.08
538	0.269	-5.05319148936	0.5	-2.51785714286	-7.38
539	0.2695	-7.92127659574	1.95	-9.78571428571	1.38
540	0.27	-10.7893617021	4.85	-8.33214285714	1.38
541	0.2705	-9.35531914894	6.3	-1.06428571429	1.38
542	0.271	-12.2234042553	6.3	-1.06428571429	1.38
543	0.2715	-13.6574468085	6.3	0.389285714286	2.84
544	0.272	12.1553191489	4.85	-1.06428571429	-3.0
545	0.2725	-7.92127659574	6.3	-9.78571428571	-10.3
546	0.273	-10.7893617021	6.3	-9.78571428571	1.38
547	0.2735	-12.2234042553	4.85	-1.06428571429	-3.0
548	0.274	-10.7893617021	-0.95	1.84285714286	-3.0
549	0.2745	-12.2234042553	-2.4	-1.06428571429	-3.0
550	0.275	-2.18510638298	3.4	-1.06428571429	-5.92
551	0.2755	-12.2234042553	4.85	1.84285714286	-3.0
552	0.276	-15.0914893617	4.85	-1.06428571429	-5.92
553	0.2765	-15.0914893617	-2.4	3.29642857143	-4.46
554	0.277	-15.0914893617	17.9	3.29642857143	-5.92
555	0.2775	-22.2617021277	3.4	3.29642857143	-4.46
556	0.278	-23.6957446809	1.95	3.29642857143	-7.38
557	0.2785	-10.7893617021	0.5	-1.06428571429	-13.22
558	0.279	-10.7893617021	4.85	-2.51785714286	-4.46
559	0.2795	-15.0914893617	4.85	-2.51785714286	-4.46
560	0.28	-13.6574468085	22.25	4.75	-7.38
561	0.2805	-23.6957446809	3.4	4.75	-4.46
562	0.281	4.98510638298	3.4	10.5642857143	-16.14
563	0.2815	-13.6574468085	3.4	9.11071428571	-14.68
564	0.282	-12.2234042553	3.4	23.6464285714	-1.54
565	0.2825	-15.0914893617	-6.75	9.11071428571	-3.0
566	0.283	-12.2234042553	17.9	7.65714285714	-7.38
567	0.2835	-10.7893617021	1.95	6.20357142857	-3.0
568	0.284	-23.6957446809	1.95	7.65714285714	-3.0
569	0.2845	-13.6574468085	0.5	7.65714285714	13.06
570	0.285	-12.2234042553	3.4	12.0178571429	-13.22
571	0.2855	-15.0914893617	-6.75	7.65714285714	-4.46
572	0.286	-9.35531914894	20.8	4.75	-4.46
573	0.2865	-15.0914893617	22.25	4.75	-1.54
574	0.287	-22.2617021277	1.95	7.65714285714	15.98
575	0.2875	-15.0914893617	3.4	9.11071428571	7.22
576	0.288	-13.6574468085	0.5	9.11071428571	-3.0
577	0.2885	-10.7893617021	-9.65	4.75	-1.54
578	0.289	-9.35531914894	-5.3	4.75	-4.46
579	0.2895	-7.92127659574	0.5	4.75	-3.0
580	0.29	0.682978723404	0.5	4.75	-8.84
581	0.2905	-15.0914893617	3.4	3.29642857143	2.84
582	0.291	-10.7893617021	1.95	1.84285714286	-4.46
583	0.2915	-9.35531914894	4.85	12.0178571429	-7.38
584	0.292	-9.35531914894	6.3	1.84285714286	-4.46
585	0.2925	-9.35531914894	-5.3	4.75	-3.0
586	0.293	-13.6574468085	3.4	6.20357142857	-3.0
587	0.2935	-6.48723404255	1.95	3.29642857143	-10.3
588	0.294	-6.48723404255	3.4	-1.06428571429	-3.0
589	0.2945	-9.35531914894	0.5	-6.87857142857	-1.54
590	0.295	-7.92127659574	-11.1	0.389285714286	-1.54
591	0.2955	-7.92127659574	-6.75	3.29642857143	-1.54
592	0.296	13.5893617021	3.4	6.20357142857	-3.0
593	0.2965	-12.2234042553	1.95	4.75	1.38
594	0.297	-7.92127659574	0.5	4.75	-5.92
595	0.2975	-5.05319148936	0.5	1.84285714286	-1.54
596	0.298	-2.18510638298	-2.4	-1.06428571429	-3.0
597	0.2985	-2.18510638298	3.4	1.84285714286	-3.0
598	0.299	0.682978723404	1.95	3.29642857143	-1.54
599	0.2995	2.1170212766	0.5	1.84285714286	-1.54
600	0.3	-5.05319148936	1.95	1.84285714286	-8.84
601	0.3005	-5.05319148936	1.95	-2.51785714286	-1.54
602	0.301	-7.92127659574	1.95	6.20357142857	-1.54
603	0.3015	-6.48723404255	17.9	1.84285714286	-3.0
604	0.302	-5.05319148936	0.5	0.389285714286	-4.46
605	0.3025	-10.7893617021	1.95	3.29642857143	-5.92
606	0.303	-5.05319148936	0.5	1.84285714286	-3.0
607	0.3035	-7.92127659574	3.4	9.11071428571	-7.38
608	0.304	-6.48723404255	-12.55	1.84285714286	-5.92
609	0.3045	-6.48723404255	-6.75	-1.06428571429	-1.54
610	0.305	-5.05319148936	1.95	3.29642857143	-3.0
611	0.3055	12.1553191489	0.5	3.29642857143	-13.22
612	0.306	-7.92127659574	0.5	19.2857142857	-4.46
613	0.3065	-5.05319148936	-0.95	3.29642857143	-1.54
614	0.307	-6.48723404255	-5.3	3.29642857143	-1.54
615	0.3075	-3.61914893617	-8.2	3.29642857143	-1.54
616	0.308	-5.05319148936	-6.75	1.84285714286	-1.54
617	0.3085	-7.92127659574	-2.4	3.29642857143	-7.38
618	0.309	-6.48723404255	0.5	4.75	-1.54
619	0.3095	-6.48723404255	1.95	-2.51785714286	-3.0
620	0.31	-6.48723404255	-0.95	3.29642857143	-3.0
621	0.3105	-5.05319148936	-5.3	3.29642857143	-3.0
622	0.311	-6.48723404255	1.95	-1.06428571429	-1.54
623	0.3115	-16.5255319149	0.5	1.84285714286	-0.08
624	0.312	-5.05319148936	1.95	4.75	15.98
625	0.3125	-7.92127659574	0.5	4.75	-4.46
626	0.313	-7.92127659574	-8.2	3.29642857143	-1.54
627	0.3135	-3.61914893617	-8.2	4.75	-3.0
628	0.314	-5.05319148936	0.5	3.29642857143	-1.54
629	0.3145	13.5893617021	-0.95	1.84285714286	-3.0
630	0.315	-6.48723404255	3.4	-8.33214285714	-3.0
631	0.3155	-7.92127659574	1.95	17.8321428571	-1.54
632	0.316	-9.35531914894	0.5	14.925	-1.54
633	0.3165	-5.05319148936	16.45	1.84285714286	-0.08
634	0.317	-7.92127659574	1.95	1.84285714286	-4.46
635	0.3175	-15.0914893617	-0.95	3.29642857143	-7.38
636	0.318	-7.92127659574	1.95	4.75	-5.92
637	0.3185	-5.05319148936	0.5	12.0178571429	-8.84
638	0.319	-5.05319148936	1.95	9.11071428571	-1.54
639	0.3195	-5.05319148936	0.5	3.29642857143	-4.46
640	0.32	-0.751063829787	-2.4	3.29642857143	-1.54
641	0.3205	10.7212765957	-0.95	1.84285714286	-0.08
642	0.321	-5.05319148936	0.5	-6.87857142857	-3.0
643	0.3215	-5.05319148936	1.95	-6.87857142857	-1.54
644	0.322	-3.61914893617	1.95	0.389285714286	-3.0
645	0.3225	-6.48723404255	20.8	0.389285714286	-1.54
646	0.323	-6.48723404255	1.95	0.389285714286	-1.54
647	0.3235	-13.6574468085	1.95	0.389285714286	-0.08
648	0.324	-5.05319148936	1.95	0.389285714286	-4.46
649	0.3245	-5.05319148936	1.95	12.0178571429	-1.54
650	0.325	-6.48723404255	-3.85	1.84285714286	-3.0
651	0.3255	-3.61914893617	12.1	0.389285714286	-1.54
652	0.326	-6.48723404255	1.95	0.389285714286	-3.0
653	0.3265	-2.18510638298	3.4	1.84285714286	-7.38
654	0.327	-7.92127659574	1.95	1.84285714286	-0.08
655	0.3275	-3.61914893617	0.5	12.0178571429	-8.84
656	0.328	-6.48723404255	4.85	-1.06428571429	-1.54
657	0.3285	-5.05319148936	-0.95	-1.06428571429	-1.54
658	0.329	-0.751063829787	0.5	-1.06428571429	-4.46
659	0.3295	9.28723404255	0.5	-1.06428571429	-3.0
660	0.33	-6.48723404255	1.95	6.20357142857	-13.22
661	0.3305	-6.48723404255	0.5	-9.78571428571	-10.3
662	0.331	-6.48723404255	1.95	-8.33214285714	-4.46
663	0.3315	-7.92127659574	13.55	-1.06428571429	-3.0
664	0.332	-6.48723404255	-3.85	4.75	-1.54
665	0.3325	-15.0914893617	0.5	4.75	14.52
666	0.333	-7.92127659574	0.5	1.84285714286	-13.22
667	0.3335	-7.92127659574	0.5	-6.87857142857	-1.54
668	0.334	-7.92127659574	-3.85	-1.06428571429	-3.0
669	0.3345	-5.05319148936	-0.95	1.84285714286	-1.54
670	0.335	-3.61914893617	4.85	-1.06428571429	-1.54
671	0.3355	10.7212765957	1.95	3.29642857143	-1.54
672	0.336	-5.05319148936	0.5	3.29642857143	-4.46
673	0.3365	-7.92127659574	3.4	-1.06428571429	-8.84
674	0.337	-7.92127659574	-5.3	-2.51785714286	-3.0
675	0.3375	-5.05319148936	-5.3	1.84285714286	-3.0
676	0.338	-3.61914893617	1.95	1.84285714286	-0.08
677	0.3385	-9.35531914894	1.95	0.389285714286	2.84
678	0.339	-5.05319148936	0.5	4.75	13.06
679	0.3395	-7.92127659574	1.95	7.65714285714	-10.3
680	0.34	-6.48723404255	-6.75	1.84285714286	-3.0
681	0.3405	-7.92127659574	-9.65	1.84285714286	-1.54
682	0.341	-6.48723404255	0.5	1.84285714286	-1.54
683	0.3415	-16.5255319149	0.5	3.29642857143	-3.0
684	0.342	-6.48723404255	3.4	1.84285714286	-1.54
685	0.3425	-6.48723404255	1.95	14.925	-4.46
686	0.343	-3.61914893617	-2.4	0.389285714286	-1.54
687	0.3435	-6.48723404255	6.3	1.84285714286	-1.54
688	0.344	-7.92127659574	-0.95	1.84285714286	-3.0
689	0.3445	-10.7893617021	3.4	-1.06428571429	1.38
690	0.345	-7.92127659574	0.5	-6.87857142857	-4.46
691	0.3455	-5.05319148936	1.95	-1.06428571429	-3.0
692	0.346	-5.05319148936	4.85	-1.06428571429	-1.54
693	0.3465	-6.48723404255	15.0	0.389285714286	-1.54
694	0.347	-16.5255319149	0.5	0.389285714286	-1.54
695	0.3475	-12.2234042553	0.5	-1.06428571429	-5.92
696	0.348	-5.05319148936	-2.4	1.84285714286	-14.68
697	0.3485	-3.61914893617	0.5	-2.51785714286	-1.54
698	0.349	-6.48723404255	4.85	3.29642857143	-3.0
699	0.3495	-5.05319148936	19.35	1.84285714286	-1.54
700	0.35	-7.92127659574	-0.95	4.75	-0.08
701	0.3505	-13.6574468085	-0.95	6.20357142857	-0.08
702	0.351	-3.61914893617	0.5	6.20357142857	14.52
703	0.3515	-5.05319148936	0.5	20.7392857143	-3.0
704	0.352	-5.05319148936	-2.4	1.84285714286	-0.08
705	0.3525	-3.61914893617	-9.65	1.84285714286	-4.46
706	0.353	-0.751063829787	0.5	0.389285714286	-4.46
707	0.3535	15.0234042553	1.95	0.389285714286	-4.46
708	0.354	-3.61914893617	0.5	-1.06428571429	-11.76
709	0.3545	-5.05319148936	1.95	-8.33214285714	-3.0
710	0.355	-3.61914893617	3.4	-1.06428571429	-1.54
711	0.3555	-5.05319148936	17.9	-1.06428571429	-1.54
712	0.356	-5.05319148936	20.8	0.389285714286	-1.54
713	0.3565	-13.6574468085	-2.4	1.84285714286	2.84
714	0.357	-5.05319148936	-0.95	1.84285714286	-14.68
715	0.3575	-5.05319148936	4.85	19.2857142857	-1.54
716	0.358	-5.05319148936	-2.4	-1.06428571429	-1.54
717	0.3585	-2.18510638298	-8.2	1.84285714286	-3.0
718	0.359	-5.05319148936	1.95	-1.06428571429	-3.0
719	0.3595	12.1553191489	-2.4	0.389285714286	-7.38
720	0.36	-2.18510638298	1.95	3.29642857143	-10.3
721	0.3605	-5.05319148936	1.95	-1.06428571429	11.6
722	0.361	-5.05319148936	-5.3	1.84285714286	-1.54
723	0.3615	-2.18510638298	9.2	-1.06428571429	-1.54
724	0.362	-3.61914893617	4.85	1.84285714286	-4.46
725	0.3625	-6.48723404255	-0.95	0.389285714286	1.38
726	0.363	-6.48723404255	0.5	3.29642857143	-3.0
727	0.3635	-6.48723404255	1.95	16.3785714286	-1.54
728	0.364	-5.05319148936	-0.95	0.389285714286	-0.08
729	0.3645	-0.751063829787	-6.75	-1.06428571429	-1.54
730	0.365	0.682978723404	1.95	0.389285714286	-5.92
731	0.3655	16.4574468085	0.5	0.389285714286	-11.76
732	0.366	-5.05319148936	1.95	-1.06428571429	-10.3
733	0.3665	-5.05319148936	0.5	-2.51785714286	-1.54
734	0.367	-5.05319148936	0.5	-2.51785714286	-0.08
735	0.3675	-5.05319148936	4.85	1.84285714286	-0.08
736	0.368	-2.18510638298	0.5	-1.06428571429	-3.0
737	0.3685	15.0234042553	0.5	3.29642857143	-13.22
738	0.369	-3.61914893617	0.5	-1.06428571429	-7.38
739	0.3695	-5.05319148936	1.95	-9.78571428571	-4.46
740	0.37	-2.18510638298	4.85	3.29642857143	-1.54
741	0.3705	-5.05319148936	20.8	0.389285714286	-3.0
742	0.371	-13.6574468085	0.5	0.389285714286	-4.46
743	0.3715	2.1170212766	-2.4	0.389285714286	-3.0
744	0.372	-3.61914893617	3.4	0.389285714286	-11.76
745	0.3725	-5.05319148936	3.4	-6.87857142857	-1.54
746	0.373	-2.18510638298	1.95	-5.425	-3.0
747	0.3735	-0.751063829787	7.75	3.29642857143	-1.54
748	0.374	2.1170212766	0.5	0.389285714286	-4.46
749	0.3745	0.682978723404	0.5	0.389285714286	-4.46
750	0.375	-2.18510638298	-2.4	-5.425	-8.84
751	0.3755	-3.61914893617	1.95	7.65714285714	-3.0
752	0.376	-3.61914893617	0.5	1.84285714286	-1.54
753	0.3765	-3.61914893617	-2.4	1.84285714286	-0.08
754	0.377	-16.5255319149	0.5	4.75	-1.54
755	0.3775	13.5893617021	-0.95	1.84285714286	-3.0
756	0.378	-3.61914893617	-0.95	-9.78571428571	-3.0
757	0.3785	-2.18510638298	3.4	16.3785714286	-1.54
758	0.379	-3.61914893617	0.5	3.29642857143	-3.0
759	0.3795	-3.61914893617	20.8	1.84285714286	-3.0
760	0.38	-15.0914893617	0.5	-1.06428571429	-4.46
761	0.3805	17.8914893617	0.5	3.29642857143	-5.92
762	0.381	-5.05319148936	1.95	0.389285714286	-13.22
763	0.3815	-5.05319148936	3.4	-6.87857142857	-1.54
764	0.382	-2.18510638298	4.85	1.84285714286	-1.54
765	0.3825	-3.61914893617	20.8	-1.06428571429	-1.54
766	0.383	-3.61914893617	-6.75	1.84285714286	-3.0
767	0.3835	15.0234042553	1.95	-1.06428571429	-8.84
768	0.384	-2.18510638298	1.95	-1.06428571429	-7.38
769	0.3845	-2.18510638298	1.95	-2.51785714286	-1.54
770	0.385	-2.18510638298	1.95	-2.51785714286	-1.54
771	0.3855	-2.18510638298	10.65	0.389285714286	-3.0
772	0.386	0.682978723404	0.5	1.84285714286	-3.0
773	0.3865	2.1170212766	0.5	0.389285714286	-0.08
774	0.387	-0.751063829787	1.95	-5.425	-5.92
775	0.3875	-0.751063829787	1.95	3.29642857143	-1.54
776	0.388	-2.18510638298	0.5	6.20357142857	-3.0
777	0.3885	-2.18510638298	9.2	0.389285714286	-1.54
778	0.389	-5.05319148936	-5.3	0.389285714286	-3.0
779	0.3895	-0.751063829787	-0.95	1.84285714286	-3.0
780	0.39	-5.05319148936	0.5	-1.06428571429	-3.0
781	0.3905	-3.61914893617	0.5	4.75	-4.46
782	0.391	-3.61914893617	-5.3	3.29642857143	-3.0
783	0.3915	-2.18510638298	4.85	3.29642857143	-3.0
784	0.392	-2.18510638298	0.5	0.389285714286	-3.0
785	0.3925	3.55106382979	0.5	0.389285714286	-4.46
786	0.393	-2.18510638298	0.5	1.84285714286	-3.0
787	0.3935	-2.18510638298	0.5	7.65714285714	-1.54
788	0.394	-0.751063829787	-0.95	1.84285714286	-1.54
789	0.3945	-2.18510638298	-0.95	3.29642857143	-4.46
790	0.395	0.682978723404	0.5	0.389285714286	-4.46
791	0.3955	16.4574468085	0.5	1.84285714286	-14.68
792	0.396	-3.61914893617	0.5	0.389285714286	-10.3
793	0.3965	-2.18510638298	1.95	0.389285714286	-0.08
794	0.397	-3.61914893617	4.85	0.389285714286	-1.54
795	0.3975	-3.61914893617	13.55	-1.06428571429	-3.0
796	0.398	-2.18510638298	0.5	1.84285714286	-1.54
797	0.3985	-16.5255319149	-0.95	3.29642857143	-0.08
798	0.399	-5.05319148936	1.95	0.389285714286	-10.3
799	0.3995	-3.61914893617	0.5	19.2857142857	-3.0
800	0.4	-3.61914893617	-3.85	-8.33214285714	-4.46
801	0.4005	-0.751063829787	0.5	-9.78571428571	-1.54
802	0.401	-3.61914893617	0.5	0.389285714286	-3.0
803	0.4015	-6.48723404255	0.5	3.29642857143	-7.38
804	0.402	-5.05319148936	0.5	3.29642857143	4.3
805	0.4025	-3.61914893617	0.5	-2.51785714286	-3.0
806	0.403	-5.05319148936	-0.95	7.65714285714	-4.46
807	0.4035	-0.751063829787	-0.95	0.389285714286	-3.0
808	0.404	-3.61914893617	-5.3	0.389285714286	-3.0
809	0.4045	-6.48723404255	0.5	-1.06428571429	-3.0
810	0.405	10.7212765957	-0.95	-1.06428571429	-10.3
811	0.4055	-0.751063829787	0.5	0.389285714286	-3.0
812	0.406	-5.05319148936	0.5	-3.97142857143	-3.0
813	0.4065	-5.05319148936	-8.2	1.84285714286	-1.54
814	0.407	-3.61914893617	-9.65	0.389285714286	-3.0
815	0.4075	-5.05319148936	-0.95	0.389285714286	-3.0
816	0.408	-12.2234042553	-3.85	0.389285714286	-1.54
817	0.4085	-5.05319148936	1.95	-1.06428571429	13.06
818	0.409	-3.61914893617	0.5	16.3785714286	-0.08
819	0.4095	-5.05319148936	0.5	0.389285714286	-3.0
820	0.41	-3.61914893617	-8.2	1.84285714286	-1.54
821	0.4105	-6.48723404255	-2.4	0.389285714286	-1.54
822	0.411	13.5893617021	0.5	1.84285714286	-3.0
823	0.4115	-6.48723404255	-0.95	-2.51785714286	-4.46
824	0.412	-3.61914893617	1.95	13.4714285714	-3.0
825	0.4125	-3.61914893617	0.5	0.389285714286	-3.0
826	0.413	-5.05319148936	15.0	0.389285714286	-1.54
827	0.4135	-3.61914893617	-8.2	1.84285714286	-1.54
828	0.414	10.7212765957	0.5	0.389285714286	-13.22
829	0.4145	-7.92127659574	-0.95	3.29642857143	-11.76
830	0.415	-5.05319148936	-0.95	13.4714285714	-4.46
831	0.4155	-6.48723404255	-5.3	1.84285714286	-1.54
832	0.416	-2.18510638298	16.45	0.389285714286	-4.46
833	0.4165	-2.18510638298	0.5	-1.06428571429	-0.08
834	0.417	-10.7893617021	1.95	0.389285714286	17.44
835	0.4175	-5.05319148936	1.95	-9.78571428571	-4.46
836	0.418	-2.18510638298	1.95	-11.2392857143	-4.46
837	0.4185	-2.18510638298	4.85	0.389285714286	-3.0
838	0.419	-5.05319148936	-0.95	0.389285714286	-1.54
839	0.4195	2.1170212766	-0.95	-1.06428571429	-1.54
840	0.42	10.7212765957	3.4	3.29642857143	-3.0
841	0.4205	-3.61914893617	0.5	-8.33214285714	-5.92
842	0.421	-2.18510638298	4.85	-3.97142857143	-8.84
843	0.4215	-5.05319148936	0.5	0.389285714286	-1.54
844	0.422	-3.61914893617	-8.2	3.29642857143	-3.0
845	0.4225	-3.61914893617	0.5	-1.06428571429	-5.92
846	0.423	15.0234042553	0.5	0.389285714286	-13.22
847	0.4235	-3.61914893617	0.5	-1.06428571429	-11.76
848	0.424	-6.48723404255	-0.95	-8.33214285714	-4.46
849	0.4245	-5.05319148936	3.4	-1.06428571429	-3.0
850	0.425	-5.05319148936	3.4	0.389285714286	-1.54
851	0.4255	-5.05319148936	-2.4	1.84285714286	-1.54
852	0.426	0.682978723404	0.5	1.84285714286	-3.0
853	0.4265	-7.92127659574	-3.85	0.389285714286	11.6
854	0.427	-0.751063829787	1.95	-8.33214285714	-1.54
855	0.4275	-0.751063829787	1.95	-11.2392857143	-4.46
856	0.428	-3.61914893617	20.8	0.389285714286	-3.0
857	0.4285	-5.05319148936	0.5	0.389285714286	-1.54
858	0.429	-16.5255319149	3.4	0.389285714286	-0.08
859	0.4295	-9.35531914894	1.95	0.389285714286	15.98
860	0.43	-0.751063829787	0.5	6.20357142857	-8.84
861	0.4305	-0.751063829787	-0.95	1.84285714286	-1.54
862	0.431	-3.61914893617	-9.65	1.84285714286	-3.0
863	0.4315	-2.18510638298	-9.65	0.389285714286	-3.0
864	0.432	20.7595744681	1.95	3.29642857143	-3.0
865	0.4325	-0.751063829787	0.5	-2.51785714286	-8.84
866	0.433	3.55106382979	1.95	-3.97142857143	-1.54
867	0.4335	-0.751063829787	0.5	-6.87857142857	-3.0
868	0.434	-2.18510638298	-5.3	0.389285714286	-1.54
869	0.4345	0.682978723404	-0.95	1.84285714286	-3.0
870	0.435	3.55106382979	1.95	0.389285714286	-3.0
871	0.4355	-7.92127659574	1.95	0.389285714286	-7.38
872	0.436	-2.18510638298	4.85	-3.97142857143	-7.38
873	0.4365	-3.61914893617	4.85	-5.425	-1.54
874	0.437	-3.61914893617	13.55	3.29642857143	-3.0
875	0.4375	-2.18510638298	3.4	0.389285714286	-0.08
876	0.438	-5.05319148936	1.95	-1.06428571429	-1.54
877	0.4385	-10.7893617021	1.95	3.29642857143	-1.54
878	0.439	-3.61914893617	3.4	16.3785714286	-3.0
879	0.4395	-3.61914893617	0.5	20.7392857143	-1.54
880	0.44	-2.18510638298	-6.75	-1.06428571429	-3.0
881	0.4405	2.1170212766	-0.95	-1.06428571429	-3.0
882	0.441	15.0234042553	-0.95	-1.06428571429	-3.0
883	0.4415	-2.18510638298	0.5	0.389285714286	14.52
884	0.442	-0.751063829787	0.5	13.4714285714	-1.54
885	0.4425	-3.61914893617	0.5	3.29642857143	-4.46
886	0.443	-3.61914893617	13.55	0.389285714286	-3.0
887	0.4435	-5.05319148936	-6.75	1.84285714286	-3.0
888	0.444	3.55106382979	0.5	-1.06428571429	-1.54
889	0.4445	-2.18510638298	6.3	-6.87857142857	-7.38
890	0.445	-0.751063829787	1.95	-3.97142857143	-8.84
891	0.4455	-0.751063829787	4.85	1.84285714286	-3.0
892	0.446	-0.751063829787	-0.95	4.75	-3.0
893	0.4465	-9.35531914894	4.85	1.84285714286	-1.54
894	0.447	3.55106382979	0.5	4.75	2.84
895	0.4475	-0.751063829787	1.95	4.75	1.38
896	0.448	-0.751063829787	3.4	-2.51785714286	-1.54
897	0.4485	-0.751063829787	-6.75	0.389285714286	-1.54
898	0.449	0.682978723404	-5.3	1.84285714286	-3.0
899	0.4495	0.682978723404	0.5	3.29642857143	-3.0
900	0.45	-5.05319148936	0.5	0.389285714286	2.84
901	0.4505	-0.751063829787	-0.95	-1.06428571429	1.38
902	0.451	-0.751063829787	1.95	6.20357142857	-7.38
903	0.4515	-3.61914893617	-3.85	0.389285714286	-5.92
904	0.452	-3.61914893617	7.75	-1.06428571429	-3.0
905	0.4525	-2.18510638298	16.45	0.389285714286	-4.46
906	0.453	-10.7893617021	1.95	1.84285714286	7.22
907	0.4535	-0.751063829787	1.95	-5.425	-1.54
908	0.454	-0.751063829787	1.95	9.11071428571	-1.54
909	0.4545	-3.61914893617	-5.3	3.29642857143	-3.0
910	0.455	-0.751063829787	6.3	-1.06428571429	-3.0
911	0.4555	-10.7893617021	-0.95	-1.06428571429	-4.46
912	0.456	0.682978723404	0.5	-1.06428571429	-3.0
913	0.4565	-3.61914893617	0.5	0.389285714286	-7.38
914	0.457	-3.61914893617	0.5	0.389285714286	-7.38
915	0.4575	-5.05319148936	-2.4	1.84285714286	-3.0
916	0.458	0.682978723404	-2.4	0.389285714286	-4.46
917	0.4585	-3.61914893617	0.5	-1.06428571429	-3.0
918	0.459	-5.05319148936	1.95	1.84285714286	-3.0
919	0.4595	-5.05319148936	1.95	-1.06428571429	11.6
920	0.46	-3.61914893617	1.95	13.4714285714	-3.0
921	0.4605	-2.18510638298	4.85	0.389285714286	-1.54
922	0.461	-2.18510638298	16.45	-1.06428571429	-1.54
923	0.4615	-10.7893617021	1.95	0.389285714286	-1.54
924	0.462	12.1553191489	0.5	1.84285714286	-8.84
925	0.4625	-3.61914893617	3.4	1.84285714286	-10.3
926	0.463	-2.18510638298	6.3	-3.97142857143	-10.3
927	0.4635	-2.18510638298	1.95	-8.33214285714	-0.08
928	0.464	-5.05319148936	17.9	0.389285714286	-1.54
929	0.4645	-10.7893617021	4.85	0.389285714286	-3.0
930	0.465	13.5893617021	0.5	0.389285714286	-5.92
931	0.4655	-2.18510638298	1.95	-1.06428571429	-13.22
932	0.466	-6.48723404255	3.4	-9.78571428571	-4.46
933	0.4665	-3.61914893617	6.3	0.389285714286	-4.46
934	0.467	-5.05319148936	10.65	0.389285714286	-3.0
935	0.4675	-5.05319148936	4.85	-1.06428571429	-1.54
936	0.468	3.55106382979	0.5	0.389285714286	-5.92
937	0.4685	-6.48723404255	3.4	1.84285714286	-10.3
938	0.469	-2.18510638298	3.4	-2.51785714286	-11.76
939	0.4695	-2.18510638298	3.4	-8.33214285714	-1.54
940	0.47	-5.05319148936	6.3	1.84285714286	-3.0
941	0.4705	-3.61914893617	3.4	1.84285714286	-0.08
942	0.471	-13.6574468085	3.4	0.389285714286	1.38
943	0.4715	-0.751063829787	0.5	3.29642857143	8.68
944	0.472	-2.18510638298	1.95	13.4714285714	-3.0
945	0.4725	-0.751063829787	0.5	-2.51785714286	-1.54
946	0.473	-0.751063829787	3.4	-2.51785714286	-1.54
947	0.4735	-3.61914893617	0.5	-1.06428571429	-1.54
948	0.474	-2.18510638298	1.95	-1.06428571429	1.38
949	0.4745	-10.7893617021	1.95	1.84285714286	-0.08
950	0.475	-3.61914893617	0.5	19.2857142857	-3.0
951	0.4755	-3.61914893617	0.5	3.29642857143	-1.54
952	0.476	-0.751063829787	0.5	3.29642857143	-1.54
953	0.4765	0.682978723404	-8.2	1.84285714286	-3.0
954	0.477	2.1170212766	0.5	3.29642857143	-3.0
955	0.4775	-5.05319148936	3.4	-1.06428571429	-8.84
956	0.478	-3.61914893617	1.95	-9.78571428571	-3.0
957	0.4785	0.682978723404	0.5	1.84285714286	-1.54
958	0.479	-0.751063829787	-8.2	3.29642857143	-1.54
959	0.4795	0.682978723404	0.5	-1.06428571429	-3.0
960	0.48	16.4574468085	0.5	0.389285714286	-0.08
961	0.4805	2.1170212766	1.95	-1.06428571429	1.38
962	0.481	0.682978723404	0.5	-6.87857142857	-7.38
963	0.4815	-0.751063829787	1.95	-6.87857142857	-8.84
964	0.482	-2.18510638298	6.3	-1.06428571429	-3.0
965	0.4825	-0.751063829787	16.45	0.389285714286	-1.54
966	0.483	-3.61914893617	4.85	-1.06428571429	1.38
967	0.4835	-12.2234042553	1.95	-1.06428571429	15.98
968	0.484	-3.61914893617	1.95	-11.2392857143	-1.54
969	0.4845	-3.61914893617	-0.95	-8.33214285714	-4.46
970	0.485	-6.48723404255	4.85	-1.06428571429	-3.0
971	0.4855	-5.05319148936	-5.3	0.389285714286	-1.54
972	0.486	-5.05319148936	1.95	-1.06428571429	-1.54
973	0.4865	15.0234042553	0.5	0.389285714286	-3.0
974	0.487	-2.18510638298	-0.95	1.84285714286	-13.22
975	0.4875	-5.05319148936	0.5	-2.51785714286	-1.54
976	0.488	-2.18510638298	4.85	0.389285714286	-1.54
977	0.4885	-5.05319148936	4.85	0.389285714286	-3.0
978	0.489	-2.18510638298	-2.4	0.389285714286	-3.0
979	0.4895	2.1170212766	1.95	1.84285714286	-4.46
980	0.49	-7.92127659574	0.5	3.29642857143	-0.08
981	0.4905	-0.751063829787	3.4	3.29642857143	15.98
982	0.491	-2.18510638298	3.4	3.29642857143	-3.0
983	0.4915	-3.61914893617	-0.95	3.29642857143	-3.0
984	0.492	-3.61914893617	-6.75	-1.06428571429	-3.0
985	0.4925	10.7212765957	1.95	1.84285714286	-0.08
986	0.493	-12.2234042553	0.5	0.389285714286	-1.54
987	0.4935	-3.61914893617	1.95	-1.06428571429	-1.54
988	0.494	-3.61914893617	0.5	12.0178571429	-3.0
989	0.4945	-5.05319148936	6.3	1.84285714286	-1.54
990	0.495	-5.05319148936	9.2	0.389285714286	-5.92
991	0.4955	7.85319148936	0.5	1.84285714286	-1.54
992	0.496	0.682978723404	0.5	1.84285714286	-1.54
993	0.4965	-3.61914893617	1.95	9.11071428571	-4.46
994	0.497	-0.751063829787	4.85	-2.51785714286	-1.54
995	0.4975	2.1170212766	16.45	1.84285714286	-1.54
996	0.498	-2.18510638298	-2.4	0.389285714286	-0.08
997	0.4985	-12.2234042553	0.5	-1.06428571429	1.38
998	0.499	-3.61914893617	3.4	0.389285714286	2.84
999	0.4995	-2.18510638298	0.5	3.29642857143	-4.46
1000	0.5	-3.61914893617	-0.95	-3.97142857143	-1.54
1001	0.5005	-3.61914893617	4.85	-5.425	-0.08
1002	0.501	-5.05319148936	0.5	1.84285714286	-1.54
1003	0.5015	-12.2234042553	0.5	1.84285714286	1.38
1004	0.502	-7.92127659574	1.95	-1.06428571429	7.22
1005	0.5025	-2.18510638298	4.85	-2.51785714286	7.22
1006	0.503	-0.751063829787	6.3	0.389285714286	-3.0
1007	0.5035	0.682978723404	16.45	-1.06428571429	-1.54
1008	0.504	-5.05319148936	0.5	-1.06428571429	-1.54
1009	0.5045	-13.6574468085	3.4	-1.06428571429	-0.08
1010	0.505	-3.61914893617	1.95	0.389285714286	4.3
1011	0.5055	-2.18510638298	0.5	1.84285714286	-8.84
1012	0.506	-5.05319148936	-0.95	9.11071428571	-0.08
1013	0.5065	-5.05319148936	-8.2	-1.06428571429	-1.54
1014	0.507	-5.05319148936	17.9	0.389285714286	-3.0
1015	0.5075	-17.9595744681	-2.4	1.84285714286	-0.08
1016	0.508	-5.05319148936	3.4	0.389285714286	-1.54
1017	0.5085	-3.61914893617	0.5	4.75	-7.38
1018	0.509	-3.61914893617	-0.95	4.75	-3.0
1019	0.5095	-3.61914893617	0.5	-3.97142857143	-4.46
1020	0.51	-3.61914893617	-0.95	0.389285714286	-3.0
1021	0.5105	-5.05319148936	4.85	0.389285714286	-3.0
1022	0.511	-7.92127659574	-0.95	1.84285714286	-7.38
1023	0.5115	-6.48723404255	0.5	-1.06428571429	1.38
1024	0.512	-5.05319148936	4.85	0.389285714286	-3.0
1025	0.5125	-5.05319148936	15.0	1.84285714286	-3.0
1026	0.513	-7.92127659574	-2.4	0.389285714286	-1.54
1027	0.5135	-0.751063829787	1.95	0.389285714286	-4.46
1028	0.514	-5.05319148936	0.5	-1.06428571429	-8.84
1029	0.5145	-5.05319148936	1.95	-9.78571428571	-5.92
1030	0.515	-2.18510638298	-2.4	0.389285714286	-4.46
1031	0.5155	-3.61914893617	-8.2	0.389285714286	-3.0
1032	0.516	-0.751063829787	-0.95	-2.51785714286	-4.46
1033	0.5165	12.1553191489	0.5	0.389285714286	-3.0
1034	0.517	-5.05319148936	3.4	-1.06428571429	4.3
1035	0.5175	-2.18510638298	1.95	-6.87857142857	-7.38
1036	0.518	-3.61914893617	4.85	0.389285714286	-1.54
1037	0.5185	-0.751063829787	13.55	-1.06428571429	-1.54
1038	0.519	-2.18510638298	-3.85	0.389285714286	-0.08
1039	0.5195	-13.6574468085	0.5	1.84285714286	-1.54
1040	0.52	0.682978723404	-3.85	1.84285714286	-0.08
1041	0.5205	-0.751063829787	0.5	7.65714285714	-1.54
1042	0.521	-2.18510638298	0.5	6.20357142857	-3.0
1043	0.5215	-0.751063829787	-9.65	-1.06428571429	-1.54
1044	0.522	2.1170212766	-0.95	1.84285714286	-3.0
1045	0.5225	10.7212765957	0.5	-2.51785714286	-1.54
1046	0.523	-0.751063829787	0.5	-3.97142857143	1.38
1047	0.5235	0.682978723404	3.4	9.11071428571	-7.38
1048	0.524	-0.751063829787	1.95	-2.51785714286	-4.46
1049	0.5245	0.682978723404	10.65	1.84285714286	-1.54
1050	0.525	-0.751063829787	-0.95	-1.06428571429	-4.46
1051	0.5255	-5.05319148936	-0.95	1.84285714286	-13.22
1052	0.526	-3.61914893617	0.5	0.389285714286	-4.46
1053	0.5265	0.682978723404	1.95	4.75	-3.0
1054	0.527	-2.18510638298	-0.95	-1.06428571429	-4.46
1055	0.5275	0.682978723404	-0.95	0.389285714286	-3.0
1056	0.528	0.682978723404	1.95	3.29642857143	-3.0
1057	0.5285	12.1553191489	0.5	0.389285714286	-4.46
1058	0.529	-3.61914893617	0.5	1.84285714286	1.38
1059	0.5295	-2.18510638298	-0.95	16.3785714286	-3.0
1060	0.53	-3.61914893617	-0.95	16.3785714286	-4.46
1061	0.5305	-0.751063829787	-6.75	1.84285714286	-4.46
1062	0.531	0.682978723404	4.85	-1.06428571429	-5.92
1063	0.5315	17.8914893617	1.95	-1.06428571429	-16.14
1064	0.532	-3.61914893617	0.5	0.389285714286	-16.14
1065	0.5325	-3.61914893617	-0.95	-9.78571428571	-4.46
1066	0.533	-3.61914893617	4.85	0.389285714286	-4.46
1067	0.5335	-3.61914893617	16.45	-1.06428571429	-5.92
1068	0.534	-7.92127659574	1.95	0.389285714286	-1.54
1069	0.5345	-9.35531914894	0.5	-1.06428571429	-3.0
1070	0.535	-2.18510638298	0.5	3.29642857143	-1.54
1071	0.5355	-2.18510638298	0.5	17.8321428571	-3.0
1072	0.536	-5.05319148936	1.95	1.84285714286	-3.0
1073	0.5365	-5.05319148936	16.45	-1.06428571429	-4.46
1074	0.537	-6.48723404255	0.5	-1.06428571429	-3.0
1075	0.5375	-7.92127659574	3.4	1.84285714286	-7.38
1076	0.538	-5.05319148936	0.5	-5.425	-8.84
1077	0.5385	-5.05319148936	0.5	-6.87857142857	-11.76
1078	0.539	-5.05319148936	3.4	-3.97142857143	-1.54
1079	0.5395	-6.48723404255	0.5	0.389285714286	-4.46
1080	0.54	-2.18510638298	1.95	-1.06428571429	-4.46
1081	0.5405	12.1553191489	0.5	0.389285714286	-13.22
1082	0.541	-6.48723404255	1.95	1.84285714286	-3.0
1083	0.5415	-3.61914893617	0.5	1.84285714286	4.3
1084	0.542	-0.751063829787	1.95	4.75	-4.46
1085	0.5425	-3.61914893617	1.95	0.389285714286	-1.54
1086	0.543	-3.61914893617	-5.3	-2.51785714286	-4.46
1087	0.5435	3.55106382979	-0.95	3.29642857143	-4.46
1088	0.544	-3.61914893617	0.5	3.29642857143	-5.92
1089	0.5445	-3.61914893617	-0.95	1.84285714286	7.22
1090	0.545	-5.05319148936	-8.2	-2.51785714286	-3.0
1091	0.5455	-2.18510638298	4.85	-1.06428571429	-3.0
1092	0.546	-2.18510638298	-2.4	0.389285714286	-3.0
1093	0.5465	-5.05319148936	0.5	1.84285714286	-3.0
1094	0.547	-5.05319148936	0.5	0.389285714286	7.22
1095	0.5475	-5.05319148936	-0.95	17.8321428571	-4.46
1096	0.548	-3.61914893617	-2.4	0.389285714286	-3.0
1097	0.5485	-3.61914893617	-6.75	1.84285714286	-3.0
1098	0.549	-0.751063829787	-0.95	-1.06428571429	-5.92
1099	0.5495	16.4574468085	-0.95	0.389285714286	-13.22
1100	0.55	-2.18510638298	-0.95	0.389285714286	-11.76
1101	0.5505	-5.05319148936	1.95	-8.33214285714	-4.46
1102	0.551	-6.48723404255	1.95	1.84285714286	-4.46
1103	0.5515	-6.48723404255	16.45	0.389285714286	-5.92
1104	0.552	-6.48723404255	-0.95	0.389285714286	-1.54
1105	0.5525	-12.2234042553	-0.95	3.29642857143	1.38
1106	0.553	-5.05319148936	0.5	6.20357142857	-3.0
1107	0.5535	-3.61914893617	1.95	19.2857142857	-4.46
1108	0.554	-2.18510638298	6.3	-1.06428571429	-4.46
1109	0.5545	-3.61914893617	17.9	-2.51785714286	-4.46
1110	0.555	-15.0914893617	0.5	0.389285714286	-3.0
1111	0.5555	-9.35531914894	-0.95	0.389285714286	-13.22
1112	0.556	-5.05319148936	0.5	3.29642857143	-1.54
1113	0.5565	-2.18510638298	-0.95	3.29642857143	-0.08
1114	0.557	-3.61914893617	-11.1	3.29642857143	-5.92
1115	0.5575	-3.61914893617	4.85	0.389285714286	-5.92
1116	0.558	-2.18510638298	0.5	-1.06428571429	-3.0
1117	0.5585	4.98510638298	0.5	1.84285714286	-3.0
1118	0.559	-5.05319148936	0.5	-5.425	-7.38
1119	0.5595	-5.05319148936	-0.95	1.84285714286	-4.46
1120	0.56	-6.48723404255	3.4	1.84285714286	-1.54
1121	0.5605	-5.05319148936	3.4	0.389285714286	-3.0
1122	0.561	-13.6574468085	0.5	1.84285714286	-5.92
1123	0.5615	-5.05319148936	-0.95	4.75	-3.0
1124	0.562	-5.05319148936	1.95	1.84285714286	-0.08
1125	0.5625	-3.61914893617	-0.95	4.75	-5.92
1126	0.563	-6.48723404255	-8.2	0.389285714286	-5.92
1127	0.5635	-6.48723404255	3.4	1.84285714286	-4.46
1128	0.564	0.682978723404	0.5	1.84285714286	-7.38
1129	0.5645	12.1553191489	0.5	-1.06428571429	-14.68
1130	0.565	-5.05319148936	-0.95	3.29642857143	-11.76
1131	0.5655	-5.05319148936	-3.85	-8.33214285714	-4.46
1132	0.566	-5.05319148936	-6.75	-1.06428571429	-1.54
1133	0.5665	-6.48723404255	17.9	1.84285714286	-1.54
1134	0.567	-5.05319148936	0.5	-1.06428571429	-1.54
1135	0.5675	-13.6574468085	3.4	4.75	-7.38
1136	0.568	-7.92127659574	0.5	3.29642857143	-0.08
1137	0.5685	-6.48723404255	-2.4	-5.425	-8.84
1138	0.569	-3.61914893617	10.65	0.389285714286	-1.54
1139	0.5695	-6.48723404255	-5.3	1.84285714286	-3.0
1140	0.57	-0.751063829787	-0.95	-2.51785714286	-4.46
1141	0.5705	-6.48723404255	-0.95	-1.06428571429	-10.3
1142	0.571	-5.05319148936	0.5	-6.87857142857	-1.54
1143	0.5715	-2.18510638298	0.5	3.29642857143	-3.0
1144	0.572	-3.61914893617	-8.2	3.29642857143	-3.0
1145	0.5725	0.682978723404	-2.4	-1.06428571429	-3.0
1146	0.573	10.7212765957	1.95	-1.06428571429	-1.54
1147	0.5735	-12.2234042553	1.95	-1.06428571429	-0.08
1148	0.574	-6.48723404255	1.95	17.8321428571	-5.92
1149	0.5745	-5.05319148936	4.85	0.389285714286	-3.0
1150	0.575	-5.05319148936	-12.55	0.389285714286	-4.46
1151	0.5755	-3.61914893617	-9.65	1.84285714286	-4.46
1152	0.576	16.4574468085	-0.95	0.389285714286	-5.92
1153	0.5765	-5.05319148936	0.5	1.84285714286	-10.3
1154	0.577	-5.05319148936	-0.95	-8.33214285714	-5.92
1155	0.5775	-0.751063829787	3.4	1.84285714286	-3.0
1156	0.578	-3.61914893617	0.5	3.29642857143	-1.54
1157	0.5785	-0.751063829787	-6.75	-1.06428571429	-3.0
1158	0.579	-7.92127659574	0.5	1.84285714286	-3.0
1159	0.5795	-2.18510638298	0.5	1.84285714286	-5.92
1160	0.58	-2.18510638298	0.5	-1.06428571429	-3.0
1161	0.5805	-2.18510638298	0.5	-8.33214285714	-4.46
1162	0.581	-0.751063829787	0.5	-1.06428571429	-1.54
1163	0.5815	-5.05319148936	0.5	1.84285714286	-3.0
1164	0.582	-5.05319148936	0.5	1.84285714286	-4.46
1165	0.5825	-12.2234042553	-0.95	1.84285714286	-1.54
1166	0.583	-0.751063829787	0.5	3.29642857143	-10.3
1167	0.5835	0.682978723404	-0.95	0.389285714286	-4.46
1168	0.584	0.682978723404	-9.65	0.389285714286	-5.92
1169	0.5845	0.682978723404	-12.55	1.84285714286	-5.92
1170	0.585	19.3255319149	-0.95	0.389285714286	-17.6
1171	0.5855	-2.18510638298	-2.4	-1.06428571429	-14.68
1172	0.586	-3.61914893617	-2.4	0.389285714286	15.98
1173	0.5865	-5.05319148936	0.5	3.29642857143	-3.0
1174	0.587	-2.18510638298	12.1	0.389285714286	-3.0
1175	0.5875	-0.751063829787	-3.85	0.389285714286	-5.92
1176	0.588	3.55106382979	-0.95	-1.06428571429	-7.38
1177	0.5885	-9.35531914894	-0.95	-1.06428571429	-0.08
1178	0.589	-2.18510638298	3.4	-2.51785714286	-4.46
1179	0.5895	-2.18510638298	1.95	-1.06428571429	-4.46
1180	0.59	-5.05319148936	16.45	1.84285714286	-1.54
1181	0.5905	-12.2234042553	0.5	-1.06428571429	-8.84
1182	0.591	19.3255319149	0.5	0.389285714286	-16.14
1183	0.5915	-3.61914893617	-2.4	4.75	-11.76
1184	0.592	0.682978723404	-0.95	6.20357142857	-10.3
1185	0.5925	-3.61914893617	1.95	-6.87857142857	-0.08
1186	0.593	-0.751063829787	19.35	0.389285714286	-1.54
1187	0.5935	-3.61914893617	0.5	1.84285714286	-4.46
1188	0.594	-6.48723404255	0.5	-1.06428571429	-4.46
1189	0.5945	-3.61914893617	0.5	-3.97142857143	-5.92
1190	0.595	-0.751063829787	-2.4	-2.51785714286	-11.76
1191	0.5955	0.682978723404	-0.95	0.389285714286	-3.0
1192	0.596	-3.61914893617	12.1	-1.06428571429	-3.0
1193	0.5965	-12.2234042553	-0.95	-1.06428571429	-4.46
1194	0.597	15.0234042553	-2.4	-1.06428571429	-5.92
1195	0.5975	-2.18510638298	0.5	-2.51785714286	-13.22
1196	0.598	-5.05319148936	0.5	-8.33214285714	-4.46
1197	0.5985	-2.18510638298	0.5	-6.87857142857	-4.46
1198	0.599	-3.61914893617	6.3	-1.06428571429	-4.46
1199	0.5995	0.682978723404	-0.95	-1.06428571429	-5.92
1200	0.6	-10.7893617021	-2.4	-1.06428571429	14.52
1201	0.6005	-0.751063829787	-2.4	-8.33214285714	-1.54
1202	0.601	-0.751063829787	0.5	17.8321428571	-1.54
1203	0.6015	-2.18510638298	-0.95	16.3785714286	-4.46
1204	0.602	-2.18510638298	-8.2	-2.51785714286	-3.0
1205	0.6025	-9.35531914894	0.5	0.389285714286	-1.54
1206	0.603	0.682978723404	0.5	-1.06428571429	-7.38
1207	0.6035	-3.61914893617	-0.95	-3.97142857143	-7.38
1208	0.604	-0.751063829787	1.95	1.84285714286	-4.46
1209	0.6045	-3.61914893617	17.9	0.389285714286	-1.54
1210	0.605	-2.18510638298	-2.4	1.84285714286	-4.46
1211	0.6055	3.55106382979	-2.4	1.84285714286	-3.0
1212	0.606	-5.05319148936	-0.95	-3.97142857143	-7.38
1213	0.6065	-3.61914893617	0.5	-12.6928571429	-3.0
1214	0.607	-2.18510638298	-2.4	-8.33214285714	-1.54
1215	0.6075	-3.61914893617	-11.1	-1.06428571429	-3.0
1216	0.608	-2.18510638298	-8.2	0.389285714286	-4.46
1217	0.6085	0.682978723404	0.5	-1.06428571429	-4.46
1218	0.609	-0.751063829787	0.5	0.389285714286	-1.54
1219	0.6095	0.682978723404	-0.95	-2.51785714286	8.68
1220	0.61	0.682978723404	0.5	-1.06428571429	-3.0
1221	0.6105	-2.18510638298	-0.95	1.84285714286	-4.46
1222	0.611	-2.18510638298	-2.4	1.84285714286	-3.0
1223	0.6115	-2.18510638298	0.5	0.389285714286	-1.54
1224	0.612	-0.751063829787	0.5	0.389285714286	-1.54
1225	0.6125	-2.18510638298	1.95	3.29642857143	14.52
1226	0.613	-3.61914893617	1.95	19.2857142857	-4.46
1227	0.6135	-0.751063829787	-9.65	0.389285714286	-3.0
1228	0.614	-0.751063829787	-6.75	-1.06428571429	-4.46
1229	0.6145	-0.751063829787	1.95	1.84285714286	-4.46
1230	0.615	-0.751063829787	0.5	3.29642857143	-5.92
1231	0.6155	-3.61914893617	0.5	-1.06428571429	8.68
1232	0.616	-3.61914893617	-0.95	9.11071428571	-5.92
1233	0.6165	-0.751063829787	3.4	0.389285714286	-3.0
1234	0.617	-0.751063829787	-0.95	3.29642857143	-3.0
1235	0.6175	-3.61914893617	1.95	0.389285714286	-3.0
1236	0.618	15.0234042553	-0.95	-1.06428571429	-13.22
1237	0.6185	-0.751063829787	0.5	-8.33214285714	-13.22
1238	0.619	-0.751063829787	0.5	-6.87857142857	-4.46
1239	0.6195	0.682978723404	0.5	-6.87857142857	-5.92
1240	0.62	0.682978723404	0.5	-1.06428571429	-1.54
1241	0.6205	-2.18510638298	0.5	0.389285714286	-1.54
1242	0.621	-5.05319148936	0.5	1.84285714286	-3.0
1243	0.6215	-2.18510638298	3.4	12.0178571429	-4.46
1244	0.622	-2.18510638298	1.95	-1.06428571429	-3.0
1245	0.6225	-0.751063829787	-11.1	-2.51785714286	-1.54
1246	0.623	-0.751063829787	-11.1	1.84285714286	-4.46
1247	0.6235	20.7595744681	0.5	-1.06428571429	-13.22
1248	0.624	-2.18510638298	-0.95	-1.06428571429	-13.22
1249	0.6245	-2.18510638298	-0.95	-6.87857142857	-3.0
1250	0.625	-5.05319148936	-0.95	-8.33214285714	-3.0
1251	0.6255	-3.61914893617	15.0	0.389285714286	-0.08
1252	0.626	-3.61914893617	0.5	0.389285714286	-3.0
1253	0.6265	0.682978723404	0.5	0.389285714286	-4.46
1254	0.627	-2.18510638298	0.5	0.389285714286	-5.92
1255	0.6275	-0.751063829787	1.95	3.29642857143	-5.92
1256	0.628	-0.751063829787	0.5	1.84285714286	-4.46
1257	0.6285	-0.751063829787	9.2	0.389285714286	-3.0
1258	0.629	-7.92127659574	-0.95	0.389285714286	-4.46
1259	0.6295	2.1170212766	0.5	1.84285714286	-3.0
1260	0.63	-6.48723404255	0.5	-2.51785714286	-4.46
1261	0.6305	-2.18510638298	1.95	3.29642857143	-4.46
1262	0.631	-0.751063829787	0.5	6.20357142857	-3.0
1263	0.6315	-2.18510638298	6.3	3.29642857143	-0.08
1264	0.632	-10.7893617021	-0.95	-1.06428571429	-4.46
1265	0.6325	7.85319148936	0.5	0.389285714286	-13.22
1266	0.633	-6.48723404255	-0.95	4.75	-1.54
1267	0.6335	-2.18510638298	0.5	13.4714285714	-3.0
1268	0.634	0.682978723404	-11.1	1.84285714286	-1.54
1269	0.6345	-2.18510638298	-3.85	0.389285714286	-4.46
1270	0.635	2.1170212766	0.5	-1.06428571429	-5.92
1271	0.6355	16.4574468085	0.5	-1.06428571429	-4.46
1272	0.636	-2.18510638298	0.5	-11.2392857143	-4.46
1273	0.6365	2.1170212766	0.5	-12.6928571429	-5.92
1274	0.637	0.682978723404	1.95	-1.06428571429	-4.46
1275	0.6375	-3.61914893617	-9.65	0.389285714286	-3.0
1276	0.638	0.682978723404	-6.75	-1.06428571429	-4.46
1277	0.6385	13.5893617021	-2.4	1.84285714286	-8.84
1278	0.639	-5.05319148936	-0.95	-1.06428571429	-4.46
1279	0.6395	-3.61914893617	0.5	-3.97142857143	-4.46
1280	0.64	-5.05319148936	-6.75	-1.06428571429	-1.54
1281	0.6405	-3.61914893617	-2.4	-1.06428571429	-3.0
1282	0.641	-0.751063829787	4.85	0.389285714286	-1.54
1283	0.6415	-7.92127659574	0.5	-3.97142857143	-0.08
1284	0.642	-5.05319148936	0.5	-5.425	-0.08
1285	0.6425	-2.18510638298	3.4	-3.97142857143	-3.0
1286	0.643	-5.05319148936	1.95	0.389285714286	-3.0
1287	0.6435	-6.48723404255	-0.95	-1.06428571429	-5.92
1288	0.644	-19.3936170213	-0.95	-1.06428571429	-1.54
1289	0.6445	-10.7893617021	0.5	1.84285714286	8.68
1290	0.645	-5.05319148936	-0.95	4.75	-11.76
1291	0.6455	-3.61914893617	-3.85	-5.425	-3.0
1292	0.646	-2.18510638298	-11.1	0.389285714286	-4.46
1293	0.6465	-0.751063829787	-0.95	0.389285714286	-3.0
1294	0.647	16.4574468085	-2.4	3.29642857143	-0.08
1295	0.6475	-10.7893617021	0.5	1.84285714286	-1.54
1296	0.648	-5.05319148936	0.5	17.8321428571	-3.0
1297	0.6485	-3.61914893617	0.5	0.389285714286	-4.46
1298	0.649	-3.61914893617	16.45	0.389285714286	-1.54
1299	0.6495	-3.61914893617	-9.65	0.389285714286	-3.0
1300	0.65	16.4574468085	-0.95	-1.06428571429	-5.92
1301	0.6505	-6.48723404255	-0.95	3.29642857143	-3.0
1302	0.651	-3.61914893617	0.5	3.29642857143	-1.54
1303	0.6515	-0.751063829787	0.5	0.389285714286	-4.46
1304	0.652	-3.61914893617	15.0	-1.06428571429	-4.46
1305	0.6525	-5.05319148936	16.45	0.389285714286	-4.46
1306	0.653	-16.5255319149	1.95	0.389285714286	-3.0
1307	0.6535	-5.05319148936	0.5	4.75	-8.84
1308	0.654	-6.48723404255	1.95	3.29642857143	-10.3
1309	0.6545	-5.05319148936	1.95	-9.78571428571	-0.08
1310	0.655	-5.05319148936	16.45	0.389285714286	-4.46
1311	0.6555	-5.05319148936	0.5	-1.06428571429	-1.54
1312	0.656	-3.61914893617	0.5	4.75	-8.84
1313	0.6565	-9.35531914894	1.95	3.29642857143	-3.0
1314	0.657	-5.05319148936	-0.95	-5.425	-4.46
1315	0.6575	-3.61914893617	-11.1	1.84285714286	-4.46
1316	0.658	-3.61914893617	-6.75	1.84285714286	-3.0
1317	0.6585	-3.61914893617	0.5	0.389285714286	-5.92
1318	0.659	12.1553191489	-0.95	0.389285714286	-10.3
1319	0.6595	-5.05319148936	-2.4	3.29642857143	-10.3
1320	0.66	-5.05319148936	-0.95	4.75	-3.0
1321	0.6605	-3.61914893617	-5.3	3.29642857143	-3.0
1322	0.661	-6.48723404255	4.85	0.389285714286	-4.46
1323	0.6615	-3.61914893617	-0.95	0.389285714286	-3.0
1324	0.662	-7.92127659574	-0.95	-1.06428571429	-8.84
1325	0.6625	-2.18510638298	0.5	-5.425	-1.54
1326	0.663	-5.05319148936	-2.4	4.75	-3.0
1327	0.6635	-3.61914893617	-9.65	0.389285714286	-3.0
1328	0.664	-0.751063829787	-3.85	0.389285714286	-4.46
1329	0.6645	15.0234042553	1.95	1.84285714286	-3.0
1330	0.665	-10.7893617021	1.95	0.389285714286	-0.08
1331	0.6655	-5.05319148936	-2.4	6.20357142857	-5.92
1332	0.666	-3.61914893617	-3.85	19.2857142857	-5.92
1333	0.6665	-0.751063829787	-9.65	0.389285714286	-3.0
1334	0.667	0.682978723404	17.9	0.389285714286	-4.46
1335	0.6675	-13.6574468085	1.95	1.84285714286	-3.0
1336	0.668	-13.6574468085	0.5	1.84285714286	-1.54
1337	0.6685	-5.05319148936	0.5	3.29642857143	-4.46
1338	0.669	-5.05319148936	-0.95	19.2857142857	-4.46
1339	0.6695	-2.18510638298	-11.1	-1.06428571429	-3.0
1340	0.67	-0.751063829787	-8.2	1.84285714286	-3.0
1341	0.6705	15.0234042553	0.5	-1.06428571429	-1.54
1342	0.671	-12.2234042553	0.5	0.389285714286	-3.0
1343	0.6715	-2.18510638298	3.4	1.84285714286	-3.0
1344	0.672	-3.61914893617	0.5	20.7392857143	-1.54
1345	0.6725	-5.05319148936	-5.3	0.389285714286	-3.0
1346	0.673	-2.18510638298	-8.2	0.389285714286	-3.0
1347	0.6735	10.7212765957	1.95	-1.06428571429	-1.54
1348	0.674	-10.7893617021	3.4	0.389285714286	-4.46
1349	0.6745	-5.05319148936	-0.95	-1.06428571429	-3.0
1350	0.675	-3.61914893617	0.5	0.389285714286	-1.54
1351	0.6755	-3.61914893617	4.85	0.389285714286	-1.54
1352	0.676	-6.48723404255	-0.95	0.389285714286	-1.54
1353	0.6765	-16.5255319149	1.95	-1.06428571429	-0.08
1354	0.677	-2.18510638298	3.4	0.389285714286	11.6
1355	0.6775	-5.05319148936	-0.95	14.925	-1.54
1356	0.678	-0.751063829787	0.5	13.4714285714	-3.0
1357	0.6785	-2.18510638298	-6.75	0.389285714286	-3.0
1358	0.679	-0.751063829787	1.95	-1.06428571429	-4.46
1359	0.6795	16.4574468085	3.4	0.389285714286	-5.92
1360	0.68	-5.05319148936	0.5	0.389285714286	-14.68
1361	0.6805	-5.05319148936	3.4	-8.33214285714	-3.0
1362	0.681	-5.05319148936	1.95	-6.87857142857	-4.46
1363	0.6815	-5.05319148936	20.8	1.84285714286	-3.0
1364	0.682	-3.61914893617	-6.75	0.389285714286	-4.46
1365	0.6825	7.85319148936	1.95	0.389285714286	-7.38
1366	0.683	-5.05319148936	0.5	0.389285714286	-7.38
1367	0.6835	-5.05319148936	1.95	3.29642857143	-7.38
1368	0.684	-3.61914893617	-0.95	-2.51785714286	-4.46
1369	0.6845	0.682978723404	1.95	-1.06428571429	-4.46
1370	0.685	2.1170212766	3.4	-1.06428571429	-4.46
1371	0.6855	13.5893617021	0.5	-1.06428571429	-5.92
1372	0.686	-0.751063829787	1.95	-1.06428571429	5.76
1373	0.6865	-3.61914893617	1.95	16.3785714286	-5.92
1374	0.687	-0.751063829787	-11.1	0.389285714286	-3.0
1375	0.6875	0.682978723404	-6.75	0.389285714286	-4.46
1376	0.688	-0.751063829787	1.95	-1.06428571429	-7.38
1377	0.6885	17.8914893617	0.5	0.389285714286	-4.46
1378	0.689	-0.751063829787	-0.95	0.389285714286	-13.22
1379	0.6895	-3.61914893617	-0.95	-8.33214285714	-3.0
1380	0.69	-2.18510638298	1.95	1.84285714286	-4.46
1381	0.6905	-2.18510638298	15.0	-1.06428571429	-1.54
1382	0.691	-6.48723404255	-0.95	0.389285714286	-3.0
1383	0.6915	-10.7893617021	3.4	1.84285714286	-4.46
1384	0.692	-2.18510638298	-0.95	-1.06428571429	-8.84
1385	0.6925	-3.61914893617	0.5	-5.425	-1.54
1386	0.693	-5.05319148936	1.95	-1.06428571429	-3.0
1387	0.6935	-3.61914893617	-6.75	-2.51785714286	-3.0
1388	0.694	-3.61914893617	1.95	-1.06428571429	-4.46
1389	0.6945	12.1553191489	0.5	-1.06428571429	-1.54
1390	0.695	-3.61914893617	0.5	-1.06428571429	-1.54
1391	0.6955	-0.751063829787	0.5	13.4714285714	-4.46
1392	0.696	-0.751063829787	0.5	0.389285714286	-4.46
1393	0.6965	-2.18510638298	13.55	-2.51785714286	-0.08
1394	0.697	-5.05319148936	0.5	3.29642857143	-3.0
1395	0.6975	-0.751063829787	0.5	1.84285714286	1.38
1396	0.698	-5.05319148936	0.5	0.389285714286	5.76
1397	0.6985	-3.61914893617	0.5	17.8321428571	-5.92
1398	0.699	-3.61914893617	-9.65	0.389285714286	-5.92
1399	0.6995	-3.61914893617	-6.75	1.84285714286	-1.54
1400	0.7	-0.751063829787	3.4	-1.06428571429	-4.46
1401	0.7005	-6.48723404255	-0.95	-2.51785714286	13.06
1402	0.701	-7.92127659574	3.4	-8.33214285714	-0.08
1403	0.7015	-6.48723404255	3.4	-5.425	-1.54
1404	0.702	-5.05319148936	20.8	-1.06428571429	-3.0
1405	0.7025	-6.48723404255	-0.95	3.29642857143	-1.54
1406	0.703	-12.2234042553	3.4	0.389285714286	-1.54
1407	0.7035	-12.2234042553	1.95	0.389285714286	-8.84
1408	0.704	-3.61914893617	1.95	0.389285714286	-3.0
1409	0.7045	-5.05319148936	3.4	-1.06428571429	-1.54
1410	0.705	-3.61914893617	16.45	0.389285714286	-3.0
1411	0.7055	-5.05319148936	16.45	1.84285714286	-4.46
1412	0.706	-12.2234042553	0.5	4.75	15.98
1413	0.7065	-6.48723404255	-2.4	0.389285714286	-3.0
1414	0.707	-5.05319148936	1.95	12.0178571429	-5.92
1415	0.7075	-5.05319148936	-2.4	-1.06428571429	-1.54
1416	0.708	-0.751063829787	10.65	-1.06428571429	-4.46
1417	0.7085	-0.751063829787	0.5	1.84285714286	-4.46
1418	0.709	-3.61914893617	0.5	-1.06428571429	-1.54
1419	0.7095	-2.18510638298	0.5	1.84285714286	5.76
1420	0.71	-0.751063829787	0.5	1.84285714286	-4.46
1421	0.7105	-2.18510638298	-9.65	1.84285714286	-5.92
1422	0.711	-2.18510638298	-11.1	-1.06428571429	-3.0
1423	0.7115	2.1170212766	0.5	-1.06428571429	-4.46
1424	0.712	-3.61914893617	1.95	-1.06428571429	15.98
1425	0.7125	-3.61914893617	0.5	-3.97142857143	13.06
1426	0.713	-3.61914893617	-0.95	20.7392857143	-4.46
1427	0.7135	-2.18510638298	0.5	-1.06428571429	-4.46
1428	0.714	-3.61914893617	-8.2	1.84285714286	-4.46
1429	0.7145	-3.61914893617	0.5	1.84285714286	-1.54
1430	0.715	9.28723404255	-0.95	-1.06428571429	-3.0
1431	0.7155	-0.751063829787	1.95	-2.51785714286	-3.0
1432	0.716	-0.751063829787	-0.95	7.65714285714	-4.46
1433	0.7165	-0.751063829787	3.4	6.20357142857	-3.0
1434	0.717	-5.05319148936	-0.95	0.389285714286	-3.0
1435	0.7175	-13.6574468085	1.95	-1.06428571429	-1.54
1436	0.718	-7.92127659574	0.5	1.84285714286	-4.46
1437	0.7185	-2.18510638298	3.4	-8.33214285714	-4.46
1438	0.719	-3.61914893617	-2.4	-8.33214285714	-5.92
1439	0.7195	0.682978723404	-0.95	-8.33214285714	-4.46
1440	0.72	-2.18510638298	0.5	-2.51785714286	-3.0
1441	0.7205	6.41914893617	0.5	0.389285714286	-3.0
1442	0.721	-3.61914893617	0.5	-1.06428571429	-11.76
1443	0.7215	0.682978723404	3.4	-2.51785714286	7.22
1444	0.722	0.682978723404	4.85	0.389285714286	-4.46
1445	0.7225	0.682978723404	20.8	-1.06428571429	-3.0
1446	0.723	-2.18510638298	-11.1	3.29642857143	-4.46
1447	0.7235	16.4574468085	0.5	1.84285714286	-7.38
1448	0.724	0.682978723404	1.95	0.389285714286	-8.84
1449	0.7245	-2.18510638298	0.5	-3.97142857143	-10.3
1450	0.725	-0.751063829787	0.5	-8.33214285714	-3.0
1451	0.7255	-0.751063829787	6.3	1.84285714286	-1.54
1452	0.726	0.682978723404	-0.95	1.84285714286	-3.0
1453	0.7265	0.682978723404	0.5	1.84285714286	-8.84
1454	0.727	-6.48723404255	3.4	1.84285714286	4.3
1455	0.7275	-2.18510638298	0.5	4.75	-1.54
1456	0.728	2.1170212766	1.95	6.20357142857	-4.46
1457	0.7285	2.1170212766	3.4	-1.06428571429	-1.54
1458	0.729	-5.05319148936	0.5	-1.06428571429	-3.0
1459	0.7295	3.55106382979	1.95	-1.06428571429	-8.84
1460	0.73	0.682978723404	1.95	-1.06428571429	-11.76
1461	0.7305	2.1170212766	3.4	-3.97142857143	-8.84
1462	0.731	0.682978723404	0.5	-6.87857142857	-4.46
1463	0.7315	2.1170212766	9.2	1.84285714286	-4.46
1464	0.732	0.682978723404	-2.4	1.84285714286	-3.0
1465	0.7325	0.682978723404	0.5	-1.06428571429	4.3
1466	0.733	0.682978723404	0.5	-9.78571428571	-5.92
1467	0.7335	0.682978723404	3.4	-2.51785714286	-3.0
1468	0.734	0.682978723404	1.95	-2.51785714286	-1.54
1469	0.7345	-3.61914893617	0.5	3.29642857143	-1.54
1470	0.735	-12.2234042553	0.5	3.29642857143	-3.0
1471	0.7355	-7.92127659574	-2.4	0.389285714286	11.6
1472	0.736	-2.18510638298	0.5	-1.06428571429	-3.0
1473	0.7365	-2.18510638298	1.95	13.4714285714	-3.0
1474	0.737	-0.751063829787	-2.4	-3.97142857143	-1.54
1475	0.7375	-2.18510638298	-2.4	0.389285714286	-4.46
1476	0.738	-7.92127659574	0.5	0.389285714286	-4.46
1477	0.7385	4.98510638298	0.5	-1.06428571429	-1.54
1478	0.739	-3.61914893617	0.5	-9.78571428571	-7.38
1479	0.7395	-5.05319148936	3.4	0.389285714286	-4.46
1480	0.74	-3.61914893617	17.9	-1.06428571429	-4.46
1481	0.7405	-2.18510638298	-0.95	-1.06428571429	-5.92
1482	0.741	-15.0914893617	0.5	1.84285714286	-4.46
1483	0.7415	-3.61914893617	0.5	-2.51785714286	-5.92
1484	0.742	-0.751063829787	0.5	-9.78571428571	-4.46
1485	0.7425	2.1170212766	-0.95	-1.06428571429	-5.92
1486	0.743	3.55106382979	17.9	1.84285714286	-1.54
1487	0.7435	-2.18510638298	0.5	3.29642857143	-1.54
1488	0.744	-12.2234042553	1.95	4.75	-1.54
1489	0.7445	0.682978723404	0.5	-1.06428571429	-1.54
1490	0.745	-3.61914893617	0.5	13.4714285714	-4.46
1491	0.7455	-2.18510638298	0.5	0.389285714286	-1.54
1492	0.746	0.682978723404	-2.4	1.84285714286	-4.46
1493	0.7465	-0.751063829787	-5.3	0.389285714286	-3.0
1494	0.747	16.4574468085	0.5	-1.06428571429	-7.38
1495	0.7475	0.682978723404	3.4	0.389285714286	-11.76
1496	0.748	0.682978723404	3.4	-6.87857142857	-4.46
1497	0.7485	-0.751063829787	1.95	-8.33214285714	-3.0
1498	0.749	3.55106382979	17.9	0.389285714286	-1.54
1499	0.7495	-2.18510638298	0.5	-1.06428571429	-3.0
1500	0.75	-10.7893617021	3.4	1.84285714286	1.38
1501	0.7505	-0.751063829787	1.95	4.75	-1.54
1502	0.751	-2.18510638298	4.85	17.8321428571	-5.92
1503	0.7515	-2.18510638298	0.5	16.3785714286	-3.0
1504	0.752	-0.751063829787	-5.3	0.389285714286	-1.54
1505	0.7525	-5.05319148936	3.4	4.75	-3.0
1506	0.753	3.55106382979	0.5	0.389285714286	-1.54
1507	0.7535	-0.751063829787	0.5	1.84285714286	2.84
1508	0.754	-2.18510638298	-0.95	-2.51785714286	-1.54
1509	0.7545	-2.18510638298	-6.75	3.29642857143	-4.46
1510	0.755	3.55106382979	-6.75	0.389285714286	-3.0
1511	0.7555	-0.751063829787	0.5	3.29642857143	-1.54
1512	0.756	-2.18510638298	0.5	-1.06428571429	-5.92
1513	0.7565	-2.18510638298	1.95	1.84285714286	8.68
1514	0.757	-2.18510638298	1.95	-5.425	-3.0
1515	0.7575	-2.18510638298	10.65	1.84285714286	-1.54
1516	0.758	-5.05319148936	-3.85	1.84285714286	-1.54
1517	0.7585	-6.48723404255	0.5	1.84285714286	-5.92
1518	0.759	-3.61914893617	3.4	1.84285714286	-8.84
1519	0.7595	-3.61914893617	3.4	-1.06428571429	-4.46
1520	0.76	-0.751063829787	0.5	-6.87857142857	-5.92
1521	0.7605	-3.61914893617	-0.95	0.389285714286	-3.0
1522	0.761	-9.35531914894	1.95	1.84285714286	-3.0
1523	0.7615	10.7212765957	1.95	3.29642857143	-7.38
1524	0.762	-5.05319148936	3.4	1.84285714286	-10.3
1525	0.7625	-5.05319148936	0.5	9.11071428571	-1.54
1526	0.763	-3.61914893617	-11.1	1.84285714286	-4.46
1527	0.7635	-2.18510638298	0.5	0.389285714286	-0.08
1528	0.764	-2.18510638298	0.5	3.29642857143	-3.0
1529	0.7645	7.85319148936	0.5	-1.06428571429	-4.46
1530	0.765	-5.05319148936	0.5	-5.425	-8.84
1531	0.7655	-5.05319148936	1.95	-6.87857142857	-8.84
1532	0.766	-3.61914893617	4.85	-5.425	-4.46
1533	0.7665	-2.18510638298	0.5	1.84285714286	-4.46
1534	0.767	0.682978723404	0.5	0.389285714286	-1.54
1535	0.7675	12.1553191489	0.5	-1.06428571429	-13.22
1536	0.768	-2.18510638298	1.95	-1.06428571429	-5.92
1537	0.7685	-2.18510638298	1.95	-8.33214285714	-5.92
1538	0.769	-2.18510638298	3.4	0.389285714286	-3.0
1539	0.7695	-5.05319148936	16.45	0.389285714286	-4.46
1540	0.77	-15.0914893617	4.85	-1.06428571429	-3.0
1541	0.7705	-9.35531914894	3.4	3.29642857143	7.22
1542	0.771	-3.61914893617	1.95	4.75	-8.84
1543	0.7715	-6.48723404255	3.4	16.3785714286	-4.46
1544	0.772	-2.18510638298	4.85	-1.06428571429	-3.0
1545	0.7725	-5.05319148936	-5.3	0.389285714286	-1.54
1546	0.773	2.1170212766	0.5	0.389285714286	-3.0
1547	0.7735	13.5893617021	3.4	-1.06428571429	-3.0
1548	0.774	-2.18510638298	0.5	-11.2392857143	-1.54
1549	0.7745	-3.61914893617	1.95	-2.51785714286	-4.46
1550	0.775	-5.05319148936	-8.2	0.389285714286	-4.46
1551	0.7755	-3.61914893617	10.65	0.389285714286	-4.46
1552	0.776	-16.5255319149	-2.4	0.389285714286	-1.54
1553	0.7765	-3.61914893617	0.5	-1.06428571429	1.38
1554	0.777	-5.05319148936	0.5	-8.33214285714	-5.92
1555	0.7775	-3.61914893617	1.95	-6.87857142857	-7.38
1556	0.778	-3.61914893617	15.0	-1.06428571429	-3.0
1557	0.7785	-3.61914893617	-5.3	3.29642857143	-1.54
1558	0.779	-15.0914893617	-0.95	0.389285714286	-8.84
1559	0.7795	-6.48723404255	0.5	6.20357142857	-8.84
1560	0.78	-3.61914893617	0.5	1.84285714286	-7.38
1561	0.7805	-3.61914893617	-0.95	-3.97142857143	-3.0
1562	0.781	-2.18510638298	19.35	0.389285714286	-3.0
1563	0.7815	-6.48723404255	0.5	-1.06428571429	-1.54
1564	0.782	-20.8276595745	-0.95	1.84285714286	-3.0
1565	0.7825	-5.05319148936	1.95	3.29642857143	-5.92
1566	0.783	-3.61914893617	1.95	17.8321428571	-4.46
1567	0.7835	-3.61914893617	6.3	1.84285714286	-4.46
1568	0.784	-3.61914893617	-6.75	-1.06428571429	-3.0
1569	0.7845	-2.18510638298	1.95	3.29642857143	-4.46
1570	0.785	12.1553191489	-0.95	0.389285714286	-14.68
1571	0.7855	-6.48723404255	3.4	1.84285714286	-13.22
1572	0.786	-3.61914893617	1.95	-5.425	-13.22
1573	0.7865	-6.48723404255	1.95	0.389285714286	-3.0
1574	0.787	-2.18510638298	4.85	0.389285714286	-3.0
1575	0.7875	-5.05319148936	0.5	0.389285714286	-3.0
1576	0.788	-13.6574468085	0.5	3.29642857143	-16.14
1577	0.7885	-5.05319148936	0.5	0.389285714286	-14.68
1578	0.789	-2.18510638298	1.95	-11.2392857143	-13.22
1579	0.7895	-5.05319148936	0.5	-1.06428571429	-3.0
1580	0.79	-5.05319148936	4.85	0.389285714286	-3.0
1581	0.7905	-7.92127659574	-0.95	-1.06428571429	-0.08
1582	0.791	-16.5255319149	-2.4	-1.06428571429	1.38
1583	0.7915	0.682978723404	0.5	4.75	15.98
1584	0.792	-0.751063829787	0.5	3.29642857143	-11.76
1585	0.7925	-0.751063829787	-0.95	-8.33214285714	-4.46
1586	0.793	-2.18510638298	16.45	0.389285714286	-4.46
1587	0.7935	-3.61914893617	1.95	-1.06428571429	-1.54
1588	0.794	-6.48723404255	3.4	3.29642857143	-0.08
1589	0.7945	-6.48723404255	3.4	0.389285714286	7.22
1590	0.795	-5.05319148936	1.95	4.75	-4.46
1591	0.7955	-6.48723404255	6.3	-1.06428571429	-3.0
1592	0.796	-0.751063829787	6.3	0.389285714286	-1.54
1593	0.7965	-12.2234042553	1.95	1.84285714286	-0.08
1594	0.797	2.1170212766	1.95	1.84285714286	-1.54
1595	0.7975	-6.48723404255	0.5	0.389285714286	-1.54
1596	0.798	-5.05319148936	0.5	-1.06428571429	-3.0
1597	0.7985	-3.61914893617	-5.3	0.389285714286	-3.0
1598	0.799	-0.751063829787	6.3	-1.06428571429	-3.0
1599	0.7995	-10.7893617021	3.4	-1.06428571429	-3.0
1600	0.8	-6.48723404255	1.95	3.29642857143	5.76
1601	0.8005	-5.05319148936	1.95	3.29642857143	-5.92
1602	0.801	-5.05319148936	3.4	14.925	-5.92
1603	0.8015	-5.05319148936	6.3	-1.06428571429	-3.0
1604	0.802	-3.61914893617	20.8	-1.06428571429	-3.0
1605	0.8025	-16.5255319149	0.5	-1.06428571429	-3.0
1606	0.803	16.4574468085	0.5	-1.06428571429	-3.0
1607	0.8035	-5.05319148936	0.5	1.84285714286	-16.14
1608	0.804	-3.61914893617	3.4	-11.2392857143	-4.46
1609	0.8045	-3.61914893617	3.4	0.389285714286	-4.46
1610	0.805	-3.61914893617	19.35	-1.06428571429	-1.54
1611	0.8055	-13.6574468085	1.95	-1.06428571429	-3.0
1612	0.806	16.4574468085	0.5	-1.06428571429	-4.46
1613	0.8065	-3.61914893617	0.5	-1.06428571429	-13.22
1614	0.807	-3.61914893617	3.4	-8.33214285714	-4.46
1615	0.8075	-7.92127659574	-2.4	0.389285714286	-1.54
1616	0.808	-5.05319148936	13.55	-1.06428571429	-1.54
1617	0.8085	-3.61914893617	13.55	-1.06428571429	-3.0
1618	0.809	-7.92127659574	0.5	0.389285714286	-4.46
1619	0.8095	-2.18510638298	0.5	0.389285714286	-5.92
1620	0.81	-0.751063829787	1.95	-1.06428571429	-8.84
1621	0.8105	-0.751063829787	-9.65	-1.06428571429	-3.0
1622	0.811	-0.751063829787	0.5	-1.06428571429	-3.0
1623	0.8115	0.682978723404	0.5	-2.51785714286	-1.54
1624	0.812	10.7212765957	-0.95	-1.06428571429	-14.68
1625	0.8125	-5.05319148936	0.5	3.29642857143	-3.0
1626	0.813	-2.18510638298	-2.4	-1.06428571429	-5.92
1627	0.8135	-5.05319148936	3.4	0.389285714286	-3.0
1628	0.814	-2.18510638298	7.75	-1.06428571429	-4.46
1629	0.8145	-13.6574468085	-2.4	-3.97142857143	-4.46
1630	0.815	10.7212765957	-0.95	0.389285714286	-7.38
1631	0.8155	-5.05319148936	1.95	-1.06428571429	-7.38
1632	0.816	-2.18510638298	0.5	-5.425	-3.0
1633	0.8165	-3.61914893617	-8.2	-1.06428571429	-1.54
1634	0.817	2.1170212766	-2.4	-2.51785714286	-3.0
1635	0.8175	3.55106382979	0.5	-1.06428571429	-3.0
1636	0.818	17.8914893617	1.95	0.389285714286	-13.22
1637	0.8185	-3.61914893617	0.5	-3.97142857143	-13.22
1638	0.819	-2.18510638298	0.5	-6.87857142857	-3.0
1639	0.8195	-2.18510638298	-2.4	0.389285714286	-1.54
1640	0.82	0.682978723404	-0.95	-2.51785714286	-4.46
1641	0.8205	3.55106382979	0.5	0.389285714286	-8.84
1642	0.821	-6.48723404255	0.5	-2.51785714286	2.84
1643	0.8215	-2.18510638298	1.95	-8.33214285714	2.84
1644	0.822	-3.61914893617	0.5	-2.51785714286	-3.0
1645	0.8225	-5.05319148936	1.95	-1.06428571429	-1.54
1646	0.823	-3.61914893617	-0.95	0.389285714286	-4.46
1647	0.8235	-9.35531914894	1.95	0.389285714286	-3.0
1648	0.824	0.682978723404	0.5	0.389285714286	-4.46
1649	0.8245	-5.05319148936	1.95	-1.06428571429	8.68
1650	0.825	-5.05319148936	1.95	4.75	-1.54
1651	0.8255	-5.05319148936	-3.85	-1.06428571429	-3.0
1652	0.826	-2.18510638298	-2.4	-1.06428571429	-3.0
1653	0.8265	-10.7893617021	0.5	-1.06428571429	-3.0
1654	0.827	-2.18510638298	3.4	0.389285714286	-3.0
1655	0.8275	-6.48723404255	1.95	-1.06428571429	7.22
1656	0.828	-5.05319148936	1.95	7.65714285714	-3.0
1657	0.8285	-3.61914893617	-2.4	-2.51785714286	-3.0
1658	0.829	-2.18510638298	-2.4	-1.06428571429	-3.0
1659	0.8295	-9.35531914894	3.4	-1.06428571429	-3.0
1660	0.83	4.98510638298	1.95	0.389285714286	-7.38
1661	0.8305	-3.61914893617	0.5	0.389285714286	-11.76
1662	0.831	-5.05319148936	0.5	-6.87857142857	-3.0
1663	0.8315	-3.61914893617	-6.75	1.84285714286	-3.0
1664	0.832	-3.61914893617	-8.2	1.84285714286	-3.0
1665	0.8325	0.682978723404	1.95	1.84285714286	-7.38
1666	0.833	-5.05319148936	0.5	-2.51785714286	8.68
1667	0.8335	-5.05319148936	3.4	-8.33214285714	-4.46
1668	0.834	-5.05319148936	0.5	-9.78571428571	-7.38
1669	0.8345	-5.05319148936	6.3	-2.51785714286	-3.0
1670	0.835	-5.05319148936	3.4	4.75	-3.0
1671	0.8355	-3.61914893617	3.4	1.84285714286	-4.46
1672	0.836	3.55106382979	1.95	1.84285714286	-3.0
1673	0.8365	-7.92127659574	3.4	-8.33214285714	-7.38
1674	0.837	-6.48723404255	1.95	-5.425	-10.3
1675	0.8375	-7.92127659574	4.85	-1.06428571429	-4.46
1676	0.838	-6.48723404255	-0.95	-1.06428571429	-1.54
1677	0.8385	-13.6574468085	1.95	-1.06428571429	-3.0
1678	0.839	-6.48723404255	-0.95	0.389285714286	-8.84
1679	0.8395	-3.61914893617	1.95	-9.78571428571	-3.0
1680	0.84	-0.751063829787	4.85	-12.6928571429	-1.54
1681	0.8405	-3.61914893617	6.3	1.84285714286	-3.0
1682	0.841	-7.92127659574	1.95	-2.51785714286	-4.46
1683	0.8415	-16.5255319149	1.95	0.389285714286	-1.54
1684	0.842	-13.6574468085	0.5	1.84285714286	-13.22
1685	0.8425	-5.05319148936	0.5	-5.425	-13.22
1686	0.843	-5.05319148936	4.85	-6.87857142857	-0.08
1687	0.8435	-3.61914893617	1.95	-1.06428571429	-4.46
1688	0.844	-3.61914893617	1.95	-1.06428571429	-4.46
1689	0.8445	-9.35531914894	1.95	0.389285714286	-3.0
1690	0.845	-12.2234042553	1.95	-1.06428571429	-7.38
1691	0.8455	-3.61914893617	-0.95	0.389285714286	-3.0
1692	0.846	-2.18510638298	0.5	-2.51785714286	-1.54
1693	0.8465	-3.61914893617	16.45	1.84285714286	-1.54
1694	0.847	-0.751063829787	-5.3	1.84285714286	-3.0
1695	0.8475	15.0234042553	-0.95	0.389285714286	-16.14
1696	0.848	-3.61914893617	1.95	-1.06428571429	-7.38
1697	0.8485	-3.61914893617	1.95	-12.6928571429	-5.92
1698	0.849	-3.61914893617	0.5	-9.78571428571	-3.0
1699	0.8495	-0.751063829787	17.9	1.84285714286	-3.0
1700	0.85	-2.18510638298	16.45	-1.06428571429	-4.46
1701	0.8505	-12.2234042553	1.95	-1.06428571429	-1.54
1702	0.851	-0.751063829787	0.5	-1.06428571429	-11.76
1703	0.8515	-2.18510638298	0.5	-8.33214285714	-3.0
1704	0.852	-0.751063829787	1.95	-8.33214285714	-3.0
1705	0.8525	-2.18510638298	4.85	-1.06428571429	-1.54
1706	0.853	-5.05319148936	-0.95	-1.06428571429	-4.46
1707	0.8535	-10.7893617021	1.95	0.389285714286	-1.54
1708	0.854	-0.751063829787	4.85	1.84285714286	-5.92
1709	0.8545	-3.61914893617	1.95	1.84285714286	8.68
1710	0.855	-3.61914893617	1.95	-6.87857142857	-4.46
1711	0.8555	-0.751063829787	1.95	-9.78571428571	-5.92
1712	0.856	-7.92127659574	1.95	0.389285714286	-1.54
1713	0.8565	-16.5255319149	3.4	4.75	-0.08
1714	0.857	-15.0914893617	0.5	1.84285714286	-11.76
1715	0.8575	-3.61914893617	-0.95	19.2857142857	-3.0
1716	0.858	-6.48723404255	-0.95	-1.06428571429	-3.0
1717	0.8585	-7.92127659574	-9.65	4.75	-4.46
1718	0.859	-3.61914893617	-6.75	-2.51785714286	-3.0
1719	0.8595	-3.61914893617	-6.75	0.389285714286	-1.54
1720	0.86	-3.61914893617	-0.95	0.389285714286	-11.76
1721	0.8605	-3.61914893617	1.95	-5.425	-1.54
1722	0.861	-3.61914893617	0.5	-8.33214285714	-3.0
1723	0.8615	-5.05319148936	-0.95	-1.06428571429	-3.0
1724	0.862	-10.7893617021	0.5	0.389285714286	-3.0
1725	0.8625	-10.7893617021	-0.95	-1.06428571429	-1.54
1726	0.863	-13.6574468085	0.5	0.389285714286	-1.54
1727	0.8635	-5.05319148936	0.5	9.11071428571	-4.46
1728	0.864	-5.05319148936	1.95	13.4714285714	-5.92
1729	0.8645	-5.05319148936	0.5	0.389285714286	-3.0
1730	0.865	-10.7893617021	0.5	0.389285714286	-4.46
1731	0.8655	13.5893617021	1.95	3.29642857143	-3.0
1732	0.866	-10.7893617021	-0.95	-2.51785714286	11.6
1733	0.8665	-2.18510638298	-0.95	-2.51785714286	13.06
1734	0.867	-2.18510638298	-0.95	-2.51785714286	-3.0
1735	0.8675	-5.05319148936	16.45	0.389285714286	-3.0
1736	0.868	-0.751063829787	-6.75	-1.06428571429	-3.0
1737	0.8685	16.4574468085	1.95	0.389285714286	-5.92
1738	0.869	0.682978723404	-0.95	-3.97142857143	-13.22
1739	0.8695	-3.61914893617	1.95	-6.87857142857	-3.0
1740	0.87	-0.751063829787	-0.95	-8.33214285714	-3.0
1741	0.8705	-2.18510638298	13.55	-1.06428571429	-3.0
1742	0.871	-3.61914893617	15.0	-2.51785714286	-4.46
1743	0.8715	-6.48723404255	1.95	-1.06428571429	-1.54
1744	0.872	-0.751063829787	1.95	-1.06428571429	11.6
1745	0.8725	-3.61914893617	-0.95	-1.06428571429	-10.3
1746	0.873	-5.05319148936	1.95	0.389285714286	-4.46
1747	0.8735	-5.05319148936	-6.75	1.84285714286	-4.46
1748	0.874	-9.35531914894	0.5	-3.97142857143	-1.54
1749	0.8745	-6.48723404255	0.5	1.84285714286	-3.0
1750	0.875	-5.05319148936	0.5	-1.06428571429	-13.22
1751	0.8755	-5.05319148936	1.95	9.11071428571	-3.0
1752	0.876	-5.05319148936	0.5	-1.06428571429	-3.0
1753	0.8765	-6.48723404255	-0.95	1.84285714286	-1.54
1754	0.877	-6.48723404255	-0.95	1.84285714286	-3.0
1755	0.8775	10.7212765957	1.95	-1.06428571429	-4.46
1756	0.878	-5.05319148936	0.5	-2.51785714286	-13.22
1757	0.8785	-5.05319148936	0.5	-6.87857142857	-3.0
1758	0.879	-5.05319148936	1.95	-8.33214285714	-1.54
1759	0.8795	-5.05319148936	17.9	0.389285714286	-4.46
1760	0.88	-6.48723404255	1.95	0.389285714286	-3.0
1761	0.8805	-10.7893617021	0.5	0.389285714286	-3.0
1762	0.881	-5.05319148936	-0.95	-3.97142857143	-4.46
1763	0.8815	-7.92127659574	0.5	4.75	-3.0
1764	0.882	-3.61914893617	1.95	4.75	-3.0
1765	0.8825	-5.05319148936	3.4	1.84285714286	-1.54
1766	0.883	-17.9595744681	1.95	-1.06428571429	-0.08
1767	0.8835	-12.2234042553	1.95	1.84285714286	10.14
1768	0.884	-6.48723404255	1.95	1.84285714286	-4.46
1769	0.8845	-9.35531914894	1.95	14.925	-5.92
1770	0.885	-7.92127659574	-11.1	0.389285714286	-4.46
1771	0.8855	-7.92127659574	-3.85	-1.06428571429	-4.46
1772	0.886	-19.3936170213	0.5	0.389285714286	-4.46
1773	0.8865	9.28723404255	0.5	3.29642857143	-13.22
1774	0.887	-7.92127659574	1.95	-8.33214285714	-3.0
1775	0.8875	-7.92127659574	-0.95	-1.06428571429	-4.46
1776	0.888	-7.92127659574	-8.2	3.29642857143	-3.0
1777	0.8885	-5.05319148936	7.75	1.84285714286	-4.46
1778	0.889	-15.0914893617	-2.4	3.29642857143	-3.0
1779	0.8895	-7.92127659574	1.95	1.84285714286	-0.08
1780	0.89	-6.48723404255	1.95	3.29642857143	-3.0
1781	0.8905	-7.92127659574	1.95	4.75	-3.0
1782	0.891	-5.05319148936	-8.2	1.84285714286	-3.0
1783	0.8915	-2.18510638298	13.55	1.84285714286	-1.54
1784	0.892	-20.8276595745	1.95	1.84285714286	-0.08
1785	0.8925	-9.35531914894	-0.95	1.84285714286	-3.0
1786	0.893	-2.18510638298	0.5	4.75	10.14
1787	0.8935	-5.05319148936	0.5	1.84285714286	-4.46
1788	0.894	-7.92127659574	-11.1	1.84285714286	-5.92
1789	0.8945	-5.05319148936	-9.65	1.84285714286	-3.0
1790	0.895	-3.61914893617	0.5	-1.06428571429	-4.46
1791	0.8955	12.1553191489	0.5	3.29642857143	-13.22
1792	0.896	-5.05319148936	0.5	-5.425	-13.22
1793	0.8965	-6.48723404255	0.5	-8.33214285714	-4.46
1794	0.897	-6.48723404255	1.95	3.29642857143	-3.0
1795	0.8975	-6.48723404255	0.5	1.84285714286	-4.46
1796	0.898	-15.0914893617	1.95	1.84285714286	-1.54
1797	0.8985	-12.2234042553	1.95	0.389285714286	-1.54
1798	0.899	-6.48723404255	0.5	-1.06428571429	-8.84
1799	0.8995	-5.05319148936	1.95	-1.06428571429	-3.0
1800	0.9	-3.61914893617	13.55	-1.06428571429	-3.0
1801	0.9005	-6.48723404255	-0.95	-1.06428571429	-1.54
1802	0.901	-16.5255319149	1.95	1.84285714286	-1.54
1803	0.9015	-6.48723404255	0.5	0.389285714286	-3.0
1804	0.902	-3.61914893617	4.85	14.925	-3.0
1805	0.9025	-3.61914893617	1.95	-1.06428571429	-3.0
1806	0.903	-6.48723404255	17.9	1.84285714286	-4.46
1807	0.9035	-7.92127659574	-2.4	-1.06428571429	-1.54
1808	0.904	-16.5255319149	0.5	0.389285714286	1.38
1809	0.9045	-6.48723404255	1.95	-1.06428571429	-1.54
1810	0.905	-6.48723404255	0.5	1.84285714286	5.76
1811	0.9055	-5.05319148936	1.95	-3.97142857143	-3.0
1812	0.906	-6.48723404255	-0.95	1.84285714286	-4.46
1813	0.9065	-9.35531914894	-0.95	3.29642857143	-3.0
1814	0.907	-16.5255319149	1.95	1.84285714286	-1.54
1815	0.9075	-12.2234042553	1.95	3.29642857143	8.68
1816	0.908	-5.05319148936	1.95	3.29642857143	-7.38
1817	0.9085	-5.05319148936	0.5	7.65714285714	-10.3
1818	0.909	-5.05319148936	-8.2	-1.06428571429	-1.54
1819	0.9095	-3.61914893617	-0.95	1.84285714286	-7.38
1820	0.91	-6.48723404255	1.95	-1.06428571429	-3.0
1821	0.9105	-15.0914893617	0.5	0.389285714286	-0.08
1822	0.911	-5.05319148936	0.5	4.75	11.6
1823	0.9115	-5.05319148936	-0.95	1.84285714286	-7.38
1824	0.912	-3.61914893617	-2.4	0.389285714286	-1.54
1825	0.9125	-3.61914893617	-2.4	0.389285714286	-4.46
1826	0.913	-0.751063829787	0.5	-1.06428571429	-4.46
1827	0.9135	10.7212765957	1.95	1.84285714286	-13.22
1828	0.914	-7.92127659574	1.95	1.84285714286	-8.84
1829	0.9145	-5.05319148936	0.5	0.389285714286	-3.0
1830	0.915	-2.18510638298	-11.1	-1.06428571429	-3.0
1831	0.9155	-0.751063829787	-0.95	1.84285714286	-1.54
1832	0.916	0.682978723404	-0.95	0.389285714286	-1.54
1833	0.9165	-6.48723404255	-2.4	0.389285714286	-1.54
1834	0.917	-3.61914893617	1.95	-3.97142857143	-10.3
1835	0.9175	-5.05319148936	0.5	-1.06428571429	-8.84
1836	0.918	-5.05319148936	4.85	0.389285714286	-1.54
1837	0.9185	-3.61914893617	-0.95	0.389285714286	-1.54
1838	0.919	-12.2234042553	1.95	3.29642857143	-1.54
1839	0.9195	-3.61914893617	1.95	3.29642857143	-1.54
1840	0.92	-2.18510638298	0.5	4.75	-1.54
1841	0.9205	-0.751063829787	1.95	-1.06428571429	-1.54
1842	0.921	-2.18510638298	0.5	-2.51785714286	-3.0
1843	0.9215	-3.61914893617	0.5	0.389285714286	-5.92
1844	0.922	10.7212765957	-0.95	0.389285714286	-3.0
1845	0.9225	-5.05319148936	0.5	0.389285714286	-1.54
1846	0.923	-3.61914893617	0.5	1.84285714286	-0.08
1847	0.9235	-5.05319148936	0.5	4.75	-3.0
1848	0.924	-3.61914893617	-8.2	0.389285714286	-4.46
1849	0.9245	-2.18510638298	6.3	0.389285714286	-3.0
1850	0.925	-0.751063829787	0.5	0.389285714286	-3.0
1851	0.9255	-9.35531914894	0.5	-1.06428571429	-4.46
1852	0.926	-3.61914893617	1.95	-5.425	-1.54
1853	0.9265	-3.61914893617	0.5	7.65714285714	-4.46
1854	0.927	-0.751063829787	-0.95	1.84285714286	-5.92
1855	0.9275	-3.61914893617	-6.75	0.389285714286	-1.54
1856	0.928	-9.35531914894	-6.75	-1.06428571429	-1.54
1857	0.9285	3.55106382979	3.4	3.29642857143	-7.38
1858	0.929	-5.05319148936	1.95	0.389285714286	14.52
1859	0.9295	-5.05319148936	1.95	16.3785714286	-3.0
1860	0.93	-5.05319148936	0.5	0.389285714286	-3.0
1861	0.9305	-2.18510638298	-8.2	0.389285714286	-3.0
1862	0.931	-2.18510638298	0.5	0.389285714286	-4.46
1863	0.9315	15.0234042553	0.5	1.84285714286	-14.68
1864	0.932	-3.61914893617	0.5	1.84285714286	-13.22
1865	0.9325	-3.61914893617	-2.4	-6.87857142857	-3.0
1866	0.933	-2.18510638298	4.85	-5.425	-5.92
1867	0.9335	2.1170212766	20.8	0.389285714286	-3.0
1868	0.934	-13.6574468085	-0.95	0.389285714286	-0.08
1869	0.9345	-9.35531914894	0.5	1.84285714286	14.52
1870	0.935	-3.61914893617	1.95	3.29642857143	-3.0
1871	0.9355	-3.61914893617	1.95	14.925	-7.38
1872	0.936	-5.05319148936	-2.4	-1.06428571429	-3.0
1873	0.9365	-0.751063829787	-6.75	0.389285714286	-4.46
1874	0.937	-0.751063829787	1.95	3.29642857143	-3.0
1875	0.9375	9.28723404255	1.95	0.389285714286	-7.38
1876	0.938	-3.61914893617	0.5	-3.97142857143	-1.54
1877	0.9385	-5.05319148936	0.5	4.75	-5.92
1878	0.939	-3.61914893617	3.4	4.75	-3.0
1879	0.9395	-6.48723404255	-3.85	3.29642857143	-3.0
1880	0.94	-16.5255319149	0.5	1.84285714286	-5.92
1881	0.9405	-9.35531914894	0.5	0.389285714286	-3.0
1882	0.941	-6.48723404255	0.5	4.75	-0.08
1883	0.9415	-5.05319148936	-0.95	3.29642857143	-1.54
1884	0.942	-6.48723404255	-5.3	1.84285714286	-4.46
1885	0.9425	-6.48723404255	3.4	-1.06428571429	-4.46
1886	0.943	-3.61914893617	1.95	-1.06428571429	-3.0
1887	0.9435	-13.6574468085	1.95	-1.06428571429	-0.08
1888	0.944	-6.48723404255	0.5	1.84285714286	5.76
1889	0.9445	-7.92127659574	3.4	16.3785714286	-1.54
1890	0.945	-6.48723404255	-9.65	-2.51785714286	-4.46
1891	0.9455	-5.05319148936	-6.75	0.389285714286	-1.54
1892	0.946	-0.751063829787	0.5	1.84285714286	-4.46
1893	0.9465	7.85319148936	1.95	1.84285714286	-4.46
1894	0.947	-6.48723404255	0.5	-8.33214285714	-3.0
1895	0.9475	-6.48723404255	-0.95	3.29642857143	-1.54
1896	0.948	-9.35531914894	-6.75	0.389285714286	-3.0
1897	0.9485	-5.05319148936	4.85	0.389285714286	-4.46
1898	0.949	2.1170212766	0.5	-1.06428571429	-3.0
1899	0.9495	-9.35531914894	0.5	-1.06428571429	1.38
1900	0.95	-6.48723404255	0.5	-1.06428571429	-1.54
1901	0.9505	-7.92127659574	3.4	-2.51785714286	-1.54
1902	0.951	-7.92127659574	9.2	0.389285714286	-3.0
1903	0.9515	-9.35531914894	0.5	-1.06428571429	-3.0
1904	0.952	10.7212765957	0.5	0.389285714286	-11.76
1905	0.9525	-7.92127659574	0.5	-1.06428571429	-16.14
1906	0.953	-3.61914893617	0.5	-1.06428571429	-11.76
1907	0.9535	-5.05319148936	-0.95	-9.78571428571	-5.92
1908	0.954	-7.92127659574	16.45	-3.97142857143	-3.0
1909	0.9545	-7.92127659574	1.95	-1.06428571429	-4.46
1910	0.955	-15.0914893617	0.5	-1.06428571429	-1.54
1911	0.9555	-15.0914893617	1.95	3.29642857143	14.52
1912	0.956	-6.48723404255	0.5	1.84285714286	-10.3
1913	0.9565	-7.92127659574	0.5	-5.425	-4.46
1914	0.957	-5.05319148936	-0.95	-1.06428571429	-3.0
1915	0.9575	-10.7893617021	0.5	0.389285714286	-1.54
1916	0.958	-9.35531914894	0.5	0.389285714286	-1.54
1917	0.9585	-16.5255319149	1.95	-1.06428571429	14.52
1918	0.959	-7.92127659574	0.5	-3.97142857143	14.52
1919	0.9595	-7.92127659574	1.95	0.389285714286	-3.0
1920	0.96	-6.48723404255	-9.65	0.389285714286	-3.0
1921	0.9605	-5.05319148936	-6.75	0.389285714286	-4.46
1922	0.961	13.5893617021	1.95	-1.06428571429	-4.46
1923	0.9615	-5.05319148936	4.85	-3.97142857143	-8.84
1924	0.962	-6.48723404255	0.5	-9.78571428571	-7.38
1925	0.9625	-9.35531914894	4.85	0.389285714286	-3.0
1926	0.963	-7.92127659574	20.8	1.84285714286	-3.0
1927	0.9635	-9.35531914894	1.95	0.389285714286	-1.54
1928	0.964	-16.5255319149	0.5	-1.06428571429	-1.54
1929	0.9645	-5.05319148936	3.4	1.84285714286	-1.54
1930	0.965	-3.61914893617	1.95	9.11071428571	-1.54
1931	0.9655	-3.61914893617	-5.3	-3.97142857143	-3.0
1932	0.966	-2.18510638298	3.4	-1.06428571429	-3.0
1933	0.9665	-2.18510638298	0.5	0.389285714286	-3.0
1934	0.967	-5.05319148936	1.95	-2.51785714286	7.22
1935	0.9675	-3.61914893617	0.5	-11.2392857143	-5.92
1936	0.968	-5.05319148936	4.85	-6.87857142857	-4.46
1937	0.9685	-5.05319148936	4.85	-1.06428571429	-1.54
1938	0.969	-3.61914893617	19.35	-1.06428571429	-1.54
1939	0.9695	-12.2234042553	1.95	0.389285714286	-1.54
1940	0.97	-10.7893617021	0.5	-1.06428571429	-1.54
1941	0.9705	-5.05319148936	1.95	-3.97142857143	-7.38
1942	0.971	-6.48723404255	3.4	-5.425	-3.0
1943	0.9715	-3.61914893617	-5.3	-3.97142857143	-1.54
1944	0.972	-0.751063829787	-3.85	-2.51785714286	-3.0
1945	0.9725	16.4574468085	0.5	-1.06428571429	-5.92
1946	0.973	-3.61914893617	3.4	-3.97142857143	17.44
1947	0.9735	-3.61914893617	1.95	-2.51785714286	14.52
1948	0.974	-2.18510638298	-0.95	17.8321428571	-3.0
1949	0.9745	-0.751063829787	0.5	-1.06428571429	-4.46
1950	0.975	0.682978723404	-2.4	-1.06428571429	-1.54
1951	0.9755	-5.05319148936	0.5	0.389285714286	-13.22
1952	0.976	-0.751063829787	0.5	0.389285714286	-13.22
1953	0.9765	0.682978723404	3.4	12.0178571429	-1.54
1954	0.977	3.55106382979	1.95	-5.425	-3.0
1955	0.9775	4.98510638298	-9.65	-1.06428571429	-4.46
1956	0.978	10.7212765957	-2.4	-1.06428571429	-4.46
1957	0.9785	22.1936170213	1.95	-3.97142857143	-0.08
1958	0.979	9.28723404255	3.4	-6.87857142857	7.22
1959	0.9795	9.28723404255	-2.4	0.389285714286	-1.54
1960	0.98	4.98510638298	1.95	-5.425	-3.0
1961	0.9805	4.98510638298	16.45	-2.51785714286	-3.0
1962	0.981	7.85319148936	-5.3	-2.51785714286	-1.54
1963	0.9815	10.7212765957	-2.4	-1.06428571429	-1.54
1964	0.982	10.7212765957	-5.3	0.389285714286	14.52
1965	0.9825	9.28723404255	-0.95	12.0178571429	-5.92
1966	0.983	10.7212765957	0.5	-1.06428571429	-4.46
1967	0.9835	15.0234042553	-8.2	-2.51785714286	-4.46
1968	0.984	7.85319148936	-11.1	0.389285714286	-3.0
1969	0.9845	15.0234042553	-3.85	1.84285714286	-10.3
1970	0.985	15.0234042553	-2.4	4.75	-7.38
1971	0.9855	15.0234042553	-5.3	4.75	-4.46
1972	0.986	17.8914893617	-16.9	-1.06428571429	-4.46
1973	0.9865	23.6276595745	-6.75	-1.06428571429	-3.0
1974	0.987	33.6659574468	-3.85	-1.06428571429	-19.06
1975	0.9875	17.8914893617	-2.4	-3.97142857143	-17.6
1976	0.988	17.8914893617	-2.4	-12.6928571429	-5.92
1977	0.9885	16.4574468085	-2.4	-9.78571428571	-4.46
1978	0.989	17.8914893617	10.65	-1.06428571429	-7.38
1979	0.9895	12.1553191489	-6.75	-2.51785714286	-4.46
1980	0.99	20.7595744681	-6.75	-1.06428571429	-5.92
1981	0.9905	12.1553191489	-5.3	0.389285714286	1.38
1982	0.991	10.7212765957	-6.75	12.0178571429	-5.92
1983	0.9915	7.85319148936	-15.45	0.389285714286	-5.92
1984	0.992	9.28723404255	16.45	-2.51785714286	-5.92
1985	0.9925	-6.48723404255	-2.4	-1.06428571429	-4.46
1986	0.993	-3.61914893617	-3.85	-2.51785714286	14.52
1987	0.9935	6.41914893617	-3.85	-3.97142857143	13.06
1988	0.994	3.55106382979	0.5	-6.87857142857	-4.46
1989	0.9945	2.1170212766	17.9	-2.51785714286	-5.92
1990	0.995	0.682978723404	-9.65	-1.06428571429	-4.46
1991	0.9955	2.1170212766	-6.75	-1.06428571429	-4.46
1992	0.996	0.682978723404	1.95	0.389285714286	-11.76
1993	0.9965	-0.751063829787	-0.95	-6.87857142857	-4.46
1994	0.997	-2.18510638298	0.5	-8.33214285714	-1.54
1995	0.9975	-3.61914893617	-5.3	-1.06428571429	-0.08
1996	0.998	-6.48723404255	20.8	0.389285714286	-1.54
1997	0.9985	-13.6574468085	1.95	0.389285714286	1.38
1998	0.999	-13.6574468085	4.85	-1.06428571429	5.76
1999	0.9995	-6.48723404255	4.85	16.3785714286	-0.08
2000	1.0	-7.92127659574	1.95	16.3785714286	-0.08
2001	1.0005	-9.35531914894	-3.85	0.389285714286	2.84
2002	1.001	-10.7893617021	-2.4	0.389285714286	1.38
2003	1.0015	-3.61914893617	6.3	-1.06428571429	-0.08
2004	1.002	-12.2234042553	6.3	-1.06428571429	2.84
2005	1.0025	-15.0914893617	6.3	-1.06428571429	4.3
2006	1.003	-13.6574468085	-0.95	-1.06428571429	-0.08
2007	1.0035	-10.7893617021	4.85	-1.06428571429	-1.54
2008	1.004	-10.7893617021	6.3	-1.06428571429	-3.0
2009	1.0045	2.1170212766	4.85	0.389285714286	-14.68
2010	1.005	-12.2234042553	4.85	-1.06428571429	-7.38
2011	1.0055	-12.2234042553	4.85	-9.78571428571	-3.0
2012	1.006	-12.2234042553	4.85	-5.425	-4.46
2013	1.0065	-13.6574468085	17.9	0.389285714286	-5.92
2014	1.007	-13.6574468085	0.5	0.389285714286	-5.92
2015	1.0075	-9.35531914894	4.85	1.84285714286	-7.38
2016	1.008	-15.0914893617	3.4	1.84285714286	-11.76
2017	1.0085	-16.5255319149	6.3	4.75	-5.92
2018	1.009	-16.5255319149	3.4	-1.06428571429	-3.0
2019	1.0095	-17.9595744681	9.2	3.29642857143	-4.46
2020	1.01	-16.5255319149	4.85	3.29642857143	-4.46
2021	1.0105	-16.5255319149	1.95	4.75	-5.92
2022	1.011	-26.5638297872	1.95	6.20357142857	2.84
2023	1.0115	-16.5255319149	1.95	12.0178571429	-8.84
2024	1.012	-13.6574468085	-0.95	7.65714285714	-8.84
2025	1.0125	-16.5255319149	16.45	4.75	-5.92
2026	1.013	-16.5255319149	-2.4	4.75	-5.92
2027	1.0135	-3.61914893617	1.95	4.75	-5.92
2028	1.014	-19.3936170213	1.95	3.29642857143	-13.22
2029	1.0145	-16.5255319149	3.4	19.2857142857	-5.92
2030	1.015	-16.5255319149	1.95	23.6464285714	-3.0
2031	1.0155	-16.5255319149	-5.3	6.20357142857	-3.0
2032	1.016	-16.5255319149	3.4	4.75	-7.38
2033	1.0165	0.682978723404	1.95	4.75	-13.22
2034	1.017	-15.0914893617	1.95	3.29642857143	-14.68
2035	1.0175	-15.0914893617	4.85	-2.51785714286	-4.46
2036	1.018	-13.6574468085	4.85	-2.51785714286	-7.38
2037	1.0185	-12.2234042553	23.7	3.29642857143	-5.92
2038	1.019	-26.5638297872	3.4	6.20357142857	-4.46
2039	1.0195	2.1170212766	1.95	7.65714285714	-5.92
2040	1.02	-12.2234042553	4.85	-8.33214285714	-4.46
2041	1.0205	-10.7893617021	3.4	-3.97142857143	-5.92
2042	1.021	-12.2234042553	7.75	-1.06428571429	-4.46
2043	1.0215	-10.7893617021	3.4	6.20357142857	-1.54
2044	1.022	-6.48723404255	10.65	4.75	-3.0
2045	1.0225	-6.48723404255	1.95	4.75	-3.0
2046	1.023	-15.0914893617	3.4	0.389285714286	4.3
2047	1.0235	-10.7893617021	1.95	16.3785714286	-4.46
2048	1.024	-10.7893617021	-0.95	0.389285714286	-3.0
2049	1.0245	-7.92127659574	17.9	1.84285714286	-1.54
2050	1.025	-12.2234042553	0.5	1.84285714286	-0.08
2051	1.0255	-15.0914893617	0.5	0.389285714286	-4.46
2052	1.026	-6.48723404255	4.85	4.75	-11.76
2053	1.0265	-7.92127659574	3.4	17.8321428571	-1.54
2054	1.027	-6.48723404255	0.5	-1.06428571429	-3.0
2055	1.0275	-0.751063829787	0.5	1.84285714286	-3.0
2056	1.028	-2.18510638298	9.2	1.84285714286	-3.0
2057	1.0285	-0.751063829787	1.95	1.84285714286	-4.46
2058	1.029	-7.92127659574	1.95	3.29642857143	2.84
2059	1.0295	-3.61914893617	3.4	20.7392857143	-5.92
2060	1.03	-5.05319148936	6.3	1.84285714286	-1.54
2061	1.0305	-5.05319148936	16.45	0.389285714286	-1.54
2062	1.031	-5.05319148936	-2.4	-1.06428571429	-1.54
2063	1.0315	3.55106382979	4.85	1.84285714286	-3.0
2064	1.032	-15.0914893617	1.95	-1.06428571429	-0.08
2065	1.0325	-5.05319148936	4.85	-9.78571428571	-0.08
2066	1.033	-3.61914893617	6.3	-2.51785714286	-4.46
2067	1.0335	-3.61914893617	22.25	-2.51785714286	-1.54
2068	1.034	-5.05319148936	0.5	-1.06428571429	-0.08
2069	1.0345	-10.7893617021	1.95	0.389285714286	-3.0
2070	1.035	-6.48723404255	0.5	-1.06428571429	-5.92
2071	1.0355	-3.61914893617	1.95	3.29642857143	-4.46
2072	1.036	-5.05319148936	0.5	-5.425	-1.54
2073	1.0365	-3.61914893617	3.4	-8.33214285714	-1.54
2074	1.037	-5.05319148936	4.85	1.84285714286	-0.08
2075	1.0375	-15.0914893617	1.95	-1.06428571429	-0.08
2076	1.038	-10.7893617021	1.95	-1.06428571429	-1.54
2077	1.0385	-3.61914893617	4.85	1.84285714286	4.3
2078	1.039	-2.18510638298	4.85	-1.06428571429	-5.92
2079	1.0395	-3.61914893617	1.95	-1.06428571429	-1.54
2080	1.04	-6.48723404255	3.4	-1.06428571429	-1.54
2081	1.0405	-16.5255319149	4.85	-1.06428571429	2.84
2082	1.041	-9.35531914894	0.5	0.389285714286	1.38
2083	1.0415	-3.61914893617	3.4	-2.51785714286	-3.0
2084	1.042	-5.05319148936	3.4	-3.97142857143	-3.0
2085	1.0425	-6.48723404255	0.5	-1.06428571429	-0.08
2086	1.043	-5.05319148936	-5.3	1.84285714286	-4.46
2087	1.0435	-3.61914893617	4.85	1.84285714286	-3.0
2088	1.044	-12.2234042553	0.5	1.84285714286	2.84
2089	1.0445	-3.61914893617	4.85	-8.33214285714	-4.46
2090	1.045	-2.18510638298	1.95	-5.425	-8.84
2091	1.0455	-3.61914893617	0.5	-1.06428571429	-1.54
2092	1.046	-3.61914893617	-5.3	0.389285714286	-1.54
2093	1.0465	-5.05319148936	4.85	-1.06428571429	-1.54
2094	1.047	-16.5255319149	1.95	3.29642857143	-0.08
2095	1.0475	-5.05319148936	3.4	1.84285714286	-13.22
2096	1.048	-2.18510638298	0.5	-11.2392857143	-8.84
2097	1.0485	-2.18510638298	4.85	-2.51785714286	-3.0
2098	1.049	-5.05319148936	16.45	0.389285714286	-1.54
2099	1.0495	-16.5255319149	1.95	-1.06428571429	-1.54
2100	1.05	7.85319148936	1.95	3.29642857143	-1.54
2101	1.0505	-10.7893617021	0.5	0.389285714286	-4.46
2102	1.051	-5.05319148936	0.5	-1.06428571429	-10.3
2103	1.0515	-7.92127659574	0.5	1.84285714286	-0.08
2104	1.052	-5.05319148936	-9.65	0.389285714286	-3.0
2105	1.0525	-0.751063829787	-8.2	0.389285714286	-1.54
2106	1.053	15.0234042553	4.85	3.29642857143	-14.68
2107	1.0535	-6.48723404255	4.85	-1.06428571429	-11.76
2108	1.054	-6.48723404255	4.85	-11.2392857143	-3.0
2109	1.0545	-5.05319148936	0.5	-5.425	-0.08
2110	1.055	-2.18510638298	19.35	-1.06428571429	-1.54
2111	1.0555	-9.35531914894	19.35	0.389285714286	-4.46
2112	1.056	-17.9595744681	1.95	1.84285714286	1.38
2113	1.0565	-5.05319148936	1.95	6.20357142857	-3.0
2114	1.057	-6.48723404255	0.5	4.75	-0.08
2115	1.0575	-6.48723404255	-0.95	6.20357142857	-3.0
2116	1.058	-6.48723404255	9.2	-2.51785714286	-4.46
2117	1.0585	-9.35531914894	3.4	1.84285714286	-1.54
2118	1.059	-12.2234042553	1.95	0.389285714286	-1.54
2119	1.0595	-7.92127659574	3.4	1.84285714286	7.22
2120	1.06	-7.92127659574	1.95	-1.06428571429	11.6
2121	1.0605	-6.48723404255	4.85	-3.97142857143	-3.0
2122	1.061	-9.35531914894	0.5	-1.06428571429	-3.0
2123	1.0615	-6.48723404255	3.4	0.389285714286	-3.0
2124	1.062	-5.05319148936	3.4	0.389285714286	-4.46
2125	1.0625	-12.2234042553	1.95	1.84285714286	11.6
2126	1.063	-5.05319148936	0.5	-6.87857142857	-1.54
2127	1.0635	-3.61914893617	3.4	12.0178571429	-3.0
2128	1.064	-5.05319148936	3.4	1.84285714286	-1.54
2129	1.0645	-5.05319148936	-3.85	1.84285714286	-4.46
2130	1.065	-7.92127659574	4.85	0.389285714286	-3.0
2131	1.0655	4.98510638298	6.3	1.84285714286	-4.46
2132	1.066	-3.61914893617	3.4	6.20357142857	-10.3
2133	1.0665	-2.18510638298	3.4	-3.97142857143	-1.54
2134	1.067	-2.18510638298	9.2	0.389285714286	-1.54
2135	1.0675	-3.61914893617	-2.4	1.84285714286	-1.54
2136	1.068	-10.7893617021	1.95	1.84285714286	-0.08
2137	1.0685	-3.61914893617	1.95	3.29642857143	-8.84
2138	1.069	-3.61914893617	1.95	-9.78571428571	2.84
2139	1.0695	-5.05319148936	4.85	-9.78571428571	-3.0
2140	1.07	-5.05319148936	16.45	-1.06428571429	-1.54
2141	1.0705	-6.48723404255	0.5	0.389285714286	1.38
2142	1.071	-16.5255319149	-0.95	1.84285714286	-1.54
2143	1.0715	-5.05319148936	1.95	1.84285714286	7.22
2144	1.072	-3.61914893617	1.95	14.925	-3.0
2145	1.0725	-5.05319148936	-0.95	13.4714285714	-1.54
2146	1.073	-2.18510638298	1.95	-2.51785714286	-1.54
2147	1.0735	-0.751063829787	1.95	0.389285714286	-4.46
2148	1.074	12.1553191489	1.95	1.84285714286	-4.46
2149	1.0745	-6.48723404255	3.4	1.84285714286	1.38
2150	1.075	-3.61914893617	3.4	0.389285714286	-3.0
2151	1.0755	-5.05319148936	6.3	3.29642857143	-3.0
2152	1.076	-5.05319148936	0.5	-1.06428571429	-3.0
2153	1.0765	-3.61914893617	-6.75	-2.51785714286	-3.0
2154	1.077	-2.18510638298	-6.75	1.84285714286	-4.46
2155	1.0775	-3.61914893617	1.95	-1.06428571429	-11.76
2156	1.078	-3.61914893617	3.4	-6.87857142857	-3.0
2157	1.0785	-5.05319148936	0.5	-6.87857142857	-1.54
2158	1.079	-6.48723404255	-8.2	0.389285714286	-4.46
2159	1.0795	0.682978723404	1.95	1.84285714286	-3.0
2160	1.08	-16.5255319149	3.4	0.389285714286	-1.54
2161	1.0805	-13.6574468085	1.95	1.84285714286	-0.08
2162	1.081	0.682978723404	1.95	19.2857142857	-0.08
2163	1.0815	0.682978723404	0.5	16.3785714286	-3.0
2164	1.082	0.682978723404	-8.2	-1.06428571429	-3.0
2165	1.0825	2.1170212766	0.5	1.84285714286	-4.46
2166	1.083	16.4574468085	3.4	-1.06428571429	-4.46
2167	1.0835	-2.18510638298	3.4	-1.06428571429	-0.08
2168	1.084	0.682978723404	4.85	-12.6928571429	-3.0
2169	1.0845	0.682978723404	6.3	1.84285714286	-3.0
2170	1.085	-0.751063829787	-9.65	3.29642857143	-1.54
2171	1.0855	-2.18510638298	-8.2	0.389285714286	-3.0
2172	1.086	20.7595744681	3.4	0.389285714286	-4.46
2173	1.0865	-2.18510638298	1.95	1.84285714286	-14.68
2174	1.087	-0.751063829787	3.4	-11.2392857143	-4.46
2175	1.0875	2.1170212766	6.3	3.29642857143	-1.54
2176	1.088	-0.751063829787	-12.55	0.389285714286	-1.54
2177	1.0885	-2.18510638298	-8.2	0.389285714286	-1.54
2178	1.089	15.0234042553	1.95	1.84285714286	-5.92
2179	1.0895	-5.05319148936	1.95	-1.06428571429	-1.54
2180	1.09	-3.61914893617	0.5	-6.87857142857	-1.54
2181	1.0905	-3.61914893617	1.95	1.84285714286	-1.54
2182	1.091	-0.751063829787	-0.95	0.389285714286	-3.0
2183	1.0915	-0.751063829787	-2.4	0.389285714286	-3.0
2184	1.092	-2.18510638298	1.95	0.389285714286	-3.0
2185	1.0925	-3.61914893617	0.5	3.29642857143	-4.46
2186	1.093	0.682978723404	1.95	19.2857142857	-4.46
2187	1.0935	-2.18510638298	-8.2	0.389285714286	-4.46
2188	1.094	0.682978723404	22.25	1.84285714286	-1.54
2189	1.0945	-2.18510638298	20.8	-1.06428571429	-0.08
2190	1.095	-7.92127659574	1.95	0.389285714286	-1.54
2191	1.0955	-3.61914893617	1.95	0.389285714286	-10.3
2192	1.096	-0.751063829787	1.95	-3.97142857143	-8.84
2193	1.0965	-0.751063829787	-2.4	0.389285714286	-3.0
2194	1.097	-2.18510638298	-3.85	0.389285714286	-4.46
2195	1.0975	0.682978723404	1.95	1.84285714286	-0.08
2196	1.098	-0.751063829787	0.5	-1.06428571429	11.6
2197	1.0985	-3.61914893617	1.95	-9.78571428571	-1.54
2198	1.099	-3.61914893617	4.85	-8.33214285714	-1.54
2199	1.0995	-2.18510638298	4.85	-6.87857142857	-1.54
2200	1.1	-5.05319148936	-5.3	1.84285714286	-1.54
2201	1.1005	-7.92127659574	4.85	0.389285714286	-1.54
2202	1.101	-5.05319148936	1.95	6.20357142857	-3.0
2203	1.1015	-5.05319148936	1.95	19.2857142857	-4.46
2204	1.102	-5.05319148936	0.5	1.84285714286	-1.54
2205	1.1025	-3.61914893617	1.95	-1.06428571429	-0.08
2206	1.103	0.682978723404	-0.95	-1.06428571429	-1.54
2207	1.1035	16.4574468085	0.5	1.84285714286	-11.76
2208	1.104	-0.751063829787	0.5	-2.51785714286	-10.3
2209	1.1045	-0.751063829787	4.85	-11.2392857143	-10.3
2210	1.105	2.1170212766	1.95	-9.78571428571	-1.54
2211	1.1055	-5.05319148936	20.8	0.389285714286	-4.46
2212	1.106	-5.05319148936	3.4	0.389285714286	-0.08
2213	1.1065	-15.0914893617	4.85	0.389285714286	-0.08
2214	1.107	-12.2234042553	1.95	1.84285714286	-0.08
2215	1.1075	-5.05319148936	1.95	14.925	-4.46
2216	1.108	-5.05319148936	3.4	1.84285714286	-0.08
2217	1.1085	-6.48723404255	6.3	0.389285714286	-3.0
2218	1.109	-7.92127659574	-2.4	1.84285714286	-0.08
2219	1.1095	-6.48723404255	3.4	-1.06428571429	-1.54
2220	1.11	-6.48723404255	1.95	0.389285714286	-4.46
2221	1.1105	-3.61914893617	3.4	7.65714285714	-3.0
2222	1.111	-6.48723404255	-6.75	-2.51785714286	-1.54
2223	1.1115	-5.05319148936	1.95	-1.06428571429	-3.0
2224	1.112	0.682978723404	1.95	0.389285714286	-3.0
2225	1.1125	16.4574468085	1.95	0.389285714286	-14.68
2226	1.113	-5.05319148936	0.5	-1.06428571429	-11.76
2227	1.1135	-5.05319148936	3.4	-3.97142857143	-1.54
2228	1.114	-5.05319148936	-0.95	1.84285714286	-3.0
2229	1.1145	-2.18510638298	0.5	0.389285714286	-4.46
2230	1.115	-0.751063829787	3.4	1.84285714286	-3.0
2231	1.1155	-9.35531914894	1.95	-1.06428571429	-1.54
2232	1.116	-3.61914893617	1.95	-1.06428571429	-10.3
2233	1.1165	-6.48723404255	3.4	16.3785714286	-3.0
2234	1.117	-7.92127659574	4.85	20.7392857143	-3.0
2235	1.1175	-5.05319148936	-2.4	1.84285714286	-4.46
2236	1.118	-7.92127659574	4.85	0.389285714286	-4.46
2237	1.1185	13.5893617021	1.95	-1.06428571429	-10.3
2238	1.119	-3.61914893617	3.4	1.84285714286	-10.3
2239	1.1195	-3.61914893617	3.4	3.29642857143	-1.54
2240	1.12	-5.05319148936	-3.85	-3.97142857143	-4.46
2241	1.1205	-5.05319148936	7.75	1.84285714286	-1.54
2242	1.121	-5.05319148936	0.5	0.389285714286	-1.54
2243	1.1215	-10.7893617021	1.95	1.84285714286	-1.54
2244	1.122	-6.48723404255	1.95	-1.06428571429	-10.3
2245	1.1225	-2.18510638298	3.4	17.8321428571	-3.0
2246	1.123	-5.05319148936	4.85	-1.06428571429	-0.08
2247	1.1235	-3.61914893617	-5.3	0.389285714286	-1.54
2248	1.124	-7.92127659574	1.95	0.389285714286	-3.0
2249	1.1245	4.98510638298	3.4	0.389285714286	-1.54
2250	1.125	-7.92127659574	1.95	-1.06428571429	-3.0
2251	1.1255	-5.05319148936	0.5	14.925	-3.0
2252	1.126	-5.05319148936	-0.95	-1.06428571429	-3.0
2253	1.1265	-2.18510638298	3.4	-1.06428571429	-1.54
2254	1.127	-5.05319148936	-3.85	1.84285714286	-3.0
2255	1.1275	9.28723404255	0.5	0.389285714286	-3.0
2256	1.128	-2.18510638298	3.4	-1.06428571429	-10.3
2257	1.1285	-3.61914893617	3.4	-3.97142857143	-1.54
2258	1.129	-3.61914893617	3.4	-6.87857142857	-1.54
2259	1.1295	-6.48723404255	16.45	0.389285714286	-0.08
2260	1.13	-5.05319148936	4.85	-1.06428571429	-1.54
2261	1.1305	-6.48723404255	1.95	0.389285714286	-3.0
2262	1.131	-7.92127659574	3.4	-1.06428571429	-10.3
2263	1.1315	-2.18510638298	4.85	-2.51785714286	-8.84
2264	1.132	-3.61914893617	3.4	-5.425	-3.0
2265	1.1325	-5.05319148936	4.85	-1.06428571429	-3.0
2266	1.133	0.682978723404	4.85	0.389285714286	-3.0
2267	1.1335	0.682978723404	3.4	0.389285714286	-3.0
2268	1.134	-3.61914893617	1.95	-6.87857142857	-7.38
2269	1.1345	-5.05319148936	1.95	-6.87857142857	-5.92
2270	1.135	-0.751063829787	6.3	-5.425	-3.0
2271	1.1355	-2.18510638298	4.85	-1.06428571429	-3.0
2272	1.136	-2.18510638298	1.95	1.84285714286	-3.0
2273	1.1365	0.682978723404	1.95	3.29642857143	-4.46
2274	1.137	-10.7893617021	3.4	-1.06428571429	1.38
2275	1.1375	-5.05319148936	1.95	-1.06428571429	-3.0
2276	1.138	-6.48723404255	-2.4	-1.06428571429	-4.46
2277	1.1385	-3.61914893617	6.3	1.84285714286	-1.54
2278	1.139	-0.751063829787	1.95	-1.06428571429	-3.0
2279	1.1395	0.682978723404	4.85	0.389285714286	-7.38
2280	1.14	-12.2234042553	1.95	-1.06428571429	-1.54
2281	1.1405	-5.05319148936	4.85	13.4714285714	-0.08
2282	1.141	-5.05319148936	0.5	0.389285714286	-1.54
2283	1.1415	-6.48723404255	1.95	1.84285714286	-1.54
2284	1.142	-7.92127659574	3.4	-2.51785714286	-3.0
2285	1.1425	4.98510638298	6.3	0.389285714286	-1.54
2286	1.143	-15.0914893617	1.95	0.389285714286	14.52
2287	1.1435	-6.48723404255	1.95	-9.78571428571	-1.54
2288	1.144	-5.05319148936	4.85	0.389285714286	-3.0
2289	1.1445	-5.05319148936	-3.85	1.84285714286	-4.46
2290	1.145	-3.61914893617	-0.95	1.84285714286	-1.54
2291	1.1455	3.55106382979	0.5	6.20357142857	-7.38
2292	1.146	-5.05319148936	1.95	0.389285714286	-8.84
2293	1.1465	-5.05319148936	1.95	-3.97142857143	-10.3
2294	1.147	-6.48723404255	1.95	-5.425	-3.0
2295	1.1475	-3.61914893617	16.45	0.389285714286	-4.46
2296	1.148	-5.05319148936	-6.75	-1.06428571429	-4.46
2297	1.1485	15.0234042553	0.5	0.389285714286	-7.38
2298	1.149	-3.61914893617	3.4	-1.06428571429	-10.3
2299	1.1495	-2.18510638298	3.4	1.84285714286	11.6
2300	1.15	-0.751063829787	-6.75	0.389285714286	-1.54
2301	1.1505	-2.18510638298	6.3	0.389285714286	-3.0
2302	1.151	-0.751063829787	1.95	0.389285714286	-4.46
2303	1.1515	4.98510638298	3.4	0.389285714286	-1.54
2304	1.152	-2.18510638298	3.4	3.29642857143	-0.08
2305	1.1525	-7.92127659574	1.95	3.29642857143	-10.3
2306	1.153	-5.05319148936	0.5	4.75	-0.08
2307	1.1535	-0.751063829787	4.85	0.389285714286	-1.54
2308	1.154	-0.751063829787	3.4	-1.06428571429	-4.46
2309	1.1545	13.5893617021	4.85	0.389285714286	-11.76
2310	1.155	-5.05319148936	1.95	-2.51785714286	-11.76
2311	1.1555	-3.61914893617	1.95	-6.87857142857	-4.46
2312	1.156	-3.61914893617	3.4	0.389285714286	-1.54
2313	1.1565	-5.05319148936	20.8	-1.06428571429	-1.54
2314	1.157	-5.05319148936	20.8	0.389285714286	-1.54
2315	1.1575	-12.2234042553	3.4	0.389285714286	1.38
2316	1.158	-2.18510638298	1.95	3.29642857143	-7.38
2317	1.1585	-2.18510638298	3.4	14.925	-4.46
2318	1.159	-0.751063829787	-9.65	0.389285714286	-3.0
2319	1.1595	-3.61914893617	-3.85	1.84285714286	-1.54
2320	1.16	-0.751063829787	0.5	0.389285714286	-3.0
2321	1.1605	-5.05319148936	0.5	0.389285714286	4.3
2322	1.161	-0.751063829787	3.4	3.29642857143	-7.38
2323	1.1615	-3.61914893617	1.95	6.20357142857	-1.54
2324	1.162	-2.18510638298	4.85	-2.51785714286	-1.54
2325	1.1625	-5.05319148936	16.45	0.389285714286	-1.54
2326	1.163	-2.18510638298	6.3	0.389285714286	-1.54
2327	1.1635	4.98510638298	1.95	0.389285714286	-5.92
2328	1.164	-9.35531914894	3.4	-1.06428571429	4.3
2329	1.1645	-5.05319148936	1.95	-8.33214285714	-3.0
2330	1.165	-6.48723404255	0.5	12.0178571429	-3.0
2331	1.1655	-6.48723404255	-0.95	0.389285714286	-3.0
2332	1.166	-2.18510638298	-5.3	0.389285714286	-5.92
2333	1.1665	-5.05319148936	-6.75	0.389285714286	-0.08
2334	1.167	-5.05319148936	3.4	-1.06428571429	-10.3
2335	1.1675	-5.05319148936	1.95	-11.2392857143	-1.54
2336	1.168	-6.48723404255	0.5	-6.87857142857	-0.08
2337	1.1685	-5.05319148936	-9.65	-1.06428571429	-3.0
2338	1.169	-3.61914893617	-6.75	-2.51785714286	-4.46
2339	1.1695	10.7212765957	1.95	0.389285714286	1.38
2340	1.17	-15.0914893617	3.4	3.29642857143	1.38
2341	1.1705	-5.05319148936	6.3	0.389285714286	10.14
2342	1.171	-5.05319148936	-0.95	0.389285714286	-1.54
2343	1.1715	-5.05319148936	-6.75	1.84285714286	-3.0
2344	1.172	-2.18510638298	-8.2	0.389285714286	-3.0
2345	1.1725	-5.05319148936	1.95	0.389285714286	-1.54
2346	1.173	-5.05319148936	0.5	-1.06428571429	15.98
2347	1.1735	-6.48723404255	1.95	-11.2392857143	-1.54
2348	1.174	-5.05319148936	3.4	-11.2392857143	-3.0
2349	1.1745	-5.05319148936	7.75	1.84285714286	-1.54
2350	1.175	-10.7893617021	-5.3	0.389285714286	-3.0
2351	1.1755	-5.05319148936	0.5	0.389285714286	-3.0
2352	1.176	9.28723404255	0.5	-1.06428571429	-4.46
2353	1.1765	-5.05319148936	0.5	-1.06428571429	-8.84
2354	1.177	-5.05319148936	0.5	-8.33214285714	-1.54
2355	1.1775	-7.92127659574	6.3	0.389285714286	-0.08
2356	1.178	-5.05319148936	20.8	0.389285714286	-4.46
2357	1.1785	-16.5255319149	1.95	0.389285714286	-0.08
2358	1.179	-13.6574468085	1.95	-1.06428571429	13.06
2359	1.1795	-5.05319148936	1.95	3.29642857143	-1.54
2360	1.18	-6.48723404255	3.4	14.925	-3.0
2361	1.1805	-6.48723404255	3.4	0.389285714286	-1.54
2362	1.181	-9.35531914894	-6.75	-1.06428571429	-3.0
2363	1.1815	-19.3936170213	1.95	0.389285714286	-3.0
2364	1.182	15.0234042553	0.5	0.389285714286	-14.68
2365	1.1825	-9.35531914894	1.95	4.75	-3.0
2366	1.183	-9.35531914894	1.95	-2.51785714286	-1.54
2367	1.1835	-7.92127659574	-3.85	-1.06428571429	-1.54
2368	1.184	-5.05319148936	-2.4	-1.06428571429	-1.54
2369	1.1845	-5.05319148936	1.95	-1.06428571429	-1.54
2370	1.185	-10.7893617021	3.4	1.84285714286	-4.46
2371	1.1855	-7.92127659574	1.95	0.389285714286	-10.3
2372	1.186	-3.61914893617	3.4	-5.425	-1.54
2373	1.1865	-7.92127659574	4.85	-9.78571428571	-3.0
