	Time	Channel 1	Channel 2	Channel 3	Channel 4
0	0.0	-7.915625	-10.7615384615	-8.26061643836	20.7482993197
1	0.0005	-10.76875	-6.44615384615	-6.85205479452	19.3397959184
2	0.001	-9.3421875	0.746153846154	-5.44349315068	23.5653061224
3	0.0015	-12.1953125	-0.692307692308	-6.85205479452	20.7482993197
4	0.002	-9.3421875	-10.7615384615	-4.03493150685	23.5653061224
5	0.0025	-10.76875	-9.32307692308	7.23356164384	17.931292517
6	0.003	-20.7546875	-3.56923076923	-6.85205479452	17.931292517
7	0.0035	-22.18125	0.746153846154	-9.66917808219	17.931292517
8	0.004	-15.0484375	0.746153846154	-8.26061643836	17.931292517
9	0.0045	-13.621875	2.18461538462	-4.03493150685	15.1142857143
10	0.005	-13.621875	0.746153846154	4.41643835616	15.1142857143
11	0.0055	-12.1953125	6.5	-4.03493150685	16.5227891156
12	0.006	-3.6359375	0.746153846154	-4.03493150685	13.7057823129
13	0.0065	-17.9015625	-0.692307692308	-2.62636986301	19.3397959184
14	0.007	-13.621875	0.746153846154	-4.03493150685	20.7482993197
15	0.0075	-12.1953125	-9.32307692308	-4.03493150685	12.2972789116
16	0.008	-12.1953125	-3.56923076923	-4.03493150685	13.7057823129
17	0.0085	3.496875	2.18461538462	-5.44349315068	12.2972789116
18	0.009	-15.0484375	-2.13076923077	-4.03493150685	3.8462585034
19	0.0095	-9.3421875	3.62307692308	-5.44349315068	5.25476190476
20	0.01	-12.1953125	-0.692307692308	-11.077739726	9.48027210884
21	0.0105	-12.1953125	18.0076923077	-6.85205479452	6.66326530612
22	0.011	-12.1953125	10.8153846154	-2.62636986301	10.8887755102
23	0.0115	-17.9015625	-2.13076923077	0.190753424658	8.07176870748
24	0.012	-12.1953125	0.746153846154	0.190753424658	5.25476190476
25	0.0125	-12.1953125	-2.13076923077	12.8678082192	6.66326530612
26	0.013	-12.1953125	-5.00769230769	0.190753424658	3.8462585034
27	0.0135	-7.915625	2.18461538462	0.190753424658	1.02925170068
28	0.014	3.496875	0.746153846154	3.00787671233	-4.60476190476
29	0.0145	-12.1953125	0.746153846154	0.190753424658	23.5653061224
30	0.015	-12.1953125	-0.692307692308	0.190753424658	8.07176870748
31	0.0155	-13.621875	-2.13076923077	0.190753424658	8.07176870748
32	0.016	-9.3421875	-10.7615384615	0.190753424658	5.25476190476
33	0.0165	-6.4890625	-7.88461538462	3.00787671233	8.07176870748
34	0.017	-12.1953125	0.746153846154	0.190753424658	-3.1962585034
35	0.0175	-10.76875	0.746153846154	-9.66917808219	2.43775510204
36	0.018	-10.76875	5.06153846154	-8.26061643836	8.07176870748
37	0.0185	-12.1953125	18.0076923077	-1.21780821918	6.66326530612
38	0.019	-9.3421875	0.746153846154	1.59931506849	5.25476190476
39	0.0195	-22.18125	-0.692307692308	1.59931506849	6.66326530612
40	0.02	-12.1953125	2.18461538462	1.59931506849	8.07176870748
41	0.0205	-12.1953125	0.746153846154	7.23356164384	5.25476190476
42	0.021	-10.76875	-5.00769230769	1.59931506849	8.07176870748
43	0.0215	-7.915625	0.746153846154	1.59931506849	3.8462585034
44	0.022	7.7765625	-0.692307692308	3.00787671233	1.02925170068
45	0.0225	-10.76875	0.746153846154	3.00787671233	-7.42176870748
46	0.023	-10.76875	0.746153846154	0.190753424658	2.43775510204
47	0.0235	-13.621875	-3.56923076923	-1.21780821918	-0.37925170068
48	0.024	-9.3421875	3.62307692308	3.00787671233	-1.78775510204
49	0.0245	-2.209375	2.18461538462	3.00787671233	-3.1962585034
50	0.025	-13.621875	-0.692307692308	-6.85205479452	-4.60476190476
51	0.0255	-13.621875	-2.13076923077	4.41643835616	-0.37925170068
52	0.026	-13.621875	-2.13076923077	4.41643835616	-3.1962585034
53	0.0265	-10.76875	-10.7615384615	4.41643835616	-3.1962585034
54	0.027	-2.209375	-2.13076923077	4.41643835616	-3.1962585034
55	0.0275	-12.1953125	-0.692307692308	7.23356164384	-0.37925170068
56	0.028	-13.621875	-0.692307692308	11.4592465753	-7.42176870748
57	0.0285	-16.475	-2.13076923077	5.825	-6.01326530612
58	0.029	-12.1953125	-5.00769230769	4.41643835616	-1.78775510204
59	0.0295	-7.915625	-3.56923076923	4.41643835616	-3.1962585034
60	0.03	-12.1953125	0.746153846154	1.59931506849	-14.4642857143
61	0.0305	-13.621875	0.746153846154	-11.077739726	-4.60476190476
62	0.031	-15.0484375	5.06153846154	-1.21780821918	-1.78775510204
63	0.0315	-12.1953125	-7.88461538462	1.59931506849	-3.1962585034
64	0.032	-10.76875	2.18461538462	3.00787671233	-4.60476190476
65	0.0325	4.9234375	2.18461538462	1.59931506849	-15.8727891156
66	0.033	-13.621875	-0.692307692308	18.5020547945	-7.42176870748
67	0.0335	-15.0484375	-2.13076923077	17.0934931507	-10.2387755102
68	0.034	-16.475	-7.88461538462	-2.62636986301	-11.6472789116
69	0.0345	-15.0484375	-9.32307692308	-2.62636986301	-11.6472789116
70	0.035	-0.7828125	-0.692307692308	-1.21780821918	-10.2387755102
71	0.0355	-15.0484375	-2.13076923077	-4.03493150685	-15.8727891156
72	0.036	-15.0484375	0.746153846154	7.23356164384	-13.0557823129
73	0.0365	-12.1953125	3.62307692308	-4.03493150685	-14.4642857143
74	0.037	-12.1953125	-5.00769230769	-4.03493150685	-14.4642857143
75	0.0375	-6.4890625	0.746153846154	-2.62636986301	-13.0557823129
76	0.038	-16.475	-0.692307692308	-1.21780821918	-7.42176870748
77	0.0385	-15.0484375	2.18461538462	-2.62636986301	-14.4642857143
78	0.039	-16.475	0.746153846154	-4.03493150685	-13.0557823129
79	0.0395	-15.0484375	2.18461538462	4.41643835616	-10.2387755102
80	0.04	-20.7546875	6.5	5.825	-13.0557823129
81	0.0405	-20.7546875	2.18461538462	7.23356164384	-3.1962585034
82	0.041	-12.1953125	3.62307692308	17.0934931507	-13.0557823129
83	0.0415	-12.1953125	-0.692307692308	5.825	-11.6472789116
84	0.042	-10.76875	-5.00769230769	7.23356164384	-17.281292517
85	0.0425	-23.6078125	0.746153846154	8.64212328767	-17.281292517
86	0.043	3.496875	0.746153846154	11.4592465753	-20.0982993197
87	0.0435	-13.621875	3.62307692308	1.59931506849	-25.7323129252
88	0.044	-10.76875	0.746153846154	0.190753424658	-14.4642857143
89	0.0445	-10.76875	10.8153846154	12.8678082192	-18.6897959184
90	0.045	-16.475	0.746153846154	5.825	-17.281292517
91	0.0455	-6.4890625	2.18461538462	8.64212328767	-18.6897959184
92	0.046	-12.1953125	0.746153846154	17.0934931507	-17.281292517
93	0.0465	-12.1953125	5.06153846154	7.23356164384	-18.6897959184
94	0.047	-12.1953125	9.37692307692	5.825	-18.6897959184
95	0.0475	-12.1953125	0.746153846154	7.23356164384	-18.6897959184
96	0.048	-16.475	-0.692307692308	4.41643835616	-14.4642857143
97	0.0485	-10.76875	0.746153846154	7.23356164384	-17.281292517
98	0.049	-10.76875	0.746153846154	-6.85205479452	-15.8727891156
99	0.0495	-12.1953125	3.62307692308	-6.85205479452	-15.8727891156
100	0.05	-13.621875	-0.692307692308	-1.21780821918	-17.281292517
101	0.0505	-16.475	-0.692307692308	4.41643835616	-17.281292517
102	0.051	-15.0484375	0.746153846154	3.00787671233	-13.0557823129
103	0.0515	-13.621875	2.18461538462	-1.21780821918	-18.6897959184
104	0.052	-12.1953125	2.18461538462	12.8678082192	-20.0982993197
105	0.0525	-15.0484375	6.5	5.825	-18.6897959184
106	0.053	-22.18125	-0.692307692308	5.825	-18.6897959184
107	0.0535	-12.1953125	0.746153846154	5.825	-20.0982993197
108	0.054	-13.621875	2.18461538462	19.9106164384	-21.5068027211
109	0.0545	-13.621875	5.06153846154	7.23356164384	-20.0982993197
110	0.055	-12.1953125	16.5692307692	7.23356164384	-20.0982993197
111	0.0555	-22.18125	0.746153846154	7.23356164384	-18.6897959184
112	0.056	-15.0484375	2.18461538462	7.23356164384	-15.8727891156
113	0.0565	-12.1953125	0.746153846154	14.276369863	-6.01326530612
114	0.057	-10.76875	-2.13076923077	24.1363013699	-18.6897959184
115	0.0575	-10.76875	-12.2	7.23356164384	-14.4642857143
116	0.058	-12.1953125	-9.32307692308	7.23356164384	-13.0557823129
117	0.0585	3.496875	0.746153846154	7.23356164384	-13.0557823129
118	0.059	-10.76875	2.18461538462	8.64212328767	-21.5068027211
119	0.0595	-9.3421875	0.746153846154	7.23356164384	-20.0982993197
120	0.06	-12.1953125	-2.13076923077	7.23356164384	-11.6472789116
121	0.0605	-10.76875	-5.00769230769	5.825	-13.0557823129
122	0.061	-3.6359375	0.746153846154	8.64212328767	-15.8727891156
123	0.0615	-9.3421875	2.18461538462	5.825	-14.4642857143
124	0.062	-10.76875	0.746153846154	18.5020547945	-13.0557823129
125	0.0625	-10.76875	-0.692307692308	7.23356164384	-13.0557823129
126	0.063	-9.3421875	-6.44615384615	7.23356164384	-11.6472789116
127	0.0635	-13.621875	0.746153846154	5.825	-10.2387755102
128	0.064	-16.475	2.18461538462	8.64212328767	-14.4642857143
129	0.0645	-12.1953125	-0.692307692308	18.5020547945	-17.281292517
130	0.065	-10.76875	-2.13076923077	5.825	-15.8727891156
131	0.0655	-9.3421875	15.1307692308	3.00787671233	-14.4642857143
132	0.066	-9.3421875	0.746153846154	3.00787671233	-17.281292517
133	0.0665	-10.76875	2.18461538462	4.41643835616	-15.8727891156
134	0.067	-12.1953125	0.746153846154	-2.62636986301	-14.4642857143
135	0.0675	-10.76875	0.746153846154	3.00787671233	-17.281292517
136	0.068	-10.76875	-9.32307692308	4.41643835616	-22.9153061224
137	0.0685	-7.915625	0.746153846154	5.825	-24.3238095238
138	0.069	9.203125	0.746153846154	4.41643835616	-25.7323129252
139	0.0695	-12.1953125	0.746153846154	4.41643835616	-32.774829932
140	0.07	-10.76875	0.746153846154	19.9106164384	-22.9153061224
141	0.0705	-13.621875	0.746153846154	0.190753424658	-27.1408163265
142	0.071	-10.76875	0.746153846154	1.59931506849	-24.3238095238
143	0.0715	-13.621875	-0.692307692308	1.59931506849	-27.1408163265
144	0.072	-19.328125	0.746153846154	4.41643835616	-18.6897959184
145	0.0725	-12.1953125	0.746153846154	7.23356164384	-21.5068027211
146	0.073	-12.1953125	-9.32307692308	4.41643835616	-18.6897959184
147	0.0735	-10.76875	-2.13076923077	7.23356164384	-22.9153061224
148	0.074	-7.915625	0.746153846154	5.825	-25.7323129252
149	0.0745	7.7765625	-0.692307692308	5.825	-22.9153061224
150	0.075	-10.76875	-0.692307692308	25.5448630137	-20.0982993197
151	0.0755	-10.76875	0.746153846154	22.727739726	-22.9153061224
152	0.076	-12.1953125	-5.00769230769	8.64212328767	-24.3238095238
153	0.0765	-12.1953125	-6.44615384615	5.825	-20.0982993197
154	0.077	3.496875	-0.692307692308	7.23356164384	-20.0982993197
155	0.0775	-10.76875	2.18461538462	7.23356164384	-28.5493197279
156	0.078	-10.76875	2.18461538462	11.4592465753	-31.3663265306
157	0.0785	-7.915625	-3.56923076923	11.4592465753	-21.5068027211
158	0.079	-7.915625	-6.44615384615	5.825	-20.0982993197
159	0.0795	-13.621875	-7.88461538462	7.23356164384	-24.3238095238
160	0.08	-12.1953125	2.18461538462	0.190753424658	-27.1408163265
161	0.0805	-12.1953125	2.18461538462	4.41643835616	-25.7323129252
162	0.081	-7.915625	2.18461538462	7.23356164384	-22.9153061224
163	0.0815	-9.3421875	6.5	4.41643835616	-22.9153061224
164	0.082	-16.475	-5.00769230769	5.825	-18.6897959184
165	0.0825	-6.4890625	0.746153846154	7.23356164384	-17.281292517
166	0.083	-9.3421875	2.18461538462	5.825	-18.6897959184
167	0.0835	-7.915625	0.746153846154	1.59931506849	-18.6897959184
168	0.084	-10.76875	9.37692307692	4.41643835616	-18.6897959184
169	0.0845	-7.915625	3.62307692308	5.825	-18.6897959184
170	0.085	-6.4890625	-0.692307692308	5.825	-20.0982993197
171	0.0855	-7.915625	-0.692307692308	4.41643835616	-29.9578231293
172	0.086	-10.76875	0.746153846154	24.1363013699	-18.6897959184
173	0.0865	-7.915625	-6.44615384615	5.825	-20.0982993197
174	0.087	-12.1953125	-7.88461538462	4.41643835616	-22.9153061224
175	0.0875	-23.6078125	-0.692307692308	4.41643835616	-18.6897959184
176	0.088	-9.3421875	0.746153846154	4.41643835616	-6.01326530612
177	0.0885	-7.915625	5.06153846154	19.9106164384	-22.9153061224
178	0.089	-7.915625	2.18461538462	7.23356164384	-20.0982993197
179	0.0895	-12.1953125	0.746153846154	4.41643835616	-17.281292517
180	0.09	-20.7546875	0.746153846154	5.825	-17.281292517
181	0.0905	-15.0484375	0.746153846154	5.825	-18.6897959184
182	0.091	-9.3421875	0.746153846154	3.00787671233	-14.4642857143
183	0.0915	-12.1953125	-7.88461538462	5.825	-20.0982993197
184	0.092	-9.3421875	-3.56923076923	7.23356164384	-21.5068027211
185	0.0925	-5.0625	-3.56923076923	5.825	-22.9153061224
186	0.093	-9.3421875	0.746153846154	3.00787671233	-35.5918367347
187	0.0935	-9.3421875	2.18461538462	-5.44349315068	-27.1408163265
188	0.094	-7.915625	0.746153846154	-1.21780821918	-20.0982993197
189	0.0945	-9.3421875	-9.32307692308	8.64212328767	-24.3238095238
190	0.095	-6.4890625	0.746153846154	7.23356164384	-24.3238095238
191	0.0955	-19.328125	0.746153846154	8.64212328767	-4.60476190476
192	0.096	-9.3421875	-2.13076923077	8.64212328767	-21.5068027211
193	0.0965	-7.915625	0.746153846154	0.190753424658	-18.6897959184
194	0.097	-7.915625	3.62307692308	-1.21780821918	-17.281292517
195	0.0975	-10.76875	0.746153846154	11.4592465753	-15.8727891156
196	0.098	-13.621875	0.746153846154	8.64212328767	-18.6897959184
197	0.0985	-17.9015625	0.746153846154	8.64212328767	-18.6897959184
198	0.099	-9.3421875	-0.692307692308	12.8678082192	-18.6897959184
199	0.0995	-9.3421875	-7.88461538462	5.825	-17.281292517
200	0.1	-10.76875	-0.692307692308	7.23356164384	-14.4642857143
201	0.1005	-10.76875	0.746153846154	4.41643835616	-15.8727891156
202	0.101	-16.475	-2.13076923077	1.59931506849	-21.5068027211
203	0.1015	-12.1953125	0.746153846154	14.276369863	-15.8727891156
204	0.102	-15.0484375	0.746153846154	14.276369863	-13.0557823129
205	0.1025	-12.1953125	-5.00769230769	4.41643835616	-14.4642857143
206	0.103	-10.76875	-6.44615384615	0.190753424658	-15.8727891156
207	0.1035	2.0703125	0.746153846154	4.41643835616	-24.3238095238
208	0.104	-13.621875	0.746153846154	4.41643835616	-25.7323129252
209	0.1045	-13.621875	-0.692307692308	-5.44349315068	-13.0557823129
210	0.105	-15.0484375	-9.32307692308	3.00787671233	-18.6897959184
211	0.1055	-13.621875	-10.7615384615	3.00787671233	-14.4642857143
212	0.106	-12.1953125	-0.692307692308	3.00787671233	-18.6897959184
213	0.1065	-13.621875	2.18461538462	4.41643835616	-25.7323129252
214	0.107	-13.621875	3.62307692308	15.6849315068	-18.6897959184
215	0.1075	-13.621875	2.18461538462	18.5020547945	-18.6897959184
216	0.108	-12.1953125	-6.44615384615	1.59931506849	-20.0982993197
217	0.1085	-12.1953125	0.746153846154	-1.21780821918	-20.0982993197
218	0.109	2.0703125	-0.692307692308	3.00787671233	-18.6897959184
219	0.1095	-15.0484375	-0.692307692308	3.00787671233	-24.3238095238
220	0.11	-13.621875	2.18461538462	-6.85205479452	-15.8727891156
221	0.1105	-15.0484375	5.06153846154	0.190753424658	-15.8727891156
222	0.111	-9.3421875	0.746153846154	4.41643835616	-17.281292517
223	0.1115	3.496875	0.746153846154	4.41643835616	-15.8727891156
224	0.112	-13.621875	0.746153846154	4.41643835616	-24.3238095238
225	0.1125	-15.0484375	-0.692307692308	-6.85205479452	-17.281292517
226	0.113	-12.1953125	6.5	4.41643835616	-11.6472789116
227	0.1135	-9.3421875	-6.44615384615	4.41643835616	-11.6472789116
228	0.114	-10.76875	2.18461538462	8.64212328767	-11.6472789116
229	0.1145	2.0703125	0.746153846154	5.825	-11.6472789116
230	0.115	-12.1953125	2.18461538462	25.5448630137	-11.6472789116
231	0.1155	-15.0484375	2.18461538462	24.1363013699	-11.6472789116
232	0.116	-15.0484375	-0.692307692308	8.64212328767	-10.2387755102
233	0.1165	-12.1953125	0.746153846154	8.64212328767	-13.0557823129
234	0.117	0.64375	0.746153846154	5.825	-14.4642857143
235	0.1175	-16.475	-0.692307692308	11.4592465753	-17.281292517
236	0.118	-15.0484375	2.18461538462	15.6849315068	-13.0557823129
237	0.1185	-16.475	6.5	5.825	-10.2387755102
238	0.119	-19.328125	5.06153846154	7.23356164384	-10.2387755102
239	0.1195	-25.034375	0.746153846154	4.41643835616	-8.83027210884
240	0.12	-17.9015625	-0.692307692308	3.00787671233	1.02925170068
241	0.1205	-16.475	0.746153846154	7.23356164384	-7.42176870748
242	0.121	-16.475	-3.56923076923	19.9106164384	-7.42176870748
243	0.1215	-15.0484375	-6.44615384615	-1.21780821918	-6.01326530612
244	0.122	-19.328125	-6.44615384615	1.59931506849	-6.01326530612
245	0.1225	-5.0625	0.746153846154	1.59931506849	-10.2387755102
246	0.123	-16.475	2.18461538462	14.276369863	-7.42176870748
247	0.1235	-16.475	0.746153846154	1.59931506849	-7.42176870748
248	0.124	-15.0484375	5.06153846154	4.41643835616	-8.83027210884
249	0.1245	-15.0484375	3.62307692308	4.41643835616	-6.01326530612
250	0.125	-19.328125	0.746153846154	4.41643835616	-7.42176870748
251	0.1255	-15.0484375	3.62307692308	4.41643835616	1.02925170068
252	0.126	-17.9015625	0.746153846154	14.276369863	-6.01326530612
253	0.1265	-13.621875	3.62307692308	7.23356164384	-6.01326530612
254	0.127	-16.475	-5.00769230769	4.41643835616	-7.42176870748
255	0.1275	-17.9015625	0.746153846154	5.825	-7.42176870748
256	0.128	-23.6078125	-3.56923076923	7.23356164384	6.66326530612
257	0.1285	-17.9015625	0.746153846154	1.59931506849	-3.1962585034
258	0.129	-19.328125	2.18461538462	-1.21780821918	-4.60476190476
259	0.1295	-16.475	9.37692307692	7.23356164384	-4.60476190476
260	0.13	-16.475	15.1307692308	8.64212328767	-8.83027210884
261	0.1305	-23.6078125	2.18461538462	7.23356164384	-7.42176870748
262	0.131	-19.328125	2.18461538462	4.41643835616	8.07176870748
263	0.1315	-17.9015625	-0.692307692308	11.4592465753	-7.42176870748
264	0.132	-17.9015625	16.5692307692	11.4592465753	-4.60476190476
265	0.1325	-17.9015625	0.746153846154	12.8678082192	-8.83027210884
266	0.133	0.64375	0.746153846154	12.8678082192	-8.83027210884
267	0.1335	-22.18125	2.18461538462	8.64212328767	-18.6897959184
268	0.134	-17.9015625	-0.692307692308	5.825	-8.83027210884
269	0.1345	-19.328125	-9.32307692308	14.276369863	-8.83027210884
270	0.135	-16.475	0.746153846154	14.276369863	-10.2387755102
271	0.1355	-5.0625	0.746153846154	14.276369863	-20.0982993197
272	0.136	-20.7546875	-2.13076923077	12.8678082192	-8.83027210884
273	0.1365	-16.475	0.746153846154	8.64212328767	-13.0557823129
274	0.137	-16.475	-0.692307692308	-4.03493150685	-11.6472789116
275	0.1375	-15.0484375	-9.32307692308	0.190753424658	-13.0557823129
276	0.138	-17.9015625	-0.692307692308	1.59931506849	-14.4642857143
277	0.1385	0.64375	0.746153846154	0.190753424658	-18.6897959184
278	0.139	-16.475	0.746153846154	-9.66917808219	-14.4642857143
279	0.1395	-16.475	-2.13076923077	0.190753424658	-13.0557823129
280	0.14	-15.0484375	-6.44615384615	4.41643835616	-13.0557823129
281	0.1405	-17.9015625	-0.692307692308	5.825	-10.2387755102
282	0.141	-25.034375	2.18461538462	1.59931506849	-10.2387755102
283	0.1415	-15.0484375	0.746153846154	5.825	-8.83027210884
284	0.142	-16.475	2.18461538462	4.41643835616	-17.281292517
285	0.1425	-15.0484375	-0.692307692308	11.4592465753	-8.83027210884
286	0.143	-15.0484375	-7.88461538462	7.23356164384	-10.2387755102
287	0.1435	-10.76875	-0.692307692308	8.64212328767	-11.6472789116
288	0.144	0.64375	-0.692307692308	11.4592465753	-13.0557823129
289	0.1445	-17.9015625	0.746153846154	-1.21780821918	-18.6897959184
290	0.145	-17.9015625	-0.692307692308	0.190753424658	-8.83027210884
291	0.1455	-15.0484375	-5.00769230769	7.23356164384	-8.83027210884
292	0.146	-20.7546875	0.746153846154	11.4592465753	-8.83027210884
293	0.1465	-6.4890625	0.746153846154	7.23356164384	-8.83027210884
294	0.147	-16.475	-0.692307692308	3.00787671233	-11.6472789116
295	0.1475	-17.9015625	-0.692307692308	0.190753424658	-13.0557823129
296	0.148	-16.475	15.1307692308	7.23356164384	-8.83027210884
297	0.1485	-16.475	15.1307692308	11.4592465753	-7.42176870748
298	0.149	-29.3140625	-2.13076923077	11.4592465753	-8.83027210884
299	0.1495	-15.0484375	0.746153846154	14.276369863	6.66326530612
300	0.15	-16.475	2.18461538462	26.9534246575	-7.42176870748
301	0.1505	-12.1953125	2.18461538462	12.8678082192	-8.83027210884
302	0.151	-16.475	-6.44615384615	11.4592465753	-4.60476190476
303	0.1515	-17.9015625	0.746153846154	15.6849315068	-6.01326530612
304	0.152	-17.9015625	-2.13076923077	11.4592465753	-7.42176870748
305	0.1525	-12.1953125	-0.692307692308	4.41643835616	-14.4642857143
306	0.153	-15.0484375	0.746153846154	15.6849315068	-10.2387755102
307	0.1535	-12.1953125	6.5	8.64212328767	-14.4642857143
308	0.154	-10.76875	-2.13076923077	8.64212328767	-13.0557823129
309	0.1545	-15.0484375	0.746153846154	11.4592465753	-22.9153061224
310	0.155	-13.621875	0.746153846154	8.64212328767	-18.6897959184
311	0.1555	-15.0484375	0.746153846154	-1.21780821918	-11.6472789116
312	0.156	-12.1953125	19.4461538462	11.4592465753	-13.0557823129
313	0.1565	-10.76875	2.18461538462	12.8678082192	-11.6472789116
314	0.157	4.9234375	0.746153846154	11.4592465753	-10.2387755102
315	0.1575	-15.0484375	0.746153846154	7.23356164384	-21.5068027211
316	0.158	-13.621875	-0.692307692308	3.00787671233	-10.2387755102
317	0.1585	-12.1953125	-10.7615384615	11.4592465753	-7.42176870748
318	0.159	-12.1953125	-10.7615384615	11.4592465753	-10.2387755102
319	0.1595	3.496875	-0.692307692308	12.8678082192	-11.6472789116
320	0.16	-16.475	0.746153846154	14.276369863	-8.83027210884
321	0.1605	-16.475	-0.692307692308	12.8678082192	-3.1962585034
322	0.161	-15.0484375	-7.88461538462	8.64212328767	-6.01326530612
323	0.1615	-12.1953125	-5.00769230769	7.23356164384	-6.01326530612
324	0.162	-9.3421875	-0.692307692308	11.4592465753	-8.83027210884
325	0.1625	-13.621875	0.746153846154	14.276369863	-7.42176870748
326	0.163	-16.475	-0.692307692308	5.825	1.02925170068
327	0.1635	-15.0484375	0.746153846154	21.3191780822	-8.83027210884
328	0.164	-12.1953125	15.1307692308	11.4592465753	-6.01326530612
329	0.1645	-15.0484375	-0.692307692308	7.23356164384	-1.78775510204
330	0.165	-22.18125	0.746153846154	11.4592465753	-3.1962585034
331	0.1655	-13.621875	0.746153846154	5.825	-8.83027210884
332	0.166	-12.1953125	0.746153846154	-1.21780821918	-1.78775510204
333	0.1665	-12.1953125	6.5	11.4592465753	-0.37925170068
334	0.167	-9.3421875	15.1307692308	12.8678082192	2.43775510204
335	0.1675	-6.4890625	-6.44615384615	11.4592465753	2.43775510204
336	0.168	-16.475	-0.692307692308	11.4592465753	5.25476190476
337	0.1685	-9.3421875	0.746153846154	12.8678082192	22.1568027211
338	0.169	-7.915625	-2.13076923077	14.276369863	5.25476190476
339	0.1695	-7.915625	-0.692307692308	12.8678082192	3.8462585034
340	0.17	-6.4890625	-6.44615384615	5.825	2.43775510204
341	0.1705	9.203125	0.746153846154	12.8678082192	-6.01326530612
342	0.171	-12.1953125	2.18461538462	12.8678082192	-1.78775510204
343	0.1715	-5.0625	0.746153846154	12.8678082192	1.02925170068
344	0.172	-7.915625	0.746153846154	7.23356164384	2.43775510204
345	0.1725	-7.915625	10.8153846154	11.4592465753	1.02925170068
346	0.173	-5.0625	3.62307692308	7.23356164384	2.43775510204
347	0.1735	-16.475	2.18461538462	11.4592465753	1.02925170068
348	0.174	-6.4890625	2.18461538462	12.8678082192	12.2972789116
349	0.1745	-3.6359375	2.18461538462	4.41643835616	-1.78775510204
350	0.175	-6.4890625	2.18461538462	8.64212328767	-4.60476190476
351	0.1755	-5.0625	-3.56923076923	5.825	-3.1962585034
352	0.176	-13.621875	2.18461538462	5.825	-3.1962585034
353	0.1765	-7.915625	2.18461538462	11.4592465753	-10.2387755102
354	0.177	-7.915625	2.18461538462	21.3191780822	-4.60476190476
355	0.1775	-10.76875	0.746153846154	25.5448630137	-4.60476190476
356	0.178	-5.0625	-10.7615384615	8.64212328767	-7.42176870748
357	0.1785	-0.7828125	-7.88461538462	11.4592465753	-7.42176870748
358	0.179	14.909375	0.746153846154	7.23356164384	-7.42176870748
359	0.1795	-5.0625	0.746153846154	12.8678082192	-13.0557823129
360	0.18	-6.4890625	2.18461538462	8.64212328767	-8.83027210884
361	0.1805	-5.0625	-9.32307692308	3.00787671233	-3.1962585034
362	0.181	-3.6359375	2.18461538462	4.41643835616	-6.01326530612
363	0.1815	3.496875	-2.13076923077	4.41643835616	-3.1962585034
364	0.182	-10.76875	0.746153846154	5.825	-7.42176870748
365	0.1825	-5.0625	2.18461538462	1.59931506849	8.07176870748
366	0.183	-6.4890625	2.18461538462	1.59931506849	-4.60476190476
367	0.1835	-5.0625	15.1307692308	1.59931506849	-1.78775510204
368	0.184	-6.4890625	20.8846153846	-1.21780821918	-3.1962585034
369	0.1845	-15.0484375	2.18461538462	-1.21780821918	-1.78775510204
370	0.185	-3.6359375	2.18461538462	-6.85205479452	-0.37925170068
371	0.1855	-5.0625	5.06153846154	-6.85205479452	-1.78775510204
372	0.186	-6.4890625	-5.00769230769	-1.21780821918	-4.60476190476
373	0.1865	-3.6359375	-6.44615384615	0.190753424658	-0.37925170068
374	0.187	3.496875	0.746153846154	0.190753424658	-3.1962585034
375	0.1875	-3.6359375	0.746153846154	0.190753424658	-7.42176870748
376	0.188	-0.7828125	0.746153846154	0.190753424658	-8.83027210884
377	0.1885	-2.209375	0.746153846154	-4.03493150685	-0.37925170068
378	0.189	-0.7828125	-9.32307692308	0.190753424658	-0.37925170068
379	0.1895	-0.7828125	-2.13076923077	1.59931506849	-0.37925170068
380	0.19	-5.0625	3.62307692308	3.00787671233	-8.83027210884
381	0.1905	-5.0625	0.746153846154	3.00787671233	-8.83027210884
382	0.191	-5.0625	0.746153846154	3.00787671233	-0.37925170068
383	0.1915	-3.6359375	0.746153846154	3.00787671233	-0.37925170068
384	0.192	-0.7828125	3.62307692308	4.41643835616	-0.37925170068
385	0.1925	13.4828125	0.746153846154	4.41643835616	-1.78775510204
386	0.193	-5.0625	0.746153846154	4.41643835616	-10.2387755102
387	0.1935	-5.0625	3.62307692308	0.190753424658	-1.78775510204
388	0.194	-5.0625	0.746153846154	0.190753424658	-1.78775510204
389	0.1945	-3.6359375	15.1307692308	5.825	-3.1962585034
390	0.195	-13.621875	-0.692307692308	7.23356164384	-0.37925170068
391	0.1955	-5.0625	-0.692307692308	7.23356164384	-8.83027210884
392	0.196	-5.0625	0.746153846154	14.276369863	-4.60476190476
393	0.1965	-3.6359375	9.37692307692	8.64212328767	-4.60476190476
394	0.197	-7.915625	-3.56923076923	8.64212328767	-3.1962585034
395	0.1975	-16.475	-3.56923076923	7.23356164384	-1.78775510204
396	0.198	-9.3421875	0.746153846154	11.4592465753	10.8887755102
397	0.1985	-5.0625	3.62307692308	0.190753424658	-3.1962585034
398	0.199	-6.4890625	6.5	7.23356164384	-1.78775510204
399	0.1995	-5.0625	-7.88461538462	5.825	-1.78775510204
400	0.2	-5.0625	-0.692307692308	5.825	-6.01326530612
401	0.2005	7.7765625	0.746153846154	4.41643835616	-10.2387755102
402	0.201	-3.6359375	2.18461538462	-1.21780821918	-15.8727891156
403	0.2015	-5.0625	0.746153846154	1.59931506849	-6.01326530612
404	0.202	-5.0625	-6.44615384615	8.64212328767	-7.42176870748
405	0.2025	-0.7828125	-0.692307692308	5.825	-11.6472789116
406	0.203	14.909375	-2.13076923077	7.23356164384	-10.2387755102
407	0.2035	-3.6359375	-0.692307692308	8.64212328767	-17.281292517
408	0.204	-5.0625	0.746153846154	21.3191780822	-10.2387755102
409	0.2045	-0.7828125	6.5	8.64212328767	-13.0557823129
410	0.205	0.64375	-2.13076923077	8.64212328767	-14.4642857143
411	0.2055	12.05625	0.746153846154	7.23356164384	-13.0557823129
412	0.206	-3.6359375	2.18461538462	8.64212328767	-7.42176870748
413	0.2065	-2.209375	2.18461538462	4.41643835616	-13.0557823129
414	0.207	-0.7828125	0.746153846154	8.64212328767	-13.0557823129
415	0.2075	-2.209375	-2.13076923077	7.23356164384	-17.281292517
416	0.208	-10.76875	0.746153846154	5.825	-14.4642857143
417	0.2085	-7.915625	-0.692307692308	8.64212328767	-4.60476190476
418	0.209	2.0703125	2.18461538462	25.5448630137	-21.5068027211
419	0.2095	0.64375	0.746153846154	8.64212328767	-18.6897959184
420	0.21	2.0703125	16.5692307692	7.23356164384	-17.281292517
421	0.2105	-7.915625	0.746153846154	7.23356164384	-18.6897959184
422	0.211	-7.915625	0.746153846154	11.4592465753	-24.3238095238
423	0.2115	-0.7828125	0.746153846154	7.23356164384	-11.6472789116
424	0.212	-2.209375	2.18461538462	15.6849315068	-21.5068027211
425	0.2125	-0.7828125	7.93846153846	11.4592465753	-18.6897959184
426	0.213	-2.209375	-0.692307692308	11.4592465753	-18.6897959184
427	0.2135	-7.915625	0.746153846154	8.64212328767	-14.4642857143
428	0.214	-0.7828125	-2.13076923077	-2.62636986301	-18.6897959184
429	0.2145	-5.0625	2.18461538462	-2.62636986301	-14.4642857143
430	0.215	-2.209375	18.0076923077	7.23356164384	-13.0557823129
431	0.2155	-3.6359375	-2.13076923077	4.41643835616	-11.6472789116
432	0.216	-15.0484375	0.746153846154	8.64212328767	-8.83027210884
433	0.2165	-2.209375	0.746153846154	4.41643835616	1.02925170068
434	0.217	-0.7828125	3.62307692308	8.64212328767	-11.6472789116
435	0.2175	-3.6359375	5.06153846154	4.41643835616	-8.83027210884
436	0.218	-3.6359375	-2.13076923077	5.825	-8.83027210884
437	0.2185	-13.621875	2.18461538462	5.825	-8.83027210884
438	0.219	-3.6359375	0.746153846154	7.23356164384	-8.83027210884
439	0.2195	-2.209375	-2.13076923077	4.41643835616	-0.37925170068
440	0.22	-2.209375	-0.692307692308	0.190753424658	-11.6472789116
441	0.2205	-2.209375	-2.13076923077	-1.21780821918	-7.42176870748
442	0.221	0.64375	9.37692307692	5.825	-10.2387755102
443	0.2215	3.496875	2.18461538462	5.825	-8.83027210884
444	0.222	-6.4890625	0.746153846154	8.64212328767	-13.0557823129
445	0.2225	-2.209375	0.746153846154	12.8678082192	-11.6472789116
446	0.223	-0.7828125	-7.88461538462	5.825	-11.6472789116
447	0.2235	2.0703125	0.746153846154	4.41643835616	-13.0557823129
448	0.224	14.909375	2.18461538462	4.41643835616	-10.2387755102
449	0.2245	-0.7828125	-0.692307692308	5.825	-20.0982993197
450	0.225	-0.7828125	2.18461538462	-2.62636986301	-10.2387755102
451	0.2255	0.64375	3.62307692308	8.64212328767	-13.0557823129
452	0.226	-0.7828125	2.18461538462	7.23356164384	-10.2387755102
453	0.2265	-0.7828125	0.746153846154	8.64212328767	-10.2387755102
454	0.227	-2.209375	0.746153846154	12.8678082192	-8.83027210884
455	0.2275	-3.6359375	-0.692307692308	8.64212328767	-15.8727891156
456	0.228	-0.7828125	-0.692307692308	18.5020547945	-14.4642857143
457	0.2285	-0.7828125	-7.88461538462	4.41643835616	-11.6472789116
458	0.229	4.9234375	-0.692307692308	7.23356164384	-13.0557823129
459	0.2295	16.3359375	0.746153846154	11.4592465753	-21.5068027211
460	0.23	-2.209375	0.746153846154	8.64212328767	-21.5068027211
461	0.2305	0.64375	-2.13076923077	8.64212328767	-11.6472789116
462	0.231	0.64375	-12.2	7.23356164384	-8.83027210884
463	0.2315	3.496875	0.746153846154	11.4592465753	-10.2387755102
464	0.232	20.615625	2.18461538462	7.23356164384	-14.4642857143
465	0.2325	-0.7828125	2.18461538462	11.4592465753	-24.3238095238
466	0.233	2.0703125	2.18461538462	-1.21780821918	-10.2387755102
467	0.2335	3.496875	3.62307692308	5.825	-10.2387755102
468	0.234	0.64375	2.18461538462	4.41643835616	-10.2387755102
469	0.2345	-6.4890625	3.62307692308	7.23356164384	-11.6472789116
470	0.235	-7.915625	0.746153846154	4.41643835616	-14.4642857143
471	0.2355	0.64375	5.06153846154	5.825	-0.37925170068
472	0.236	-0.7828125	-2.13076923077	3.00787671233	-17.281292517
473	0.2365	0.64375	9.37692307692	7.23356164384	-14.4642857143
474	0.237	0.64375	0.746153846154	5.825	-14.4642857143
475	0.2375	-6.4890625	0.746153846154	5.825	-14.4642857143
476	0.238	-0.7828125	0.746153846154	7.23356164384	1.02925170068
477	0.2385	-0.7828125	-0.692307692308	19.9106164384	-15.8727891156
478	0.239	0.64375	16.5692307692	5.825	-15.8727891156
479	0.2395	-3.6359375	3.62307692308	7.23356164384	-11.6472789116
480	0.24	-10.76875	0.746153846154	5.825	-11.6472789116
481	0.2405	-10.76875	2.18461538462	4.41643835616	3.8462585034
482	0.241	-0.7828125	2.18461538462	-2.62636986301	-13.0557823129
483	0.2415	0.64375	3.62307692308	-2.62636986301	-14.4642857143
484	0.242	-0.7828125	19.4461538462	5.825	-13.0557823129
485	0.2425	-10.76875	0.746153846154	7.23356164384	-10.2387755102
486	0.243	-7.915625	0.746153846154	5.825	-8.83027210884
487	0.2435	-0.7828125	0.746153846154	1.59931506849	1.02925170068
488	0.244	0.64375	3.62307692308	5.825	-11.6472789116
489	0.2445	0.64375	19.4461538462	3.00787671233	-11.6472789116
490	0.245	-0.7828125	2.18461538462	4.41643835616	-11.6472789116
491	0.2455	-10.76875	3.62307692308	4.41643835616	-7.42176870748
492	0.246	-2.209375	0.746153846154	11.4592465753	1.02925170068
493	0.2465	-0.7828125	3.62307692308	21.3191780822	-8.83027210884
494	0.247	-0.7828125	-12.2	5.825	-6.01326530612
495	0.2475	-2.209375	-2.13076923077	7.23356164384	-6.01326530612
496	0.248	-13.621875	-0.692307692308	8.64212328767	-1.78775510204
497	0.2485	0.64375	0.746153846154	15.6849315068	-8.83027210884
498	0.249	-3.6359375	2.18461538462	7.23356164384	-4.60476190476
499	0.2495	-0.7828125	2.18461538462	10.0506849315	-4.60476190476
500	0.25	-2.209375	0.746153846154	8.64212328767	-6.01326530612
501	0.2505	-12.1953125	0.746153846154	7.23356164384	-1.78775510204
502	0.251	-0.7828125	2.18461538462	8.64212328767	-3.1962585034
503	0.2515	2.0703125	0.746153846154	12.8678082192	-8.83027210884
504	0.252	2.0703125	0.746153846154	15.6849315068	-7.42176870748
505	0.2525	0.64375	13.6923076923	8.64212328767	-6.01326530612
506	0.253	-2.209375	-2.13076923077	7.23356164384	-6.01326530612
507	0.2535	0.64375	2.18461538462	5.825	-8.83027210884
508	0.254	0.64375	0.746153846154	4.41643835616	-13.0557823129
509	0.2545	-3.6359375	2.18461538462	11.4592465753	-14.4642857143
510	0.255	-0.7828125	-2.13076923077	8.64212328767	-11.6472789116
511	0.2555	0.64375	-5.00769230769	11.4592465753	-13.0557823129
512	0.256	0.64375	-7.88461538462	12.8678082192	-13.0557823129
513	0.2565	-0.7828125	2.18461538462	11.4592465753	-22.9153061224
514	0.257	-0.7828125	3.62307692308	4.41643835616	-21.5068027211
515	0.2575	0.64375	-7.88461538462	12.8678082192	-15.8727891156
516	0.258	0.64375	-9.32307692308	14.276369863	-14.4642857143
517	0.2585	2.0703125	0.746153846154	11.4592465753	-17.281292517
518	0.259	0.64375	-2.13076923077	11.4592465753	-25.7323129252
519	0.2595	-2.209375	-0.692307692308	12.8678082192	-22.9153061224
520	0.26	-2.209375	-0.692307692308	3.00787671233	-14.4642857143
521	0.2605	-3.6359375	-9.32307692308	14.276369863	-18.6897959184
522	0.261	2.0703125	0.746153846154	14.276369863	-18.6897959184
523	0.2615	-13.621875	0.746153846154	17.0934931507	-1.78775510204
524	0.262	-0.7828125	2.18461538462	15.6849315068	-1.78775510204
525	0.2625	-0.7828125	5.06153846154	28.3619863014	-14.4642857143
526	0.263	-2.209375	-10.7615384615	11.4592465753	-14.4642857143
527	0.2635	-5.0625	-5.00769230769	12.8678082192	-13.0557823129
528	0.264	-13.621875	0.746153846154	12.8678082192	-14.4642857143
529	0.2645	-5.0625	2.18461538462	17.0934931507	-8.83027210884
530	0.265	-2.209375	2.18461538462	7.23356164384	-4.60476190476
531	0.2655	0.64375	2.18461538462	18.5020547945	-13.0557823129
532	0.266	-2.209375	13.6923076923	11.4592465753	-14.4642857143
533	0.2665	-3.6359375	3.62307692308	17.0934931507	-11.6472789116
534	0.267	-5.0625	2.18461538462	12.8678082192	-13.0557823129
535	0.2675	-0.7828125	0.746153846154	14.276369863	-6.01326530612
536	0.268	-0.7828125	2.18461538462	21.3191780822	-15.8727891156
537	0.2685	-0.7828125	6.5	14.276369863	-18.6897959184
538	0.269	3.496875	0.746153846154	17.0934931507	-17.281292517
539	0.2695	14.909375	-2.13076923077	12.8678082192	-17.281292517
540	0.27	-3.6359375	0.746153846154	7.23356164384	-24.3238095238
541	0.2705	-3.6359375	2.18461538462	-2.62636986301	-13.0557823129
542	0.271	-3.6359375	-6.44615384615	4.41643835616	-13.0557823129
543	0.2715	-2.209375	2.18461538462	8.64212328767	-14.4642857143
544	0.272	0.64375	2.18461538462	11.4592465753	-11.6472789116
545	0.2725	-5.0625	2.18461538462	7.23356164384	-22.9153061224
546	0.273	-0.7828125	0.746153846154	-1.21780821918	-14.4642857143
547	0.2735	0.64375	6.5	5.825	-11.6472789116
548	0.274	0.64375	20.8846153846	8.64212328767	-13.0557823129
549	0.2745	3.496875	0.746153846154	14.276369863	-10.2387755102
550	0.275	-2.209375	0.746153846154	7.23356164384	-14.4642857143
551	0.2755	0.64375	0.746153846154	-1.21780821918	-8.83027210884
552	0.276	0.64375	0.746153846154	8.64212328767	-11.6472789116
553	0.2765	-0.7828125	-7.88461538462	8.64212328767	-11.6472789116
554	0.277	7.7765625	-2.13076923077	5.825	-13.0557823129
555	0.2775	17.7625	-0.692307692308	7.23356164384	-13.0557823129
556	0.278	-3.6359375	-2.13076923077	7.23356164384	-24.3238095238
557	0.2785	-0.7828125	0.746153846154	-1.21780821918	-13.0557823129
558	0.279	0.64375	3.62307692308	7.23356164384	-15.8727891156
559	0.2795	3.496875	3.62307692308	8.64212328767	-18.6897959184
560	0.28	-7.915625	0.746153846154	8.64212328767	-15.8727891156
561	0.2805	-7.915625	0.746153846154	15.6849315068	-15.8727891156
562	0.281	2.0703125	0.746153846154	14.276369863	-14.4642857143
563	0.2815	2.0703125	0.746153846154	26.9534246575	-15.8727891156
564	0.282	0.64375	19.4461538462	11.4592465753	-14.4642857143
565	0.2825	-0.7828125	0.746153846154	12.8678082192	-13.0557823129
566	0.283	-5.0625	2.18461538462	8.64212328767	2.43775510204
567	0.2835	-0.7828125	3.62307692308	7.23356164384	1.02925170068
568	0.284	0.64375	-0.692307692308	-1.21780821918	-14.4642857143
569	0.2845	0.64375	3.62307692308	3.00787671233	-14.4642857143
570	0.285	0.64375	0.746153846154	5.825	-14.4642857143
571	0.2855	-7.915625	0.746153846154	8.64212328767	-15.8727891156
572	0.286	-5.0625	2.18461538462	11.4592465753	-14.4642857143
573	0.2865	0.64375	0.746153846154	7.23356164384	-14.4642857143
574	0.287	2.0703125	0.746153846154	21.3191780822	-14.4642857143
575	0.2875	2.0703125	-5.00769230769	5.825	-13.0557823129
576	0.288	-0.7828125	-6.44615384615	1.59931506849	-14.4642857143
577	0.2885	19.1890625	2.18461538462	1.59931506849	-18.6897959184
578	0.289	2.0703125	0.746153846154	0.190753424658	-13.0557823129
579	0.2895	0.64375	-2.13076923077	19.9106164384	-11.6472789116
580	0.29	-0.7828125	-7.88461538462	3.00787671233	-11.6472789116
581	0.2905	-0.7828125	-7.88461538462	4.41643835616	-6.01326530612
582	0.291	9.203125	0.746153846154	3.00787671233	-13.0557823129
583	0.2915	0.64375	0.746153846154	4.41643835616	8.07176870748
584	0.292	2.0703125	-0.692307692308	4.41643835616	-7.42176870748
585	0.2925	3.496875	3.62307692308	3.00787671233	-6.01326530612
586	0.293	-0.7828125	-3.56923076923	4.41643835616	-6.01326530612
587	0.2935	-10.76875	0.746153846154	4.41643835616	-4.60476190476
588	0.294	-3.6359375	0.746153846154	5.825	-7.42176870748
589	0.2945	0.64375	2.18461538462	11.4592465753	-11.6472789116
590	0.295	-2.209375	-0.692307692308	18.5020547945	-7.42176870748
591	0.2955	-3.6359375	15.1307692308	7.23356164384	-8.83027210884
592	0.296	-13.621875	0.746153846154	11.4592465753	-7.42176870748
593	0.2965	-3.6359375	2.18461538462	11.4592465753	-8.83027210884
594	0.297	0.64375	2.18461538462	3.00787671233	-18.6897959184
595	0.2975	2.0703125	0.746153846154	5.825	-7.42176870748
596	0.298	3.496875	-0.692307692308	5.825	-8.83027210884
597	0.2985	0.64375	-6.44615384615	7.23356164384	-8.83027210884
598	0.299	-2.209375	-7.88461538462	11.4592465753	-11.6472789116
599	0.2995	-2.209375	0.746153846154	11.4592465753	-17.281292517
600	0.3	-2.209375	2.18461538462	11.4592465753	-18.6897959184
601	0.3005	-2.209375	-5.00769230769	7.23356164384	-11.6472789116
602	0.301	-0.7828125	-5.00769230769	14.276369863	-11.6472789116
603	0.3015	-9.3421875	-0.692307692308	14.276369863	-8.83027210884
604	0.302	0.64375	2.18461538462	15.6849315068	-10.2387755102
605	0.3025	-2.209375	0.746153846154	18.5020547945	-15.8727891156
606	0.303	-0.7828125	2.18461538462	7.23356164384	-8.83027210884
607	0.3035	-0.7828125	9.37692307692	11.4592465753	-10.2387755102
608	0.304	-7.915625	0.746153846154	11.4592465753	-10.2387755102
609	0.3045	3.496875	0.746153846154	8.64212328767	-10.2387755102
610	0.305	2.0703125	-0.692307692308	15.6849315068	-15.8727891156
611	0.3055	0.64375	-0.692307692308	4.41643835616	-7.42176870748
612	0.306	-0.7828125	-2.13076923077	18.5020547945	-4.60476190476
613	0.3065	2.0703125	-10.7615384615	19.9106164384	-4.60476190476
614	0.307	20.615625	-0.692307692308	18.5020547945	-18.6897959184
615	0.3075	0.64375	-0.692307692308	19.9106164384	-14.4642857143
616	0.308	0.64375	0.746153846154	32.5876712329	-6.01326530612
617	0.3085	2.0703125	2.18461538462	33.9962328767	-3.1962585034
618	0.309	4.9234375	-6.44615384615	21.3191780822	-6.01326530612
619	0.3095	4.9234375	0.746153846154	18.5020547945	-8.83027210884
620	0.31	0.64375	0.746153846154	19.9106164384	-18.6897959184
621	0.3105	2.0703125	0.746153846154	32.5876712329	-13.0557823129
622	0.311	2.0703125	2.18461538462	33.9962328767	-8.83027210884
623	0.3115	0.64375	-10.7615384615	17.0934931507	-13.0557823129
624	0.312	4.9234375	-6.44615384615	17.0934931507	-11.6472789116
625	0.3125	22.0421875	0.746153846154	19.9106164384	-24.3238095238
626	0.313	2.0703125	0.746153846154	22.727739726	-10.2387755102
627	0.3135	3.496875	2.18461538462	33.9962328767	-11.6472789116
628	0.314	2.0703125	-10.7615384615	17.0934931507	-11.6472789116
629	0.3145	2.0703125	-0.692307692308	19.9106164384	-8.83027210884
630	0.315	-6.4890625	5.06153846154	18.5020547945	-7.42176870748
631	0.3155	-0.7828125	2.18461538462	18.5020547945	-13.0557823129
632	0.316	3.496875	0.746153846154	15.6849315068	-17.281292517
633	0.3165	6.35	0.746153846154	21.3191780822	-13.0557823129
634	0.317	9.203125	-9.32307692308	19.9106164384	-15.8727891156
635	0.3175	-9.3421875	0.746153846154	18.5020547945	-14.4642857143
636	0.318	-5.0625	0.746153846154	18.5020547945	-15.8727891156
637	0.3185	3.496875	0.746153846154	18.5020547945	-11.6472789116
638	0.319	2.0703125	-0.692307692308	25.5448630137	-20.0982993197
639	0.3195	4.9234375	-9.32307692308	11.4592465753	-22.9153061224
640	0.32	3.496875	-3.56923076923	15.6849315068	-25.7323129252
641	0.3205	7.7765625	0.746153846154	15.6849315068	-22.9153061224
642	0.321	4.9234375	0.746153846154	15.6849315068	-24.3238095238
643	0.3215	3.496875	2.18461538462	11.4592465753	-34.1833333333
644	0.322	4.9234375	-3.56923076923	4.41643835616	-25.7323129252
645	0.3225	3.496875	-5.00769230769	14.276369863	-25.7323129252
646	0.323	2.0703125	3.62307692308	14.276369863	-25.7323129252
647	0.3235	14.909375	0.746153846154	15.6849315068	-28.5493197279
648	0.324	2.0703125	3.62307692308	25.5448630137	-25.7323129252
649	0.3245	2.0703125	2.18461538462	26.9534246575	-25.7323129252
650	0.325	2.0703125	-5.00769230769	12.8678082192	-24.3238095238
651	0.3255	0.64375	0.746153846154	14.276369863	-24.3238095238
652	0.326	17.7625	0.746153846154	17.0934931507	-27.1408163265
653	0.3265	3.496875	5.06153846154	5.825	-29.9578231293
654	0.327	4.9234375	0.746153846154	8.64212328767	-25.7323129252
655	0.3275	4.9234375	-9.32307692308	12.8678082192	-25.7323129252
656	0.328	9.203125	2.18461538462	17.0934931507	-28.5493197279
657	0.3285	22.0421875	-0.692307692308	18.5020547945	-28.5493197279
658	0.329	0.64375	-2.13076923077	17.0934931507	-41.2258503401
659	0.3295	0.64375	0.746153846154	8.64212328767	-31.3663265306
660	0.33	0.64375	0.746153846154	11.4592465753	-29.9578231293
661	0.3305	4.9234375	16.5692307692	21.3191780822	-31.3663265306
662	0.331	0.64375	-0.692307692308	24.1363013699	-29.9578231293
663	0.3315	-2.209375	2.18461538462	21.3191780822	-24.3238095238
664	0.332	2.0703125	0.746153846154	22.727739726	-20.0982993197
665	0.3325	-0.7828125	-5.00769230769	21.3191780822	-31.3663265306
666	0.333	2.0703125	10.8153846154	22.727739726	-31.3663265306
667	0.3335	-2.209375	22.3230769231	25.5448630137	-29.9578231293
668	0.334	-7.915625	2.18461538462	25.5448630137	-24.3238095238
669	0.3345	-0.7828125	2.18461538462	15.6849315068	-25.7323129252
670	0.335	0.64375	-0.692307692308	14.276369863	-24.3238095238
671	0.3355	-0.7828125	20.8846153846	24.1363013699	-22.9153061224
672	0.336	-3.6359375	0.746153846154	26.9534246575	-20.0982993197
673	0.3365	-12.1953125	-2.13076923077	21.3191780822	-20.0982993197
674	0.337	0.64375	0.746153846154	28.3619863014	-14.4642857143
675	0.3375	2.0703125	0.746153846154	26.9534246575	-18.6897959184
676	0.338	-0.7828125	0.746153846154	36.8133561644	-20.0982993197
677	0.3385	-0.7828125	-5.00769230769	29.7705479452	-21.5068027211
678	0.339	-2.209375	-9.32307692308	28.3619863014	-20.0982993197
679	0.3395	14.909375	0.746153846154	31.179109589	-28.5493197279
680	0.34	-2.209375	2.18461538462	29.7705479452	-27.1408163265
681	0.3405	0.64375	-2.13076923077	26.9534246575	-17.281292517
682	0.341	-0.7828125	-7.88461538462	24.1363013699	-17.281292517
683	0.3415	3.496875	-5.00769230769	28.3619863014	-18.6897959184
684	0.342	19.1890625	0.746153846154	26.9534246575	-25.7323129252
685	0.3425	-0.7828125	0.746153846154	28.3619863014	-28.5493197279
686	0.343	-0.7828125	-0.692307692308	18.5020547945	-15.8727891156
687	0.3435	-0.7828125	-9.32307692308	21.3191780822	-15.8727891156
688	0.344	0.64375	0.746153846154	22.727739726	-15.8727891156
689	0.3445	17.7625	2.18461538462	22.727739726	-27.1408163265
690	0.345	-3.6359375	2.18461538462	25.5448630137	-17.281292517
691	0.3455	-2.209375	0.746153846154	25.5448630137	-15.8727891156
692	0.346	-3.6359375	-6.44615384615	24.1363013699	-22.9153061224
693	0.3465	-3.6359375	-5.00769230769	24.1363013699	-21.5068027211
694	0.347	-2.209375	2.18461538462	26.9534246575	-20.0982993197
695	0.3475	-9.3421875	-0.692307692308	31.179109589	-8.83027210884
696	0.348	0.64375	0.746153846154	28.3619863014	-20.0982993197
697	0.3485	-0.7828125	3.62307692308	31.179109589	-20.0982993197
698	0.349	-0.7828125	-7.88461538462	43.8561643836	-21.5068027211
699	0.3495	3.496875	-6.44615384615	49.4904109589	-20.0982993197
700	0.35	19.1890625	0.746153846154	55.1246575342	-25.7323129252
701	0.3505	0.64375	2.18461538462	59.3503424658	-10.2387755102
702	0.351	0.64375	-2.13076923077	66.3931506849	-20.0982993197
703	0.3515	2.0703125	-7.88461538462	59.3503424658	-18.6897959184
704	0.352	-2.209375	-0.692307692308	60.7589041096	-18.6897959184
705	0.3525	12.05625	2.18461538462	63.5760273973	-14.4642857143
706	0.353	-2.209375	3.62307692308	64.9845890411	-24.3238095238
707	0.3535	-2.209375	0.746153846154	59.3503424658	-24.3238095238
708	0.354	-3.6359375	2.18461538462	59.3503424658	-15.8727891156
709	0.3545	0.64375	-6.44615384615	69.2102739726	-14.4642857143
710	0.355	0.64375	-0.692307692308	72.0273972603	-13.0557823129
711	0.3555	10.6296875	0.746153846154	73.4359589041	-10.2387755102
712	0.356	-3.6359375	0.746153846154	77.6616438356	-17.281292517
713	0.3565	-2.209375	0.746153846154	73.4359589041	-8.83027210884
714	0.357	-2.209375	-6.44615384615	83.295890411	-11.6472789116
715	0.3575	-0.7828125	2.18461538462	87.5215753425	-10.2387755102
716	0.358	16.3359375	2.18461538462	93.1558219178	-20.0982993197
717	0.3585	-2.209375	-0.692307692308	101.607191781	-14.4642857143
718	0.359	-6.4890625	-2.13076923077	104.424315068	-7.42176870748
719	0.3595	-3.6359375	-7.88461538462	111.467123288	-3.1962585034
720	0.36	-6.4890625	0.746153846154	118.509931507	-0.37925170068
721	0.3605	-15.0484375	0.746153846154	125.552739726	-0.37925170068
722	0.361	-2.209375	2.18461538462	126.96130137	-8.83027210884
723	0.3615	-5.0625	2.18461538462	139.638356164	-8.83027210884
724	0.362	-5.0625	2.18461538462	145.27260274	-1.78775510204
725	0.3625	-2.209375	-5.00769230769	152.315410959	-1.78775510204
726	0.363	0.64375	-7.88461538462	159.358219178	-3.1962585034
727	0.3635	0.64375	0.746153846154	170.626712329	-6.01326530612
728	0.364	2.0703125	0.746153846154	176.260958904	-1.78775510204
729	0.3645	-0.7828125	0.746153846154	183.303767123	-3.1962585034
730	0.365	-0.7828125	-2.13076923077	191.755136986	-3.1962585034
731	0.3655	3.496875	0.746153846154	205.840753425	-4.60476190476
732	0.366	12.05625	0.746153846154	215.700684932	-14.4642857143
733	0.3665	0.64375	-2.13076923077	221.334931507	-8.83027210884
734	0.367	-2.209375	-0.692307692308	236.829109589	-8.83027210884
735	0.3675	0.64375	-6.44615384615	228.377739726	-13.0557823129
736	0.368	-2.209375	0.746153846154	234.011986301	-10.2387755102
737	0.3685	-3.6359375	3.62307692308	236.829109589	-13.0557823129
738	0.369	-3.6359375	0.746153846154	239.646232877	-4.60476190476
739	0.3695	-0.7828125	2.18461538462	242.463356164	-14.4642857143
740	0.37	-5.0625	0.746153846154	239.646232877	-13.0557823129
741	0.3705	0.64375	0.746153846154	246.689041096	-13.0557823129
742	0.371	2.0703125	0.746153846154	242.463356164	-13.0557823129
743	0.3715	-5.0625	0.746153846154	248.09760274	-13.0557823129
744	0.372	-3.6359375	0.746153846154	248.09760274	-18.6897959184
745	0.3725	-6.4890625	0.746153846154	250.914726027	-10.2387755102
746	0.373	-0.7828125	-2.13076923077	253.731849315	-8.83027210884
747	0.3735	-3.6359375	0.746153846154	260.774657534	-7.42176870748
748	0.374	12.05625	-0.692307692308	266.40890411	-11.6472789116
749	0.3745	-6.4890625	0.746153846154	272.043150685	5.25476190476
750	0.375	-7.915625	3.62307692308	270.634589041	-11.6472789116
751	0.3755	-3.6359375	0.746153846154	276.268835616	-11.6472789116
752	0.376	-5.0625	2.18461538462	286.128767123	-13.0557823129
753	0.3765	-15.0484375	0.746153846154	290.354452055	-14.4642857143
754	0.377	-12.1953125	3.62307692308	287.537328767	-0.37925170068
755	0.3775	-3.6359375	0.746153846154	280.494520548	-13.0557823129
756	0.378	-2.209375	2.18461538462	281.903082192	-13.0557823129
757	0.3785	-2.209375	19.4461538462	287.537328767	-11.6472789116
758	0.379	-17.9015625	-2.13076923077	284.720205479	-14.4642857143
759	0.3795	-6.4890625	0.746153846154	284.720205479	-14.4642857143
760	0.38	-6.4890625	-0.692307692308	276.268835616	-4.60476190476
761	0.3805	-6.4890625	5.06153846154	287.537328767	-13.0557823129
762	0.381	-6.4890625	10.8153846154	280.494520548	-10.2387755102
763	0.3815	-7.915625	2.18461538462	281.903082192	-11.6472789116
764	0.382	-16.475	3.62307692308	286.128767123	-10.2387755102
765	0.3825	-5.0625	3.62307692308	270.634589041	-14.4642857143
766	0.383	-6.4890625	3.62307692308	274.860273973	-17.281292517
767	0.3835	-6.4890625	6.5	284.720205479	-14.4642857143
768	0.384	-7.915625	-2.13076923077	281.903082192	-17.281292517
769	0.3845	-12.1953125	2.18461538462	283.311643836	-13.0557823129
770	0.385	-12.1953125	0.746153846154	283.311643836	-11.6472789116
771	0.3855	-3.6359375	0.746153846154	283.311643836	-15.8727891156
772	0.386	-6.4890625	-0.692307692308	291.763013699	-15.8727891156
773	0.3865	-9.3421875	15.1307692308	276.268835616	-15.8727891156
774	0.387	-16.475	2.18461538462	276.268835616	-13.0557823129
775	0.3875	2.0703125	0.746153846154	277.67739726	-15.8727891156
776	0.388	-7.915625	3.62307692308	279.085958904	-22.9153061224
777	0.3885	-5.0625	-0.692307692308	270.634589041	-11.6472789116
778	0.389	-9.3421875	-10.7615384615	277.67739726	-10.2387755102
779	0.3895	-6.4890625	-10.7615384615	279.085958904	-10.2387755102
780	0.39	10.6296875	2.18461538462	280.494520548	-22.9153061224
781	0.3905	-7.915625	-0.692307692308	280.494520548	-20.0982993197
782	0.391	-5.0625	-0.692307692308	290.354452055	-8.83027210884
783	0.3915	-6.4890625	0.746153846154	273.451712329	-7.42176870748
784	0.392	-2.209375	-5.00769230769	277.67739726	-8.83027210884
785	0.3925	-2.209375	-0.692307692308	274.860273973	-11.6472789116
786	0.393	-6.4890625	2.18461538462	270.634589041	-20.0982993197
787	0.3935	-7.915625	0.746153846154	263.591780822	-8.83027210884
788	0.394	-5.0625	0.746153846154	270.634589041	-14.4642857143
789	0.3945	-5.0625	9.37692307692	270.634589041	-15.8727891156
790	0.395	-3.6359375	2.18461538462	269.226027397	-14.4642857143
791	0.3955	-5.0625	0.746153846154	269.226027397	-20.0982993197
792	0.396	-16.475	0.746153846154	266.40890411	-15.8727891156
793	0.3965	-7.915625	2.18461538462	277.67739726	-14.4642857143
794	0.397	-7.915625	-2.13076923077	263.591780822	-13.0557823129
795	0.3975	-9.3421875	-3.56923076923	260.774657534	-17.281292517
796	0.398	-13.621875	0.746153846154	262.183219178	-17.281292517
797	0.3985	-16.475	2.18461538462	259.36609589	-3.1962585034
798	0.399	-6.4890625	-0.692307692308	252.323287671	-15.8727891156
799	0.3995	-7.915625	3.62307692308	253.731849315	-17.281292517
800	0.4	-9.3421875	18.0076923077	260.774657534	-17.281292517
801	0.4005	-3.6359375	0.746153846154	259.36609589	-15.8727891156
802	0.401	-16.475	2.18461538462	257.957534247	-14.4642857143
803	0.4015	-6.4890625	3.62307692308	249.506164384	-18.6897959184
804	0.402	-7.915625	2.18461538462	250.914726027	-18.6897959184
805	0.4025	-6.4890625	0.746153846154	253.731849315	-13.0557823129
806	0.403	-6.4890625	-6.44615384615	249.506164384	-17.281292517
807	0.4035	-22.18125	2.18461538462	248.09760274	-13.0557823129
808	0.404	-6.4890625	2.18461538462	249.506164384	-4.60476190476
809	0.4045	-6.4890625	5.06153846154	257.957534247	-18.6897959184
810	0.405	-7.915625	2.18461538462	245.280479452	-17.281292517
811	0.4055	-7.915625	2.18461538462	243.871917808	-13.0557823129
812	0.406	-13.621875	-2.13076923077	242.463356164	-14.4642857143
813	0.4065	-16.475	2.18461538462	243.871917808	-1.78775510204
814	0.407	-10.76875	-0.692307692308	234.011986301	-14.4642857143
815	0.4075	-7.915625	0.746153846154	231.194863014	-15.8727891156
816	0.408	-7.915625	20.8846153846	245.280479452	-13.0557823129
817	0.4085	-10.76875	18.0076923077	249.506164384	-13.0557823129
818	0.409	-17.9015625	0.746153846154	260.774657534	-13.0557823129
819	0.4095	-6.4890625	0.746153846154	253.731849315	-17.281292517
820	0.41	-6.4890625	2.18461538462	266.40890411	-17.281292517
821	0.4105	-7.915625	-9.32307692308	277.67739726	-14.4642857143
822	0.411	-2.209375	0.746153846154	281.903082192	-14.4642857143
823	0.4115	6.35	-2.13076923077	288.945890411	-29.9578231293
824	0.412	-6.4890625	0.746153846154	288.945890411	-27.1408163265
825	0.4125	-3.6359375	0.746153846154	284.720205479	-18.6897959184
826	0.413	-5.0625	-9.32307692308	291.763013699	-20.0982993197
827	0.4135	-3.6359375	-9.32307692308	293.171575342	-22.9153061224
828	0.414	16.3359375	0.746153846154	293.171575342	-22.9153061224
829	0.4145	-7.915625	0.746153846154	294.580136986	-29.9578231293
830	0.415	-5.0625	0.746153846154	294.580136986	-31.3663265306
831	0.4155	-7.915625	-10.7615384615	290.354452055	-20.0982993197
832	0.416	-6.4890625	-12.2	288.945890411	-17.281292517
833	0.4165	-0.7828125	0.746153846154	291.763013699	-14.4642857143
834	0.417	-13.621875	-0.692307692308	291.763013699	-10.2387755102
835	0.4175	-5.0625	0.746153846154	297.397260274	-14.4642857143
836	0.418	-6.4890625	0.746153846154	294.580136986	-11.6472789116
837	0.4185	-5.0625	-10.7615384615	294.580136986	-8.83027210884
838	0.419	0.64375	0.746153846154	303.031506849	-13.0557823129
839	0.4195	2.0703125	-0.692307692308	308.665753425	-15.8727891156
840	0.42	-5.0625	0.746153846154	314.3	-11.6472789116
841	0.4205	-5.0625	2.18461538462	311.482876712	-11.6472789116
842	0.421	-3.6359375	-6.44615384615	303.031506849	-10.2387755102
843	0.4215	-6.4890625	6.5	308.665753425	-7.42176870748
844	0.422	0.64375	0.746153846154	308.665753425	-3.1962585034
845	0.4225	-5.0625	2.18461538462	311.482876712	-6.01326530612
846	0.423	-5.0625	0.746153846154	304.440068493	-11.6472789116
847	0.4235	-5.0625	0.746153846154	300.214383562	-1.78775510204
848	0.424	-6.4890625	-6.44615384615	304.440068493	-1.78775510204
849	0.4245	-6.4890625	3.62307692308	304.440068493	-1.78775510204
850	0.425	-13.621875	3.62307692308	300.214383562	1.02925170068
851	0.4255	-3.6359375	0.746153846154	304.440068493	-8.83027210884
852	0.426	-5.0625	0.746153846154	297.397260274	-0.37925170068
853	0.4265	-3.6359375	-10.7615384615	291.763013699	3.8462585034
854	0.427	-2.209375	-7.88461538462	290.354452055	2.43775510204
855	0.4275	16.3359375	0.746153846154	290.354452055	-8.83027210884
856	0.428	-3.6359375	0.746153846154	291.763013699	19.3397959184
857	0.4285	-5.0625	2.18461538462	301.622945205	5.25476190476
858	0.429	-6.4890625	-7.88461538462	287.537328767	5.25476190476
859	0.4295	-0.7828125	0.746153846154	286.128767123	3.8462585034
860	0.43	7.7765625	0.746153846154	284.720205479	5.25476190476
861	0.4305	-6.4890625	-0.692307692308	286.128767123	12.2972789116
862	0.431	-6.4890625	-0.692307692308	279.085958904	13.7057823129
863	0.4315	-7.915625	-7.88461538462	279.085958904	13.7057823129
864	0.432	-10.76875	-2.13076923077	277.67739726	15.1142857143
865	0.4325	-22.18125	0.746153846154	279.085958904	16.5227891156
866	0.433	-10.76875	2.18461538462	280.494520548	24.9738095238
867	0.4335	-6.4890625	6.5	291.763013699	6.66326530612
868	0.434	-6.4890625	6.5	272.043150685	8.07176870748
869	0.4345	-6.4890625	3.62307692308	270.634589041	6.66326530612
870	0.435	-16.475	-2.13076923077	266.40890411	12.2972789116
871	0.4355	-17.9015625	0.746153846154	262.183219178	24.9738095238
872	0.436	-10.76875	2.18461538462	252.323287671	8.07176870748
873	0.4365	-9.3421875	3.62307692308	253.731849315	10.8887755102
874	0.437	-12.1953125	19.4461538462	259.36609589	10.8887755102
875	0.4375	-22.18125	-3.56923076923	259.36609589	12.2972789116
876	0.438	-16.475	0.746153846154	257.957534247	24.9738095238
877	0.4385	-12.1953125	-0.692307692308	255.140410959	23.5653061224
878	0.439	-13.621875	6.5	255.140410959	3.8462585034
879	0.4395	-10.76875	19.4461538462	250.914726027	3.8462585034
880	0.44	-22.18125	0.746153846154	249.506164384	5.25476190476
881	0.4405	-20.7546875	-0.692307692308	250.914726027	8.07176870748
882	0.441	-13.621875	0.746153846154	252.323287671	22.1568027211
883	0.4415	-12.1953125	-0.692307692308	262.183219178	3.8462585034
884	0.442	-10.76875	13.6923076923	241.054794521	3.8462585034
885	0.4425	-10.76875	0.746153846154	243.871917808	2.43775510204
886	0.443	-16.475	2.18461538462	239.646232877	3.8462585034
887	0.4435	-10.76875	-2.13076923077	234.011986301	16.5227891156
888	0.444	-12.1953125	3.62307692308	225.560616438	6.66326530612
889	0.4445	-12.1953125	0.746153846154	222.743493151	12.2972789116
890	0.445	-10.76875	2.18461538462	226.969178082	6.66326530612
891	0.4455	-15.0484375	-0.692307692308	225.560616438	15.1142857143
892	0.446	-22.18125	0.746153846154	222.743493151	15.1142857143
893	0.4465	-15.0484375	2.18461538462	232.603424658	12.2972789116
894	0.447	-12.1953125	-0.692307692308	219.926369863	13.7057823129
895	0.4475	-10.76875	10.8153846154	218.517808219	8.07176870748
896	0.448	-9.3421875	0.746153846154	218.517808219	3.8462585034
897	0.4485	-9.3421875	2.18461538462	222.743493151	12.2972789116
898	0.449	-10.76875	-0.692307692308	224.152054795	3.8462585034
899	0.4495	-12.1953125	0.746153846154	228.377739726	3.8462585034
900	0.45	-12.1953125	0.746153846154	221.334931507	6.66326530612
901	0.4505	-23.6078125	-0.692307692308	221.334931507	6.66326530612
902	0.451	-15.0484375	0.746153846154	221.334931507	5.25476190476
903	0.4515	-12.1953125	2.18461538462	222.743493151	-0.37925170068
904	0.452	-13.621875	6.5	215.700684932	-0.37925170068
905	0.4525	-12.1953125	19.4461538462	212.883561644	-3.1962585034
906	0.453	-15.0484375	18.0076923077	210.066438356	-4.60476190476
907	0.4535	-23.6078125	-0.692307692308	205.840753425	15.1142857143
908	0.454	-10.76875	0.746153846154	201.615068493	13.7057823129
909	0.4545	-13.621875	6.5	194.572260274	-8.83027210884
910	0.455	-15.0484375	6.5	197.389383562	-8.83027210884
911	0.4555	-19.328125	-2.13076923077	198.797945205	-4.60476190476
912	0.456	-25.034375	0.746153846154	197.389383562	-7.42176870748
913	0.4565	-12.1953125	-0.692307692308	194.572260274	8.07176870748
914	0.457	-12.1953125	0.746153846154	184.712328767	-8.83027210884
915	0.4575	-12.1953125	3.62307692308	184.712328767	-11.6472789116
916	0.458	-15.0484375	2.18461538462	190.346575342	-11.6472789116
917	0.4585	-20.7546875	3.62307692308	188.938013699	-8.83027210884
918	0.459	-23.6078125	2.18461538462	188.938013699	-8.83027210884
919	0.4595	-12.1953125	0.746153846154	187.529452055	-10.2387755102
920	0.46	-13.621875	2.18461538462	184.712328767	-10.2387755102
921	0.4605	-13.621875	18.0076923077	180.486643836	-10.2387755102
922	0.461	-23.6078125	0.746153846154	176.260958904	-10.2387755102
923	0.4615	-25.034375	0.746153846154	176.260958904	-0.37925170068
924	0.462	-13.621875	2.18461538462	174.85239726	1.02925170068
925	0.4625	-12.1953125	0.746153846154	176.260958904	-17.281292517
926	0.463	-13.621875	18.0076923077	176.260958904	-21.5068027211
927	0.4635	-13.621875	0.746153846154	180.486643836	-18.6897959184
928	0.464	-22.18125	3.62307692308	176.260958904	-20.0982993197
929	0.4645	-13.621875	0.746153846154	174.85239726	-21.5068027211
930	0.465	-13.621875	3.62307692308	173.443835616	-22.9153061224
931	0.4655	-12.1953125	13.6923076923	181.895205479	-21.5068027211
932	0.466	-10.76875	2.18461538462	181.895205479	-21.5068027211
933	0.4665	-7.915625	0.746153846154	181.895205479	-22.9153061224
934	0.467	-12.1953125	3.62307692308	173.443835616	-13.0557823129
935	0.4675	-10.76875	2.18461538462	173.443835616	-24.3238095238
936	0.468	-12.1953125	-0.692307692308	170.626712329	-20.0982993197
937	0.4685	-10.76875	-0.692307692308	176.260958904	-17.281292517
938	0.469	-7.915625	0.746153846154	179.078082192	-18.6897959184
939	0.4695	-16.475	0.746153846154	179.078082192	-6.01326530612
940	0.47	-12.1953125	0.746153846154	172.035273973	-15.8727891156
941	0.4705	-12.1953125	0.746153846154	169.218150685	-15.8727891156
942	0.471	-10.76875	15.1307692308	173.443835616	-17.281292517
943	0.4715	-9.3421875	5.06153846154	173.443835616	-20.0982993197
944	0.472	-9.3421875	2.18461538462	174.85239726	-25.7323129252
945	0.4725	-9.3421875	0.746153846154	170.626712329	-28.5493197279
946	0.473	-9.3421875	0.746153846154	170.626712329	-22.9153061224
947	0.4735	-10.76875	-0.692307692308	170.626712329	-28.5493197279
948	0.474	-12.1953125	0.746153846154	167.809589041	-29.9578231293
949	0.4745	3.496875	2.18461538462	166.401027397	-31.3663265306
950	0.475	-10.76875	0.746153846154	156.54109589	-38.4088435374
951	0.4755	-10.76875	-2.13076923077	162.175342466	-28.5493197279
952	0.476	-12.1953125	0.746153846154	159.358219178	-31.3663265306
953	0.4765	-12.1953125	2.18461538462	156.54109589	-35.5918367347
954	0.477	0.64375	0.746153846154	155.132534247	-38.4088435374
955	0.4775	-9.3421875	-0.692307692308	152.315410959	-52.493877551
956	0.478	-12.1953125	-0.692307692308	152.315410959	-45.4513605442
957	0.4785	-10.76875	-0.692307692308	150.906849315	-45.4513605442
958	0.479	-7.915625	-3.56923076923	149.498287671	-42.6343537415
959	0.4795	-0.7828125	0.746153846154	152.315410959	-45.4513605442
960	0.48	-7.915625	2.18461538462	152.315410959	-31.3663265306
961	0.4805	-10.76875	2.18461538462	146.681164384	-46.8598639456
962	0.481	-6.4890625	-5.00769230769	145.27260274	-45.4513605442
963	0.4815	-7.915625	0.746153846154	143.864041096	-48.2683673469
964	0.482	-15.0484375	0.746153846154	143.864041096	-46.8598639456
965	0.4825	-7.915625	-0.692307692308	142.455479452	-37.0003401361
966	0.483	-6.4890625	2.18461538462	134.004109589	-51.0853741497
967	0.4835	-7.915625	2.18461538462	134.004109589	-52.493877551
968	0.484	-5.0625	22.3230769231	142.455479452	-51.0853741497
969	0.4845	13.4828125	3.62307692308	142.455479452	-49.6768707483
970	0.485	-9.3421875	0.746153846154	136.821232877	-53.9023809524
971	0.4855	-7.915625	2.18461538462	145.27260274	-46.8598639456
972	0.486	-5.0625	-2.13076923077	134.004109589	-48.2683673469
973	0.4865	-5.0625	7.93846153846	138.229794521	-52.493877551
974	0.487	-7.915625	13.6923076923	135.412671233	-51.0853741497
975	0.4875	-15.0484375	0.746153846154	134.004109589	-46.8598639456
976	0.488	-10.76875	2.18461538462	128.369863014	-35.5918367347
977	0.4885	-12.1953125	6.5	132.595547945	-46.8598639456
978	0.489	-10.76875	2.18461538462	132.595547945	-45.4513605442
979	0.4895	-9.3421875	-3.56923076923	135.412671233	-46.8598639456
980	0.49	-16.475	2.18461538462	138.229794521	-46.8598639456
981	0.4905	-12.1953125	0.746153846154	139.638356164	-28.5493197279
982	0.491	-13.621875	3.62307692308	155.132534247	-42.6343537415
983	0.4915	-15.0484375	19.4461538462	139.638356164	-39.8173469388
984	0.492	-13.621875	-0.692307692308	139.638356164	-38.4088435374
985	0.4925	-26.4609375	-0.692307692308	138.229794521	-38.4088435374
986	0.493	-12.1953125	0.746153846154	129.778424658	-41.2258503401
987	0.4935	-13.621875	3.62307692308	134.004109589	-44.0428571429
988	0.494	-12.1953125	0.746153846154	148.089726027	-37.0003401361
989	0.4945	-12.1953125	-9.32307692308	138.229794521	-37.0003401361
990	0.495	-7.915625	-9.32307692308	139.638356164	-34.1833333333
991	0.4955	-19.328125	3.62307692308	136.821232877	-34.1833333333
992	0.496	-10.76875	-0.692307692308	141.046917808	-37.0003401361
993	0.4965	-10.76875	-0.692307692308	150.906849315	-38.4088435374
994	0.497	-13.621875	15.1307692308	139.638356164	-37.0003401361
995	0.4975	-20.7546875	-0.692307692308	139.638356164	-32.774829932
996	0.498	-6.4890625	-0.692307692308	143.864041096	-29.9578231293
997	0.4985	-10.76875	0.746153846154	142.455479452	-32.774829932
998	0.499	-12.1953125	3.62307692308	142.455479452	-34.1833333333
999	0.4995	-10.76875	-0.692307692308	146.681164384	-37.0003401361
1000	0.5	-10.76875	-5.00769230769	148.089726027	-37.0003401361
1001	0.5005	-23.6078125	0.746153846154	148.089726027	-38.4088435374
1002	0.501	-10.76875	-0.692307692308	141.046917808	-44.0428571429
1003	0.5015	-10.76875	-0.692307692308	142.455479452	-46.8598639456
1004	0.502	-10.76875	0.746153846154	149.498287671	-41.2258503401
1005	0.5025	-10.76875	-3.56923076923	149.498287671	-42.6343537415
1006	0.503	-17.9015625	2.18461538462	148.089726027	-42.6343537415
1007	0.5035	-20.7546875	2.18461538462	146.681164384	-38.4088435374
1008	0.504	-10.76875	-0.692307692308	162.175342466	-42.6343537415
1009	0.5045	-10.76875	3.62307692308	145.27260274	-41.2258503401
1010	0.505	-12.1953125	19.4461538462	143.864041096	-45.4513605442
1011	0.5055	-12.1953125	18.0076923077	143.864041096	-41.2258503401
1012	0.506	-15.0484375	2.18461538462	141.046917808	-34.1833333333
1013	0.5065	-7.915625	2.18461538462	139.638356164	-37.0003401361
1014	0.507	-7.915625	3.62307692308	138.229794521	-45.4513605442
1015	0.5075	-9.3421875	15.1307692308	136.821232877	-45.4513605442
1016	0.508	-9.3421875	9.37692307692	139.638356164	-41.2258503401
1017	0.5085	-17.9015625	2.18461538462	138.229794521	-35.5918367347
1018	0.509	-10.76875	2.18461538462	135.412671233	-38.4088435374
1019	0.5095	-5.0625	0.746153846154	129.778424658	-37.0003401361
1020	0.51	-10.76875	5.06153846154	132.595547945	-32.774829932
1021	0.5105	-7.915625	3.62307692308	135.412671233	-29.9578231293
1022	0.511	-16.475	0.746153846154	136.821232877	-29.9578231293
1023	0.5115	-9.3421875	0.746153846154	139.638356164	-29.9578231293
1024	0.512	-10.76875	3.62307692308	139.638356164	-37.0003401361
1025	0.5125	-9.3421875	0.746153846154	148.089726027	-31.3663265306
1026	0.513	-9.3421875	-10.7615384615	136.821232877	-31.3663265306
1027	0.5135	-5.0625	-6.44615384615	139.638356164	-29.9578231293
1028	0.514	10.6296875	0.746153846154	145.27260274	-38.4088435374
1029	0.5145	-9.3421875	2.18461538462	145.27260274	-37.0003401361
1030	0.515	-10.76875	-0.692307692308	135.412671233	-22.9153061224
1031	0.5155	-7.915625	-9.32307692308	145.27260274	-18.6897959184
1032	0.516	-6.4890625	-7.88461538462	146.681164384	-21.5068027211
1033	0.5165	-5.0625	-7.88461538462	145.27260274	-20.0982993197
1034	0.517	-10.76875	0.746153846154	146.681164384	-28.5493197279
1035	0.5175	-10.76875	0.746153846154	148.089726027	-27.1408163265
1036	0.518	-10.76875	2.18461538462	146.681164384	-18.6897959184
1037	0.5185	-12.1953125	-6.44615384615	145.27260274	-18.6897959184
1038	0.519	-16.475	0.746153846154	142.455479452	-18.6897959184
1039	0.5195	-16.475	0.746153846154	142.455479452	-21.5068027211
1040	0.52	-7.915625	0.746153846154	142.455479452	-11.6472789116
1041	0.5205	-12.1953125	2.18461538462	152.315410959	-21.5068027211
1042	0.521	-12.1953125	3.62307692308	143.864041096	-20.0982993197
1043	0.5215	-12.1953125	10.8153846154	145.27260274	-21.5068027211
1044	0.522	-13.621875	0.746153846154	141.046917808	-8.83027210884
1045	0.5225	-10.76875	0.746153846154	141.046917808	-8.83027210884
1046	0.523	-9.3421875	3.62307692308	134.004109589	-22.9153061224
1047	0.5235	-10.76875	5.06153846154	136.821232877	-20.0982993197
1048	0.524	-6.4890625	-6.44615384615	135.412671233	-22.9153061224
1049	0.5245	7.7765625	-0.692307692308	136.821232877	-22.9153061224
1050	0.525	-9.3421875	-2.13076923077	134.004109589	-28.5493197279
1051	0.5255	-7.915625	0.746153846154	131.186986301	-27.1408163265
1052	0.526	-10.76875	0.746153846154	131.186986301	-21.5068027211
1053	0.5265	-10.76875	-2.13076923077	129.778424658	-20.0982993197
1054	0.527	2.0703125	-0.692307692308	126.96130137	-28.5493197279
1055	0.5275	-13.621875	2.18461538462	124.144178082	-29.9578231293
1056	0.528	-7.915625	-0.692307692308	118.509931507	-20.0982993197
1057	0.5285	-6.4890625	5.06153846154	119.918493151	-21.5068027211
1058	0.529	-5.0625	20.8846153846	124.144178082	-22.9153061224
1059	0.5295	-10.76875	0.746153846154	122.735616438	-22.9153061224
1060	0.53	-13.621875	3.62307692308	125.552739726	-24.3238095238
1061	0.5305	-6.4890625	0.746153846154	126.96130137	-24.3238095238
1062	0.531	-6.4890625	0.746153846154	128.369863014	-25.7323129252
1063	0.5315	-6.4890625	0.746153846154	126.96130137	-22.9153061224
1064	0.532	-5.0625	3.62307692308	128.369863014	-25.7323129252
1065	0.5325	4.9234375	3.62307692308	132.595547945	-22.9153061224
1066	0.533	-7.915625	0.746153846154	128.369863014	-27.1408163265
1067	0.5335	-9.3421875	0.746153846154	119.918493151	-21.5068027211
1068	0.534	-9.3421875	5.06153846154	125.552739726	-18.6897959184
1069	0.5345	-10.76875	18.0076923077	128.369863014	-20.0982993197
1070	0.535	-19.328125	2.18461538462	129.778424658	-15.8727891156
1071	0.5355	-15.0484375	2.18461538462	131.186986301	-18.6897959184
1072	0.536	-6.4890625	2.18461538462	143.864041096	-20.0982993197
1073	0.5365	-9.3421875	3.62307692308	128.369863014	-18.6897959184
1074	0.537	-9.3421875	18.0076923077	126.96130137	-18.6897959184
1075	0.5375	-19.328125	0.746153846154	126.96130137	-18.6897959184
1076	0.538	-7.915625	-0.692307692308	125.552739726	-28.5493197279
1077	0.5385	-5.0625	0.746153846154	124.144178082	-22.9153061224
1078	0.539	-7.915625	0.746153846154	119.918493151	-15.8727891156
1079	0.5395	-6.4890625	0.746153846154	124.144178082	-15.8727891156
1080	0.54	-16.475	-0.692307692308	122.735616438	-13.0557823129
1081	0.5405	-7.915625	0.746153846154	121.327054795	-3.1962585034
1082	0.541	-6.4890625	0.746153846154	107.241438356	-15.8727891156
1083	0.5415	-6.4890625	0.746153846154	114.284246575	-8.83027210884
1084	0.542	-6.4890625	0.746153846154	112.875684932	-11.6472789116
1085	0.5425	-5.0625	-0.692307692308	110.058561644	-7.42176870748
1086	0.543	-2.209375	0.746153846154	108.65	-4.60476190476
1087	0.5435	-6.4890625	0.746153846154	97.3815068493	-7.42176870748
1088	0.544	-7.915625	0.746153846154	95.9729452055	-10.2387755102
1089	0.5445	-5.0625	6.5	101.607191781	-0.37925170068
1090	0.545	-5.0625	5.06153846154	95.9729452055	-3.1962585034
1091	0.5455	-10.76875	-0.692307692308	95.9729452055	-0.37925170068
1092	0.546	-5.0625	0.746153846154	88.9301369863	-7.42176870748
1093	0.5465	-6.4890625	2.18461538462	101.607191781	-8.83027210884
1094	0.547	-2.209375	-3.56923076923	95.9729452055	-7.42176870748
1095	0.5475	-3.6359375	5.06153846154	91.747260274	-11.6472789116
1096	0.548	2.0703125	-0.692307692308	91.747260274	-20.0982993197
1097	0.5485	-12.1953125	0.746153846154	91.747260274	-10.2387755102
1098	0.549	-6.4890625	0.746153846154	93.1558219178	-17.281292517
1099	0.5495	-6.4890625	3.62307692308	83.295890411	-20.0982993197
1100	0.55	-5.0625	2.18461538462	84.7044520548	-20.0982993197
1101	0.5505	-15.0484375	0.746153846154	86.1130136986	-18.6897959184
1102	0.551	-2.209375	0.746153846154	88.9301369863	-18.6897959184
1103	0.5515	-9.3421875	0.746153846154	83.295890411	-25.7323129252
1104	0.552	-7.915625	2.18461538462	80.4787671233	-22.9153061224
1105	0.5525	-5.0625	7.93846153846	81.8873287671	-22.9153061224
1106	0.553	-17.9015625	3.62307692308	81.8873287671	-24.3238095238
1107	0.5535	-3.6359375	0.746153846154	81.8873287671	-25.7323129252
1108	0.554	-7.915625	0.746153846154	76.2530821918	-27.1408163265
1109	0.5545	-9.3421875	0.746153846154	72.0273972603	-21.5068027211
1110	0.555	-7.915625	-2.13076923077	76.2530821918	-17.281292517
1111	0.5555	-7.915625	-5.00769230769	72.0273972603	-15.8727891156
1112	0.556	9.203125	2.18461538462	72.0273972603	-18.6897959184
1113	0.5565	-6.4890625	3.62307692308	66.3931506849	-28.5493197279
1114	0.557	-9.3421875	2.18461538462	83.295890411	-17.281292517
1115	0.5575	-10.76875	2.18461538462	81.8873287671	-17.281292517
1116	0.558	-7.915625	-5.00769230769	67.8017123288	-17.281292517
1117	0.5585	-5.0625	-5.00769230769	67.8017123288	-15.8727891156
1118	0.559	-16.475	0.746153846154	70.6188356164	-13.0557823129
1119	0.5595	-10.76875	0.746153846154	88.9301369863	-13.0557823129
1120	0.56	-10.76875	2.18461538462	72.0273972603	-13.0557823129
1121	0.5605	-9.3421875	19.4461538462	72.0273972603	-13.0557823129
1122	0.561	-22.18125	2.18461538462	79.0702054795	-13.0557823129
1123	0.5615	-16.475	0.746153846154	81.8873287671	-11.6472789116
1124	0.562	-9.3421875	-0.692307692308	81.8873287671	-8.83027210884
1125	0.5625	-10.76875	6.5	83.295890411	-21.5068027211
1126	0.563	-9.3421875	19.4461538462	86.1130136986	-24.3238095238
1127	0.5635	-6.4890625	0.746153846154	90.3386986301	-24.3238095238
1128	0.564	7.7765625	0.746153846154	95.9729452055	-29.9578231293
1129	0.5645	-10.76875	0.746153846154	97.3815068493	-15.8727891156
1130	0.565	-12.1953125	5.06153846154	95.9729452055	-32.774829932
1131	0.5655	-12.1953125	3.62307692308	98.7900684932	-31.3663265306
1132	0.566	-15.0484375	2.18461538462	107.241438356	-35.5918367347
1133	0.5665	-22.18125	0.746153846154	108.65	-32.774829932
1134	0.567	-12.1953125	0.746153846154	110.058561644	-21.5068027211
1135	0.5675	-7.915625	5.06153846154	122.735616438	-39.8173469388
1136	0.568	-10.76875	6.5	108.65	-37.0003401361
1137	0.5685	-12.1953125	5.06153846154	107.241438356	-38.4088435374
1138	0.569	-22.18125	0.746153846154	108.65	-34.1833333333
1139	0.5695	-19.328125	2.18461538462	103.015753425	-15.8727891156
1140	0.57	-10.76875	0.746153846154	100.198630137	-15.8727891156
1141	0.5705	-12.1953125	3.62307692308	101.607191781	-29.9578231293
1142	0.571	-10.76875	20.8846153846	104.424315068	-29.9578231293
1143	0.5715	-13.621875	16.5692307692	104.424315068	-28.5493197279
1144	0.572	-17.9015625	0.746153846154	98.7900684932	-17.281292517
1145	0.5725	-12.1953125	3.62307692308	97.3815068493	-20.0982993197
1146	0.573	-10.76875	2.18461538462	97.3815068493	-28.5493197279
1147	0.5735	-10.76875	9.37692307692	101.607191781	-28.5493197279
1148	0.574	-12.1953125	7.93846153846	98.7900684932	-32.774829932
1149	0.5745	-15.0484375	2.18461538462	98.7900684932	-28.5493197279
1150	0.575	-10.76875	2.18461538462	97.3815068493	-29.9578231293
1151	0.5755	-10.76875	2.18461538462	103.015753425	-28.5493197279
1152	0.576	-12.1953125	0.746153846154	108.65	-28.5493197279
1153	0.5765	-12.1953125	3.62307692308	101.607191781	-31.3663265306
1154	0.577	-15.0484375	0.746153846154	98.7900684932	-34.1833333333
1155	0.5775	-10.76875	2.18461538462	94.5643835616	-38.4088435374
1156	0.578	-13.621875	0.746153846154	97.3815068493	-31.3663265306
1157	0.5785	-12.1953125	0.746153846154	112.875684932	-31.3663265306
1158	0.579	-9.3421875	-10.7615384615	97.3815068493	-29.9578231293
1159	0.5795	-23.6078125	2.18461538462	101.607191781	-25.7323129252
1160	0.58	-23.6078125	3.62307692308	104.424315068	-8.83027210884
1161	0.5805	-12.1953125	2.18461538462	88.9301369863	-25.7323129252
1162	0.581	-12.1953125	-0.692307692308	88.9301369863	-22.9153061224
1163	0.5815	-13.621875	5.06153846154	101.607191781	-22.9153061224
1164	0.582	-13.621875	-0.692307692308	103.015753425	-17.281292517
1165	0.5825	4.9234375	2.18461538462	98.7900684932	-20.0982993197
1166	0.583	-12.1953125	0.746153846154	97.3815068493	-4.60476190476
1167	0.5835	-10.76875	3.62307692308	90.3386986301	-18.6897959184
1168	0.584	-10.76875	5.06153846154	91.747260274	-21.5068027211
1169	0.5845	-7.915625	0.746153846154	94.5643835616	-21.5068027211
1170	0.585	4.9234375	2.18461538462	94.5643835616	-20.0982993197
1171	0.5855	-13.621875	0.746153846154	93.1558219178	-29.9578231293
1172	0.586	-13.621875	2.18461538462	80.4787671233	-22.9153061224
1173	0.5865	-12.1953125	-9.32307692308	88.9301369863	-21.5068027211
1174	0.587	-9.3421875	2.18461538462	88.9301369863	-21.5068027211
1175	0.5875	-7.915625	5.06153846154	87.5215753425	-20.0982993197
1176	0.588	-13.621875	-0.692307692308	87.5215753425	-18.6897959184
1177	0.5885	-10.76875	-0.692307692308	86.1130136986	-18.6897959184
1178	0.589	-10.76875	-0.692307692308	83.295890411	-18.6897959184
1179	0.5895	-10.76875	10.8153846154	81.8873287671	-18.6897959184
1180	0.59	-6.4890625	7.93846153846	81.8873287671	-21.5068027211
1181	0.5905	-5.0625	0.746153846154	84.7044520548	-25.7323129252
1182	0.591	-6.4890625	0.746153846154	80.4787671233	-24.3238095238
1183	0.5915	-5.0625	-0.692307692308	74.8445205479	-25.7323129252
1184	0.592	-6.4890625	7.93846153846	77.6616438356	-22.9153061224
1185	0.5925	-5.0625	9.37692307692	72.0273972603	-24.3238095238
1186	0.593	-2.209375	2.18461538462	72.0273972603	-29.9578231293
1187	0.5935	-10.76875	0.746153846154	76.2530821918	-24.3238095238
1188	0.594	-5.0625	5.06153846154	72.0273972603	-27.1408163265
1189	0.5945	-5.0625	-5.00769230769	64.9845890411	-24.3238095238
1190	0.595	-9.3421875	3.62307692308	69.2102739726	-22.9153061224
1191	0.5955	-12.1953125	0.746153846154	66.3931506849	-17.281292517
1192	0.596	-6.4890625	-0.692307692308	67.8017123288	-10.2387755102
1193	0.5965	-7.915625	0.746153846154	64.9845890411	-18.6897959184
1194	0.597	-5.0625	-9.32307692308	57.9417808219	-15.8727891156
1195	0.5975	-12.1953125	-3.56923076923	55.1246575342	-18.6897959184
1196	0.598	-20.7546875	2.18461538462	53.7160958904	-14.4642857143
1197	0.5985	-7.915625	5.06153846154	55.1246575342	2.43775510204
1198	0.599	-5.0625	2.18461538462	57.9417808219	-7.42176870748
1199	0.5995	-7.915625	-0.692307692308	72.0273972603	-8.83027210884
1200	0.6	-7.915625	-5.00769230769	57.9417808219	-8.83027210884
1201	0.6005	-3.6359375	-6.44615384615	57.9417808219	-11.6472789116
1202	0.601	-6.4890625	2.18461538462	53.7160958904	-24.3238095238
1203	0.6015	-3.6359375	-0.692307692308	73.4359589041	-15.8727891156
1204	0.602	-2.209375	0.746153846154	77.6616438356	-17.281292517
1205	0.6025	-0.7828125	-10.7615384615	66.3931506849	-21.5068027211
1206	0.603	0.64375	2.18461538462	69.2102739726	-21.5068027211
1207	0.6035	-10.76875	2.18461538462	72.0273972603	-15.8727891156
1208	0.604	-0.7828125	0.746153846154	77.6616438356	-27.1408163265
1209	0.6045	-3.6359375	2.18461538462	74.8445205479	-21.5068027211
1210	0.605	-0.7828125	2.18461538462	79.0702054795	-20.0982993197
1211	0.6055	4.9234375	0.746153846154	81.8873287671	-25.7323129252
1212	0.606	16.3359375	-0.692307692308	88.9301369863	-27.1408163265
1213	0.6065	-0.7828125	0.746153846154	79.0702054795	-27.1408163265
1214	0.607	0.64375	-0.692307692308	87.5215753425	-22.9153061224
1215	0.6075	-2.209375	-9.32307692308	98.7900684932	-21.5068027211
1216	0.608	2.0703125	2.18461538462	100.198630137	-27.1408163265
1217	0.6085	17.7625	0.746153846154	105.832876712	-34.1833333333
1218	0.609	-2.209375	0.746153846154	105.832876712	-37.0003401361
1219	0.6095	0.64375	0.746153846154	118.509931507	-24.3238095238
1220	0.61	-5.0625	-5.00769230769	103.015753425	-20.0982993197
1221	0.6105	-5.0625	-9.32307692308	104.424315068	-10.2387755102
1222	0.611	-12.1953125	0.746153846154	105.832876712	-6.01326530612
1223	0.6115	-12.1953125	-0.692307692308	104.424315068	9.48027210884
1224	0.612	-5.0625	0.746153846154	97.3815068493	-7.42176870748
1225	0.6125	-5.0625	-0.692307692308	98.7900684932	-11.6472789116
1226	0.613	-2.209375	-3.56923076923	101.607191781	-13.0557823129
1227	0.6135	-7.915625	2.18461538462	103.015753425	-10.2387755102
1228	0.614	3.496875	0.746153846154	104.424315068	-10.2387755102
1229	0.6145	-2.209375	3.62307692308	100.198630137	-11.6472789116
1230	0.615	0.64375	3.62307692308	107.241438356	-11.6472789116
1231	0.6155	-0.7828125	9.37692307692	104.424315068	-14.4642857143
1232	0.616	-2.209375	2.18461538462	101.607191781	-15.8727891156
1233	0.6165	2.0703125	0.746153846154	98.7900684932	-13.0557823129
1234	0.617	2.0703125	3.62307692308	97.3815068493	-13.0557823129
1235	0.6175	-0.7828125	0.746153846154	94.5643835616	-14.4642857143
1236	0.618	-2.209375	13.6923076923	90.3386986301	-18.6897959184
1237	0.6185	0.64375	6.5	90.3386986301	-24.3238095238
1238	0.619	-10.76875	2.18461538462	87.5215753425	-25.7323129252
1239	0.6195	-5.0625	2.18461538462	77.6616438356	-25.7323129252
1240	0.62	-3.6359375	0.746153846154	79.0702054795	-28.5493197279
1241	0.6205	-2.209375	5.06153846154	72.0273972603	-25.7323129252
1242	0.621	0.64375	6.5	66.3931506849	-28.5493197279
1243	0.6215	0.64375	-0.692307692308	60.7589041096	-35.5918367347
1244	0.622	-7.915625	0.746153846154	59.3503424658	-22.9153061224
1245	0.6225	-0.7828125	0.746153846154	55.1246575342	-31.3663265306
1246	0.623	-2.209375	-0.692307692308	46.6732876712	-25.7323129252
1247	0.6235	-0.7828125	15.1307692308	49.4904109589	-24.3238095238
1248	0.624	-0.7828125	0.746153846154	50.8989726027	-25.7323129252
1249	0.6245	16.3359375	0.746153846154	49.4904109589	-35.5918367347
1250	0.625	-0.7828125	0.746153846154	41.0390410959	-31.3663265306
1251	0.6255	0.64375	-2.13076923077	43.8561643836	-25.7323129252
1252	0.626	0.64375	-10.7615384615	49.4904109589	-24.3238095238
1253	0.6265	3.496875	-10.7615384615	49.4904109589	-20.0982993197
1254	0.627	14.909375	0.746153846154	48.0818493151	-18.6897959184
1255	0.6275	-2.209375	3.62307692308	43.8561643836	-25.7323129252
1256	0.628	0.64375	-0.692307692308	43.8561643836	-15.8727891156
1257	0.6285	-0.7828125	-6.44615384615	49.4904109589	-14.4642857143
1258	0.629	4.9234375	-3.56923076923	48.0818493151	-15.8727891156
1259	0.6295	19.1890625	0.746153846154	50.8989726027	-15.8727891156
1260	0.63	2.0703125	0.746153846154	45.2647260274	-14.4642857143
1261	0.6305	2.0703125	0.746153846154	67.8017123288	-10.2387755102
1262	0.631	0.64375	0.746153846154	53.7160958904	-8.83027210884
1263	0.6315	4.9234375	13.6923076923	57.9417808219	-7.42176870748
1264	0.632	-6.4890625	0.746153846154	57.9417808219	-3.1962585034
1265	0.6325	-0.7828125	3.62307692308	59.3503424658	-1.78775510204
1266	0.633	4.9234375	2.18461538462	62.1674657534	2.43775510204
1267	0.6335	4.9234375	-0.692307692308	74.8445205479	-1.78775510204
1268	0.634	4.9234375	-12.2	63.5760273973	-1.78775510204
1269	0.6345	0.64375	-2.13076923077	63.5760273973	-1.78775510204
1270	0.635	-2.209375	2.18461538462	62.1674657534	-1.78775510204
1271	0.6355	4.9234375	0.746153846154	64.9845890411	5.25476190476
1272	0.636	4.9234375	0.746153846154	66.3931506849	-4.60476190476
1273	0.6365	3.496875	-13.6384615385	64.9845890411	-4.60476190476
1274	0.637	2.0703125	-0.692307692308	63.5760273973	-1.78775510204
1275	0.6375	-7.915625	0.746153846154	66.3931506849	-1.78775510204
1276	0.638	2.0703125	0.746153846154	64.9845890411	3.8462585034
1277	0.6385	3.496875	2.18461538462	67.8017123288	2.43775510204
1278	0.639	6.35	0.746153846154	72.0273972603	3.8462585034
1279	0.6395	4.9234375	3.62307692308	70.6188356164	5.25476190476
1280	0.64	9.203125	0.746153846154	69.2102739726	5.25476190476
1281	0.6405	2.0703125	2.18461538462	70.6188356164	1.02925170068
1282	0.641	3.496875	2.18461538462	67.8017123288	19.3397959184
1283	0.6415	7.7765625	-0.692307692308	80.4787671233	15.1142857143
1284	0.642	3.496875	3.62307692308	70.6188356164	12.2972789116
1285	0.6425	3.496875	-5.00769230769	72.0273972603	13.7057823129
1286	0.643	9.203125	-0.692307692308	62.1674657534	13.7057823129
1287	0.6435	-0.7828125	2.18461538462	63.5760273973	26.3823129252
1288	0.644	2.0703125	2.18461538462	59.3503424658	15.1142857143
1289	0.6445	3.496875	0.746153846154	72.0273972603	16.5227891156
1290	0.645	2.0703125	-6.44615384615	55.1246575342	17.931292517
1291	0.6455	-5.0625	0.746153846154	53.7160958904	19.3397959184
1292	0.646	-7.915625	2.18461538462	53.7160958904	24.9738095238
1293	0.6465	-0.7828125	3.62307692308	63.5760273973	24.9738095238
1294	0.647	-0.7828125	5.06153846154	48.0818493151	23.5653061224
1295	0.6475	3.496875	18.0076923077	46.6732876712	27.7908163265
1296	0.648	2.0703125	0.746153846154	46.6732876712	29.1993197279
1297	0.6485	-0.7828125	0.746153846154	42.4476027397	26.3823129252
1298	0.649	0.64375	0.746153846154	42.4476027397	32.0163265306
1299	0.6495	0.64375	-0.692307692308	33.9962328767	50.3268707483
1300	0.65	-2.209375	-0.692307692308	42.4476027397	51.7353741497
1301	0.6505	-2.209375	2.18461538462	39.6304794521	55.9608843537
1302	0.651	-5.0625	3.62307692308	36.8133561644	57.3693877551
1303	0.6515	2.0703125	0.746153846154	35.4047945205	57.3693877551
1304	0.652	3.496875	2.18461538462	35.4047945205	58.7778911565
1305	0.6525	0.64375	-2.13076923077	41.0390410959	57.3693877551
1306	0.653	0.64375	19.4461538462	38.2219178082	58.7778911565
1307	0.6535	-5.0625	0.746153846154	38.2219178082	53.143877551
1308	0.654	-7.915625	2.18461538462	32.5876712329	53.143877551
1309	0.6545	3.496875	-2.13076923077	45.2647260274	55.9608843537
1310	0.655	0.64375	3.62307692308	33.9962328767	51.7353741497
1311	0.6555	0.64375	19.4461538462	32.5876712329	50.3268707483
1312	0.656	-9.3421875	0.746153846154	33.9962328767	53.143877551
1313	0.6565	2.0703125	2.18461538462	28.3619863014	39.0588435374
1314	0.657	2.0703125	2.18461538462	21.3191780822	43.2843537415
1315	0.6575	3.496875	0.746153846154	26.9534246575	47.5098639456
1316	0.658	4.9234375	22.3230769231	33.9962328767	51.7353741497
1317	0.6585	9.203125	0.746153846154	33.9962328767	48.9183673469
1318	0.659	22.0421875	0.746153846154	38.2219178082	48.9183673469
1319	0.6595	0.64375	0.746153846154	26.9534246575	54.5523809524
1320	0.66	0.64375	-0.692307692308	32.5876712329	58.7778911565
1321	0.6605	2.0703125	-7.88461538462	36.8133561644	67.2289115646
1322	0.661	4.9234375	-6.44615384615	38.2219178082	79.9054421769
1323	0.6615	23.46875	2.18461538462	35.4047945205	91.1734693878
1324	0.662	2.0703125	2.18461538462	33.9962328767	95.3989795918
1325	0.6625	3.496875	0.746153846154	19.9106164384	124.97755102
1326	0.663	2.0703125	-9.32307692308	26.9534246575	148.922108844
1327	0.6635	4.9234375	-5.00769230769	25.5448630137	157.373129252
1328	0.664	12.05625	-2.13076923077	22.727739726	154.556122449
1329	0.6645	3.496875	0.746153846154	19.9106164384	137.654081633
1330	0.665	4.9234375	0.746153846154	7.23356164384	144.696598639
1331	0.6655	3.496875	-0.692307692308	11.4592465753	146.105102041
1332	0.666	2.0703125	-2.13076923077	15.6849315068	150.330612245
1333	0.6665	9.203125	0.746153846154	11.4592465753	148.922108844
1334	0.667	22.0421875	0.746153846154	12.8678082192	146.105102041
1335	0.6675	4.9234375	0.746153846154	14.276369863	141.879591837
1336	0.668	4.9234375	2.18461538462	24.1363013699	148.922108844
1337	0.6685	7.7765625	-10.7615384615	5.825	150.330612245
1338	0.669	3.496875	-3.56923076923	7.23356164384	151.739115646
1339	0.6695	24.8953125	-0.692307692308	8.64212328767	148.922108844
1340	0.67	3.496875	0.746153846154	14.276369863	144.696598639
1341	0.6705	4.9234375	2.18461538462	15.6849315068	146.105102041
1342	0.671	7.7765625	-7.88461538462	8.64212328767	143.288095238
1343	0.6715	3.496875	3.62307692308	10.0506849315	140.471088435
1344	0.672	-0.7828125	-0.692307692308	12.8678082192	137.654081633
1345	0.6725	4.9234375	-0.692307692308	15.6849315068	132.020068027
1346	0.673	6.35	2.18461538462	15.6849315068	124.97755102
1347	0.6735	7.7765625	2.18461538462	8.64212328767	133.428571429
1348	0.674	7.7765625	19.4461538462	12.8678082192	126.386054422
1349	0.6745	7.7765625	2.18461538462	12.8678082192	126.386054422
1350	0.675	20.615625	-0.692307692308	15.6849315068	117.935034014
1351	0.6755	4.9234375	0.746153846154	15.6849315068	130.611564626
1352	0.676	3.496875	3.62307692308	8.64212328767	115.118027211
1353	0.6765	3.496875	3.62307692308	14.276369863	110.892517007
1354	0.677	2.0703125	2.18461538462	21.3191780822	108.075510204
1355	0.6775	-6.4890625	3.62307692308	19.9106164384	108.075510204
1356	0.678	-6.4890625	0.746153846154	19.9106164384	106.667006803
1357	0.6785	2.0703125	3.62307692308	36.8133561644	99.6244897959
1358	0.679	4.9234375	2.18461538462	24.1363013699	98.2159863946
1359	0.6795	2.0703125	0.746153846154	22.727739726	96.8074829932
1360	0.68	-2.209375	2.18461538462	18.5020547945	98.2159863946
1361	0.6805	-5.0625	0.746153846154	15.6849315068	112.301020408
1362	0.681	9.203125	0.746153846154	15.6849315068	110.892517007
1363	0.6815	7.7765625	5.06153846154	19.9106164384	93.9904761905
1364	0.682	3.496875	3.62307692308	17.0934931507	93.9904761905
1365	0.6825	-9.3421875	0.746153846154	19.9106164384	98.2159863946
1366	0.683	-5.0625	0.746153846154	14.276369863	109.484013605
1367	0.6835	3.496875	-0.692307692308	17.0934931507	101.032993197
1368	0.684	2.0703125	6.5	17.0934931507	93.9904761905
1369	0.6845	2.0703125	3.62307692308	17.0934931507	93.9904761905
1370	0.685	-3.6359375	-2.13076923077	14.276369863	93.9904761905
1371	0.6855	13.4828125	0.746153846154	7.23356164384	93.9904761905
1372	0.686	2.0703125	0.746153846154	4.41643835616	93.9904761905
1373	0.6865	3.496875	0.746153846154	14.276369863	98.2159863946
1374	0.687	2.0703125	0.746153846154	0.190753424658	99.6244897959
1375	0.6875	0.64375	-5.00769230769	0.190753424658	102.441496599
1376	0.688	0.64375	0.746153846154	1.59931506849	99.6244897959
1377	0.6885	16.3359375	0.746153846154	3.00787671233	102.441496599
1378	0.689	0.64375	0.746153846154	4.41643835616	93.9904761905
1379	0.6895	-0.7828125	0.746153846154	0.190753424658	106.667006803
1380	0.69	0.64375	5.06153846154	5.825	109.484013605
1381	0.6905	-9.3421875	0.746153846154	4.41643835616	120.752040816
1382	0.691	0.64375	0.746153846154	4.41643835616	136.245578231
1383	0.6915	0.64375	0.746153846154	19.9106164384	147.513605442
1384	0.692	-0.7828125	3.62307692308	5.825	155.96462585
1385	0.6925	-2.209375	9.37692307692	7.23356164384	155.96462585
1386	0.693	-2.209375	-6.44615384615	1.59931506849	160.190136054
1387	0.6935	0.64375	0.746153846154	-1.21780821918	164.415646259
1388	0.694	-5.0625	2.18461538462	-1.21780821918	167.232653061
1389	0.6945	-6.4890625	2.18461538462	-1.21780821918	155.96462585
1390	0.695	-7.915625	3.62307692308	0.190753424658	151.739115646
1391	0.6955	-3.6359375	0.746153846154	0.190753424658	146.105102041
1392	0.696	13.4828125	2.18461538462	-2.62636986301	140.471088435
1393	0.6965	-9.3421875	2.18461538462	-2.62636986301	126.386054422
1394	0.697	-10.76875	0.746153846154	-16.7119863014	130.611564626
1395	0.6975	-10.76875	3.62307692308	-9.66917808219	123.569047619
1396	0.698	-12.1953125	7.93846153846	-8.26061643836	123.569047619
1397	0.6985	-19.328125	2.18461538462	-9.66917808219	120.752040816
1398	0.699	-23.6078125	3.62307692308	-11.077739726	116.526530612
1399	0.6995	-15.0484375	0.746153846154	-11.077739726	117.935034014
1400	0.7	-13.621875	2.18461538462	-2.62636986301	93.9904761905
1401	0.7005	-16.475	-3.56923076923	-18.1205479452	95.3989795918
1402	0.701	-17.9015625	-5.00769230769	-22.3462328767	101.032993197
1403	0.7015	-23.6078125	5.06153846154	-22.3462328767	124.97755102
1404	0.702	-17.9015625	3.62307692308	-20.9376712329	132.020068027
1405	0.7025	-19.328125	5.06153846154	-12.4863013699	127.794557823
1406	0.703	-19.328125	-0.692307692308	-26.5719178082	137.654081633
1407	0.7035	-22.18125	2.18461538462	-22.3462328767	174.275170068
1408	0.704	-23.6078125	0.746153846154	-22.3462328767	217.93877551
1409	0.7045	-29.3140625	0.746153846154	-26.5719178082	296.814965986
1410	0.705	-26.4609375	5.06153846154	-35.0232876712	305.265986395
1411	0.7055	-27.8875	5.06153846154	-36.4318493151	292.589455782
1412	0.706	-26.4609375	20.8846153846	-26.5719178082	274.278911565
1413	0.7065	-37.8734375	5.06153846154	-27.9804794521	258.78537415
1414	0.707	-29.3140625	3.62307692308	-30.7976027397	244.700340136
1415	0.7075	-26.4609375	2.18461538462	-36.4318493151	234.840816327
1416	0.708	-25.034375	0.746153846154	-25.1633561644	216.530272109
1417	0.7085	-23.6078125	2.18461538462	-23.7547945205	199.628231293
1418	0.709	-20.7546875	3.62307692308	-20.9376712329	191.177210884
1419	0.7095	-13.621875	3.62307692308	-18.1205479452	181.317687075
1420	0.71	-22.18125	2.18461538462	-16.7119863014	182.726190476
1421	0.7105	-20.7546875	0.746153846154	-11.077739726	168.641156463
1422	0.711	-17.9015625	-7.88461538462	-12.4863013699	167.232653061
1423	0.7115	-16.475	-3.56923076923	-11.077739726	155.96462585
1424	0.712	-5.0625	0.746153846154	-11.077739726	146.105102041
1425	0.7125	-19.328125	0.746153846154	-12.4863013699	139.062585034
1426	0.713	-16.475	2.18461538462	-16.7119863014	133.428571429
1427	0.7135	-12.1953125	-0.692307692308	-15.3034246575	132.020068027
1428	0.714	-10.76875	0.746153846154	-12.4863013699	130.611564626
1429	0.7145	-12.1953125	0.746153846154	-12.4863013699	134.83707483
1430	0.715	-16.475	2.18461538462	-12.4863013699	144.696598639
1431	0.7155	-10.76875	2.18461538462	-22.3462328767	126.386054422
1432	0.716	-5.0625	0.746153846154	-22.3462328767	123.569047619
1433	0.7165	-6.4890625	16.5692307692	-15.3034246575	133.428571429
1434	0.717	-7.915625	-2.13076923077	-11.077739726	144.696598639
1435	0.7175	-10.76875	-6.44615384615	-12.4863013699	154.556122449
1436	0.718	-3.6359375	-2.13076923077	-20.9376712329	160.190136054
1437	0.7185	-0.7828125	-0.692307692308	-22.3462328767	164.415646259
1438	0.719	3.496875	0.746153846154	-18.1205479452	174.275170068
1439	0.7195	0.64375	-2.13076923077	-19.529109589	177.092176871
1440	0.72	23.46875	-0.692307692308	-23.7547945205	167.232653061
1441	0.7205	3.496875	0.746153846154	-29.3890410959	168.641156463
1442	0.721	6.35	-0.692307692308	-37.8404109589	171.458163265
1443	0.7215	7.7765625	-0.692307692308	-33.6147260274	172.866666667
1444	0.722	9.203125	-10.7615384615	-29.3890410959	168.641156463
1445	0.7225	14.909375	0.746153846154	-29.3890410959	167.232653061
1446	0.723	0.64375	2.18461538462	-25.1633561644	178.500680272
1447	0.7235	9.203125	0.746153846154	-25.1633561644	178.500680272
1448	0.724	7.7765625	-2.13076923077	-9.66917808219	157.373129252
1449	0.7245	10.6296875	-12.2	-23.7547945205	148.922108844
1450	0.725	7.7765625	-0.692307692308	-20.9376712329	137.654081633
1451	0.7255	9.203125	-0.692307692308	-15.3034246575	133.428571429
1452	0.726	10.6296875	0.746153846154	-26.5719178082	112.301020408
1453	0.7265	16.3359375	2.18461538462	-12.4863013699	103.85
1454	0.727	16.3359375	-7.88461538462	-12.4863013699	96.8074829932
1455	0.7275	17.7625	-0.692307692308	-12.4863013699	86.9479591837
1456	0.728	26.321875	0.746153846154	-13.8948630137	78.4969387755
1457	0.7285	12.05625	0.746153846154	-9.66917808219	68.637414966
1458	0.729	17.7625	2.18461538462	-20.9376712329	68.637414966
1459	0.7295	16.3359375	-7.88461538462	-11.077739726	61.5948979592
1460	0.73	19.1890625	-3.56923076923	-12.4863013699	58.7778911565
1461	0.7305	4.9234375	0.746153846154	-9.66917808219	57.3693877551
1462	0.731	10.6296875	3.62307692308	-12.4863013699	46.1013605442
1463	0.7315	17.7625	2.18461538462	-8.26061643836	37.6503401361
1464	0.732	19.1890625	0.746153846154	-13.8948630137	40.4673469388
1465	0.7325	19.1890625	-5.00769230769	-2.62636986301	36.2418367347
1466	0.733	23.46875	2.18461538462	0.190753424658	29.1993197279
1467	0.7335	32.028125	-0.692307692308	1.59931506849	29.1993197279
1468	0.734	17.7625	-0.692307692308	1.59931506849	29.1993197279
1469	0.7345	19.1890625	0.746153846154	-8.26061643836	24.9738095238
1470	0.735	17.7625	-10.7615384615	3.00787671233	24.9738095238
1471	0.7355	20.615625	-10.7615384615	3.00787671233	20.7482993197
1472	0.736	37.734375	0.746153846154	4.41643835616	6.66326530612
1473	0.7365	17.7625	3.62307692308	8.64212328767	12.2972789116
1474	0.737	19.1890625	-0.692307692308	15.6849315068	20.7482993197
1475	0.7375	17.7625	2.18461538462	15.6849315068	22.1568027211
1476	0.738	16.3359375	2.18461538462	8.64212328767	22.1568027211
1477	0.7385	10.6296875	2.18461538462	4.41643835616	23.5653061224
1478	0.739	19.1890625	0.746153846154	8.64212328767	24.9738095238
1479	0.7395	16.3359375	0.746153846154	7.23356164384	29.1993197279
1480	0.74	14.909375	0.746153846154	7.23356164384	29.1993197279
1481	0.7405	16.3359375	-2.13076923077	8.64212328767	29.1993197279
1482	0.741	14.909375	0.746153846154	4.41643835616	33.424829932
1483	0.7415	9.203125	0.746153846154	0.190753424658	34.8333333333
1484	0.742	12.05625	2.18461538462	1.59931506849	51.7353741497
1485	0.7425	12.05625	0.746153846154	18.5020547945	37.6503401361
1486	0.743	7.7765625	3.62307692308	-1.21780821918	36.2418367347
1487	0.7435	3.496875	2.18461538462	-4.03493150685	36.2418367347
1488	0.744	-3.6359375	-0.692307692308	-5.44349315068	33.424829932
1489	0.7445	3.496875	2.18461538462	-11.077739726	22.1568027211
1490	0.745	2.0703125	0.746153846154	-15.3034246575	17.931292517
1491	0.7455	0.64375	0.746153846154	-19.529109589	29.1993197279
1492	0.746	2.0703125	18.0076923077	-13.8948630137	29.1993197279
1493	0.7465	3.496875	0.746153846154	-13.8948630137	27.7908163265
1494	0.747	17.7625	-0.692307692308	-18.1205479452	20.7482993197
1495	0.7475	2.0703125	0.746153846154	-9.66917808219	30.6078231293
1496	0.748	-2.209375	-0.692307692308	-5.44349315068	32.0163265306
1497	0.7485	-2.209375	-6.44615384615	-26.5719178082	29.1993197279
1498	0.749	-2.209375	-6.44615384615	-25.1633561644	27.7908163265
1499	0.7495	7.7765625	3.62307692308	-25.1633561644	26.3823129252
1500	0.75	-2.209375	2.18461538462	-33.6147260274	19.3397959184
1501	0.7505	-2.209375	0.746153846154	-35.0232876712	24.9738095238
1502	0.751	-2.209375	2.18461538462	-30.7976027397	24.9738095238
1503	0.7515	-3.6359375	-5.00769230769	-29.3890410959	23.5653061224
1504	0.752	-5.0625	0.746153846154	-33.6147260274	24.9738095238
1505	0.7525	-5.0625	3.62307692308	-33.6147260274	22.1568027211
1506	0.753	-5.0625	2.18461538462	-25.1633561644	27.7908163265
1507	0.7535	-6.4890625	3.62307692308	-22.3462328767	26.3823129252
1508	0.754	-5.0625	0.746153846154	-29.3890410959	29.1993197279
1509	0.7545	-9.3421875	2.18461538462	-23.7547945205	30.6078231293
1510	0.755	-15.0484375	2.18461538462	-26.5719178082	33.424829932
1511	0.7555	-7.915625	2.18461538462	-27.9804794521	26.3823129252
1512	0.756	-5.0625	3.62307692308	-22.3462328767	30.6078231293
1513	0.7565	-3.6359375	2.18461538462	-22.3462328767	30.6078231293
1514	0.757	-12.1953125	3.62307692308	-20.9376712329	29.1993197279
1515	0.7575	-3.6359375	3.62307692308	-16.7119863014	29.1993197279
1516	0.758	-6.4890625	0.746153846154	-15.3034246575	20.7482993197
1517	0.7585	-6.4890625	5.06153846154	-19.529109589	27.7908163265
1518	0.759	-7.915625	2.18461538462	-16.7119863014	24.9738095238
1519	0.7595	-13.621875	0.746153846154	-20.9376712329	26.3823129252
1520	0.76	2.0703125	-0.692307692308	-20.9376712329	24.9738095238
1521	0.7605	-9.3421875	0.746153846154	-23.7547945205	13.7057823129
1522	0.761	-9.3421875	-0.692307692308	-25.1633561644	20.7482993197
1523	0.7615	-7.915625	-2.13076923077	-20.9376712329	22.1568027211
1524	0.762	-5.0625	-5.00769230769	-20.9376712329	19.3397959184
1525	0.7625	-7.915625	0.746153846154	-22.3462328767	15.1142857143
1526	0.763	-6.4890625	2.18461538462	-20.9376712329	23.5653061224
1527	0.7635	-7.915625	0.746153846154	-22.3462328767	10.8887755102
1528	0.764	-6.4890625	0.746153846154	-13.8948630137	10.8887755102
1529	0.7645	-3.6359375	-2.13076923077	-23.7547945205	8.07176870748
1530	0.765	2.0703125	0.746153846154	-25.1633561644	6.66326530612
1531	0.7655	-12.1953125	0.746153846154	-29.3890410959	-3.1962585034
1532	0.766	-12.1953125	2.18461538462	-30.7976027397	3.8462585034
1533	0.7665	-7.915625	-6.44615384615	-33.6147260274	1.02925170068
1534	0.767	-9.3421875	3.62307692308	-33.6147260274	-1.78775510204
1535	0.7675	-6.4890625	0.746153846154	-35.0232876712	-0.37925170068
1536	0.768	-12.1953125	2.18461538462	-36.4318493151	-3.1962585034
1537	0.7685	-12.1953125	0.746153846154	-26.5719178082	-6.01326530612
1538	0.769	-12.1953125	-0.692307692308	-32.2061643836	-13.0557823129
1539	0.7695	-12.1953125	-2.13076923077	-39.2489726027	-17.281292517
1540	0.77	-10.76875	-2.13076923077	-40.6575342466	-20.0982993197
1541	0.7705	-2.209375	0.746153846154	-40.6575342466	-22.9153061224
1542	0.771	-12.1953125	0.746153846154	-50.5174657534	-24.3238095238
1543	0.7715	-10.76875	-2.13076923077	-39.2489726027	-20.0982993197
1544	0.772	-9.3421875	-6.44615384615	-40.6575342466	-20.0982993197
1545	0.7725	-6.4890625	2.18461538462	-40.6575342466	-22.9153061224
1546	0.773	-9.3421875	5.06153846154	-39.2489726027	-21.5068027211
1547	0.7735	-17.9015625	2.18461538462	-39.2489726027	-22.9153061224
1548	0.774	-10.76875	5.06153846154	-43.4746575342	-24.3238095238
1549	0.7745	-12.1953125	5.06153846154	-40.6575342466	-22.9153061224
1550	0.775	-10.76875	16.5692307692	-35.0232876712	-28.5493197279
1551	0.7755	-23.6078125	3.62307692308	-32.2061643836	-27.1408163265
1552	0.776	-15.0484375	0.746153846154	-32.2061643836	-28.5493197279
1553	0.7765	-10.76875	0.746153846154	-39.2489726027	-32.774829932
1554	0.777	-9.3421875	3.62307692308	-32.2061643836	-28.5493197279
1555	0.7775	-9.3421875	3.62307692308	-26.5719178082	-27.1408163265
1556	0.778	-9.3421875	0.746153846154	-23.7547945205	-27.1408163265
1557	0.7785	0.64375	0.746153846154	-23.7547945205	-29.9578231293
1558	0.779	-3.6359375	2.18461538462	-25.1633561644	-25.7323129252
1559	0.7795	-6.4890625	3.62307692308	-25.1633561644	-29.9578231293
1560	0.78	-7.915625	0.746153846154	-30.7976027397	-28.5493197279
1561	0.7805	-7.915625	16.5692307692	-26.5719178082	-29.9578231293
1562	0.781	-22.18125	3.62307692308	-27.9804794521	-21.5068027211
1563	0.7815	-7.915625	2.18461538462	-29.3890410959	-38.4088435374
1564	0.782	-7.915625	3.62307692308	-39.2489726027	-35.5918367347
1565	0.7825	-5.0625	-10.7615384615	-29.3890410959	-39.8173469388
1566	0.783	-6.4890625	2.18461538462	-29.3890410959	-38.4088435374
1567	0.7835	2.0703125	0.746153846154	-29.3890410959	-37.0003401361
1568	0.784	-9.3421875	2.18461538462	-30.7976027397	-41.2258503401
1569	0.7845	-5.0625	2.18461538462	-33.6147260274	-31.3663265306
1570	0.785	-7.915625	5.06153846154	-15.3034246575	-39.8173469388
1571	0.7855	-7.915625	3.62307692308	-23.7547945205	-35.5918367347
1572	0.786	-6.4890625	2.18461538462	-25.1633561644	-29.9578231293
1573	0.7865	-15.0484375	3.62307692308	-25.1633561644	-24.3238095238
1574	0.787	-5.0625	-0.692307692308	-23.7547945205	-15.8727891156
1575	0.7875	-7.915625	3.62307692308	-11.077739726	-29.9578231293
1576	0.788	-5.0625	3.62307692308	-23.7547945205	-34.1833333333
1577	0.7885	-6.4890625	0.746153846154	-25.1633561644	-35.5918367347
1578	0.789	7.7765625	0.746153846154	-23.7547945205	-41.2258503401
1579	0.7895	-5.0625	0.746153846154	-25.1633561644	-46.8598639456
1580	0.79	-6.4890625	-2.13076923077	-32.2061643836	-45.4513605442
1581	0.7905	-9.3421875	5.06153846154	-37.8404109589	-35.5918367347
1582	0.791	-6.4890625	19.4461538462	-30.7976027397	-28.5493197279
1583	0.7915	-3.6359375	-2.13076923077	-29.3890410959	-28.5493197279
1584	0.792	-6.4890625	-0.692307692308	-35.0232876712	-37.0003401361
1585	0.7925	-6.4890625	0.746153846154	-20.9376712329	-27.1408163265
1586	0.793	-7.915625	0.746153846154	-23.7547945205	-25.7323129252
1587	0.7935	-7.915625	0.746153846154	-29.3890410959	-25.7323129252
1588	0.794	-5.0625	-2.13076923077	-25.1633561644	-29.9578231293
1589	0.7945	2.0703125	0.746153846154	-22.3462328767	-31.3663265306
1590	0.795	-6.4890625	2.18461538462	-25.1633561644	-39.8173469388
1591	0.7955	-5.0625	5.06153846154	-33.6147260274	-31.3663265306
1592	0.796	-7.915625	5.06153846154	-27.9804794521	-32.774829932
1593	0.7965	-5.0625	-0.692307692308	-25.1633561644	-34.1833333333
1594	0.797	0.64375	0.746153846154	-26.5719178082	-34.1833333333
1595	0.7975	-15.0484375	0.746153846154	-26.5719178082	-25.7323129252
1596	0.798	-7.915625	2.18461538462	-29.3890410959	-25.7323129252
1597	0.7985	-6.4890625	0.746153846154	-26.5719178082	-42.6343537415
1598	0.799	-7.915625	16.5692307692	-25.1633561644	-48.2683673469
1599	0.7995	-10.76875	0.746153846154	-27.9804794521	-45.4513605442
1600	0.8	-17.9015625	2.18461538462	-29.3890410959	-48.2683673469
1601	0.8005	-6.4890625	2.18461538462	-25.1633561644	-34.1833333333
1602	0.801	-7.915625	2.18461538462	-11.077739726	-48.2683673469
1603	0.8015	-9.3421875	0.746153846154	-30.7976027397	-51.0853741497
1604	0.802	-10.76875	0.746153846154	-26.5719178082	-51.0853741497
1605	0.8025	10.6296875	-0.692307692308	-29.3890410959	-53.9023809524
1606	0.803	-17.9015625	2.18461538462	-35.0232876712	-44.0428571429
1607	0.8035	-10.76875	0.746153846154	-42.0660958904	-62.3534013605
1608	0.804	-6.4890625	2.18461538462	-43.4746575342	-60.9448979592
1609	0.8045	-7.915625	19.4461538462	-36.4318493151	-56.7193877551
1610	0.805	-13.621875	20.8846153846	-32.2061643836	-53.9023809524
1611	0.8055	-17.9015625	0.746153846154	-32.2061643836	-37.0003401361
1612	0.806	-9.3421875	2.18461538462	-35.0232876712	-45.4513605442
1613	0.8065	-10.76875	3.62307692308	-35.0232876712	-63.7619047619
1614	0.807	-9.3421875	20.8846153846	-33.6147260274	-66.5789115646
1615	0.8075	-12.1953125	18.0076923077	-36.4318493151	-66.5789115646
1616	0.808	-19.328125	-0.692307692308	-40.6575342466	-46.8598639456
1617	0.8085	-10.76875	-0.692307692308	-39.2489726027	-60.9448979592
1618	0.809	-9.3421875	3.62307692308	-47.7003424658	-56.7193877551
1619	0.8095	-6.4890625	-6.44615384615	-42.0660958904	-56.7193877551
1620	0.81	-6.4890625	0.746153846154	-44.8832191781	-59.5363945578
1621	0.8105	-9.3421875	3.62307692308	-39.2489726027	-66.5789115646
1622	0.811	-7.915625	-0.692307692308	-42.0660958904	-66.5789115646
1623	0.8115	-7.915625	-0.692307692308	-43.4746575342	-63.7619047619
1624	0.812	-6.4890625	-3.56923076923	-46.2917808219	-52.493877551
1625	0.8125	-6.4890625	-6.44615384615	-40.6575342466	-46.8598639456
1626	0.813	-7.915625	0.746153846154	-40.6575342466	-42.6343537415
1627	0.8135	-7.915625	2.18461538462	-44.8832191781	-52.493877551
1628	0.814	-6.4890625	2.18461538462	-27.9804794521	-46.8598639456
1629	0.8145	-9.3421875	2.18461538462	-32.2061643836	-41.2258503401
1630	0.815	-9.3421875	-9.32307692308	-46.2917808219	-35.5918367347
1631	0.8155	-22.18125	0.746153846154	-43.4746575342	-37.0003401361
1632	0.816	-10.76875	2.18461538462	-42.0660958904	-38.4088435374
1633	0.8165	-6.4890625	3.62307692308	-44.8832191781	-37.0003401361
1634	0.817	-7.915625	2.18461538462	-46.2917808219	-35.5918367347
1635	0.8175	-10.76875	-5.00769230769	-53.3345890411	-25.7323129252
1636	0.818	-9.3421875	-2.13076923077	-49.1089041096	-28.5493197279
1637	0.8185	-12.1953125	0.746153846154	-46.2917808219	-28.5493197279
1638	0.819	-7.915625	0.746153846154	-47.7003424658	-38.4088435374
1639	0.8195	-10.76875	0.746153846154	-49.1089041096	-44.0428571429
1640	0.82	-10.76875	-0.692307692308	-54.7431506849	-38.4088435374
1641	0.8205	-7.915625	22.3230769231	-46.2917808219	-44.0428571429
1642	0.821	-7.915625	-0.692307692308	-46.2917808219	-51.0853741497
1643	0.8215	12.05625	0.746153846154	-46.2917808219	-56.7193877551
1644	0.822	-3.6359375	2.18461538462	-47.7003424658	-60.9448979592
1645	0.8225	-6.4890625	3.62307692308	-58.9688356164	-58.1278911565
1646	0.823	-9.3421875	6.5	-47.7003424658	-60.9448979592
1647	0.8235	-10.76875	16.5692307692	-44.8832191781	-60.9448979592
1648	0.824	-22.18125	0.746153846154	-43.4746575342	-59.5363945578
1649	0.8245	-7.915625	0.746153846154	-43.4746575342	-66.5789115646
1650	0.825	-6.4890625	0.746153846154	-53.3345890411	-63.7619047619
1651	0.8255	-5.0625	2.18461538462	-46.2917808219	-58.1278911565
1652	0.826	-6.4890625	-3.56923076923	-46.2917808219	-55.3108843537
1653	0.8265	-3.6359375	0.746153846154	-49.1089041096	-55.3108843537
1654	0.827	-12.1953125	2.18461538462	-49.1089041096	-58.1278911565
1655	0.8275	-6.4890625	0.746153846154	-47.7003424658	-42.6343537415
1656	0.828	-3.6359375	2.18461538462	-47.7003424658	-49.6768707483
1657	0.8285	-0.7828125	2.18461538462	-51.9260273973	-48.2683673469
1658	0.829	-2.209375	0.746153846154	-51.9260273973	-46.8598639456
1659	0.8295	-3.6359375	2.18461538462	-51.9260273973	-45.4513605442
1660	0.83	-2.209375	2.18461538462	-57.5602739726	-32.774829932
1661	0.8305	-2.209375	3.62307692308	-63.1945205479	-44.0428571429
1662	0.831	-0.7828125	2.18461538462	-67.4202054795	-41.2258503401
1663	0.8315	-3.6359375	2.18461538462	-57.5602739726	-39.8173469388
1664	0.832	-10.76875	0.746153846154	-57.5602739726	-37.0003401361
1665	0.8325	-10.76875	3.62307692308	-50.5174657534	-38.4088435374
1666	0.833	-2.209375	2.18461538462	-53.3345890411	-41.2258503401
1667	0.8335	-0.7828125	-0.692307692308	-42.0660958904	-44.0428571429
1668	0.834	-0.7828125	-10.7615384615	-57.5602739726	-46.8598639456
1669	0.8345	-9.3421875	0.746153846154	-60.3773972603	-48.2683673469
1670	0.835	-13.621875	-0.692307692308	-61.7859589041	-44.0428571429
1671	0.8355	-5.0625	-2.13076923077	-61.7859589041	-29.9578231293
1672	0.836	-6.4890625	0.746153846154	-49.1089041096	-45.4513605442
1673	0.8365	-7.915625	-7.88461538462	-58.9688356164	-44.0428571429
1674	0.837	-9.3421875	-7.88461538462	-61.7859589041	-41.2258503401
1675	0.8375	7.7765625	-0.692307692308	-60.3773972603	-42.6343537415
1676	0.838	-6.4890625	0.746153846154	-58.9688356164	-49.6768707483
1677	0.8385	-5.0625	2.18461538462	-57.5602739726	-35.5918367347
1678	0.839	-7.915625	-2.13076923077	-60.3773972603	-34.1833333333
1679	0.8395	-6.4890625	-6.44615384615	-57.5602739726	-31.3663265306
1680	0.84	-15.0484375	-0.692307692308	-60.3773972603	-28.5493197279
1681	0.8405	-7.915625	2.18461538462	-57.5602739726	-39.8173469388
1682	0.841	-9.3421875	2.18461538462	-43.4746575342	-28.5493197279
1683	0.8415	-10.76875	0.746153846154	-44.8832191781	-27.1408163265
1684	0.842	-6.4890625	-7.88461538462	-61.7859589041	-29.9578231293
1685	0.8425	-5.0625	-7.88461538462	-66.0116438356	-29.9578231293
1686	0.843	12.05625	3.62307692308	-63.1945205479	-37.0003401361
1687	0.8435	-5.0625	0.746153846154	-53.3345890411	-24.3238095238
1688	0.844	-6.4890625	0.746153846154	-49.1089041096	-20.0982993197
1689	0.8445	-5.0625	-7.88461538462	-64.6030821918	-24.3238095238
1690	0.845	-12.1953125	0.746153846154	-66.0116438356	-27.1408163265
1691	0.8455	-16.475	2.18461538462	-63.1945205479	-21.5068027211
1692	0.846	-5.0625	0.746153846154	-60.3773972603	-27.1408163265
1693	0.8465	-5.0625	0.746153846154	-66.0116438356	-25.7323129252
1694	0.847	-5.0625	5.06153846154	-66.0116438356	-31.3663265306
1695	0.8475	-0.7828125	-3.56923076923	-67.4202054795	-32.774829932
1696	0.848	13.4828125	0.746153846154	-66.0116438356	-35.5918367347
1697	0.8485	-5.0625	2.18461538462	-68.8287671233	-45.4513605442
1698	0.849	-5.0625	-0.692307692308	-81.5058219178	-37.0003401361
1699	0.8495	-3.6359375	3.62307692308	-73.0544520548	-37.0003401361
1700	0.85	-3.6359375	3.62307692308	-73.0544520548	-37.0003401361
1701	0.8505	-13.621875	2.18461538462	-71.645890411	-37.0003401361
1702	0.851	-2.209375	2.18461538462	-70.2373287671	-41.2258503401
1703	0.8515	-2.209375	-0.692307692308	-74.4630136986	-49.6768707483
1704	0.852	-0.7828125	2.18461538462	-75.8715753425	-44.0428571429
1705	0.8525	-0.7828125	-6.44615384615	-78.6886986301	-45.4513605442
1706	0.853	-2.209375	0.746153846154	-80.097260274	-48.2683673469
1707	0.8535	-12.1953125	0.746153846154	-80.097260274	-42.6343537415
1708	0.854	-2.209375	2.18461538462	-85.7315068493	-46.8598639456
1709	0.8545	-0.7828125	2.18461538462	-84.3229452055	-45.4513605442
1710	0.855	-2.209375	-10.7615384615	-78.6886986301	-46.8598639456
1711	0.8555	0.64375	-6.44615384615	-75.8715753425	-48.2683673469
1712	0.856	17.7625	0.746153846154	-75.8715753425	-46.8598639456
1713	0.8565	-2.209375	5.06153846154	-78.6886986301	-53.9023809524
1714	0.857	0.64375	0.746153846154	-68.8287671233	-44.0428571429
1715	0.8575	0.64375	2.18461538462	-78.6886986301	-46.8598639456
1716	0.858	2.0703125	9.37692307692	-80.097260274	-48.2683673469
1717	0.8585	2.0703125	2.18461538462	-81.5058219178	-49.6768707483
1718	0.859	2.0703125	2.18461538462	-82.9143835616	-49.6768707483
1719	0.8595	0.64375	5.06153846154	-87.1400684932	-35.5918367347
1720	0.86	0.64375	3.62307692308	-94.1828767123	-48.2683673469
1721	0.8605	0.64375	2.18461538462	-94.1828767123	-49.6768707483
1722	0.861	-2.209375	0.746153846154	-82.9143835616	-52.493877551
1723	0.8615	-10.76875	-2.13076923077	-82.9143835616	-53.9023809524
1724	0.862	2.0703125	2.18461538462	-89.9571917808	-60.9448979592
1725	0.8625	2.0703125	0.746153846154	-85.7315068493	-63.7619047619
1726	0.863	3.496875	5.06153846154	-82.9143835616	-58.1278911565
1727	0.8635	3.496875	-2.13076923077	-80.097260274	-58.1278911565
1728	0.864	-3.6359375	-3.56923076923	-78.6886986301	-55.3108843537
1729	0.8645	-7.915625	2.18461538462	-77.2801369863	-51.0853741497
1730	0.865	0.64375	0.746153846154	-75.8715753425	-37.0003401361
1731	0.8655	2.0703125	0.746153846154	-64.6030821918	-51.0853741497
1732	0.866	4.9234375	-9.32307692308	-81.5058219178	-48.2683673469
1733	0.8665	2.0703125	5.06153846154	-78.6886986301	-45.4513605442
1734	0.867	7.7765625	-0.692307692308	-77.2801369863	-46.8598639456
1735	0.8675	3.496875	2.18461538462	-75.8715753425	-53.9023809524
1736	0.868	2.0703125	0.746153846154	-80.097260274	-51.0853741497
1737	0.8685	2.0703125	3.62307692308	-82.9143835616	-42.6343537415
1738	0.869	4.9234375	16.5692307692	-78.6886986301	-41.2258503401
1739	0.8695	7.7765625	-2.13076923077	-81.5058219178	-41.2258503401
1740	0.87	0.64375	0.746153846154	-78.6886986301	-44.0428571429
1741	0.8705	-0.7828125	2.18461538462	-78.6886986301	-25.7323129252
1742	0.871	3.496875	2.18461538462	-73.0544520548	-39.8173469388
1743	0.8715	2.0703125	6.5	-82.9143835616	-37.0003401361
1744	0.872	-0.7828125	0.746153846154	-84.3229452055	-39.8173469388
1745	0.8725	0.64375	0.746153846154	-84.3229452055	-37.0003401361
1746	0.873	-7.915625	-0.692307692308	-81.5058219178	-38.4088435374
1747	0.8735	0.64375	2.18461538462	-87.1400684932	-41.2258503401
1748	0.874	0.64375	0.746153846154	-87.1400684932	-41.2258503401
1749	0.8745	0.64375	15.1307692308	-81.5058219178	-39.8173469388
1750	0.875	-0.7828125	19.4461538462	-82.9143835616	-41.2258503401
1751	0.8755	-6.4890625	0.746153846154	-81.5058219178	-38.4088435374
1752	0.876	0.64375	2.18461538462	-81.5058219178	-24.3238095238
1753	0.8765	3.496875	-0.692307692308	-67.4202054795	-41.2258503401
1754	0.877	3.496875	-5.00769230769	-88.548630137	-38.4088435374
1755	0.8775	0.64375	0.746153846154	-88.548630137	-39.8173469388
1756	0.878	-0.7828125	2.18461538462	-85.7315068493	-46.8598639456
1757	0.8785	0.64375	2.18461538462	-91.3657534247	-29.9578231293
1758	0.879	0.64375	-0.692307692308	-77.2801369863	-35.5918367347
1759	0.8795	0.64375	-3.56923076923	-84.3229452055	-35.5918367347
1760	0.88	-0.7828125	-3.56923076923	-84.3229452055	-37.0003401361
1761	0.8805	-2.209375	2.18461538462	-82.9143835616	-34.1833333333
1762	0.881	-7.915625	0.746153846154	-85.7315068493	-31.3663265306
1763	0.8815	-0.7828125	2.18461538462	-75.8715753425	-24.3238095238
1764	0.882	-2.209375	0.746153846154	-80.097260274	-29.9578231293
1765	0.8825	2.0703125	18.0076923077	-77.2801369863	-37.0003401361
1766	0.883	0.64375	2.18461538462	-75.8715753425	-41.2258503401
1767	0.8835	-7.915625	2.18461538462	-78.6886986301	-24.3238095238
1768	0.884	3.496875	0.746153846154	-77.2801369863	-18.6897959184
1769	0.8845	0.64375	2.18461538462	-85.7315068493	-25.7323129252
1770	0.885	0.64375	3.62307692308	-84.3229452055	-24.3238095238
1771	0.8855	-2.209375	20.8846153846	-75.8715753425	-25.7323129252
1772	0.886	-10.76875	-0.692307692308	-75.8715753425	-25.7323129252
1773	0.8865	4.9234375	3.62307692308	-74.4630136986	-39.8173469388
1774	0.887	3.496875	2.18461538462	-85.7315068493	-31.3663265306
1775	0.8875	2.0703125	2.18461538462	-78.6886986301	-32.774829932
1776	0.888	3.496875	18.0076923077	-80.097260274	-37.0003401361
1777	0.8885	-6.4890625	0.746153846154	-80.097260274	-32.774829932
1778	0.889	-6.4890625	0.746153846154	-80.097260274	-22.9153061224
1779	0.8895	0.64375	6.5	-82.9143835616	-31.3663265306
1780	0.89	0.64375	7.93846153846	-75.8715753425	-28.5493197279
1781	0.8905	4.9234375	0.746153846154	-78.6886986301	-28.5493197279
1782	0.891	4.9234375	-0.692307692308	-74.4630136986	-25.7323129252
1783	0.8915	3.496875	3.62307692308	-70.2373287671	-24.3238095238
1784	0.892	2.0703125	2.18461538462	-75.8715753425	-6.01326530612
1785	0.8925	2.0703125	2.18461538462	-64.6030821918	-7.42176870748
1786	0.893	3.496875	13.6923076923	-75.8715753425	-6.01326530612
1787	0.8935	0.64375	0.746153846154	-73.0544520548	-6.01326530612
1788	0.894	23.46875	2.18461538462	-70.2373287671	-4.60476190476
1789	0.8945	2.0703125	0.746153846154	-68.8287671233	-13.0557823129
1790	0.895	7.7765625	5.06153846154	-74.4630136986	-1.78775510204
1791	0.8955	2.0703125	-10.7615384615	-67.4202054795	2.43775510204
1792	0.896	7.7765625	-0.692307692308	-66.0116438356	6.66326530612
1793	0.8965	12.05625	-0.692307692308	-66.0116438356	13.7057823129
1794	0.897	3.496875	-0.692307692308	-66.0116438356	17.931292517
1795	0.8975	9.203125	0.746153846154	-64.6030821918	29.1993197279
1796	0.898	9.203125	2.18461538462	-68.8287671233	20.7482993197
1797	0.8985	9.203125	-5.00769230769	-68.8287671233	17.931292517
1798	0.899	9.203125	-2.13076923077	-67.4202054795	16.5227891156
1799	0.8995	2.0703125	2.18461538462	-70.2373287671	16.5227891156
1800	0.9	9.203125	0.746153846154	-70.2373287671	26.3823129252
1801	0.9005	7.7765625	3.62307692308	-68.8287671233	12.2972789116
1802	0.901	4.9234375	0.746153846154	-70.2373287671	8.07176870748
1803	0.9015	7.7765625	18.0076923077	-71.645890411	13.7057823129
1804	0.902	-5.0625	-0.692307692308	-68.8287671233	15.1142857143
1805	0.9025	7.7765625	0.746153846154	-70.2373287671	-3.1962585034
1806	0.903	9.203125	0.746153846154	-74.4630136986	3.8462585034
1807	0.9035	4.9234375	5.06153846154	-73.0544520548	3.8462585034
1808	0.904	3.496875	3.62307692308	-68.8287671233	-0.37925170068
1809	0.9045	4.9234375	-6.44615384615	-66.0116438356	-0.37925170068
1810	0.905	-2.209375	0.746153846154	-66.0116438356	8.07176870748
1811	0.9055	9.203125	0.746153846154	-64.6030821918	23.5653061224
1812	0.906	7.7765625	2.18461538462	-60.3773972603	6.66326530612
1813	0.9065	6.35	0.746153846154	-47.7003424658	2.43775510204
1814	0.907	3.496875	-5.00769230769	-67.4202054795	2.43775510204
1815	0.9075	-6.4890625	2.18461538462	-66.0116438356	2.43775510204
1816	0.908	2.0703125	5.06153846154	-66.0116438356	10.8887755102
1817	0.9085	9.203125	0.746153846154	-64.6030821918	13.7057823129
1818	0.909	10.6296875	0.746153846154	-68.8287671233	3.8462585034
1819	0.9095	10.6296875	-2.13076923077	-68.8287671233	2.43775510204
1820	0.91	12.05625	18.0076923077	-60.3773972603	-4.60476190476
1821	0.9105	-0.7828125	0.746153846154	-58.9688356164	-0.37925170068
1822	0.911	13.4828125	0.746153846154	-64.6030821918	-14.4642857143
1823	0.9115	12.05625	2.18461538462	-77.2801369863	-4.60476190476
1824	0.912	12.05625	5.06153846154	-61.7859589041	-1.78775510204
1825	0.9125	13.4828125	2.18461538462	-61.7859589041	1.02925170068
1826	0.913	19.1890625	-0.692307692308	-60.3773972603	2.43775510204
1827	0.9135	0.64375	0.746153846154	-63.1945205479	2.43775510204
1828	0.914	12.05625	0.746153846154	-61.7859589041	12.2972789116
1829	0.9145	10.6296875	3.62307692308	-67.4202054795	-0.37925170068
1830	0.915	10.6296875	18.0076923077	-66.0116438356	-1.78775510204
1831	0.9155	16.3359375	-2.13076923077	-66.0116438356	-0.37925170068
1832	0.916	27.7484375	0.746153846154	-68.8287671233	-3.1962585034
1833	0.9165	14.909375	-0.692307692308	-70.2373287671	13.7057823129
1834	0.917	13.4828125	-0.692307692308	-71.645890411	5.25476190476
1835	0.9175	16.3359375	0.746153846154	-68.8287671233	5.25476190476
1836	0.918	14.909375	-3.56923076923	-70.2373287671	1.02925170068
1837	0.9185	24.8953125	-0.692307692308	-71.645890411	-4.60476190476
1838	0.919	9.203125	2.18461538462	-74.4630136986	-0.37925170068
1839	0.9195	13.4828125	0.746153846154	-85.7315068493	-4.60476190476
1840	0.92	13.4828125	5.06153846154	-74.4630136986	-1.78775510204
1841	0.9205	12.05625	3.62307692308	-74.4630136986	2.43775510204
1842	0.921	12.05625	-2.13076923077	-74.4630136986	3.8462585034
1843	0.9215	7.7765625	-0.692307692308	-74.4630136986	13.7057823129
1844	0.922	14.909375	0.746153846154	-82.9143835616	-6.01326530612
1845	0.9225	10.6296875	0.746153846154	-68.8287671233	-6.01326530612
1846	0.923	9.203125	-3.56923076923	-77.2801369863	-6.01326530612
1847	0.9235	12.05625	0.746153846154	-78.6886986301	-8.83027210884
1848	0.924	4.9234375	3.62307692308	-71.645890411	-10.2387755102
1849	0.9245	-0.7828125	0.746153846154	-73.0544520548	-7.42176870748
1850	0.925	10.6296875	0.746153846154	-75.8715753425	-7.42176870748
1851	0.9255	12.05625	2.18461538462	-71.645890411	-3.1962585034
1852	0.926	7.7765625	18.0076923077	-64.6030821918	-3.1962585034
1853	0.9265	-6.4890625	2.18461538462	-63.1945205479	-1.78775510204
1854	0.927	0.64375	3.62307692308	-63.1945205479	-1.78775510204
1855	0.9275	9.203125	0.746153846154	-63.1945205479	5.25476190476
1856	0.928	9.203125	2.18461538462	-66.0116438356	-1.78775510204
1857	0.9285	10.6296875	2.18461538462	-60.3773972603	-3.1962585034
1858	0.929	10.6296875	2.18461538462	-53.3345890411	-6.01326530612
1859	0.9295	-3.6359375	2.18461538462	-53.3345890411	-8.83027210884
1860	0.93	10.6296875	-0.692307692308	-49.1089041096	5.25476190476
1861	0.9305	9.203125	2.18461538462	-57.5602739726	-7.42176870748
1862	0.931	12.05625	2.18461538462	-51.9260273973	-6.01326530612
1863	0.9315	4.9234375	-0.692307692308	-56.1517123288	-4.60476190476
1864	0.932	0.64375	-5.00769230769	-53.3345890411	-13.0557823129
1865	0.9325	23.46875	0.746153846154	-53.3345890411	-18.6897959184
1866	0.933	13.4828125	0.746153846154	-53.3345890411	-7.42176870748
1867	0.9335	10.6296875	-0.692307692308	-47.7003424658	-6.01326530612
1868	0.934	10.6296875	9.37692307692	-61.7859589041	-8.83027210884
