	Time	Channel 1	Channel 2	Channel 3	Channel 4
0	0.0	-894.225396825	-3393.0	-888.8	-890.725396825
1	0.0005	-894.225396825	-3393.0	-888.8	-890.725396825
2	0.001	-894.225396825	-3393.0	-888.8	-890.725396825
3	0.0015	-894.225396825	-3393.0	-888.8	-890.725396825
4	0.002	-894.225396825	-3393.0	-888.8	-890.725396825
5	0.0025	-894.225396825	-3393.0	-888.8	-890.725396825
6	0.003	-894.225396825	-3393.0	-888.8	-890.725396825
7	0.0035	-894.225396825	-3393.0	-888.8	-890.725396825
8	0.004	-894.225396825	-3393.0	-888.8	-890.725396825
9	0.0045	-894.225396825	-3393.0	-888.8	-890.725396825
10	0.005	-894.225396825	-3393.0	-888.8	-890.725396825
11	0.0055	-894.225396825	-3393.0	-888.8	-890.725396825
12	0.006	-894.225396825	-3393.0	-888.8	-890.725396825
13	0.0065	-894.225396825	-3393.0	-888.8	-890.725396825
14	0.007	-894.225396825	-3393.0	-888.8	-890.725396825
15	0.0075	-894.225396825	-3393.0	-888.8	-890.725396825
16	0.008	-894.225396825	-3393.0	-888.8	-890.725396825
17	0.0085	-894.225396825	-3393.0	-888.8	-890.725396825
18	0.009	-894.225396825	-3393.0	-888.8	-890.725396825
19	0.0095	-894.225396825	-3393.0	-888.8	-890.725396825
20	0.01	-894.225396825	-3393.0	-888.8	-890.725396825
21	0.0105	-894.225396825	-3393.0	-888.8	-890.725396825
22	0.011	-894.225396825	-3393.0	-888.8	-890.725396825
23	0.0115	-894.225396825	-3393.0	-888.8	-890.725396825
24	0.012	-894.225396825	-3393.0	-888.8	-890.725396825
25	0.0125	-894.225396825	-3393.0	-888.8	-890.725396825
26	0.013	-894.225396825	-3393.0	-888.8	-890.725396825
27	0.0135	-894.225396825	-3393.0	-888.8	-890.725396825
28	0.014	-894.225396825	-3393.0	-888.8	-890.725396825
29	0.0145	-894.225396825	-3393.0	-888.8	-890.725396825
30	0.015	-894.225396825	-3393.0	-888.8	-890.725396825
31	0.0155	-894.225396825	-3393.0	-888.8	-890.725396825
32	0.016	-894.225396825	-3393.0	-888.8	-890.725396825
33	0.0165	-894.225396825	-3393.0	-888.8	-890.725396825
34	0.017	-894.225396825	-3393.0	-888.8	-890.725396825
35	0.0175	-894.225396825	-3393.0	-888.8	-890.725396825
36	0.018	-894.225396825	-3393.0	-888.8	-890.725396825
37	0.0185	-894.225396825	-3393.0	-888.8	-890.725396825
38	0.019	-894.225396825	-3393.0	-888.8	-890.725396825
39	0.0195	-894.225396825	-3393.0	-888.8	-890.725396825
40	0.02	-894.225396825	-3393.0	-888.8	-890.725396825
41	0.0205	-894.225396825	-3393.0	-888.8	-890.725396825
42	0.021	-894.225396825	-3393.0	-888.8	-890.725396825
43	0.0215	-894.225396825	-3393.0	-888.8	-890.725396825
44	0.022	-894.225396825	-3393.0	-888.8	-890.725396825
45	0.0225	-894.225396825	-3393.0	-888.8	-890.725396825
46	0.023	-894.225396825	-3393.0	-888.8	-890.725396825
47	0.0235	-894.225396825	-3393.0	-888.8	-890.725396825
48	0.024	-894.225396825	-3393.0	-888.8	-890.725396825
49	0.0245	-894.225396825	-3393.0	-888.8	-890.725396825
50	0.025	-894.225396825	-3393.0	-888.8	-890.725396825
51	0.0255	-894.225396825	-3393.0	-888.8	-890.725396825
52	0.026	-894.225396825	-3393.0	-888.8	-890.725396825
53	0.0265	-894.225396825	-3393.0	-888.8	-890.725396825
54	0.027	-894.225396825	-3393.0	-888.8	-890.725396825
55	0.0275	-894.225396825	-3393.0	-888.8	-890.725396825
56	0.028	-894.225396825	-3393.0	-888.8	-890.725396825
57	0.0285	-894.225396825	-3393.0	-888.8	-890.725396825
58	0.029	-894.225396825	-3393.0	-888.8	-890.725396825
59	0.0295	-894.225396825	-3393.0	-888.8	-890.725396825
60	0.03	-894.225396825	-3393.0	-888.8	-890.725396825
61	0.0305	-894.225396825	-3393.0	-888.8	-890.725396825
62	0.031	-894.225396825	-3393.0	-888.8	-890.725396825
63	0.0315	-894.225396825	-3393.0	-888.8	-890.725396825
64	0.032	-894.225396825	-3393.0	-888.8	-890.725396825
65	0.0325	-894.225396825	-3393.0	-888.8	-890.725396825
66	0.033	-894.225396825	-3393.0	-888.8	-890.725396825
67	0.0335	-894.225396825	-3393.0	-888.8	-890.725396825
68	0.034	-894.225396825	-3393.0	-888.8	-890.725396825
69	0.0345	-894.225396825	-3393.0	-888.8	-890.725396825
70	0.035	-894.225396825	-3393.0	-888.8	-890.725396825
71	0.0355	-894.225396825	-3393.0	-888.8	-890.725396825
72	0.036	-894.225396825	-3393.0	-888.8	-890.725396825
73	0.0365	-894.225396825	-3393.0	-888.8	-890.725396825
74	0.037	-894.225396825	-3393.0	-888.8	-890.725396825
75	0.0375	-894.225396825	-3393.0	-888.8	-890.725396825
76	0.038	-894.225396825	-3393.0	-888.8	-890.725396825
77	0.0385	-894.225396825	-3393.0	-888.8	-890.725396825
78	0.039	-894.225396825	-3393.0	-888.8	-890.725396825
79	0.0395	-894.225396825	-3393.0	-888.8	-890.725396825
80	0.04	-894.225396825	-3393.0	-888.8	-890.725396825
81	0.0405	-894.225396825	-3393.0	-888.8	-890.725396825
82	0.041	-894.225396825	-3393.0	-888.8	-890.725396825
83	0.0415	-894.225396825	-3393.0	-888.8	-890.725396825
84	0.042	-894.225396825	-3393.0	-888.8	-890.725396825
85	0.0425	-894.225396825	-3393.0	-888.8	-890.725396825
86	0.043	-894.225396825	-3393.0	-888.8	-890.725396825
87	0.0435	-894.225396825	-3393.0	-888.8	-890.725396825
88	0.044	-894.225396825	-3393.0	-888.8	-890.725396825
89	0.0445	-894.225396825	-3393.0	-888.8	-890.725396825
90	0.045	-894.225396825	-3393.0	-888.8	-890.725396825
91	0.0455	-894.225396825	-3393.0	-888.8	-890.725396825
92	0.046	-894.225396825	-3393.0	-888.8	-890.725396825
93	0.0465	-894.225396825	-3393.0	-888.8	-890.725396825
94	0.047	-894.225396825	-3393.0	-888.8	-890.725396825
95	0.0475	-894.225396825	-3393.0	-888.8	-890.725396825
96	0.048	-894.225396825	-3393.0	-888.8	-890.725396825
97	0.0485	-894.225396825	-3393.0	-888.8	-890.725396825
98	0.049	-894.225396825	-3393.0	-888.8	-890.725396825
99	0.0495	-894.225396825	-3393.0	-888.8	-890.725396825
100	0.05	-894.225396825	-3393.0	-888.8	-890.725396825
101	0.0505	-894.225396825	-3393.0	-888.8	-890.725396825
102	0.051	-894.225396825	-3393.0	-888.8	-890.725396825
103	0.0515	-894.225396825	-3393.0	-888.8	-890.725396825
104	0.052	-894.225396825	-3393.0	-888.8	-890.725396825
105	0.0525	-894.225396825	-3393.0	-888.8	-890.725396825
106	0.053	-894.225396825	-3393.0	-888.8	-890.725396825
107	0.0535	-894.225396825	-3393.0	-888.8	-890.725396825
108	0.054	-894.225396825	-3393.0	-888.8	-890.725396825
109	0.0545	-894.225396825	-3393.0	-888.8	-890.725396825
110	0.055	-894.225396825	-3393.0	-888.8	-890.725396825
111	0.0555	-894.225396825	-3393.0	-888.8	-890.725396825
112	0.056	-894.225396825	-3393.0	-888.8	-890.725396825
113	0.0565	-894.225396825	-3393.0	-888.8	-890.725396825
114	0.057	-894.225396825	-3393.0	-888.8	-890.725396825
115	0.0575	-894.225396825	-3393.0	-888.8	-890.725396825
116	0.058	-894.225396825	-3393.0	-888.8	-890.725396825
117	0.0585	-894.225396825	-3393.0	-888.8	-890.725396825
118	0.059	-894.225396825	-3393.0	-888.8	-890.725396825
119	0.0595	-894.225396825	-3393.0	-888.8	-890.725396825
120	0.06	-894.225396825	-3393.0	-888.8	-890.725396825
121	0.0605	-894.225396825	-3393.0	-888.8	-890.725396825
122	0.061	-894.225396825	-3393.0	-888.8	-890.725396825
123	0.0615	-894.225396825	-3393.0	-888.8	-890.725396825
124	0.062	-894.225396825	-3393.0	-888.8	-890.725396825
125	0.0625	-894.225396825	-3393.0	-888.8	-890.725396825
126	0.063	-894.225396825	-3393.0	-888.8	-890.725396825
127	0.0635	-894.225396825	-3393.0	-888.8	-890.725396825
128	0.064	-894.225396825	-3393.0	-888.8	-890.725396825
129	0.0645	-894.225396825	-3393.0	-888.8	-890.725396825
130	0.065	-894.225396825	-3393.0	-888.8	-890.725396825
131	0.0655	-894.225396825	-3393.0	-888.8	-890.725396825
132	0.066	-894.225396825	-3393.0	-888.8	-890.725396825
133	0.0665	-894.225396825	-3393.0	-888.8	-890.725396825
134	0.067	-894.225396825	-3393.0	-888.8	-890.725396825
135	0.0675	-894.225396825	-3393.0	-888.8	-890.725396825
136	0.068	-894.225396825	-3393.0	-888.8	-890.725396825
137	0.0685	-894.225396825	-3393.0	-888.8	-890.725396825
138	0.069	-894.225396825	-3393.0	-888.8	-890.725396825
139	0.0695	-894.225396825	-3393.0	-888.8	-890.725396825
140	0.07	-894.225396825	-3393.0	-888.8	-890.725396825
141	0.0705	-894.225396825	-3393.0	-888.8	-890.725396825
142	0.071	-894.225396825	-3393.0	-888.8	-799.5
143	0.0715	-894.225396825	-3393.0	-888.8	-890.725396825
144	0.072	-894.225396825	-3393.0	-888.8	-890.725396825
145	0.0725	-894.225396825	-3393.0	-888.8	-890.725396825
146	0.073	-894.225396825	-3393.0	-888.8	-890.725396825
147	0.0735	-894.225396825	-3393.0	-888.8	-799.5
148	0.074	-894.225396825	-3393.0	-888.8	-890.725396825
149	0.0745	-894.225396825	-3393.0	-888.8	-890.725396825
150	0.075	-894.225396825	-3393.0	-888.8	-890.725396825
151	0.0755	-894.225396825	-3393.0	-888.8	-890.725396825
152	0.076	-894.225396825	-3393.0	-888.8	-890.725396825
153	0.0765	-894.225396825	-3393.0	-888.8	-890.725396825
154	0.077	-894.225396825	-3393.0	-888.8	-890.725396825
155	0.0775	-894.225396825	-3393.0	-888.8	-890.725396825
156	0.078	-894.225396825	-3393.0	-888.8	-890.725396825
157	0.0785	-894.225396825	-3393.0	-888.8	-890.725396825
158	0.079	-894.225396825	-3393.0	-888.8	-890.725396825
159	0.0795	-894.225396825	-3393.0	-888.8	-890.725396825
160	0.08	-894.225396825	-3393.0	-888.8	-890.725396825
161	0.0805	-894.225396825	-3393.0	-888.8	-890.725396825
162	0.081	-894.225396825	-3393.0	-888.8	-890.725396825
163	0.0815	-894.225396825	-3393.0	-888.8	-890.725396825
164	0.082	-894.225396825	-3393.0	-888.8	-845.112698413
165	0.0825	-894.225396825	-3393.0	-888.8	-890.725396825
166	0.083	-894.225396825	-3393.0	-888.8	-890.725396825
167	0.0835	-894.225396825	-3393.0	-888.8	-890.725396825
168	0.084	-894.225396825	-3393.0	-888.8	-890.725396825
169	0.0845	-894.225396825	-3393.0	-888.8	-890.725396825
170	0.085	-894.225396825	-3393.0	-888.8	-890.725396825
171	0.0855	-894.225396825	-3393.0	-888.8	-890.725396825
172	0.086	-894.225396825	-3393.0	-888.8	-890.725396825
173	0.0865	-894.225396825	-3393.0	-888.8	-890.725396825
174	0.087	-894.225396825	-3393.0	-888.8	-890.725396825
175	0.0875	-894.225396825	-3393.0	-888.8	-890.725396825
176	0.088	-894.225396825	-3393.0	-888.8	-890.725396825
177	0.0885	-894.225396825	-3393.0	-888.8	-890.725396825
178	0.089	-894.225396825	-3393.0	-888.8	-890.725396825
179	0.0895	-894.225396825	-3393.0	-888.8	-799.5
180	0.09	-894.225396825	-3393.0	-888.8	-799.5
181	0.0905	-894.225396825	-3393.0	-888.8	-890.725396825
182	0.091	-894.225396825	-3393.0	-888.8	-890.725396825
183	0.0915	-894.225396825	-3393.0	-888.8	-890.725396825
184	0.092	-894.225396825	-3393.0	-888.8	-890.725396825
185	0.0925	-894.225396825	-3393.0	-888.8	-890.725396825
186	0.093	-894.225396825	-3393.0	-888.8	-890.725396825
187	0.0935	-894.225396825	-3393.0	-888.8	-890.725396825
188	0.094	-894.225396825	-3393.0	-888.8	-890.725396825
189	0.0945	-894.225396825	-3393.0	-888.8	-890.725396825
190	0.095	-894.225396825	-3393.0	-888.8	-890.725396825
191	0.0955	-894.225396825	-3393.0	-888.8	-890.725396825
192	0.096	-894.225396825	-3393.0	-888.8	-890.725396825
193	0.0965	-894.225396825	-3393.0	-888.8	-890.725396825
194	0.097	-894.225396825	-3393.0	-888.8	-890.725396825
195	0.0975	-894.225396825	-3393.0	-888.8	-890.725396825
196	0.098	-894.225396825	-3393.0	-888.8	-890.725396825
197	0.0985	-894.225396825	-3393.0	-888.8	-890.725396825
198	0.099	-894.225396825	-3393.0	-888.8	-890.725396825
199	0.0995	-894.225396825	-3393.0	-888.8	-890.725396825
200	0.1	-894.225396825	-3393.0	-888.8	-890.725396825
201	0.1005	-894.225396825	-3393.0	-888.8	-890.725396825
202	0.101	-894.225396825	-3393.0	-888.8	-890.725396825
203	0.1015	-894.225396825	-3393.0	-888.8	-890.725396825
204	0.102	-894.225396825	-3393.0	-888.8	-890.725396825
205	0.1025	-894.225396825	-3393.0	-888.8	-890.725396825
206	0.103	-894.225396825	-3393.0	-888.8	-890.725396825
207	0.1035	-894.225396825	-3393.0	-888.8	-890.725396825
208	0.104	-894.225396825	-3393.0	-888.8	-890.725396825
209	0.1045	-894.225396825	-3393.0	-888.8	-890.725396825
210	0.105	-894.225396825	-3393.0	-888.8	-890.725396825
211	0.1055	-894.225396825	-3393.0	-888.8	-890.725396825
212	0.106	-894.225396825	-3393.0	-888.8	-890.725396825
213	0.1065	-894.225396825	-3393.0	-888.8	-890.725396825
214	0.107	-894.225396825	-3393.0	-888.8	-890.725396825
215	0.1075	-894.225396825	-3393.0	-888.8	-890.725396825
216	0.108	-894.225396825	-3393.0	-888.8	-890.725396825
217	0.1085	-894.225396825	-3393.0	-888.8	-890.725396825
218	0.109	-894.225396825	-3393.0	-888.8	-890.725396825
219	0.1095	-894.225396825	-3393.0	-888.8	-890.725396825
220	0.11	-894.225396825	-3393.0	-888.8	-890.725396825
221	0.1105	-894.225396825	-3393.0	-888.8	-890.725396825
222	0.111	-894.225396825	-3393.0	-888.8	-890.725396825
223	0.1115	-894.225396825	-3393.0	-888.8	-890.725396825
224	0.112	-894.225396825	-3393.0	-888.8	-890.725396825
225	0.1125	-894.225396825	-3393.0	-888.8	-890.725396825
226	0.113	-894.225396825	-3393.0	-888.8	-890.725396825
227	0.1135	-894.225396825	-3393.0	-888.8	-890.725396825
228	0.114	-894.225396825	-3393.0	-888.8	-890.725396825
229	0.1145	-894.225396825	-3393.0	-888.8	-890.725396825
230	0.115	-894.225396825	-3393.0	-888.8	-890.725396825
231	0.1155	-894.225396825	-3393.0	-888.8	-890.725396825
232	0.116	-894.225396825	-3393.0	-888.8	-890.725396825
233	0.1165	-894.225396825	-3393.0	-888.8	-890.725396825
234	0.117	-894.225396825	-3393.0	-888.8	-890.725396825
235	0.1175	-894.225396825	-3393.0	-888.8	-890.725396825
236	0.118	-894.225396825	-3393.0	-888.8	-890.725396825
237	0.1185	-894.225396825	-3393.0	-888.8	-890.725396825
238	0.119	-894.225396825	-3393.0	-888.8	-890.725396825
239	0.1195	-894.225396825	-3393.0	-888.8	-890.725396825
240	0.12	-894.225396825	-3393.0	-888.8	-890.725396825
241	0.1205	-894.225396825	-3393.0	-888.8	-890.725396825
242	0.121	-894.225396825	-3393.0	-888.8	-890.725396825
243	0.1215	-894.225396825	-3393.0	-888.8	-890.725396825
244	0.122	-894.225396825	-3393.0	-888.8	-890.725396825
245	0.1225	-894.225396825	-3393.0	-888.8	-890.725396825
246	0.123	-894.225396825	-3393.0	-888.8	-890.725396825
247	0.1235	-894.225396825	-3393.0	-888.8	-890.725396825
248	0.124	-894.225396825	-3393.0	-888.8	-890.725396825
249	0.1245	-894.225396825	-3393.0	-888.8	-890.725396825
250	0.125	-894.225396825	-3393.0	-888.8	-890.725396825
251	0.1255	-894.225396825	-3393.0	-888.8	-890.725396825
252	0.126	-894.225396825	-3393.0	-888.8	-890.725396825
253	0.1265	-894.225396825	-3393.0	-888.8	-890.725396825
254	0.127	-894.225396825	-3393.0	-888.8	-890.725396825
255	0.1275	-894.225396825	-3393.0	-888.8	-890.725396825
256	0.128	-894.225396825	-3393.0	-888.8	-890.725396825
257	0.1285	-894.225396825	-3393.0	-888.8	-890.725396825
258	0.129	-894.225396825	-3393.0	-888.8	-890.725396825
259	0.1295	-894.225396825	-3393.0	-888.8	-890.725396825
260	0.13	-894.225396825	-3393.0	-888.8	-890.725396825
261	0.1305	-894.225396825	-3393.0	-888.8	-890.725396825
262	0.131	-894.225396825	-3393.0	-888.8	-890.725396825
263	0.1315	-894.225396825	-3393.0	-888.8	-890.725396825
264	0.132	-894.225396825	-3393.0	-888.8	-890.725396825
265	0.1325	-894.225396825	-3393.0	-888.8	-890.725396825
266	0.133	-894.225396825	-3393.0	-888.8	-890.725396825
267	0.1335	-894.225396825	-3393.0	-888.8	-890.725396825
268	0.134	-894.225396825	-3393.0	-888.8	-890.725396825
269	0.1345	-894.225396825	-3393.0	-888.8	-890.725396825
270	0.135	-894.225396825	-3393.0	-888.8	-890.725396825
271	0.1355	-894.225396825	-3393.0	-888.8	-890.725396825
272	0.136	-894.225396825	-3393.0	-888.8	-890.725396825
273	0.1365	-894.225396825	-3393.0	-888.8	-890.725396825
274	0.137	-894.225396825	-3393.0	-888.8	-890.725396825
275	0.1375	-894.225396825	-3393.0	-888.8	-890.725396825
276	0.138	-894.225396825	-3393.0	-888.8	-890.725396825
277	0.1385	-894.225396825	-3393.0	-888.8	-890.725396825
278	0.139	-894.225396825	-3393.0	-888.8	-890.725396825
279	0.1395	-894.225396825	-3393.0	-888.8	-890.725396825
280	0.14	-894.225396825	-3393.0	-888.8	-890.725396825
281	0.1405	-894.225396825	-3393.0	-888.8	-890.725396825
282	0.141	-894.225396825	-3393.0	-888.8	-890.725396825
283	0.1415	-894.225396825	-3393.0	-888.8	-890.725396825
284	0.142	-894.225396825	-3393.0	-888.8	-890.725396825
285	0.1425	-894.225396825	-3393.0	-888.8	-890.725396825
286	0.143	-894.225396825	-3393.0	-888.8	-890.725396825
287	0.1435	-894.225396825	-3393.0	-888.8	-890.725396825
288	0.144	-894.225396825	-3393.0	-888.8	-890.725396825
289	0.1445	-894.225396825	-3393.0	-888.8	-890.725396825
290	0.145	-894.225396825	-3393.0	-888.8	-890.725396825
291	0.1455	-894.225396825	-3393.0	-888.8	-890.725396825
292	0.146	-894.225396825	-3393.0	-888.8	-890.725396825
293	0.1465	-894.225396825	-3393.0	-888.8	-890.725396825
294	0.147	-894.225396825	-3393.0	-888.8	-890.725396825
295	0.1475	-894.225396825	-3393.0	-888.8	-890.725396825
296	0.148	-894.225396825	-3393.0	-888.8	-890.725396825
297	0.1485	-894.225396825	-3393.0	-888.8	-890.725396825
298	0.149	-894.225396825	-3393.0	-888.8	-890.725396825
299	0.1495	-894.225396825	-3393.0	-888.8	-890.725396825
300	0.15	-894.225396825	-3393.0	-888.8	-890.725396825
301	0.1505	-894.225396825	-3393.0	-888.8	-890.725396825
302	0.151	-894.225396825	-3393.0	-888.8	-890.725396825
303	0.1515	-894.225396825	-3393.0	-888.8	-890.725396825
304	0.152	-894.225396825	-3393.0	-888.8	-890.725396825
305	0.1525	-894.225396825	-3393.0	-888.8	-890.725396825
306	0.153	-894.225396825	-3393.0	-888.8	-890.725396825
307	0.1535	-894.225396825	-3393.0	-888.8	-890.725396825
308	0.154	-894.225396825	-3393.0	-888.8	-890.725396825
309	0.1545	-894.225396825	-3393.0	-888.8	-890.725396825
310	0.155	-894.225396825	-3393.0	-888.8	-890.725396825
311	0.1555	-894.225396825	-3393.0	-888.8	-890.725396825
312	0.156	-894.225396825	-3393.0	-888.8	-890.725396825
313	0.1565	-894.225396825	-3393.0	-888.8	-890.725396825
314	0.157	-894.225396825	-3393.0	-888.8	-890.725396825
315	0.1575	-894.225396825	-3393.0	-888.8	-890.725396825
316	0.158	-894.225396825	-3393.0	-888.8	-890.725396825
317	0.1585	-894.225396825	-3393.0	-888.8	-890.725396825
318	0.159	-894.225396825	-3393.0	-888.8	-890.725396825
319	0.1595	-894.225396825	-3393.0	-888.8	-890.725396825
320	0.16	-894.225396825	-3393.0	-888.8	-890.725396825
321	0.1605	-894.225396825	-3393.0	-888.8	-890.725396825
322	0.161	-894.225396825	-3393.0	-888.8	-890.725396825
323	0.1615	-894.225396825	-3393.0	-888.8	-890.725396825
324	0.162	-894.225396825	-3393.0	-888.8	-890.725396825
325	0.1625	-894.225396825	-3393.0	-888.8	-890.725396825
326	0.163	-894.225396825	-3393.0	-888.8	-890.725396825
327	0.1635	-894.225396825	-3393.0	-888.8	-890.725396825
328	0.164	-894.225396825	-3393.0	-888.8	-890.725396825
329	0.1645	-894.225396825	-3393.0	-888.8	-890.725396825
330	0.165	-894.225396825	-3393.0	-888.8	-890.725396825
331	0.1655	-894.225396825	-3393.0	-888.8	-890.725396825
332	0.166	-894.225396825	-3393.0	-888.8	-890.725396825
333	0.1665	-894.225396825	-3393.0	-888.8	-890.725396825
334	0.167	-894.225396825	-3393.0	-888.8	-890.725396825
335	0.1675	-894.225396825	-3393.0	-888.8	-890.725396825
336	0.168	-894.225396825	-3393.0	-888.8	-890.725396825
337	0.1685	-894.225396825	-3393.0	-888.8	-890.725396825
338	0.169	-894.225396825	-3393.0	-888.8	-890.725396825
339	0.1695	-894.225396825	-3393.0	-888.8	-890.725396825
340	0.17	-894.225396825	-3393.0	-888.8	-890.725396825
341	0.1705	-894.225396825	-3393.0	-888.8	-890.725396825
342	0.171	-894.225396825	-3393.0	-888.8	-890.725396825
343	0.1715	-894.225396825	-3393.0	-888.8	-890.725396825
344	0.172	-894.225396825	-3393.0	-888.8	-890.725396825
345	0.1725	-894.225396825	-3393.0	-888.8	-890.725396825
346	0.173	-894.225396825	-3393.0	-888.8	-890.725396825
347	0.1735	-894.225396825	-3393.0	-888.8	-890.725396825
348	0.174	-894.225396825	-3393.0	-888.8	-890.725396825
349	0.1745	-894.225396825	-3393.0	-888.8	-890.725396825
350	0.175	-894.225396825	-3393.0	-888.8	-890.725396825
351	0.1755	-894.225396825	-3393.0	-888.8	-890.725396825
352	0.176	-894.225396825	-3393.0	-888.8	-890.725396825
353	0.1765	-894.225396825	-3393.0	-888.8	-890.725396825
354	0.177	-894.225396825	-3393.0	-888.8	-890.725396825
355	0.1775	-894.225396825	-3393.0	-888.8	-890.725396825
356	0.178	-894.225396825	-3393.0	-888.8	-890.725396825
357	0.1785	-894.225396825	-3393.0	-888.8	-890.725396825
358	0.179	-894.225396825	-3393.0	-888.8	-890.725396825
359	0.1795	-894.225396825	-3393.0	-888.8	-890.725396825
360	0.18	-894.225396825	-3393.0	-888.8	-890.725396825
361	0.1805	-894.225396825	-3393.0	-888.8	-890.725396825
362	0.181	-894.225396825	-3393.0	-888.8	-890.725396825
363	0.1815	-894.225396825	-3393.0	-888.8	-890.725396825
364	0.182	-894.225396825	-3393.0	-888.8	-890.725396825
365	0.1825	-894.225396825	-3393.0	-888.8	-890.725396825
366	0.183	-894.225396825	-3393.0	-888.8	-890.725396825
367	0.1835	-894.225396825	-3393.0	-888.8	-890.725396825
368	0.184	-894.225396825	-3393.0	-888.8	-890.725396825
369	0.1845	-894.225396825	-3393.0	-888.8	-890.725396825
370	0.185	-894.225396825	-3393.0	-888.8	-890.725396825
371	0.1855	-894.225396825	-3393.0	-888.8	-890.725396825
372	0.186	-894.225396825	-3393.0	-888.8	-890.725396825
373	0.1865	-894.225396825	-3393.0	-888.8	-890.725396825
374	0.187	-894.225396825	-3393.0	-888.8	-890.725396825
375	0.1875	-894.225396825	-3393.0	-888.8	-890.725396825
376	0.188	-894.225396825	-3393.0	-888.8	-890.725396825
377	0.1885	-894.225396825	-3393.0	-888.8	-890.725396825
378	0.189	-894.225396825	-3393.0	-888.8	-890.725396825
379	0.1895	-894.225396825	-3393.0	-888.8	-890.725396825
380	0.19	-894.225396825	-3393.0	-888.8	-890.725396825
381	0.1905	-894.225396825	-3393.0	-888.8	-890.725396825
382	0.191	-894.225396825	-3393.0	-888.8	-890.725396825
383	0.1915	-894.225396825	-3393.0	-888.8	-890.725396825
384	0.192	-894.225396825	-3393.0	-888.8	-890.725396825
385	0.1925	-894.225396825	-3393.0	-888.8	-890.725396825
386	0.193	-894.225396825	-3393.0	-888.8	-890.725396825
387	0.1935	-894.225396825	-3393.0	-888.8	-890.725396825
388	0.194	-894.225396825	-3393.0	-888.8	-890.725396825
389	0.1945	-894.225396825	-3393.0	-888.8	-890.725396825
390	0.195	-894.225396825	-3393.0	-888.8	-890.725396825
391	0.1955	-894.225396825	-3393.0	-888.8	-890.725396825
392	0.196	-894.225396825	-3393.0	-888.8	-890.725396825
393	0.1965	-894.225396825	-3393.0	-888.8	-890.725396825
394	0.197	-894.225396825	-3393.0	-888.8	-890.725396825
395	0.1975	-894.225396825	-3393.0	-888.8	-890.725396825
396	0.198	-894.225396825	-3393.0	-888.8	-890.725396825
397	0.1985	-894.225396825	-3393.0	-888.8	-890.725396825
398	0.199	-894.225396825	-3393.0	-888.8	-890.725396825
399	0.1995	-894.225396825	-3393.0	-888.8	-890.725396825
400	0.2	-894.225396825	-3393.0	-888.8	-890.725396825
401	0.2005	-894.225396825	-3393.0	-888.8	-890.725396825
402	0.201	-894.225396825	-3393.0	-888.8	-890.725396825
403	0.2015	-894.225396825	-3393.0	-888.8	-890.725396825
404	0.202	-894.225396825	-3393.0	-888.8	-890.725396825
405	0.2025	-894.225396825	-3393.0	-888.8	-890.725396825
406	0.203	-894.225396825	-3393.0	-888.8	-799.5
407	0.2035	-894.225396825	-3393.0	-888.8	-890.725396825
408	0.204	-894.225396825	-3393.0	-888.8	-890.725396825
409	0.2045	-894.225396825	-3393.0	-888.8	-890.725396825
410	0.205	-894.225396825	-3393.0	-888.8	-890.725396825
411	0.2055	-894.225396825	-3393.0	-888.8	-799.5
412	0.206	-894.225396825	-3393.0	-888.8	-890.725396825
413	0.2065	-894.225396825	-3393.0	-888.8	-890.725396825
414	0.207	-894.225396825	-3393.0	-888.8	-890.725396825
415	0.2075	-894.225396825	-3393.0	-888.8	-890.725396825
416	0.208	-894.225396825	-3393.0	-888.8	-890.725396825
417	0.2085	-894.225396825	-3393.0	-888.8	-890.725396825
418	0.209	-894.225396825	-3393.0	-888.8	-890.725396825
419	0.2095	-894.225396825	-3393.0	-888.8	-890.725396825
420	0.21	-894.225396825	-3393.0	-888.8	-890.725396825
421	0.2105	-894.225396825	-3393.0	-888.8	-890.725396825
422	0.211	-894.225396825	-3393.0	-888.8	-890.725396825
423	0.2115	-894.225396825	-3393.0	-888.8	-890.725396825
424	0.212	-894.225396825	-3393.0	-888.8	-890.725396825
425	0.2125	-894.225396825	-3393.0	-888.8	-890.725396825
426	0.213	-894.225396825	-3393.0	-888.8	-890.725396825
427	0.2135	-894.225396825	-3393.0	-888.8	-890.725396825
428	0.214	-894.225396825	-3393.0	-888.8	-890.725396825
429	0.2145	-894.225396825	-3393.0	-888.8	-890.725396825
430	0.215	-894.225396825	-3393.0	-888.8	-890.725396825
431	0.2155	-894.225396825	-3393.0	-888.8	-890.725396825
432	0.216	-894.225396825	-3393.0	-888.8	-890.725396825
433	0.2165	-894.225396825	-3393.0	-888.8	-890.725396825
434	0.217	-894.225396825	-3393.0	-888.8	-890.725396825
435	0.2175	-894.225396825	-3393.0	-888.8	-890.725396825
436	0.218	-894.225396825	-3393.0	-888.8	-890.725396825
437	0.2185	-894.225396825	-3393.0	-888.8	-890.725396825
438	0.219	-894.225396825	-3393.0	-888.8	-799.5
439	0.2195	-894.225396825	-3393.0	-888.8	-890.725396825
440	0.22	-894.225396825	-3393.0	-888.8	-890.725396825
441	0.2205	-894.225396825	-3393.0	-888.8	-890.725396825
442	0.221	-894.225396825	-3393.0	-888.8	-890.725396825
443	0.2215	-894.225396825	-3393.0	-888.8	-890.725396825
444	0.222	-894.225396825	-3393.0	-888.8	-890.725396825
445	0.2225	-894.225396825	-3393.0	-888.8	-890.725396825
446	0.223	-894.225396825	-3393.0	-888.8	-890.725396825
447	0.2235	-894.225396825	-3393.0	-888.8	-890.725396825
448	0.224	-894.225396825	-3393.0	-888.8	-890.725396825
449	0.2245	-894.225396825	-3393.0	-888.8	-890.725396825
450	0.225	-894.225396825	-3393.0	-888.8	-890.725396825
451	0.2255	-894.225396825	-3393.0	-888.8	-799.5
452	0.226	-894.225396825	-3393.0	-888.8	-799.5
453	0.2265	-894.225396825	-3393.0	-888.8	-890.725396825
454	0.227	-894.225396825	-3393.0	-888.8	-890.725396825
455	0.2275	-894.225396825	-3393.0	-888.8	-890.725396825
456	0.228	-894.225396825	-3393.0	-888.8	-890.725396825
457	0.2285	-894.225396825	-3393.0	-888.8	-890.725396825
458	0.229	-894.225396825	-3393.0	-888.8	-890.725396825
459	0.2295	-894.225396825	-3393.0	-888.8	-890.725396825
460	0.23	-894.225396825	-3393.0	-888.8	-890.725396825
461	0.2305	-894.225396825	-3393.0	-888.8	-890.725396825
462	0.231	-894.225396825	-3393.0	-888.8	-890.725396825
463	0.2315	-894.225396825	-3393.0	-888.8	-890.725396825
464	0.232	-894.225396825	-3393.0	-888.8	-799.5
465	0.2325	-894.225396825	-3393.0	-888.8	-890.725396825
466	0.233	-894.225396825	-3393.0	-888.8	-890.725396825
467	0.2335	-894.225396825	-3393.0	-888.8	-890.725396825
468	0.234	-894.225396825	-3393.0	-888.8	-890.725396825
469	0.2345	-894.225396825	-3393.0	-888.8	-890.725396825
470	0.235	-894.225396825	-3393.0	-888.8	-890.725396825
471	0.2355	-894.225396825	-3393.0	-888.8	-890.725396825
472	0.236	-894.225396825	-3393.0	-888.8	-890.725396825
473	0.2365	-894.225396825	-3393.0	-888.8	-890.725396825
474	0.237	-894.225396825	-3393.0	-888.8	-890.725396825
475	0.2375	-894.225396825	-3393.0	-888.8	-890.725396825
476	0.238	-894.225396825	-3393.0	-888.8	-890.725396825
477	0.2385	-894.225396825	-3393.0	-888.8	-890.725396825
478	0.239	-894.225396825	-3393.0	-888.8	-890.725396825
479	0.2395	-894.225396825	-3393.0	-888.8	-890.725396825
480	0.24	-894.225396825	-3393.0	-888.8	-890.725396825
481	0.2405	-894.225396825	-3393.0	-888.8	-890.725396825
482	0.241	-894.225396825	-3393.0	-888.8	-890.725396825
483	0.2415	-894.225396825	-3393.0	-888.8	-890.725396825
484	0.242	-894.225396825	-3393.0	-888.8	-890.725396825
485	0.2425	-894.225396825	-3393.0	-888.8	-890.725396825
486	0.243	-894.225396825	-3393.0	-888.8	-890.725396825
487	0.2435	-894.225396825	-3393.0	-888.8	-890.725396825
488	0.244	-894.225396825	-3393.0	-888.8	-890.725396825
489	0.2445	-894.225396825	-3393.0	-888.8	-890.725396825
490	0.245	-894.225396825	-3393.0	-888.8	-890.725396825
491	0.2455	-894.225396825	-3393.0	-888.8	-890.725396825
492	0.246	-894.225396825	-3393.0	-888.8	-890.725396825
493	0.2465	-894.225396825	-3393.0	-888.8	-890.725396825
494	0.247	-894.225396825	-3393.0	-888.8	-890.725396825
495	0.2475	-894.225396825	-3393.0	-888.8	-890.725396825
496	0.248	-894.225396825	-3393.0	-888.8	-890.725396825
497	0.2485	-894.225396825	-3393.0	-888.8	-890.725396825
498	0.249	-894.225396825	-3393.0	-888.8	-890.725396825
499	0.2495	-894.225396825	-3393.0	-888.8	-890.725396825
500	0.25	-894.225396825	-3393.0	-888.8	-890.725396825
501	0.2505	-894.225396825	-3393.0	-888.8	-890.725396825
502	0.251	-894.225396825	-3393.0	-888.8	-890.725396825
503	0.2515	-894.225396825	-3393.0	-888.8	-890.725396825
504	0.252	-894.225396825	-3393.0	-888.8	-890.725396825
505	0.2525	-894.225396825	-3393.0	-888.8	-890.725396825
506	0.253	-894.225396825	-3393.0	-888.8	-890.725396825
507	0.2535	-894.225396825	-3393.0	-888.8	-890.725396825
508	0.254	-894.225396825	-3393.0	-888.8	-890.725396825
509	0.2545	-894.225396825	-3393.0	-888.8	-890.725396825
510	0.255	-894.225396825	-3393.0	-888.8	-890.725396825
511	0.2555	-894.225396825	-3393.0	-888.8	-890.725396825
512	0.256	-894.225396825	-3393.0	-888.8	-890.725396825
513	0.2565	-894.225396825	-3393.0	-888.8	-890.725396825
514	0.257	-894.225396825	-3393.0	-888.8	-890.725396825
515	0.2575	-894.225396825	-3393.0	-888.8	-890.725396825
516	0.258	-894.225396825	-3393.0	-888.8	-890.725396825
517	0.2585	-894.225396825	-3393.0	-888.8	-890.725396825
518	0.259	-894.225396825	-3393.0	-888.8	-890.725396825
519	0.2595	-894.225396825	-3393.0	-888.8	-890.725396825
520	0.26	-894.225396825	-3393.0	-888.8	-890.725396825
521	0.2605	-894.225396825	-3393.0	-888.8	-890.725396825
522	0.261	-894.225396825	-3393.0	-888.8	-890.725396825
523	0.2615	-894.225396825	-3393.0	-888.8	-890.725396825
524	0.262	-894.225396825	-3393.0	-888.8	-890.725396825
525	0.2625	-894.225396825	-3393.0	-888.8	-890.725396825
526	0.263	-894.225396825	-3393.0	-888.8	-890.725396825
527	0.2635	-894.225396825	-3393.0	-888.8	-890.725396825
528	0.264	-894.225396825	-3393.0	-888.8	-890.725396825
529	0.2645	-894.225396825	-3393.0	-888.8	-890.725396825
530	0.265	-894.225396825	-3393.0	-888.8	-890.725396825
531	0.2655	-894.225396825	-3393.0	-888.8	-890.725396825
532	0.266	-894.225396825	-3393.0	-888.8	-890.725396825
533	0.2665	-894.225396825	-3393.0	-888.8	-890.725396825
534	0.267	-894.225396825	-3393.0	-888.8	-890.725396825
535	0.2675	-894.225396825	-3393.0	-888.8	-890.725396825
536	0.268	-894.225396825	-3393.0	-888.8	-890.725396825
537	0.2685	-894.225396825	-3393.0	-888.8	-890.725396825
538	0.269	-894.225396825	-3393.0	-888.8	-890.725396825
539	0.2695	-894.225396825	-3393.0	-888.8	-890.725396825
540	0.27	-894.225396825	-3393.0	-888.8	-890.725396825
541	0.2705	-894.225396825	-3393.0	-888.8	-890.725396825
542	0.271	-894.225396825	-3393.0	-888.8	-890.725396825
543	0.2715	-894.225396825	-3393.0	-888.8	-890.725396825
544	0.272	-894.225396825	-3393.0	-888.8	-890.725396825
545	0.2725	-894.225396825	-3393.0	-888.8	-890.725396825
546	0.273	-894.225396825	-3393.0	-888.8	-890.725396825
547	0.2735	-894.225396825	-3393.0	-888.8	-890.725396825
548	0.274	-894.225396825	-3393.0	-888.8	-890.725396825
549	0.2745	-894.225396825	-3393.0	-888.8	-890.725396825
550	0.275	-894.225396825	-3393.0	-888.8	-890.725396825
551	0.2755	-894.225396825	-3393.0	-888.8	-890.725396825
552	0.276	-894.225396825	-3393.0	-888.8	-890.725396825
553	0.2765	-894.225396825	-3393.0	-888.8	-890.725396825
554	0.277	-894.225396825	-3393.0	-888.8	-890.725396825
555	0.2775	-894.225396825	-3393.0	-888.8	-890.725396825
556	0.278	-894.225396825	-3393.0	-888.8	-890.725396825
557	0.2785	-894.225396825	-3393.0	-888.8	-890.725396825
558	0.279	-894.225396825	-3393.0	-888.8	-890.725396825
559	0.2795	-894.225396825	-3393.0	-888.8	-890.725396825
560	0.28	-894.225396825	-3393.0	-888.8	-890.725396825
561	0.2805	-894.225396825	-3393.0	-888.8	-890.725396825
562	0.281	-894.225396825	-3393.0	-888.8	-890.725396825
563	0.2815	-894.225396825	-3393.0	-888.8	-890.725396825
564	0.282	-894.225396825	-3393.0	-888.8	-890.725396825
565	0.2825	-894.225396825	-3393.0	-888.8	-890.725396825
566	0.283	-894.225396825	-3393.0	-888.8	-890.725396825
567	0.2835	-894.225396825	-3393.0	-888.8	-890.725396825
568	0.284	-894.225396825	-3393.0	-888.8	-890.725396825
569	0.2845	-894.225396825	-3393.0	-888.8	-890.725396825
570	0.285	-894.225396825	-3393.0	-888.8	-890.725396825
571	0.2855	-894.225396825	-3393.0	-888.8	-890.725396825
572	0.286	-894.225396825	-3393.0	-888.8	-890.725396825
573	0.2865	-894.225396825	-3393.0	-888.8	-890.725396825
574	0.287	-894.225396825	-3393.0	-888.8	-890.725396825
575	0.2875	-894.225396825	-3393.0	-888.8	-890.725396825
576	0.288	-894.225396825	-3393.0	-888.8	-890.725396825
577	0.2885	-894.225396825	-3393.0	-888.8	-890.725396825
578	0.289	-894.225396825	-3393.0	-888.8	-890.725396825
579	0.2895	-894.225396825	-3393.0	-888.8	-890.725396825
580	0.29	-894.225396825	-3393.0	-888.8	-890.725396825
581	0.2905	-894.225396825	-3393.0	-888.8	-890.725396825
582	0.291	-894.225396825	-3393.0	-888.8	-890.725396825
583	0.2915	-894.225396825	-3393.0	-888.8	-890.725396825
584	0.292	-894.225396825	-3393.0	-888.8	-890.725396825
585	0.2925	-894.225396825	-3393.0	-888.8	-890.725396825
586	0.293	-894.225396825	-3393.0	-888.8	-890.725396825
587	0.2935	-894.225396825	-3393.0	-888.8	-890.725396825
588	0.294	-894.225396825	-3393.0	-888.8	-890.725396825
589	0.2945	-894.225396825	-3393.0	-888.8	-890.725396825
590	0.295	-894.225396825	-3393.0	-888.8	-890.725396825
591	0.2955	-894.225396825	-3393.0	-888.8	-890.725396825
592	0.296	-894.225396825	-3393.0	-888.8	-890.725396825
593	0.2965	-894.225396825	-3393.0	-888.8	-890.725396825
594	0.297	-894.225396825	-3393.0	-888.8	-890.725396825
595	0.2975	-894.225396825	-3393.0	-888.8	-890.725396825
596	0.298	-894.225396825	-3393.0	-888.8	-890.725396825
597	0.2985	-894.225396825	-3393.0	-888.8	-890.725396825
598	0.299	-894.225396825	-3393.0	-888.8	-890.725396825
599	0.2995	-894.225396825	-3393.0	-888.8	-890.725396825
600	0.3	-894.225396825	-3393.0	-888.8	-890.725396825
601	0.3005	-894.225396825	-3393.0	-888.8	-890.725396825
602	0.301	-894.225396825	-3393.0	-888.8	-890.725396825
603	0.3015	-894.225396825	-3393.0	-888.8	-890.725396825
604	0.302	-894.225396825	-3393.0	-888.8	-890.725396825
605	0.3025	-894.225396825	-3393.0	-888.8	-890.725396825
606	0.303	-894.225396825	-3393.0	-888.8	-890.725396825
607	0.3035	-894.225396825	-3393.0	-888.8	-890.725396825
608	0.304	-894.225396825	-3393.0	-888.8	-890.725396825
609	0.3045	-894.225396825	-3393.0	-888.8	-890.725396825
610	0.305	-894.225396825	-3393.0	-888.8	-890.725396825
611	0.3055	-894.225396825	-3393.0	-888.8	-890.725396825
612	0.306	-894.225396825	-3393.0	-888.8	-890.725396825
613	0.3065	-894.225396825	-3393.0	-888.8	-890.725396825
614	0.307	-894.225396825	-3393.0	-888.8	-890.725396825
615	0.3075	-894.225396825	-3393.0	-888.8	-890.725396825
616	0.308	-894.225396825	-3393.0	-888.8	-890.725396825
617	0.3085	-894.225396825	-3393.0	-888.8	-890.725396825
618	0.309	-894.225396825	-3393.0	-888.8	-890.725396825
619	0.3095	-894.225396825	-3393.0	-888.8	-890.725396825
620	0.31	-894.225396825	-3393.0	-888.8	-890.725396825
621	0.3105	-894.225396825	-3393.0	-888.8	-890.725396825
622	0.311	-894.225396825	-3393.0	-888.8	-890.725396825
623	0.3115	-894.225396825	-3393.0	-888.8	-890.725396825
624	0.312	-894.225396825	-3393.0	-888.8	-890.725396825
625	0.3125	-894.225396825	-3393.0	-888.8	-890.725396825
626	0.313	-894.225396825	-3393.0	-888.8	-890.725396825
627	0.3135	-894.225396825	-3393.0	-888.8	-890.725396825
628	0.314	-894.225396825	-3393.0	-888.8	-890.725396825
629	0.3145	-894.225396825	-3393.0	-888.8	-890.725396825
630	0.315	-894.225396825	-3393.0	-888.8	-890.725396825
631	0.3155	-894.225396825	-3393.0	-888.8	-890.725396825
632	0.316	-894.225396825	-3393.0	-888.8	-890.725396825
633	0.3165	-894.225396825	-3393.0	-888.8	-890.725396825
634	0.317	-894.225396825	-3393.0	-888.8	-890.725396825
635	0.3175	-894.225396825	-3393.0	-888.8	-890.725396825
636	0.318	-894.225396825	-3393.0	-888.8	-890.725396825
637	0.3185	-894.225396825	-3393.0	-888.8	-890.725396825
638	0.319	-894.225396825	-3393.0	-888.8	-890.725396825
639	0.3195	-894.225396825	-3393.0	-888.8	-890.725396825
640	0.32	-894.225396825	-3393.0	-888.8	-890.725396825
641	0.3205	-894.225396825	-3393.0	-888.8	-890.725396825
642	0.321	-894.225396825	-3393.0	-888.8	-890.725396825
643	0.3215	-894.225396825	-3393.0	-888.8	-890.725396825
644	0.322	-894.225396825	-3393.0	-888.8	-890.725396825
645	0.3225	-894.225396825	-3393.0	-888.8	-890.725396825
646	0.323	-894.225396825	-3393.0	-888.8	-890.725396825
647	0.3235	-894.225396825	-3393.0	-888.8	-890.725396825
648	0.324	-894.225396825	-3393.0	-888.8	-890.725396825
649	0.3245	-894.225396825	-3393.0	-888.8	-890.725396825
650	0.325	-894.225396825	-3393.0	-888.8	-890.725396825
651	0.3255	-894.225396825	-3393.0	-888.8	-890.725396825
652	0.326	-894.225396825	-3393.0	-888.8	-890.725396825
653	0.3265	-894.225396825	-3393.0	-888.8	-890.725396825
654	0.327	-894.225396825	-3393.0	-888.8	-890.725396825
655	0.3275	-894.225396825	-3393.0	-888.8	-890.725396825
656	0.328	-894.225396825	-3393.0	-888.8	-890.725396825
657	0.3285	-894.225396825	-3393.0	-888.8	-890.725396825
658	0.329	-894.225396825	-3393.0	-888.8	-890.725396825
659	0.3295	-894.225396825	-3393.0	-888.8	-890.725396825
660	0.33	-894.225396825	-3393.0	-888.8	-890.725396825
661	0.3305	-894.225396825	-3393.0	-888.8	-890.725396825
662	0.331	-894.225396825	-3393.0	-888.8	-890.725396825
663	0.3315	-894.225396825	-3393.0	-888.8	-890.725396825
664	0.332	-894.225396825	-3393.0	-888.8	-890.725396825
665	0.3325	-894.225396825	-3393.0	-888.8	-890.725396825
666	0.333	-894.225396825	-3393.0	-888.8	-890.725396825
667	0.3335	-894.225396825	-3393.0	-888.8	-890.725396825
668	0.334	-894.225396825	-3393.0	-888.8	-890.725396825
669	0.3345	-894.225396825	-3393.0	-888.8	-890.725396825
670	0.335	-894.225396825	-3393.0	-888.8	-890.725396825
671	0.3355	-894.225396825	-3393.0	-888.8	-890.725396825
672	0.336	-894.225396825	-3393.0	-888.8	-890.725396825
673	0.3365	-894.225396825	-3393.0	-888.8	-890.725396825
674	0.337	-894.225396825	-3393.0	-888.8	-890.725396825
675	0.3375	-894.225396825	-3393.0	-888.8	-890.725396825
676	0.338	-894.225396825	-3393.0	-888.8	-890.725396825
677	0.3385	-894.225396825	-3393.0	-888.8	-890.725396825
678	0.339	-894.225396825	-3393.0	-888.8	-890.725396825
679	0.3395	-894.225396825	-3393.0	-888.8	-890.725396825
680	0.34	-894.225396825	-3393.0	-888.8	-890.725396825
681	0.3405	-894.225396825	-3393.0	-888.8	-890.725396825
682	0.341	-894.225396825	-3393.0	-888.8	-890.725396825
683	0.3415	-894.225396825	-3393.0	-888.8	-890.725396825
684	0.342	-894.225396825	-3393.0	-888.8	-890.725396825
685	0.3425	-894.225396825	-3393.0	-888.8	-890.725396825
686	0.343	-894.225396825	-3393.0	-888.8	-890.725396825
687	0.3435	-894.225396825	-3393.0	-888.8	-890.725396825
688	0.344	-894.225396825	-3393.0	-888.8	-890.725396825
689	0.3445	-894.225396825	-3393.0	-888.8	-890.725396825
690	0.345	-894.225396825	-3393.0	-888.8	-890.725396825
691	0.3455	-894.225396825	-3393.0	-888.8	-890.725396825
692	0.346	-894.225396825	-3393.0	-888.8	-890.725396825
693	0.3465	-894.225396825	-3393.0	-888.8	-890.725396825
694	0.347	-894.225396825	-3393.0	-888.8	-890.725396825
695	0.3475	-894.225396825	-3393.0	-888.8	-890.725396825
696	0.348	-894.225396825	-3393.0	-888.8	-890.725396825
697	0.3485	-894.225396825	-3393.0	-888.8	-890.725396825
698	0.349	-894.225396825	-3393.0	-888.8	-890.725396825
699	0.3495	-894.225396825	-3393.0	-888.8	-890.725396825
700	0.35	-894.225396825	-3393.0	-888.8	-890.725396825
701	0.3505	-894.225396825	-3393.0	-888.8	-890.725396825
702	0.351	-894.225396825	-3393.0	-888.8	-890.725396825
703	0.3515	-894.225396825	-3393.0	-888.8	-890.725396825
704	0.352	-894.225396825	-3393.0	-888.8	-890.725396825
705	0.3525	-894.225396825	-3393.0	-888.8	-890.725396825
706	0.353	-894.225396825	-3393.0	-888.8	-890.725396825
707	0.3535	-894.225396825	-3393.0	-888.8	-890.725396825
708	0.354	-894.225396825	-3393.0	-888.8	-890.725396825
709	0.3545	-894.225396825	-3393.0	-888.8	-890.725396825
710	0.355	-894.225396825	-3393.0	-888.8	-890.725396825
711	0.3555	-894.225396825	-3393.0	-888.8	-890.725396825
712	0.356	-894.225396825	-3393.0	-888.8	-890.725396825
713	0.3565	-894.225396825	-3393.0	-888.8	-890.725396825
714	0.357	-894.225396825	-3393.0	-888.8	-890.725396825
715	0.3575	-894.225396825	-3393.0	-888.8	-890.725396825
716	0.358	-894.225396825	-3393.0	-888.8	-890.725396825
717	0.3585	-894.225396825	-3393.0	-888.8	-890.725396825
718	0.359	-894.225396825	-3393.0	-888.8	-890.725396825
719	0.3595	-894.225396825	-3393.0	-888.8	-890.725396825
720	0.36	-894.225396825	-3393.0	-888.8	-890.725396825
721	0.3605	-894.225396825	-3393.0	-888.8	-890.725396825
722	0.361	-894.225396825	-3393.0	-888.8	-890.725396825
723	0.3615	-894.225396825	-3393.0	-888.8	-890.725396825
724	0.362	-894.225396825	-3393.0	-888.8	-890.725396825
725	0.3625	-894.225396825	-3393.0	-888.8	-890.725396825
726	0.363	-894.225396825	-3393.0	-888.8	-890.725396825
727	0.3635	-894.225396825	-3393.0	-888.8	-890.725396825
728	0.364	-894.225396825	-3393.0	-888.8	-890.725396825
729	0.3645	-894.225396825	-3393.0	-888.8	-890.725396825
730	0.365	-894.225396825	-3393.0	-888.8	-890.725396825
731	0.3655	-894.225396825	-3393.0	-888.8	-890.725396825
732	0.366	-894.225396825	-3393.0	-888.8	-890.725396825
733	0.3665	-894.225396825	-3393.0	-888.8	-890.725396825
734	0.367	-894.225396825	-3393.0	-888.8	-890.725396825
735	0.3675	-894.225396825	-3393.0	-888.8	-890.725396825
736	0.368	-894.225396825	-3393.0	-888.8	-890.725396825
737	0.3685	-894.225396825	-3393.0	-888.8	-890.725396825
738	0.369	-894.225396825	-3393.0	-888.8	-890.725396825
739	0.3695	-894.225396825	-3393.0	-888.8	-890.725396825
740	0.37	-894.225396825	-3393.0	-888.8	-890.725396825
741	0.3705	-894.225396825	-3393.0	-888.8	-890.725396825
742	0.371	-894.225396825	-3393.0	-888.8	-890.725396825
743	0.3715	-894.225396825	-3393.0	-888.8	-890.725396825
744	0.372	-894.225396825	-3393.0	-888.8	-890.725396825
745	0.3725	-894.225396825	-3393.0	-888.8	-890.725396825
746	0.373	-894.225396825	-3393.0	-888.8	-890.725396825
747	0.3735	-894.225396825	-3393.0	-888.8	-890.725396825
748	0.374	-894.225396825	-3393.0	-888.8	-890.725396825
749	0.3745	-894.225396825	-3393.0	-888.8	-890.725396825
750	0.375	-894.225396825	-3393.0	-888.8	-890.725396825
751	0.3755	-894.225396825	-3393.0	-888.8	-890.725396825
752	0.376	-894.225396825	-3393.0	-888.8	-890.725396825
753	0.3765	-894.225396825	-3393.0	-888.8	-890.725396825
754	0.377	-894.225396825	-3393.0	-888.8	-890.725396825
755	0.3775	-894.225396825	-3393.0	-888.8	-890.725396825
756	0.378	-894.225396825	-3393.0	-888.8	-890.725396825
757	0.3785	-894.225396825	-3393.0	-888.8	-890.725396825
758	0.379	-894.225396825	-3393.0	-888.8	-890.725396825
759	0.3795	-894.225396825	-3393.0	-888.8	-890.725396825
760	0.38	-894.225396825	-3393.0	-888.8	-890.725396825
761	0.3805	-894.225396825	-3393.0	-888.8	-890.725396825
762	0.381	-894.225396825	-3393.0	-888.8	-890.725396825
763	0.3815	-894.225396825	-3393.0	-888.8	-890.725396825
764	0.382	-894.225396825	-3393.0	-888.8	-890.725396825
765	0.3825	-894.225396825	-3393.0	-888.8	-890.725396825
766	0.383	-894.225396825	-3393.0	-888.8	-890.725396825
767	0.3835	-894.225396825	-3393.0	-888.8	-890.725396825
768	0.384	-894.225396825	-3393.0	-888.8	-890.725396825
769	0.3845	-894.225396825	-3393.0	-888.8	-890.725396825
770	0.385	-894.225396825	-3393.0	-888.8	-890.725396825
771	0.3855	-894.225396825	-3393.0	-888.8	-890.725396825
772	0.386	-894.225396825	-3393.0	-888.8	-890.725396825
773	0.3865	-894.225396825	-3393.0	-888.8	-890.725396825
774	0.387	-894.225396825	-3393.0	-888.8	-890.725396825
775	0.3875	-894.225396825	-3393.0	-888.8	-890.725396825
776	0.388	-894.225396825	-3393.0	-888.8	-890.725396825
777	0.3885	-894.225396825	-3393.0	-888.8	-890.725396825
778	0.389	-894.225396825	-3393.0	-888.8	-890.725396825
779	0.3895	-894.225396825	-3393.0	-888.8	-890.725396825
780	0.39	-894.225396825	-3393.0	-888.8	-890.725396825
781	0.3905	-894.225396825	-3393.0	-888.8	-890.725396825
782	0.391	-894.225396825	-3393.0	-888.8	-890.725396825
783	0.3915	-894.225396825	-3393.0	-888.8	-890.725396825
784	0.392	-894.225396825	-3393.0	-888.8	-890.725396825
785	0.3925	-894.225396825	-3393.0	-888.8	-890.725396825
786	0.393	-894.225396825	-3393.0	-888.8	-890.725396825
787	0.3935	-894.225396825	-3393.0	-888.8	-890.725396825
788	0.394	-894.225396825	-3393.0	-888.8	-890.725396825
789	0.3945	-894.225396825	-3393.0	-888.8	-890.725396825
790	0.395	-894.225396825	-3393.0	-888.8	-890.725396825
791	0.3955	-894.225396825	-3393.0	-888.8	-890.725396825
792	0.396	-894.225396825	-3393.0	-888.8	-890.725396825
793	0.3965	-894.225396825	-3393.0	-888.8	-890.725396825
794	0.397	-894.225396825	-3393.0	-888.8	-890.725396825
795	0.3975	-894.225396825	-3393.0	-888.8	-890.725396825
796	0.398	-894.225396825	-3393.0	-888.8	-890.725396825
797	0.3985	-894.225396825	-3393.0	-888.8	-890.725396825
798	0.399	-894.225396825	-3393.0	-888.8	-890.725396825
799	0.3995	-894.225396825	-3393.0	-888.8	-890.725396825
800	0.4	-894.225396825	-3393.0	-888.8	-890.725396825
801	0.4005	-894.225396825	-3393.0	-888.8	-890.725396825
802	0.401	-894.225396825	-3393.0	-888.8	-890.725396825
803	0.4015	-894.225396825	-3393.0	-888.8	-890.725396825
804	0.402	-894.225396825	-3393.0	-888.8	-890.725396825
805	0.4025	-894.225396825	-3393.0	-888.8	-890.725396825
806	0.403	-894.225396825	-3393.0	-888.8	-890.725396825
807	0.4035	-894.225396825	-3393.0	-888.8	-890.725396825
808	0.404	-894.225396825	-3393.0	-888.8	-890.725396825
809	0.4045	-894.225396825	-3393.0	-888.8	-890.725396825
810	0.405	-894.225396825	-3393.0	-888.8	-890.725396825
811	0.4055	-894.225396825	-3393.0	-888.8	-890.725396825
812	0.406	-894.225396825	-3393.0	-888.8	-890.725396825
813	0.4065	-894.225396825	-3393.0	-888.8	-890.725396825
814	0.407	-894.225396825	-3393.0	-888.8	-890.725396825
815	0.4075	-894.225396825	-3393.0	-888.8	-890.725396825
816	0.408	-894.225396825	-3393.0	-888.8	-890.725396825
817	0.4085	-894.225396825	-3393.0	-888.8	-890.725396825
818	0.409	-894.225396825	-3393.0	-888.8	-890.725396825
819	0.4095	-894.225396825	-3393.0	-888.8	-890.725396825
820	0.41	-894.225396825	-3393.0	-888.8	-890.725396825
821	0.4105	-894.225396825	-3393.0	-888.8	-890.725396825
822	0.411	-894.225396825	-3393.0	-888.8	-890.725396825
823	0.4115	-894.225396825	-3393.0	-888.8	-890.725396825
824	0.412	-894.225396825	-3393.0	-888.8	-890.725396825
825	0.4125	-894.225396825	-3393.0	-888.8	-890.725396825
826	0.413	-894.225396825	-3393.0	-888.8	-890.725396825
827	0.4135	-894.225396825	-3393.0	-888.8	-890.725396825
828	0.414	-894.225396825	-3393.0	-888.8	-890.725396825
829	0.4145	-894.225396825	-3393.0	-888.8	-890.725396825
830	0.415	-894.225396825	-3393.0	-888.8	-890.725396825
831	0.4155	-894.225396825	-3393.0	-888.8	-890.725396825
832	0.416	-894.225396825	-3393.0	-888.8	-890.725396825
833	0.4165	-894.225396825	-3393.0	-888.8	-890.725396825
834	0.417	-894.225396825	-3393.0	-888.8	-890.725396825
835	0.4175	-894.225396825	-3393.0	-888.8	-890.725396825
836	0.418	-894.225396825	-3393.0	-888.8	-890.725396825
837	0.4185	-894.225396825	-3393.0	-888.8	-890.725396825
838	0.419	-894.225396825	-3393.0	-888.8	-890.725396825
839	0.4195	-894.225396825	-3393.0	-888.8	-890.725396825
840	0.42	-894.225396825	-3393.0	-888.8	-890.725396825
841	0.4205	-894.225396825	-3393.0	-888.8	-890.725396825
842	0.421	-894.225396825	-3393.0	-888.8	-890.725396825
843	0.4215	-894.225396825	-3393.0	-888.8	-890.725396825
844	0.422	-894.225396825	-3393.0	-888.8	-890.725396825
845	0.4225	-894.225396825	-3393.0	-888.8	-890.725396825
846	0.423	-894.225396825	-3393.0	-888.8	-890.725396825
847	0.4235	-894.225396825	-3393.0	-888.8	-890.725396825
848	0.424	-894.225396825	-3393.0	-888.8	-890.725396825
849	0.4245	-894.225396825	-3393.0	-888.8	-890.725396825
850	0.425	-894.225396825	-3393.0	-888.8	-890.725396825
851	0.4255	-894.225396825	-3393.0	-888.8	-890.725396825
852	0.426	-894.225396825	-3393.0	-888.8	-890.725396825
853	0.4265	-894.225396825	-3393.0	-888.8	-890.725396825
854	0.427	-894.225396825	-3393.0	-888.8	-890.725396825
855	0.4275	-894.225396825	-3393.0	-888.8	-890.725396825
856	0.428	-894.225396825	-3393.0	-888.8	-890.725396825
857	0.4285	-894.225396825	-3393.0	-888.8	-890.725396825
858	0.429	-894.225396825	-3393.0	-888.8	-890.725396825
859	0.4295	-894.225396825	-3393.0	-888.8	-890.725396825
860	0.43	-894.225396825	-3393.0	-888.8	-890.725396825
861	0.4305	-894.225396825	-3393.0	-888.8	-890.725396825
862	0.431	-894.225396825	-3393.0	-888.8	-890.725396825
863	0.4315	-894.225396825	-3393.0	-888.8	-890.725396825
864	0.432	-894.225396825	-3393.0	-888.8	-890.725396825
865	0.4325	-894.225396825	-3393.0	-888.8	-890.725396825
866	0.433	-894.225396825	-3393.0	-888.8	-890.725396825
867	0.4335	-894.225396825	-3393.0	-888.8	-890.725396825
868	0.434	-894.225396825	-3393.0	-888.8	-890.725396825
869	0.4345	-894.225396825	-3393.0	-888.8	-890.725396825
870	0.435	-894.225396825	-3393.0	-888.8	-890.725396825
871	0.4355	-894.225396825	-3393.0	-888.8	-890.725396825
872	0.436	-894.225396825	-3393.0	-888.8	-890.725396825
873	0.4365	-894.225396825	-3393.0	-888.8	-890.725396825
874	0.437	-894.225396825	-3393.0	-888.8	-890.725396825
875	0.4375	-894.225396825	-3393.0	-888.8	-890.725396825
876	0.438	-894.225396825	-3393.0	-888.8	-890.725396825
877	0.4385	-894.225396825	-3393.0	-888.8	-890.725396825
878	0.439	-894.225396825	-3393.0	-888.8	-890.725396825
879	0.4395	-894.225396825	-3393.0	-888.8	-890.725396825
880	0.44	-894.225396825	-3393.0	-888.8	-890.725396825
881	0.4405	-894.225396825	-3393.0	-888.8	-890.725396825
882	0.441	-894.225396825	-3393.0	-888.8	-890.725396825
883	0.4415	-894.225396825	-3393.0	-888.8	-890.725396825
884	0.442	-894.225396825	-3393.0	-888.8	-890.725396825
885	0.4425	-894.225396825	-3393.0	-888.8	-890.725396825
886	0.443	-894.225396825	-3393.0	-888.8	-890.725396825
887	0.4435	-894.225396825	-3393.0	-888.8	-890.725396825
888	0.444	-894.225396825	-3393.0	-888.8	-890.725396825
889	0.4445	-894.225396825	-3393.0	-888.8	-890.725396825
890	0.445	-894.225396825	-3393.0	-888.8	-890.725396825
891	0.4455	-894.225396825	-3393.0	-888.8	-890.725396825
892	0.446	-894.225396825	-3393.0	-888.8	-890.725396825
893	0.4465	-894.225396825	-3393.0	-888.8	-890.725396825
894	0.447	-894.225396825	-3393.0	-888.8	-890.725396825
895	0.4475	-894.225396825	-3393.0	-888.8	-890.725396825
896	0.448	-894.225396825	-3393.0	-888.8	-890.725396825
897	0.4485	-894.225396825	-3393.0	-888.8	-890.725396825
898	0.449	-894.225396825	-3393.0	-888.8	-890.725396825
899	0.4495	-894.225396825	-3393.0	-888.8	-890.725396825
900	0.45	-894.225396825	-3393.0	-888.8	-890.725396825
901	0.4505	-894.225396825	-3393.0	-888.8	-890.725396825
902	0.451	-894.225396825	-3393.0	-888.8	-890.725396825
903	0.4515	-894.225396825	-3393.0	-888.8	-890.725396825
904	0.452	-894.225396825	-3393.0	-888.8	-890.725396825
905	0.4525	-894.225396825	-3393.0	-888.8	-890.725396825
906	0.453	-894.225396825	-3393.0	-888.8	-890.725396825
907	0.4535	-894.225396825	-3393.0	-888.8	-890.725396825
908	0.454	-894.225396825	-3393.0	-888.8	-890.725396825
909	0.4545	-894.225396825	-3393.0	-888.8	-890.725396825
910	0.455	-894.225396825	-3393.0	-888.8	-890.725396825
911	0.4555	-894.225396825	-3393.0	-888.8	-890.725396825
912	0.456	-894.225396825	-3393.0	-888.8	-890.725396825
913	0.4565	-894.225396825	-3393.0	-888.8	-890.725396825
914	0.457	-894.225396825	-3393.0	-888.8	-890.725396825
915	0.4575	-894.225396825	-3393.0	-888.8	-890.725396825
916	0.458	-894.225396825	-3393.0	-888.8	-890.725396825
917	0.4585	-894.225396825	-3393.0	-888.8	-890.725396825
918	0.459	-894.225396825	-3393.0	-888.8	-890.725396825
919	0.4595	-894.225396825	-3393.0	-888.8	-890.725396825
920	0.46	-894.225396825	-3393.0	-888.8	-890.725396825
921	0.4605	-894.225396825	-3393.0	-888.8	-890.725396825
922	0.461	-894.225396825	-3393.0	-888.8	-890.725396825
923	0.4615	-894.225396825	-3393.0	-888.8	-890.725396825
924	0.462	-894.225396825	-3393.0	-888.8	-890.725396825
925	0.4625	-894.225396825	-3393.0	-888.8	-890.725396825
926	0.463	-894.225396825	-3393.0	-888.8	-890.725396825
927	0.4635	-894.225396825	-3393.0	-888.8	-890.725396825
928	0.464	-894.225396825	-3393.0	-888.8	-890.725396825
929	0.4645	-894.225396825	-3393.0	-888.8	-890.725396825
930	0.465	-894.225396825	-3393.0	-888.8	-890.725396825
931	0.4655	-894.225396825	-3393.0	-888.8	-890.725396825
932	0.466	-894.225396825	-3393.0	-888.8	-890.725396825
933	0.4665	-894.225396825	-3393.0	-888.8	-890.725396825
934	0.467	-894.225396825	-3393.0	-888.8	-799.5
935	0.4675	-894.225396825	-3393.0	-888.8	-890.725396825
936	0.468	-894.225396825	-3393.0	-888.8	-890.725396825
937	0.4685	-894.225396825	-3393.0	-888.8	-890.725396825
938	0.469	-894.225396825	-3393.0	-888.8	-890.725396825
939	0.4695	-894.225396825	-3393.0	-888.8	-890.725396825
940	0.47	-894.225396825	-3393.0	-888.8	-890.725396825
941	0.4705	-894.225396825	-3393.0	-888.8	-890.725396825
942	0.471	-894.225396825	-3393.0	-888.8	-890.725396825
943	0.4715	-894.225396825	-3393.0	-888.8	-890.725396825
944	0.472	-894.225396825	-3393.0	-888.8	-890.725396825
945	0.4725	-894.225396825	-3393.0	-888.8	-890.725396825
946	0.473	-894.225396825	-3393.0	-888.8	-890.725396825
947	0.4735	-894.225396825	-3393.0	-888.8	-890.725396825
948	0.474	-894.225396825	-3393.0	-888.8	-890.725396825
949	0.4745	-894.225396825	-3393.0	-888.8	-890.725396825
950	0.475	-894.225396825	-3393.0	-888.8	-890.725396825
951	0.4755	-894.225396825	-3393.0	-888.8	-890.725396825
952	0.476	-894.225396825	-3393.0	-888.8	-890.725396825
953	0.4765	-894.225396825	-3393.0	-888.8	-890.725396825
954	0.477	-894.225396825	-3393.0	-888.8	-890.725396825
955	0.4775	-894.225396825	-3393.0	-888.8	-890.725396825
956	0.478	-894.225396825	-3393.0	-888.8	-890.725396825
957	0.4785	-894.225396825	-3393.0	-888.8	-890.725396825
958	0.479	-894.225396825	-3393.0	-888.8	-890.725396825
959	0.4795	-894.225396825	-3393.0	-888.8	-890.725396825
960	0.48	-894.225396825	-3393.0	-888.8	-890.725396825
961	0.4805	-894.225396825	-3393.0	-888.8	-890.725396825
962	0.481	-894.225396825	-3393.0	-888.8	-890.725396825
963	0.4815	-894.225396825	-3393.0	-888.8	-890.725396825
964	0.482	-894.225396825	-3393.0	-888.8	-890.725396825
965	0.4825	-894.225396825	-3393.0	-888.8	-890.725396825
966	0.483	-894.225396825	-3393.0	-888.8	-890.725396825
967	0.4835	-894.225396825	-3393.0	-888.8	-890.725396825
968	0.484	-894.225396825	-3393.0	-888.8	-890.725396825
969	0.4845	-894.225396825	-3393.0	-888.8	-890.725396825
970	0.485	-894.225396825	-3393.0	-888.8	-890.725396825
971	0.4855	-894.225396825	-3393.0	-888.8	-890.725396825
972	0.486	-894.225396825	-3393.0	-888.8	-890.725396825
973	0.4865	-894.225396825	-3393.0	-888.8	-890.725396825
974	0.487	-894.225396825	-3393.0	-888.8	-890.725396825
975	0.4875	-894.225396825	-3393.0	-888.8	-890.725396825
976	0.488	-894.225396825	-3393.0	-888.8	-890.725396825
977	0.4885	-894.225396825	-3393.0	-888.8	-890.725396825
978	0.489	-894.225396825	-3393.0	-888.8	-890.725396825
979	0.4895	-894.225396825	-3393.0	-888.8	-890.725396825
980	0.49	-894.225396825	-3393.0	-888.8	-890.725396825
981	0.4905	-894.225396825	-3393.0	-888.8	-890.725396825
982	0.491	-894.225396825	-3393.0	-888.8	-890.725396825
983	0.4915	-894.225396825	-3393.0	-888.8	-890.725396825
984	0.492	-894.225396825	-3393.0	-888.8	-890.725396825
985	0.4925	-894.225396825	-3393.0	-888.8	-890.725396825
986	0.493	-894.225396825	-3393.0	-888.8	-890.725396825
987	0.4935	-894.225396825	-3393.0	-888.8	-890.725396825
988	0.494	-894.225396825	-3393.0	-888.8	-890.725396825
989	0.4945	-894.225396825	-3393.0	-888.8	-890.725396825
990	0.495	-894.225396825	-3393.0	-888.8	-890.725396825
991	0.4955	-894.225396825	-3393.0	-888.8	-890.725396825
992	0.496	-894.225396825	-3393.0	-888.8	-890.725396825
993	0.4965	-894.225396825	-3393.0	-888.8	-890.725396825
994	0.497	-894.225396825	-3393.0	-888.8	-890.725396825
995	0.4975	-894.225396825	-3393.0	-888.8	-890.725396825
996	0.498	-894.225396825	-3393.0	-888.8	-890.725396825
997	0.4985	-894.225396825	-3393.0	-888.8	-890.725396825
998	0.499	-894.225396825	-3393.0	-888.8	-890.725396825
999	0.4995	-894.225396825	-3393.0	-888.8	-890.725396825
1000	0.5	-894.225396825	-3393.0	-888.8	-890.725396825
1001	0.5005	-894.225396825	-3393.0	-888.8	-890.725396825
1002	0.501	-894.225396825	-3393.0	-888.8	-890.725396825
1003	0.5015	-894.225396825	-3393.0	-888.8	-890.725396825
1004	0.502	-894.225396825	-3393.0	-888.8	-890.725396825
1005	0.5025	-894.225396825	-3393.0	-888.8	-890.725396825
1006	0.503	-894.225396825	-3393.0	-888.8	-890.725396825
1007	0.5035	-894.225396825	-3393.0	-888.8	-890.725396825
1008	0.504	-894.225396825	-3393.0	-888.8	-890.725396825
1009	0.5045	-894.225396825	-3393.0	-888.8	-890.725396825
1010	0.505	-894.225396825	-3393.0	-888.8	-890.725396825
1011	0.5055	-894.225396825	-3393.0	-888.8	-890.725396825
1012	0.506	-894.225396825	-3393.0	-888.8	-890.725396825
1013	0.5065	-894.225396825	-3393.0	-888.8	-890.725396825
1014	0.507	-894.225396825	-3393.0	-888.8	-890.725396825
1015	0.5075	-894.225396825	-3393.0	-888.8	-890.725396825
1016	0.508	-894.225396825	-3393.0	-888.8	-890.725396825
1017	0.5085	-894.225396825	-3393.0	-888.8	-890.725396825
1018	0.509	-894.225396825	-3393.0	-888.8	-890.725396825
1019	0.5095	-894.225396825	-3393.0	-888.8	-890.725396825
1020	0.51	-894.225396825	-3393.0	-888.8	-890.725396825
1021	0.5105	-894.225396825	-3393.0	-888.8	-845.112698413
1022	0.511	-894.225396825	-3393.0	-888.8	-890.725396825
1023	0.5115	-894.225396825	-3393.0	-888.8	-890.725396825
1024	0.512	-894.225396825	-3393.0	-888.8	-890.725396825
1025	0.5125	-894.225396825	-3393.0	-888.8	-890.725396825
1026	0.513	-894.225396825	-3393.0	-888.8	-890.725396825
1027	0.5135	-894.225396825	-3393.0	-888.8	-890.725396825
1028	0.514	-894.225396825	-3393.0	-888.8	-890.725396825
1029	0.5145	-894.225396825	-3393.0	-888.8	-890.725396825
1030	0.515	-894.225396825	-3393.0	-888.8	-890.725396825
1031	0.5155	-894.225396825	-3393.0	-888.8	-890.725396825
1032	0.516	-894.225396825	-3393.0	-888.8	-890.725396825
1033	0.5165	-894.225396825	-3393.0	-888.8	-890.725396825
1034	0.517	-894.225396825	-3393.0	-888.8	-890.725396825
1035	0.5175	-894.225396825	-3393.0	-888.8	-890.725396825
1036	0.518	-894.225396825	-3393.0	-888.8	-890.725396825
1037	0.5185	-894.225396825	-3393.0	-888.8	-890.725396825
1038	0.519	-894.225396825	-3393.0	-888.8	-890.725396825
1039	0.5195	-894.225396825	-3393.0	-888.8	-890.725396825
1040	0.52	-894.225396825	-3393.0	-888.8	-890.725396825
1041	0.5205	-894.225396825	-3393.0	-888.8	-890.725396825
1042	0.521	-894.225396825	-3393.0	-888.8	-799.5
1043	0.5215	-894.225396825	-3393.0	-888.8	-890.725396825
1044	0.522	-894.225396825	-3393.0	-888.8	-890.725396825
1045	0.5225	-894.225396825	-3393.0	-888.8	-890.725396825
1046	0.523	-894.225396825	-3393.0	-888.8	-890.725396825
1047	0.5235	-894.225396825	-3393.0	-888.8	-890.725396825
1048	0.524	-894.225396825	-3393.0	-888.8	-890.725396825
1049	0.5245	-894.225396825	-3393.0	-888.8	-890.725396825
1050	0.525	-894.225396825	-3393.0	-888.8	-890.725396825
1051	0.5255	-894.225396825	-3393.0	-888.8	-890.725396825
1052	0.526	-894.225396825	-3393.0	-888.8	-890.725396825
1053	0.5265	-894.225396825	-3393.0	-888.8	-890.725396825
1054	0.527	-894.225396825	-3393.0	-888.8	-890.725396825
1055	0.5275	-894.225396825	-3393.0	-888.8	-890.725396825
1056	0.528	-894.225396825	-3393.0	-888.8	-890.725396825
1057	0.5285	-894.225396825	-3393.0	-888.8	-890.725396825
1058	0.529	-894.225396825	-3393.0	-888.8	-890.725396825
1059	0.5295	-894.225396825	-3393.0	-888.8	-890.725396825
1060	0.53	-894.225396825	-3393.0	-888.8	-890.725396825
1061	0.5305	-894.225396825	-3393.0	-888.8	-890.725396825
1062	0.531	-894.225396825	-3393.0	-888.8	-890.725396825
1063	0.5315	-894.225396825	-3393.0	-888.8	-890.725396825
1064	0.532	-894.225396825	-3393.0	-888.8	-890.725396825
1065	0.5325	-894.225396825	-3393.0	-888.8	-890.725396825
1066	0.533	-894.225396825	-3393.0	-888.8	-890.725396825
1067	0.5335	-894.225396825	-3393.0	-888.8	-890.725396825
1068	0.534	-894.225396825	-3393.0	-888.8	-799.5
1069	0.5345	-894.225396825	-3393.0	-888.8	-890.725396825
1070	0.535	-894.225396825	-3393.0	-888.8	-890.725396825
1071	0.5355	-894.225396825	-3393.0	-888.8	-890.725396825
1072	0.536	-894.225396825	-3393.0	-888.8	-890.725396825
1073	0.5365	-894.225396825	-3393.0	-888.8	-890.725396825
1074	0.537	-894.225396825	-3393.0	-888.8	-890.725396825
1075	0.5375	-894.225396825	-3393.0	-888.8	-890.725396825
1076	0.538	-894.225396825	-3393.0	-888.8	-890.725396825
1077	0.5385	-894.225396825	-3393.0	-888.8	-890.725396825
1078	0.539	-894.225396825	-3393.0	-888.8	-890.725396825
1079	0.5395	-894.225396825	-3393.0	-888.8	-890.725396825
1080	0.54	-894.225396825	-3393.0	-888.8	-890.725396825
1081	0.5405	-894.225396825	-3393.0	-888.8	-890.725396825
1082	0.541	-894.225396825	-3393.0	-888.8	-890.725396825
1083	0.5415	-894.225396825	-3393.0	-888.8	-890.725396825
1084	0.542	-894.225396825	-3393.0	-888.8	-890.725396825
1085	0.5425	-894.225396825	-3393.0	-888.8	-890.725396825
1086	0.543	-894.225396825	-3393.0	-888.8	-890.725396825
1087	0.5435	-894.225396825	-3393.0	-888.8	-890.725396825
1088	0.544	-894.225396825	-3393.0	-888.8	-890.725396825
1089	0.5445	-894.225396825	-3393.0	-888.8	-890.725396825
1090	0.545	-894.225396825	-3393.0	-888.8	-890.725396825
1091	0.5455	-894.225396825	-3393.0	-888.8	-890.725396825
1092	0.546	-894.225396825	-3393.0	-888.8	-890.725396825
1093	0.5465	-894.225396825	-3393.0	-888.8	-890.725396825
1094	0.547	-894.225396825	-3393.0	-888.8	-890.725396825
1095	0.5475	-894.225396825	-3393.0	-888.8	-890.725396825
1096	0.548	-894.225396825	-3393.0	-888.8	-890.725396825
1097	0.5485	-894.225396825	-3393.0	-888.8	-890.725396825
1098	0.549	-894.225396825	-3393.0	-888.8	-890.725396825
1099	0.5495	-894.225396825	-3393.0	-888.8	-890.725396825
1100	0.55	-894.225396825	-3393.0	-888.8	-890.725396825
1101	0.5505	-894.225396825	-3393.0	-888.8	-890.725396825
1102	0.551	-894.225396825	-3393.0	-888.8	-890.725396825
1103	0.5515	-894.225396825	-3393.0	-888.8	-890.725396825
1104	0.552	-894.225396825	-3393.0	-888.8	-890.725396825
1105	0.5525	-894.225396825	-3393.0	-888.8	-799.5
1106	0.553	-894.225396825	-3393.0	-888.8	-890.725396825
1107	0.5535	-894.225396825	-3393.0	-888.8	-890.725396825
1108	0.554	-894.225396825	-3393.0	-888.8	-890.725396825
1109	0.5545	-894.225396825	-3393.0	-888.8	-890.725396825
1110	0.555	-894.225396825	-3393.0	-888.8	-890.725396825
1111	0.5555	-894.225396825	-3393.0	-888.8	-890.725396825
1112	0.556	-894.225396825	-3393.0	-888.8	-890.725396825
1113	0.5565	-894.225396825	-3393.0	-888.8	-890.725396825
1114	0.557	-894.225396825	-3393.0	-888.8	-890.725396825
1115	0.5575	-894.225396825	-3393.0	-888.8	-890.725396825
1116	0.558	-894.225396825	-3393.0	-888.8	-890.725396825
1117	0.5585	-894.225396825	-3393.0	-888.8	-890.725396825
1118	0.559	-894.225396825	-3393.0	-888.8	-890.725396825
1119	0.5595	-894.225396825	-3393.0	-888.8	-890.725396825
1120	0.56	-894.225396825	-3393.0	-888.8	-890.725396825
1121	0.5605	-894.225396825	-3393.0	-888.8	-890.725396825
1122	0.561	-894.225396825	-3393.0	-888.8	-890.725396825
1123	0.5615	-894.225396825	-3393.0	-888.8	-890.725396825
1124	0.562	-894.225396825	-3393.0	-888.8	-890.725396825
1125	0.5625	-894.225396825	-3393.0	-888.8	-890.725396825
1126	0.563	-894.225396825	-3393.0	-888.8	-890.725396825
1127	0.5635	-894.225396825	-3393.0	-888.8	-890.725396825
1128	0.564	-894.225396825	-3393.0	-888.8	-890.725396825
1129	0.5645	-894.225396825	-3393.0	-888.8	-890.725396825
1130	0.565	-894.225396825	-3393.0	-888.8	-890.725396825
1131	0.5655	-894.225396825	-3393.0	-888.8	-890.725396825
1132	0.566	-894.225396825	-3393.0	-888.8	-890.725396825
1133	0.5665	-894.225396825	-3393.0	-888.8	-890.725396825
1134	0.567	-894.225396825	-3393.0	-888.8	-890.725396825
1135	0.5675	-894.225396825	-3393.0	-888.8	-890.725396825
1136	0.568	-894.225396825	-3393.0	-888.8	-890.725396825
1137	0.5685	-894.225396825	-3393.0	-888.8	-890.725396825
1138	0.569	-894.225396825	-3393.0	-888.8	-890.725396825
1139	0.5695	-894.225396825	-3393.0	-888.8	-890.725396825
1140	0.57	-894.225396825	-3393.0	-888.8	-890.725396825
1141	0.5705	-894.225396825	-3393.0	-888.8	-890.725396825
1142	0.571	-894.225396825	-3393.0	-888.8	-845.112698413
1143	0.5715	-894.225396825	-3393.0	-888.8	-890.725396825
1144	0.572	-894.225396825	-3393.0	-888.8	-890.725396825
1145	0.5725	-894.225396825	-3393.0	-888.8	-890.725396825
1146	0.573	-894.225396825	-3393.0	-888.8	-890.725396825
1147	0.5735	-894.225396825	-3393.0	-888.8	-890.725396825
1148	0.574	-894.225396825	-3393.0	-888.8	-890.725396825
1149	0.5745	-894.225396825	-3393.0	-888.8	-890.725396825
1150	0.575	-894.225396825	-3393.0	-888.8	-890.725396825
1151	0.5755	-894.225396825	-3393.0	-888.8	-890.725396825
1152	0.576	-894.225396825	-3393.0	-888.8	-890.725396825
1153	0.5765	-894.225396825	-3393.0	-888.8	-890.725396825
1154	0.577	-894.225396825	-3393.0	-888.8	-890.725396825
1155	0.5775	-894.225396825	-3393.0	-888.8	-890.725396825
1156	0.578	-894.225396825	-3393.0	-888.8	-890.725396825
1157	0.5785	-894.225396825	-3393.0	-888.8	-890.725396825
1158	0.579	-894.225396825	-3393.0	-888.8	-890.725396825
1159	0.5795	-894.225396825	-3393.0	-888.8	-890.725396825
1160	0.58	-894.225396825	-3393.0	-888.8	-890.725396825
1161	0.5805	-894.225396825	-3393.0	-888.8	-890.725396825
1162	0.581	-894.225396825	-3393.0	-888.8	-890.725396825
1163	0.5815	-894.225396825	-3393.0	-888.8	-890.725396825
1164	0.582	-894.225396825	-3393.0	-888.8	-890.725396825
1165	0.5825	-894.225396825	-3393.0	-888.8	-890.725396825
1166	0.583	-894.225396825	-3393.0	-888.8	-890.725396825
1167	0.5835	-894.225396825	-3393.0	-888.8	-890.725396825
1168	0.584	-894.225396825	-3393.0	-888.8	-890.725396825
1169	0.5845	-894.225396825	-3393.0	-888.8	-890.725396825
1170	0.585	-894.225396825	-3393.0	-888.8	-890.725396825
1171	0.5855	-894.225396825	-3393.0	-888.8	-890.725396825
1172	0.586	-894.225396825	-3393.0	-888.8	-890.725396825
1173	0.5865	-894.225396825	-3393.0	-888.8	-890.725396825
1174	0.587	-894.225396825	-3393.0	-888.8	-890.725396825
1175	0.5875	-894.225396825	-3393.0	-888.8	-890.725396825
1176	0.588	-894.225396825	-3393.0	-888.8	-890.725396825
1177	0.5885	-894.225396825	-3393.0	-888.8	-890.725396825
1178	0.589	-894.225396825	-3393.0	-888.8	-890.725396825
1179	0.5895	-894.225396825	-3393.0	-888.8	-890.725396825
1180	0.59	-894.225396825	-3393.0	-888.8	-890.725396825
1181	0.5905	-894.225396825	-3393.0	-888.8	-890.725396825
1182	0.591	-894.225396825	-3393.0	-888.8	-890.725396825
1183	0.5915	-894.225396825	-3393.0	-888.8	-890.725396825
1184	0.592	-894.225396825	-3393.0	-888.8	-890.725396825
1185	0.5925	-894.225396825	-3393.0	-888.8	-890.725396825
1186	0.593	-894.225396825	-3393.0	-888.8	-890.725396825
1187	0.5935	-894.225396825	-3393.0	-888.8	-890.725396825
1188	0.594	-894.225396825	-3393.0	-888.8	-890.725396825
1189	0.5945	-894.225396825	-3393.0	-888.8	-890.725396825
1190	0.595	-894.225396825	-3393.0	-888.8	-890.725396825
1191	0.5955	-894.225396825	-3393.0	-888.8	-890.725396825
1192	0.596	-894.225396825	-3393.0	-888.8	-890.725396825
1193	0.5965	-894.225396825	-3393.0	-888.8	-890.725396825
1194	0.597	-894.225396825	-3393.0	-888.8	-890.725396825
1195	0.5975	-894.225396825	-3393.0	-888.8	-890.725396825
1196	0.598	-894.225396825	-3393.0	-888.8	-890.725396825
1197	0.5985	-894.225396825	-3393.0	-888.8	-890.725396825
1198	0.599	-894.225396825	-3393.0	-888.8	-890.725396825
1199	0.5995	-894.225396825	-3393.0	-888.8	-890.725396825
1200	0.6	-894.225396825	-3393.0	-888.8	-890.725396825
1201	0.6005	-894.225396825	-3393.0	-888.8	-890.725396825
1202	0.601	-894.225396825	-3393.0	-888.8	-890.725396825
1203	0.6015	-894.225396825	-3393.0	-888.8	-890.725396825
1204	0.602	-894.225396825	-3393.0	-888.8	-890.725396825
1205	0.6025	-894.225396825	-3393.0	-888.8	-890.725396825
1206	0.603	-894.225396825	-3393.0	-888.8	-890.725396825
1207	0.6035	-894.225396825	-3393.0	-888.8	-890.725396825
1208	0.604	-894.225396825	-3393.0	-888.8	-890.725396825
1209	0.6045	-894.225396825	-3393.0	-888.8	-890.725396825
1210	0.605	-894.225396825	-3393.0	-888.8	-799.5
1211	0.6055	-894.225396825	-3393.0	-888.8	-890.725396825
1212	0.606	-894.225396825	-3393.0	-888.8	-890.725396825
1213	0.6065	-894.225396825	-3393.0	-888.8	-890.725396825
1214	0.607	-894.225396825	-3393.0	-888.8	-890.725396825
1215	0.6075	-894.225396825	-3393.0	-888.8	-890.725396825
1216	0.608	-894.225396825	-3393.0	-888.8	-890.725396825
1217	0.6085	-894.225396825	-3393.0	-888.8	-890.725396825
1218	0.609	-894.225396825	-3393.0	-888.8	-890.725396825
1219	0.6095	-894.225396825	-3393.0	-888.8	-890.725396825
1220	0.61	-894.225396825	-3393.0	-888.8	-890.725396825
1221	0.6105	-894.225396825	-3393.0	-888.8	-890.725396825
1222	0.611	-894.225396825	-3393.0	-888.8	-890.725396825
1223	0.6115	-894.225396825	-3393.0	-888.8	-890.725396825
1224	0.612	-894.225396825	-3393.0	-888.8	-890.725396825
1225	0.6125	-894.225396825	-3393.0	-888.8	-890.725396825
1226	0.613	-894.225396825	-3393.0	-888.8	-890.725396825
1227	0.6135	-894.225396825	-3393.0	-888.8	-890.725396825
1228	0.614	-894.225396825	-3393.0	-888.8	-890.725396825
1229	0.6145	-894.225396825	-3393.0	-888.8	-890.725396825
1230	0.615	-894.225396825	-3393.0	-888.8	-890.725396825
1231	0.6155	-894.225396825	-3393.0	-888.8	-890.725396825
1232	0.616	-894.225396825	-3393.0	-888.8	-890.725396825
1233	0.6165	-894.225396825	-3393.0	-888.8	-890.725396825
1234	0.617	-894.225396825	-3393.0	-888.8	-890.725396825
1235	0.6175	-894.225396825	-3393.0	-888.8	-890.725396825
1236	0.618	-894.225396825	-3393.0	-888.8	-799.5
1237	0.6185	-894.225396825	-3393.0	-888.8	-890.725396825
1238	0.619	-894.225396825	-3393.0	-888.8	-890.725396825
1239	0.6195	-894.225396825	-3393.0	-888.8	-890.725396825
1240	0.62	-894.225396825	-3393.0	-888.8	-890.725396825
1241	0.6205	-894.225396825	-3393.0	-888.8	-890.725396825
1242	0.621	-894.225396825	-3393.0	-888.8	-890.725396825
1243	0.6215	-894.225396825	-3393.0	-888.8	-890.725396825
1244	0.622	-894.225396825	-3393.0	-888.8	-890.725396825
1245	0.6225	-894.225396825	-3393.0	-888.8	-890.725396825
1246	0.623	-894.225396825	-3393.0	-888.8	-890.725396825
1247	0.6235	-894.225396825	-3393.0	-888.8	-890.725396825
1248	0.624	-894.225396825	-3393.0	-888.8	-890.725396825
1249	0.6245	-894.225396825	-3393.0	-888.8	-890.725396825
1250	0.625	-894.225396825	-3393.0	-888.8	-890.725396825
1251	0.6255	-894.225396825	-3393.0	-888.8	-890.725396825
1252	0.626	-894.225396825	-3393.0	-888.8	-890.725396825
1253	0.6265	-894.225396825	-3393.0	-888.8	-890.725396825
1254	0.627	-894.225396825	-3393.0	-888.8	-890.725396825
1255	0.6275	-894.225396825	-3393.0	-888.8	-890.725396825
1256	0.628	-894.225396825	-3393.0	-888.8	-890.725396825
1257	0.6285	-894.225396825	-3393.0	-888.8	-890.725396825
1258	0.629	-894.225396825	-3393.0	-888.8	-890.725396825
1259	0.6295	-894.225396825	-3393.0	-888.8	-890.725396825
1260	0.63	-894.225396825	-3393.0	-888.8	-890.725396825
1261	0.6305	-894.225396825	-3393.0	-888.8	-890.725396825
1262	0.631	-894.225396825	-3393.0	-888.8	-890.725396825
1263	0.6315	-894.225396825	-3393.0	-888.8	-890.725396825
1264	0.632	-894.225396825	-3393.0	-888.8	-890.725396825
1265	0.6325	-894.225396825	-3393.0	-888.8	-890.725396825
1266	0.633	-894.225396825	-3393.0	-888.8	-890.725396825
1267	0.6335	-894.225396825	-3393.0	-888.8	-890.725396825
1268	0.634	-894.225396825	-3393.0	-888.8	-890.725396825
1269	0.6345	-894.225396825	-3393.0	-888.8	-890.725396825
1270	0.635	-894.225396825	-3393.0	-888.8	-890.725396825
1271	0.6355	-894.225396825	-3393.0	-888.8	-890.725396825
1272	0.636	-894.225396825	-3393.0	-888.8	-890.725396825
1273	0.6365	-894.225396825	-3393.0	-888.8	-890.725396825
1274	0.637	-894.225396825	-3393.0	-888.8	-890.725396825
1275	0.6375	-894.225396825	-3393.0	-888.8	-890.725396825
1276	0.638	-894.225396825	-3393.0	-888.8	-890.725396825
1277	0.6385	-894.225396825	-3393.0	-888.8	-890.725396825
1278	0.639	-894.225396825	-3393.0	-888.8	-890.725396825
1279	0.6395	-894.225396825	-3393.0	-888.8	-890.725396825
1280	0.64	-894.225396825	-3393.0	-888.8	-890.725396825
1281	0.6405	-894.225396825	-3393.0	-888.8	-890.725396825
1282	0.641	-894.225396825	-3393.0	-888.8	-890.725396825
1283	0.6415	-894.225396825	-3393.0	-888.8	-890.725396825
1284	0.642	-894.225396825	-3393.0	-888.8	-890.725396825
1285	0.6425	-894.225396825	-3393.0	-888.8	-890.725396825
1286	0.643	-894.225396825	-3393.0	-888.8	-890.725396825
1287	0.6435	-894.225396825	-3393.0	-888.8	-890.725396825
1288	0.644	-894.225396825	-3393.0	-888.8	-890.725396825
1289	0.6445	-894.225396825	-3393.0	-888.8	-890.725396825
1290	0.645	-894.225396825	-3393.0	-888.8	-890.725396825
1291	0.6455	-894.225396825	-3393.0	-888.8	-890.725396825
1292	0.646	-894.225396825	-3393.0	-888.8	-890.725396825
1293	0.6465	-894.225396825	-3393.0	-888.8	-890.725396825
1294	0.647	-894.225396825	-3393.0	-888.8	-890.725396825
1295	0.6475	-894.225396825	-3393.0	-888.8	-890.725396825
1296	0.648	-894.225396825	-3393.0	-888.8	-890.725396825
1297	0.6485	-894.225396825	-3393.0	-888.8	-890.725396825
1298	0.649	-894.225396825	-3393.0	-888.8	-890.725396825
1299	0.6495	-894.225396825	-3393.0	-888.8	-890.725396825
1300	0.65	-894.225396825	-3393.0	-888.8	-890.725396825
1301	0.6505	-894.225396825	-3393.0	-888.8	-890.725396825
1302	0.651	-894.225396825	-3393.0	-888.8	-890.725396825
1303	0.6515	-894.225396825	-3393.0	-888.8	-890.725396825
1304	0.652	-894.225396825	-3393.0	-888.8	-890.725396825
1305	0.6525	-894.225396825	-3393.0	-888.8	-890.725396825
1306	0.653	-894.225396825	-3393.0	-888.8	-890.725396825
1307	0.6535	-894.225396825	-3393.0	-888.8	-890.725396825
1308	0.654	-894.225396825	-3393.0	-888.8	-890.725396825
1309	0.6545	-894.225396825	-3393.0	-888.8	-890.725396825
1310	0.655	-894.225396825	-3393.0	-888.8	-890.725396825
1311	0.6555	-894.225396825	-3393.0	-888.8	-890.725396825
1312	0.656	-894.225396825	-3393.0	-888.8	-890.725396825
1313	0.6565	-894.225396825	-3393.0	-888.8	-890.725396825
1314	0.657	-894.225396825	-3393.0	-888.8	-890.725396825
1315	0.6575	-894.225396825	-3393.0	-888.8	-890.725396825
1316	0.658	-894.225396825	-3393.0	-888.8	-890.725396825
1317	0.6585	-894.225396825	-3393.0	-888.8	-890.725396825
1318	0.659	-894.225396825	-3393.0	-888.8	-890.725396825
1319	0.6595	-894.225396825	-3393.0	-888.8	-890.725396825
1320	0.66	-894.225396825	-3393.0	-888.8	-890.725396825
1321	0.6605	-894.225396825	-3393.0	-888.8	-890.725396825
1322	0.661	-894.225396825	-3393.0	-888.8	-890.725396825
1323	0.6615	-894.225396825	-3393.0	-888.8	-890.725396825
1324	0.662	-894.225396825	-3393.0	-888.8	-890.725396825
1325	0.6625	-894.225396825	-3393.0	-888.8	-890.725396825
1326	0.663	-894.225396825	-3393.0	-888.8	-890.725396825
1327	0.6635	-894.225396825	-3393.0	-888.8	-890.725396825
1328	0.664	-894.225396825	-3393.0	-888.8	-890.725396825
1329	0.6645	-894.225396825	-3393.0	-888.8	-890.725396825
1330	0.665	-894.225396825	-3393.0	-888.8	-890.725396825
1331	0.6655	-894.225396825	-3393.0	-888.8	-890.725396825
1332	0.666	-894.225396825	-3393.0	-888.8	-890.725396825
1333	0.6665	-894.225396825	-3393.0	-888.8	-890.725396825
1334	0.667	-894.225396825	-3393.0	-888.8	-890.725396825
1335	0.6675	-894.225396825	-3393.0	-888.8	-890.725396825
1336	0.668	-894.225396825	-3393.0	-888.8	-890.725396825
1337	0.6685	-894.225396825	-3393.0	-888.8	-890.725396825
1338	0.669	-894.225396825	-3393.0	-888.8	-890.725396825
1339	0.6695	-894.225396825	-3393.0	-888.8	-890.725396825
1340	0.67	-894.225396825	-3393.0	-888.8	-890.725396825
1341	0.6705	-894.225396825	-3393.0	-888.8	-890.725396825
1342	0.671	-894.225396825	-3393.0	-888.8	-890.725396825
1343	0.6715	-894.225396825	-3393.0	-888.8	-890.725396825
1344	0.672	-894.225396825	-3393.0	-888.8	-890.725396825
1345	0.6725	-894.225396825	-3393.0	-888.8	-890.725396825
1346	0.673	-894.225396825	-3393.0	-888.8	-890.725396825
1347	0.6735	-894.225396825	-3393.0	-888.8	-890.725396825
1348	0.674	-894.225396825	-3393.0	-888.8	-890.725396825
1349	0.6745	-894.225396825	-3393.0	-888.8	-890.725396825
1350	0.675	-894.225396825	-3393.0	-888.8	-890.725396825
1351	0.6755	-894.225396825	-3393.0	-888.8	-890.725396825
1352	0.676	-894.225396825	-3393.0	-888.8	-890.725396825
1353	0.6765	-894.225396825	-3393.0	-888.8	-890.725396825
1354	0.677	-894.225396825	-3393.0	-888.8	-890.725396825
1355	0.6775	-894.225396825	-3393.0	-888.8	-890.725396825
1356	0.678	-894.225396825	-3393.0	-888.8	-890.725396825
1357	0.6785	-894.225396825	-3393.0	-888.8	-890.725396825
1358	0.679	-894.225396825	-3393.0	-888.8	-890.725396825
1359	0.6795	-894.225396825	-3393.0	-888.8	-890.725396825
1360	0.68	-894.225396825	-3393.0	-888.8	-890.725396825
1361	0.6805	-894.225396825	-3393.0	-888.8	-890.725396825
1362	0.681	-894.225396825	-3393.0	-888.8	-890.725396825
1363	0.6815	-894.225396825	-3393.0	-888.8	-890.725396825
1364	0.682	-894.225396825	-3393.0	-888.8	-890.725396825
1365	0.6825	-894.225396825	-3393.0	-888.8	-890.725396825
1366	0.683	-894.225396825	-3393.0	-888.8	-890.725396825
1367	0.6835	-894.225396825	-3393.0	-888.8	-890.725396825
1368	0.684	-894.225396825	-3393.0	-888.8	-890.725396825
1369	0.6845	-894.225396825	-3393.0	-888.8	-890.725396825
1370	0.685	-894.225396825	-3393.0	-888.8	-890.725396825
1371	0.6855	-894.225396825	-3393.0	-888.8	-890.725396825
1372	0.686	-894.225396825	-3393.0	-888.8	-890.725396825
1373	0.6865	-894.225396825	-3393.0	-888.8	-890.725396825
1374	0.687	-894.225396825	-3393.0	-888.8	-890.725396825
1375	0.6875	-894.225396825	-3393.0	-888.8	-890.725396825
1376	0.688	-894.225396825	-3393.0	-888.8	-890.725396825
1377	0.6885	-894.225396825	-3393.0	-888.8	-890.725396825
1378	0.689	-894.225396825	-3393.0	-888.8	-890.725396825
1379	0.6895	-894.225396825	-3393.0	-888.8	-890.725396825
1380	0.69	-894.225396825	-3393.0	-888.8	-890.725396825
1381	0.6905	-894.225396825	-3393.0	-888.8	-799.5
1382	0.691	-894.225396825	-3393.0	-888.8	-890.725396825
1383	0.6915	-894.225396825	-3393.0	-888.8	-890.725396825
1384	0.692	-894.225396825	-3393.0	-888.8	-890.725396825
1385	0.6925	-894.225396825	-3393.0	-888.8	-890.725396825
1386	0.693	-894.225396825	-3393.0	-888.8	-890.725396825
1387	0.6935	-894.225396825	-3393.0	-888.8	-890.725396825
1388	0.694	-894.225396825	-3393.0	-888.8	-890.725396825
1389	0.6945	-894.225396825	-3393.0	-888.8	-890.725396825
1390	0.695	-894.225396825	-3393.0	-888.8	-890.725396825
1391	0.6955	-894.225396825	-3393.0	-888.8	-890.725396825
1392	0.696	-894.225396825	-3393.0	-888.8	-890.725396825
1393	0.6965	-894.225396825	-3393.0	-888.8	-890.725396825
1394	0.697	-894.225396825	-3393.0	-888.8	-890.725396825
1395	0.6975	-894.225396825	-3393.0	-888.8	-890.725396825
1396	0.698	-894.225396825	-3393.0	-888.8	-890.725396825
1397	0.6985	-894.225396825	-3393.0	-888.8	-890.725396825
1398	0.699	-894.225396825	-3393.0	-888.8	-890.725396825
1399	0.6995	-894.225396825	-3393.0	-888.8	-890.725396825
1400	0.7	-894.225396825	-3393.0	-888.8	-890.725396825
1401	0.7005	-894.225396825	-3393.0	-888.8	-890.725396825
1402	0.701	-894.225396825	-3393.0	-888.8	-890.725396825
1403	0.7015	-894.225396825	-3393.0	-888.8	-890.725396825
1404	0.702	-894.225396825	-3393.0	-888.8	-890.725396825
1405	0.7025	-894.225396825	-3393.0	-888.8	-890.725396825
1406	0.703	-894.225396825	-3393.0	-888.8	-890.725396825
1407	0.7035	-894.225396825	-3393.0	-888.8	-890.725396825
1408	0.704	-894.225396825	-3393.0	-888.8	-890.725396825
1409	0.7045	-894.225396825	-3393.0	-888.8	-890.725396825
1410	0.705	-894.225396825	-3393.0	-888.8	-890.725396825
1411	0.7055	-894.225396825	-3393.0	-888.8	-890.725396825
1412	0.706	-894.225396825	-3393.0	-888.8	-890.725396825
1413	0.7065	-894.225396825	-3393.0	-888.8	-890.725396825
1414	0.707	-894.225396825	-3393.0	-888.8	-890.725396825
1415	0.7075	-894.225396825	-3393.0	-888.8	-890.725396825
1416	0.708	-894.225396825	-3393.0	-888.8	-890.725396825
1417	0.7085	-894.225396825	-3393.0	-888.8	-890.725396825
1418	0.709	-894.225396825	-3393.0	-888.8	-890.725396825
1419	0.7095	-894.225396825	-3393.0	-888.8	-890.725396825
1420	0.71	-894.225396825	-3393.0	-888.8	-890.725396825
1421	0.7105	-894.225396825	-3393.0	-888.8	-890.725396825
1422	0.711	-894.225396825	-3393.0	-888.8	-890.725396825
1423	0.7115	-894.225396825	-3393.0	-888.8	-890.725396825
1424	0.712	-894.225396825	-3393.0	-888.8	-890.725396825
1425	0.7125	-894.225396825	-3393.0	-888.8	-890.725396825
1426	0.713	-894.225396825	-3393.0	-888.8	-890.725396825
1427	0.7135	-894.225396825	-3393.0	-888.8	-890.725396825
1428	0.714	-894.225396825	-3393.0	-888.8	-890.725396825
1429	0.7145	-894.225396825	-3393.0	-888.8	-890.725396825
1430	0.715	-894.225396825	-3393.0	-888.8	-890.725396825
1431	0.7155	-894.225396825	-3393.0	-888.8	-890.725396825
1432	0.716	-894.225396825	-3393.0	-888.8	-890.725396825
1433	0.7165	-894.225396825	-3393.0	-888.8	-890.725396825
1434	0.717	-894.225396825	-3393.0	-888.8	-890.725396825
1435	0.7175	-894.225396825	-3393.0	-888.8	-890.725396825
1436	0.718	-894.225396825	-3393.0	-888.8	-890.725396825
1437	0.7185	-894.225396825	-3393.0	-888.8	-890.725396825
1438	0.719	-894.225396825	-3393.0	-888.8	-890.725396825
1439	0.7195	-894.225396825	-3393.0	-888.8	-890.725396825
1440	0.72	-894.225396825	-3393.0	-888.8	-890.725396825
1441	0.7205	-894.225396825	-3393.0	-888.8	-890.725396825
1442	0.721	-894.225396825	-3393.0	-888.8	-890.725396825
1443	0.7215	-894.225396825	-3393.0	-888.8	-890.725396825
1444	0.722	-894.225396825	-3393.0	-888.8	-890.725396825
1445	0.7225	-894.225396825	-3393.0	-888.8	-890.725396825
1446	0.723	-894.225396825	-3393.0	-888.8	-890.725396825
1447	0.7235	-894.225396825	-3393.0	-888.8	-890.725396825
1448	0.724	-894.225396825	-3393.0	-888.8	-890.725396825
1449	0.7245	-894.225396825	-3393.0	-888.8	-890.725396825
1450	0.725	-894.225396825	-3393.0	-888.8	-890.725396825
1451	0.7255	-894.225396825	-3393.0	-888.8	-890.725396825
1452	0.726	-894.225396825	-3393.0	-888.8	-890.725396825
1453	0.7265	-894.225396825	-3393.0	-888.8	-890.725396825
1454	0.727	-894.225396825	-3393.0	-888.8	-890.725396825
1455	0.7275	-894.225396825	-3393.0	-888.8	-890.725396825
1456	0.728	-894.225396825	-3393.0	-888.8	-890.725396825
1457	0.7285	-894.225396825	-3393.0	-888.8	-890.725396825
1458	0.729	-894.225396825	-3393.0	-888.8	-890.725396825
1459	0.7295	-894.225396825	-3393.0	-888.8	-890.725396825
1460	0.73	-894.225396825	-3393.0	-888.8	-890.725396825
1461	0.7305	-894.225396825	-3393.0	-888.8	-890.725396825
1462	0.731	-894.225396825	-3393.0	-888.8	-890.725396825
1463	0.7315	-894.225396825	-3393.0	-888.8	-890.725396825
1464	0.732	-894.225396825	-3393.0	-888.8	-890.725396825
1465	0.7325	-894.225396825	-3393.0	-888.8	-890.725396825
1466	0.733	-894.225396825	-3393.0	-888.8	-890.725396825
1467	0.7335	-894.225396825	-3393.0	-888.8	-890.725396825
1468	0.734	-894.225396825	-3393.0	-888.8	-890.725396825
1469	0.7345	-894.225396825	-3393.0	-888.8	-890.725396825
1470	0.735	-894.225396825	-3393.0	-888.8	-890.725396825
1471	0.7355	-894.225396825	-3393.0	-888.8	-890.725396825
1472	0.736	-894.225396825	-3393.0	-888.8	-890.725396825
1473	0.7365	-894.225396825	-3393.0	-888.8	-890.725396825
1474	0.737	-894.225396825	-3393.0	-888.8	-890.725396825
1475	0.7375	-894.225396825	-3393.0	-888.8	-890.725396825
1476	0.738	-894.225396825	-3393.0	-888.8	-890.725396825
1477	0.7385	-894.225396825	-3393.0	-888.8	-890.725396825
1478	0.739	-894.225396825	-3393.0	-888.8	-890.725396825
1479	0.7395	-894.225396825	-3393.0	-888.8	-890.725396825
1480	0.74	-894.225396825	-3393.0	-888.8	-890.725396825
1481	0.7405	-894.225396825	-3393.0	-888.8	-890.725396825
1482	0.741	-894.225396825	-3393.0	-888.8	-890.725396825
1483	0.7415	-894.225396825	-3393.0	-888.8	-890.725396825
1484	0.742	-894.225396825	-3393.0	-888.8	-890.725396825
1485	0.7425	-894.225396825	-3393.0	-888.8	-890.725396825
1486	0.743	-894.225396825	-3393.0	-888.8	-890.725396825
1487	0.7435	-894.225396825	-3393.0	-888.8	-890.725396825
1488	0.744	-894.225396825	-3393.0	-888.8	-890.725396825
1489	0.7445	-894.225396825	-3393.0	-888.8	-890.725396825
1490	0.745	-894.225396825	-3393.0	-888.8	-890.725396825
1491	0.7455	-894.225396825	-3393.0	-888.8	-890.725396825
1492	0.746	-894.225396825	-3393.0	-888.8	-890.725396825
1493	0.7465	-894.225396825	-3393.0	-888.8	-890.725396825
1494	0.747	-894.225396825	-3393.0	-888.8	-890.725396825
1495	0.7475	-894.225396825	-3393.0	-888.8	-890.725396825
1496	0.748	-894.225396825	-3393.0	-888.8	-890.725396825
1497	0.7485	-894.225396825	-3393.0	-888.8	-890.725396825
1498	0.749	-894.225396825	-3393.0	-888.8	-890.725396825
1499	0.7495	-894.225396825	-3393.0	-888.8	-890.725396825
1500	0.75	-894.225396825	-3393.0	-888.8	-890.725396825
1501	0.7505	-894.225396825	-3393.0	-888.8	-890.725396825
1502	0.751	-894.225396825	-3393.0	-888.8	-890.725396825
1503	0.7515	-894.225396825	-3393.0	-888.8	-890.725396825
1504	0.752	-894.225396825	-3393.0	-888.8	-890.725396825
1505	0.7525	-894.225396825	-3393.0	-888.8	-890.725396825
1506	0.753	-894.225396825	-3393.0	-888.8	-890.725396825
1507	0.7535	-894.225396825	-3393.0	-888.8	-890.725396825
1508	0.754	-894.225396825	-3393.0	-888.8	-890.725396825
1509	0.7545	-894.225396825	-3393.0	-888.8	-890.725396825
1510	0.755	-894.225396825	-3393.0	-888.8	-890.725396825
1511	0.7555	-894.225396825	-3393.0	-888.8	-890.725396825
1512	0.756	-894.225396825	-3393.0	-888.8	-890.725396825
1513	0.7565	-894.225396825	-3393.0	-888.8	-890.725396825
1514	0.757	-894.225396825	-3393.0	-888.8	-890.725396825
1515	0.7575	-894.225396825	-3393.0	-888.8	-890.725396825
1516	0.758	-894.225396825	-3393.0	-888.8	-890.725396825
1517	0.7585	-894.225396825	-3393.0	-888.8	-890.725396825
1518	0.759	-894.225396825	-3393.0	-888.8	-890.725396825
1519	0.7595	-894.225396825	-3393.0	-888.8	-890.725396825
1520	0.76	-894.225396825	-3393.0	-888.8	-890.725396825
1521	0.7605	-894.225396825	-3393.0	-888.8	-890.725396825
1522	0.761	-894.225396825	-3393.0	-888.8	-890.725396825
1523	0.7615	-894.225396825	-3393.0	-888.8	-890.725396825
1524	0.762	-894.225396825	-3393.0	-888.8	-890.725396825
1525	0.7625	-894.225396825	-3393.0	-888.8	-890.725396825
1526	0.763	-894.225396825	-3393.0	-888.8	-890.725396825
1527	0.7635	-894.225396825	-3393.0	-888.8	-890.725396825
1528	0.764	-894.225396825	-3393.0	-888.8	-890.725396825
1529	0.7645	-894.225396825	-3393.0	-888.8	-890.725396825
1530	0.765	-894.225396825	-3393.0	-888.8	-890.725396825
1531	0.7655	-894.225396825	-3393.0	-888.8	-890.725396825
1532	0.766	-894.225396825	-3393.0	-888.8	-890.725396825
1533	0.7665	-894.225396825	-3393.0	-888.8	-890.725396825
1534	0.767	-894.225396825	-3393.0	-888.8	-890.725396825
1535	0.7675	-894.225396825	-3393.0	-888.8	-890.725396825
1536	0.768	-894.225396825	-3393.0	-888.8	-890.725396825
1537	0.7685	-894.225396825	-3393.0	-888.8	-890.725396825
1538	0.769	-894.225396825	-3393.0	-888.8	-890.725396825
1539	0.7695	-894.225396825	-3393.0	-888.8	-890.725396825
1540	0.77	-894.225396825	-3393.0	-888.8	-890.725396825
1541	0.7705	-894.225396825	-3393.0	-888.8	-890.725396825
1542	0.771	-894.225396825	-3393.0	-888.8	-890.725396825
1543	0.7715	-894.225396825	-3393.0	-888.8	-890.725396825
1544	0.772	-894.225396825	-3393.0	-888.8	-890.725396825
1545	0.7725	-894.225396825	-3393.0	-888.8	-890.725396825
1546	0.773	-894.225396825	-3393.0	-888.8	-890.725396825
1547	0.7735	-894.225396825	-3393.0	-888.8	-890.725396825
1548	0.774	-894.225396825	-3393.0	-888.8	-890.725396825
1549	0.7745	-894.225396825	-3393.0	-888.8	-890.725396825
1550	0.775	-894.225396825	-3393.0	-888.8	-890.725396825
1551	0.7755	-894.225396825	-3393.0	-888.8	-890.725396825
1552	0.776	-894.225396825	-3393.0	-888.8	-890.725396825
1553	0.7765	-894.225396825	-3393.0	-888.8	-890.725396825
1554	0.777	-894.225396825	-3393.0	-888.8	-890.725396825
1555	0.7775	-894.225396825	-3393.0	-888.8	-890.725396825
1556	0.778	-894.225396825	-3393.0	-888.8	-890.725396825
1557	0.7785	-894.225396825	-3393.0	-888.8	-890.725396825
1558	0.779	-894.225396825	-3393.0	-888.8	-890.725396825
1559	0.7795	-894.225396825	-3393.0	-888.8	-890.725396825
1560	0.78	-894.225396825	-3393.0	-888.8	-890.725396825
1561	0.7805	-894.225396825	-3393.0	-888.8	-890.725396825
1562	0.781	-894.225396825	-3393.0	-888.8	-890.725396825
1563	0.7815	-894.225396825	-3393.0	-888.8	-890.725396825
1564	0.782	-894.225396825	-3393.0	-888.8	-890.725396825
1565	0.7825	-894.225396825	-3393.0	-888.8	-890.725396825
1566	0.783	-894.225396825	-3393.0	-888.8	-890.725396825
1567	0.7835	-894.225396825	-3393.0	-888.8	-890.725396825
1568	0.784	-894.225396825	-3393.0	-888.8	-890.725396825
1569	0.7845	-894.225396825	-3393.0	-888.8	-890.725396825
1570	0.785	-894.225396825	-3393.0	-888.8	-890.725396825
1571	0.7855	-894.225396825	-3393.0	-888.8	-890.725396825
1572	0.786	-894.225396825	-3393.0	-888.8	-890.725396825
1573	0.7865	-894.225396825	-3393.0	-888.8	-890.725396825
1574	0.787	-894.225396825	-3393.0	-888.8	-890.725396825
1575	0.7875	-894.225396825	-3393.0	-888.8	-890.725396825
1576	0.788	-894.225396825	-3393.0	-888.8	-890.725396825
1577	0.7885	-894.225396825	-3393.0	-888.8	-890.725396825
1578	0.789	-894.225396825	-3393.0	-888.8	-890.725396825
1579	0.7895	-894.225396825	-3393.0	-888.8	-890.725396825
1580	0.79	-894.225396825	-3393.0	-888.8	-890.725396825
1581	0.7905	-894.225396825	-3393.0	-888.8	-890.725396825
1582	0.791	-894.225396825	-3393.0	-888.8	-890.725396825
1583	0.7915	-894.225396825	-3393.0	-888.8	-890.725396825
1584	0.792	-894.225396825	-3393.0	-888.8	-890.725396825
1585	0.7925	-894.225396825	-3393.0	-888.8	-890.725396825
1586	0.793	-894.225396825	-3393.0	-888.8	-890.725396825
1587	0.7935	-894.225396825	-3393.0	-888.8	-890.725396825
1588	0.794	-894.225396825	-3393.0	-888.8	-890.725396825
1589	0.7945	-894.225396825	-3393.0	-888.8	-890.725396825
1590	0.795	-894.225396825	-3393.0	-888.8	-890.725396825
1591	0.7955	-894.225396825	-3393.0	-888.8	-890.725396825
1592	0.796	-894.225396825	-3393.0	-888.8	-890.725396825
1593	0.7965	-894.225396825	-3393.0	-888.8	-890.725396825
1594	0.797	-894.225396825	-3393.0	-888.8	-890.725396825
1595	0.7975	-894.225396825	-3393.0	-888.8	-890.725396825
1596	0.798	-894.225396825	-3393.0	-888.8	-890.725396825
1597	0.7985	-894.225396825	-3393.0	-888.8	-890.725396825
1598	0.799	-894.225396825	-3393.0	-888.8	-890.725396825
1599	0.7995	-894.225396825	-3393.0	-888.8	-890.725396825
1600	0.8	-894.225396825	-3393.0	-888.8	-890.725396825
1601	0.8005	-894.225396825	-3393.0	-888.8	-890.725396825
1602	0.801	-894.225396825	-3393.0	-888.8	-890.725396825
1603	0.8015	-894.225396825	-3393.0	-888.8	-890.725396825
1604	0.802	-894.225396825	-3393.0	-888.8	-890.725396825
1605	0.8025	-894.225396825	-3393.0	-888.8	-890.725396825
1606	0.803	-894.225396825	-3393.0	-888.8	-890.725396825
1607	0.8035	-894.225396825	-3393.0	-888.8	-890.725396825
1608	0.804	-894.225396825	-3393.0	-888.8	-890.725396825
1609	0.8045	-894.225396825	-3393.0	-888.8	-890.725396825
1610	0.805	-894.225396825	-3393.0	-888.8	-890.725396825
1611	0.8055	-894.225396825	-3393.0	-888.8	-890.725396825
1612	0.806	-894.225396825	-3393.0	-888.8	-890.725396825
1613	0.8065	-894.225396825	-3393.0	-888.8	-890.725396825
1614	0.807	-894.225396825	-3393.0	-888.8	-890.725396825
1615	0.8075	-894.225396825	-3393.0	-888.8	-890.725396825
1616	0.808	-894.225396825	-3393.0	-888.8	-890.725396825
1617	0.8085	-894.225396825	-3393.0	-888.8	-890.725396825
1618	0.809	-894.225396825	-3393.0	-888.8	-890.725396825
1619	0.8095	-894.225396825	-3393.0	-888.8	-890.725396825
1620	0.81	-894.225396825	-3393.0	-888.8	-890.725396825
1621	0.8105	-894.225396825	-3393.0	-888.8	-890.725396825
1622	0.811	-894.225396825	-3393.0	-888.8	-890.725396825
1623	0.8115	-894.225396825	-3393.0	-888.8	-890.725396825
1624	0.812	-894.225396825	-3393.0	-888.8	-890.725396825
1625	0.8125	-894.225396825	-3393.0	-888.8	-890.725396825
1626	0.813	-894.225396825	-3393.0	-888.8	-890.725396825
1627	0.8135	-894.225396825	-3393.0	-888.8	-890.725396825
1628	0.814	-894.225396825	-3393.0	-888.8	-890.725396825
1629	0.8145	-894.225396825	-3393.0	-888.8	-890.725396825
1630	0.815	-894.225396825	-3393.0	-888.8	-890.725396825
1631	0.8155	-894.225396825	-3393.0	-888.8	-890.725396825
1632	0.816	-894.225396825	-3393.0	-888.8	-890.725396825
1633	0.8165	-894.225396825	-3393.0	-888.8	-890.725396825
1634	0.817	-894.225396825	-3393.0	-888.8	-890.725396825
1635	0.8175	-894.225396825	-3393.0	-888.8	-890.725396825
1636	0.818	-894.225396825	-3393.0	-888.8	-890.725396825
1637	0.8185	-894.225396825	-3393.0	-888.8	-890.725396825
1638	0.819	-894.225396825	-3393.0	-888.8	-890.725396825
1639	0.8195	-894.225396825	-3393.0	-888.8	-890.725396825
1640	0.82	-894.225396825	-3393.0	-888.8	-890.725396825
1641	0.8205	-894.225396825	-3393.0	-888.8	-890.725396825
1642	0.821	-894.225396825	-3393.0	-888.8	-890.725396825
1643	0.8215	-894.225396825	-3393.0	-888.8	-890.725396825
1644	0.822	-894.225396825	-3393.0	-888.8	-890.725396825
1645	0.8225	-894.225396825	-3393.0	-888.8	-890.725396825
1646	0.823	-894.225396825	-3393.0	-888.8	-890.725396825
1647	0.8235	-894.225396825	-3393.0	-888.8	-890.725396825
1648	0.824	-894.225396825	-3393.0	-888.8	-890.725396825
1649	0.8245	-894.225396825	-3393.0	-888.8	-890.725396825
1650	0.825	-894.225396825	-3393.0	-888.8	-890.725396825
1651	0.8255	-894.225396825	-3393.0	-888.8	-890.725396825
1652	0.826	-894.225396825	-3393.0	-888.8	-890.725396825
1653	0.8265	-894.225396825	-3393.0	-888.8	-890.725396825
1654	0.827	-894.225396825	-3393.0	-888.8	-890.725396825
1655	0.8275	-894.225396825	-3393.0	-888.8	-890.725396825
1656	0.828	-894.225396825	-3393.0	-888.8	-890.725396825
1657	0.8285	-894.225396825	-3393.0	-888.8	-890.725396825
1658	0.829	-894.225396825	-3393.0	-888.8	-890.725396825
1659	0.8295	-894.225396825	-3393.0	-888.8	-890.725396825
1660	0.83	-894.225396825	-3393.0	-888.8	-890.725396825
1661	0.8305	-894.225396825	-3393.0	-888.8	-890.725396825
1662	0.831	-894.225396825	-3393.0	-888.8	-890.725396825
1663	0.8315	-894.225396825	-3393.0	-888.8	-890.725396825
1664	0.832	-894.225396825	-3393.0	-888.8	-890.725396825
1665	0.8325	-894.225396825	-3393.0	-888.8	-890.725396825
1666	0.833	-894.225396825	-3393.0	-888.8	-890.725396825
1667	0.8335	-894.225396825	-3393.0	-888.8	-890.725396825
1668	0.834	-894.225396825	-3393.0	-888.8	-890.725396825
1669	0.8345	-894.225396825	-3393.0	-888.8	-890.725396825
1670	0.835	-894.225396825	-3393.0	-888.8	-890.725396825
1671	0.8355	-894.225396825	-3393.0	-888.8	-890.725396825
1672	0.836	-894.225396825	-3393.0	-888.8	-890.725396825
1673	0.8365	-894.225396825	-3393.0	-888.8	-890.725396825
1674	0.837	-894.225396825	-3393.0	-888.8	-890.725396825
1675	0.8375	-894.225396825	-3393.0	-888.8	-890.725396825
1676	0.838	-894.225396825	-3393.0	-888.8	-890.725396825
1677	0.8385	-894.225396825	-3393.0	-888.8	-890.725396825
1678	0.839	-894.225396825	-3393.0	-888.8	-890.725396825
1679	0.8395	-894.225396825	-3393.0	-888.8	-890.725396825
1680	0.84	-894.225396825	-3393.0	-888.8	-890.725396825
1681	0.8405	-894.225396825	-3393.0	-888.8	-890.725396825
1682	0.841	-894.225396825	-3393.0	-888.8	-890.725396825
1683	0.8415	-894.225396825	-3393.0	-888.8	-890.725396825
1684	0.842	-894.225396825	-3393.0	-888.8	-890.725396825
1685	0.8425	-894.225396825	-3393.0	-888.8	-890.725396825
1686	0.843	-894.225396825	-3393.0	-888.8	-890.725396825
1687	0.8435	-894.225396825	-3393.0	-888.8	-890.725396825
1688	0.844	-894.225396825	-3393.0	-888.8	-890.725396825
1689	0.8445	-894.225396825	-3393.0	-888.8	-890.725396825
1690	0.845	-894.225396825	-3393.0	-888.8	-890.725396825
1691	0.8455	-894.225396825	-3393.0	-888.8	-890.725396825
1692	0.846	-894.225396825	-3393.0	-888.8	-890.725396825
1693	0.8465	-894.225396825	-3393.0	-888.8	-890.725396825
1694	0.847	-894.225396825	-3393.0	-888.8	-890.725396825
1695	0.8475	-894.225396825	-3393.0	-888.8	-890.725396825
1696	0.848	-894.225396825	-3393.0	-888.8	-890.725396825
1697	0.8485	-894.225396825	-3393.0	-888.8	-890.725396825
1698	0.849	-894.225396825	-3393.0	-888.8	-890.725396825
1699	0.8495	-894.225396825	-3393.0	-888.8	-890.725396825
1700	0.85	-894.225396825	-3393.0	-888.8	-890.725396825
1701	0.8505	-894.225396825	-3393.0	-888.8	-890.725396825
1702	0.851	-894.225396825	-3393.0	-888.8	-890.725396825
1703	0.8515	-894.225396825	-3393.0	-888.8	-890.725396825
1704	0.852	-894.225396825	-3393.0	-888.8	-890.725396825
1705	0.8525	-894.225396825	-3393.0	-888.8	-890.725396825
1706	0.853	-894.225396825	-3393.0	-888.8	-890.725396825
1707	0.8535	-894.225396825	-3393.0	-888.8	-890.725396825
1708	0.854	-894.225396825	-3393.0	-888.8	-890.725396825
1709	0.8545	-894.225396825	-3393.0	-888.8	-890.725396825
1710	0.855	-894.225396825	-3393.0	-888.8	-890.725396825
1711	0.8555	-894.225396825	-3393.0	-888.8	-890.725396825
1712	0.856	-894.225396825	-3393.0	-888.8	-890.725396825
1713	0.8565	-894.225396825	-3393.0	-888.8	-890.725396825
1714	0.857	-894.225396825	-3393.0	-888.8	-890.725396825
1715	0.8575	-894.225396825	-3393.0	-888.8	-890.725396825
1716	0.858	-894.225396825	-3393.0	-888.8	-890.725396825
1717	0.8585	-894.225396825	-3393.0	-888.8	-890.725396825
1718	0.859	-894.225396825	-3393.0	-888.8	-890.725396825
1719	0.8595	-894.225396825	-3393.0	-888.8	-890.725396825
1720	0.86	-894.225396825	-3393.0	-888.8	-890.725396825
1721	0.8605	-894.225396825	-3393.0	-888.8	-890.725396825
1722	0.861	-894.225396825	-3393.0	-888.8	-890.725396825
1723	0.8615	-894.225396825	-3393.0	-888.8	-890.725396825
1724	0.862	-894.225396825	-3393.0	-888.8	-890.725396825
1725	0.8625	-894.225396825	-3393.0	-888.8	-890.725396825
1726	0.863	-894.225396825	-3393.0	-888.8	-890.725396825
1727	0.8635	-894.225396825	-3393.0	-888.8	-890.725396825
1728	0.864	-894.225396825	-3393.0	-888.8	-890.725396825
1729	0.8645	-894.225396825	-3393.0	-888.8	-890.725396825
1730	0.865	-894.225396825	-3393.0	-888.8	-890.725396825
1731	0.8655	-894.225396825	-3393.0	-888.8	-890.725396825
1732	0.866	-894.225396825	-3393.0	-888.8	-890.725396825
1733	0.8665	-894.225396825	-3393.0	-888.8	-890.725396825
1734	0.867	-894.225396825	-3393.0	-888.8	-890.725396825
1735	0.8675	-894.225396825	-3393.0	-888.8	-890.725396825
1736	0.868	-894.225396825	-3393.0	-888.8	-890.725396825
1737	0.8685	-894.225396825	-3393.0	-888.8	-890.725396825
1738	0.869	-894.225396825	-3393.0	-888.8	-890.725396825
1739	0.8695	-894.225396825	-3393.0	-888.8	-890.725396825
1740	0.87	-894.225396825	-3393.0	-888.8	-890.725396825
1741	0.8705	-894.225396825	-3393.0	-888.8	-890.725396825
1742	0.871	-894.225396825	-3393.0	-888.8	-890.725396825
1743	0.8715	-894.225396825	-3393.0	-888.8	-890.725396825
1744	0.872	-894.225396825	-3393.0	-888.8	-890.725396825
1745	0.8725	-894.225396825	-3393.0	-888.8	-890.725396825
1746	0.873	-894.225396825	-3393.0	-888.8	-890.725396825
1747	0.8735	-894.225396825	-3393.0	-888.8	-890.725396825
1748	0.874	-894.225396825	-3393.0	-888.8	-890.725396825
1749	0.8745	-894.225396825	-3393.0	-888.8	-890.725396825
1750	0.875	-894.225396825	-3393.0	-888.8	-890.725396825
1751	0.8755	-894.225396825	-3393.0	-888.8	-890.725396825
1752	0.876	-894.225396825	-3393.0	-888.8	-890.725396825
1753	0.8765	-894.225396825	-3393.0	-888.8	-890.725396825
1754	0.877	-894.225396825	-3393.0	-888.8	-890.725396825
1755	0.8775	-894.225396825	-3393.0	-888.8	-890.725396825
1756	0.878	-894.225396825	-3393.0	-888.8	-890.725396825
1757	0.8785	-894.225396825	-3393.0	-888.8	-890.725396825
1758	0.879	-894.225396825	-3393.0	-888.8	-890.725396825
1759	0.8795	-894.225396825	-3393.0	-888.8	-890.725396825
1760	0.88	-894.225396825	-3393.0	-888.8	-890.725396825
1761	0.8805	-894.225396825	-3393.0	-888.8	-890.725396825
1762	0.881	-894.225396825	-3393.0	-888.8	-890.725396825
1763	0.8815	-894.225396825	-3393.0	-888.8	-890.725396825
1764	0.882	-894.225396825	-3393.0	-888.8	-890.725396825
1765	0.8825	-894.225396825	-3393.0	-888.8	-890.725396825
1766	0.883	-894.225396825	-3393.0	-888.8	-890.725396825
1767	0.8835	-894.225396825	-3393.0	-888.8	-890.725396825
1768	0.884	-894.225396825	-3393.0	-888.8	-890.725396825
1769	0.8845	-894.225396825	-3393.0	-888.8	-890.725396825
1770	0.885	-894.225396825	-3393.0	-888.8	-890.725396825
1771	0.8855	-894.225396825	-3393.0	-888.8	-890.725396825
1772	0.886	-894.225396825	-3393.0	-888.8	-890.725396825
1773	0.8865	-894.225396825	-3393.0	-888.8	-890.725396825
1774	0.887	-894.225396825	-3393.0	-888.8	-890.725396825
1775	0.8875	-894.225396825	-3393.0	-888.8	-890.725396825
1776	0.888	-894.225396825	-3393.0	-888.8	-890.725396825
1777	0.8885	-894.225396825	-3393.0	-888.8	-890.725396825
1778	0.889	-894.225396825	-3393.0	-888.8	-890.725396825
1779	0.8895	-894.225396825	-3393.0	-888.8	-890.725396825
1780	0.89	-894.225396825	-3393.0	-888.8	-890.725396825
1781	0.8905	-894.225396825	-3393.0	-888.8	-890.725396825
1782	0.891	-894.225396825	-3393.0	-888.8	-890.725396825
1783	0.8915	-894.225396825	-3393.0	-888.8	-890.725396825
1784	0.892	-894.225396825	-3393.0	-888.8	-890.725396825
1785	0.8925	-894.225396825	-3393.0	-888.8	-890.725396825
1786	0.893	-894.225396825	-3393.0	-888.8	-890.725396825
1787	0.8935	-894.225396825	-3393.0	-888.8	-890.725396825
1788	0.894	-894.225396825	-3393.0	-888.8	-890.725396825
1789	0.8945	-894.225396825	-3393.0	-888.8	-890.725396825
1790	0.895	-894.225396825	-3393.0	-888.8	-890.725396825
1791	0.8955	-894.225396825	-3393.0	-888.8	-890.725396825
1792	0.896	-894.225396825	-3393.0	-888.8	-890.725396825
1793	0.8965	-894.225396825	-3393.0	-888.8	-890.725396825
1794	0.897	-894.225396825	-3393.0	-888.8	-890.725396825
1795	0.8975	-894.225396825	-3393.0	-888.8	-890.725396825
1796	0.898	-894.225396825	-3393.0	-888.8	-890.725396825
1797	0.8985	-894.225396825	-3393.0	-888.8	-890.725396825
1798	0.899	-894.225396825	-3393.0	-888.8	-890.725396825
1799	0.8995	-894.225396825	-3393.0	-888.8	-890.725396825
1800	0.9	-894.225396825	-3393.0	-888.8	-890.725396825
1801	0.9005	-894.225396825	-3393.0	-888.8	-890.725396825
1802	0.901	-894.225396825	-3393.0	-888.8	-890.725396825
1803	0.9015	-894.225396825	-3393.0	-888.8	-890.725396825
1804	0.902	-894.225396825	-3393.0	-888.8	-890.725396825
1805	0.9025	-894.225396825	-3393.0	-888.8	-890.725396825
1806	0.903	-894.225396825	-3393.0	-888.8	-890.725396825
1807	0.9035	-894.225396825	-3393.0	-888.8	-890.725396825
1808	0.904	-894.225396825	-3393.0	-888.8	-890.725396825
1809	0.9045	-894.225396825	-3393.0	-888.8	-890.725396825
1810	0.905	-894.225396825	-3393.0	-888.8	-890.725396825
1811	0.9055	-894.225396825	-3393.0	-888.8	-890.725396825
1812	0.906	-894.225396825	-3393.0	-888.8	-890.725396825
1813	0.9065	-894.225396825	-3393.0	-888.8	-890.725396825
1814	0.907	-894.225396825	-3393.0	-888.8	-890.725396825
1815	0.9075	-894.225396825	-3393.0	-888.8	-890.725396825
1816	0.908	-894.225396825	-3393.0	-888.8	-890.725396825
1817	0.9085	-894.225396825	-3393.0	-888.8	-890.725396825
1818	0.909	-894.225396825	-3393.0	-888.8	-890.725396825
1819	0.9095	-894.225396825	-3393.0	-888.8	-890.725396825
1820	0.91	-894.225396825	-3393.0	-888.8	-890.725396825
1821	0.9105	-894.225396825	-3393.0	-888.8	-890.725396825
1822	0.911	-894.225396825	-3393.0	-888.8	-890.725396825
1823	0.9115	-894.225396825	-3393.0	-888.8	-890.725396825
1824	0.912	-894.225396825	-3393.0	-888.8	-890.725396825
1825	0.9125	-894.225396825	-3393.0	-888.8	-890.725396825
1826	0.913	-894.225396825	-3393.0	-888.8	-890.725396825
1827	0.9135	-894.225396825	-3393.0	-888.8	-890.725396825
1828	0.914	-894.225396825	-3393.0	-888.8	-890.725396825
1829	0.9145	-894.225396825	-3393.0	-888.8	-890.725396825
1830	0.915	-894.225396825	-3393.0	-888.8	-890.725396825
1831	0.9155	-894.225396825	-3393.0	-888.8	-890.725396825
1832	0.916	-894.225396825	-3393.0	-888.8	-890.725396825
1833	0.9165	-894.225396825	-3393.0	-888.8	-890.725396825
1834	0.917	-894.225396825	-3393.0	-888.8	-890.725396825
1835	0.9175	-894.225396825	-3393.0	-888.8	-890.725396825
1836	0.918	-894.225396825	-3393.0	-888.8	-890.725396825
1837	0.9185	-894.225396825	-3393.0	-888.8	-890.725396825
1838	0.919	-894.225396825	-3393.0	-888.8	-890.725396825
1839	0.9195	-894.225396825	-3393.0	-888.8	-890.725396825
1840	0.92	-894.225396825	-3393.0	-888.8	-890.725396825
1841	0.9205	-894.225396825	-3393.0	-888.8	-890.725396825
1842	0.921	-894.225396825	-3393.0	-888.8	-890.725396825
1843	0.9215	-894.225396825	-3393.0	-888.8	-890.725396825
1844	0.922	-894.225396825	-3393.0	-888.8	-890.725396825
1845	0.9225	-894.225396825	-3393.0	-888.8	-890.725396825
1846	0.923	-894.225396825	-3393.0	-888.8	-890.725396825
1847	0.9235	-894.225396825	-3393.0	-888.8	-890.725396825
1848	0.924	-894.225396825	-3393.0	-888.8	-890.725396825
1849	0.9245	-894.225396825	-3393.0	-888.8	-890.725396825
1850	0.925	-894.225396825	-3393.0	-888.8	-890.725396825
1851	0.9255	-894.225396825	-3393.0	-888.8	-890.725396825
1852	0.926	-894.225396825	-3393.0	-888.8	-890.725396825
1853	0.9265	-894.225396825	-3393.0	-888.8	-890.725396825
1854	0.927	-894.225396825	-3393.0	-888.8	-890.725396825
1855	0.9275	-894.225396825	-3393.0	-888.8	-890.725396825
1856	0.928	-894.225396825	-3393.0	-888.8	-890.725396825
1857	0.9285	-894.225396825	-3393.0	-888.8	-890.725396825
1858	0.929	-894.225396825	-3393.0	-888.8	-890.725396825
1859	0.9295	-894.225396825	-3393.0	-888.8	-890.725396825
1860	0.93	-894.225396825	-3393.0	-888.8	-890.725396825
1861	0.9305	-894.225396825	-3393.0	-888.8	-890.725396825
1862	0.931	-894.225396825	-3393.0	-888.8	-890.725396825
1863	0.9315	-894.225396825	-3393.0	-888.8	-890.725396825
1864	0.932	-894.225396825	-3393.0	-888.8	-890.725396825
1865	0.9325	-894.225396825	-3393.0	-888.8	-890.725396825
1866	0.933	-894.225396825	-3393.0	-888.8	-890.725396825
1867	0.9335	-894.225396825	-3393.0	-888.8	-890.725396825
1868	0.934	-894.225396825	-3393.0	-888.8	-890.725396825
1869	0.9345	-894.225396825	-3393.0	-888.8	-890.725396825
1870	0.935	-894.225396825	-3393.0	-888.8	-890.725396825
1871	0.9355	-894.225396825	-3393.0	-888.8	-890.725396825
1872	0.936	-894.225396825	-3393.0	-888.8	-890.725396825
1873	0.9365	-894.225396825	-3393.0	-888.8	-890.725396825
1874	0.937	-894.225396825	-3393.0	-888.8	-890.725396825
1875	0.9375	-894.225396825	-3393.0	-888.8	-890.725396825
1876	0.938	-894.225396825	-3393.0	-888.8	-890.725396825
1877	0.9385	-894.225396825	-3393.0	-888.8	-890.725396825
1878	0.939	-894.225396825	-3393.0	-888.8	-890.725396825
1879	0.9395	-894.225396825	-3393.0	-888.8	-890.725396825
1880	0.94	-894.225396825	-3393.0	-888.8	-890.725396825
1881	0.9405	-894.225396825	-3393.0	-888.8	-890.725396825
1882	0.941	-894.225396825	-3393.0	-888.8	-890.725396825
1883	0.9415	-894.225396825	-3393.0	-888.8	-890.725396825
1884	0.942	-894.225396825	-3393.0	-888.8	-890.725396825
1885	0.9425	-894.225396825	-3393.0	-888.8	-890.725396825
1886	0.943	-894.225396825	-3393.0	-888.8	-890.725396825
1887	0.9435	-894.225396825	-3393.0	-888.8	-890.725396825
1888	0.944	-894.225396825	-3393.0	-888.8	-890.725396825
1889	0.9445	-894.225396825	-3393.0	-888.8	-890.725396825
1890	0.945	-894.225396825	-3393.0	-888.8	-890.725396825
1891	0.9455	-894.225396825	-3393.0	-888.8	-890.725396825
1892	0.946	-894.225396825	-3393.0	-888.8	-890.725396825
1893	0.9465	-894.225396825	-3393.0	-888.8	-890.725396825
1894	0.947	-894.225396825	-3393.0	-888.8	-890.725396825
1895	0.9475	-894.225396825	-3393.0	-888.8	-890.725396825
1896	0.948	-894.225396825	-3393.0	-888.8	-890.725396825
1897	0.9485	-894.225396825	-3393.0	-888.8	-890.725396825
1898	0.949	-894.225396825	-3393.0	-888.8	-890.725396825
1899	0.9495	-894.225396825	-3393.0	-888.8	-890.725396825
1900	0.95	-894.225396825	-3393.0	-888.8	-890.725396825
1901	0.9505	-894.225396825	-3393.0	-888.8	-890.725396825
1902	0.951	-894.225396825	-3393.0	-888.8	-890.725396825
1903	0.9515	-894.225396825	-3393.0	-888.8	-890.725396825
1904	0.952	-894.225396825	-3393.0	-888.8	-890.725396825
1905	0.9525	-894.225396825	-3393.0	-888.8	-890.725396825
1906	0.953	-894.225396825	-3393.0	-888.8	-890.725396825
1907	0.9535	-894.225396825	-3393.0	-888.8	-890.725396825
1908	0.954	-894.225396825	-3393.0	-888.8	-890.725396825
1909	0.9545	-894.225396825	-3393.0	-888.8	-890.725396825
1910	0.955	-894.225396825	-3393.0	-888.8	-890.725396825
1911	0.9555	-894.225396825	-3393.0	-888.8	-890.725396825
1912	0.956	-894.225396825	-3393.0	-888.8	-890.725396825
1913	0.9565	-894.225396825	-3393.0	-888.8	-890.725396825
1914	0.957	-894.225396825	-3393.0	-888.8	-890.725396825
1915	0.9575	-894.225396825	-3393.0	-888.8	-890.725396825
1916	0.958	-894.225396825	-3393.0	-888.8	-890.725396825
1917	0.9585	-894.225396825	-3393.0	-888.8	-890.725396825
1918	0.959	-894.225396825	-3393.0	-888.8	-890.725396825
1919	0.9595	-894.225396825	-3393.0	-888.8	-890.725396825
1920	0.96	-894.225396825	-3393.0	-888.8	-890.725396825
1921	0.9605	-894.225396825	-3393.0	-888.8	-890.725396825
1922	0.961	-894.225396825	-3393.0	-888.8	-890.725396825
1923	0.9615	-894.225396825	-3393.0	-888.8	-890.725396825
1924	0.962	-894.225396825	-3393.0	-888.8	-890.725396825
1925	0.9625	-894.225396825	-3393.0	-888.8	-890.725396825
1926	0.963	-894.225396825	-3393.0	-888.8	-890.725396825
1927	0.9635	-894.225396825	-3393.0	-888.8	-890.725396825
1928	0.964	-894.225396825	-3393.0	-888.8	-890.725396825
1929	0.9645	-894.225396825	-3393.0	-888.8	-890.725396825
1930	0.965	-894.225396825	-3393.0	-888.8	-890.725396825
1931	0.9655	-894.225396825	-3393.0	-888.8	-890.725396825
1932	0.966	-894.225396825	-3393.0	-888.8	-890.725396825
1933	0.9665	-894.225396825	-3393.0	-888.8	-890.725396825
1934	0.967	-894.225396825	-3393.0	-888.8	-890.725396825
1935	0.9675	-894.225396825	-3393.0	-888.8	-890.725396825
1936	0.968	-894.225396825	-3393.0	-888.8	-890.725396825
1937	0.9685	-894.225396825	-3393.0	-888.8	-890.725396825
1938	0.969	-894.225396825	-3393.0	-888.8	-890.725396825
1939	0.9695	-894.225396825	-3393.0	-888.8	-890.725396825
1940	0.97	-894.225396825	-3393.0	-888.8	-890.725396825
1941	0.9705	-894.225396825	-3393.0	-888.8	-890.725396825
1942	0.971	-894.225396825	-3393.0	-888.8	-890.725396825
1943	0.9715	-894.225396825	-3393.0	-888.8	-890.725396825
1944	0.972	-894.225396825	-3393.0	-888.8	-890.725396825
1945	0.9725	-894.225396825	-3393.0	-888.8	-890.725396825
1946	0.973	-894.225396825	-3393.0	-888.8	-890.725396825
1947	0.9735	-894.225396825	-3393.0	-888.8	-890.725396825
1948	0.974	-894.225396825	-3393.0	-888.8	-890.725396825
1949	0.9745	-894.225396825	-3393.0	-888.8	-890.725396825
1950	0.975	-894.225396825	-3393.0	-888.8	-890.725396825
1951	0.9755	-894.225396825	-3393.0	-888.8	-890.725396825
1952	0.976	-894.225396825	-3393.0	-888.8	-890.725396825
1953	0.9765	-894.225396825	-3393.0	-888.8	-890.725396825
1954	0.977	-894.225396825	-3393.0	-888.8	-890.725396825
1955	0.9775	-894.225396825	-3393.0	-888.8	-890.725396825
1956	0.978	-894.225396825	-3393.0	-888.8	-890.725396825
1957	0.9785	-894.225396825	-3393.0	-888.8	-890.725396825
1958	0.979	-894.225396825	-3393.0	-888.8	-890.725396825
1959	0.9795	-894.225396825	-3393.0	-888.8	-890.725396825
1960	0.98	-894.225396825	-3393.0	-888.8	-890.725396825
1961	0.9805	-894.225396825	-3393.0	-888.8	-890.725396825
1962	0.981	-894.225396825	-3393.0	-888.8	-890.725396825
1963	0.9815	-894.225396825	-3393.0	-888.8	-890.725396825
1964	0.982	-894.225396825	-3393.0	-888.8	-890.725396825
1965	0.9825	-894.225396825	-3393.0	-888.8	-890.725396825
1966	0.983	-894.225396825	-3393.0	-888.8	-890.725396825
1967	0.9835	-894.225396825	-3393.0	-888.8	-890.725396825
1968	0.984	-894.225396825	-3393.0	-888.8	-890.725396825
1969	0.9845	-894.225396825	-3393.0	-888.8	-890.725396825
1970	0.985	-894.225396825	-3393.0	-888.8	-890.725396825
1971	0.9855	-894.225396825	-3393.0	-888.8	-890.725396825
1972	0.986	-894.225396825	-3393.0	-888.8	-890.725396825
1973	0.9865	-894.225396825	-3393.0	-888.8	-890.725396825
1974	0.987	-894.225396825	-3393.0	-888.8	-890.725396825
1975	0.9875	-894.225396825	-3393.0	-888.8	-890.725396825
1976	0.988	-894.225396825	-3393.0	-888.8	-890.725396825
1977	0.9885	-894.225396825	-3393.0	-888.8	-890.725396825
1978	0.989	-894.225396825	-3393.0	-888.8	-890.725396825
1979	0.9895	-894.225396825	-3393.0	-888.8	-890.725396825
1980	0.99	-894.225396825	-3393.0	-888.8	-890.725396825
1981	0.9905	-894.225396825	-3393.0	-888.8	-890.725396825
1982	0.991	-894.225396825	-3393.0	-888.8	-890.725396825
1983	0.9915	-894.225396825	-3393.0	-888.8	-890.725396825
1984	0.992	-894.225396825	-3393.0	-888.8	-890.725396825
1985	0.9925	-894.225396825	-3393.0	-888.8	-890.725396825
1986	0.993	-894.225396825	-3393.0	-888.8	-890.725396825
1987	0.9935	-894.225396825	-3393.0	-888.8	-890.725396825
1988	0.994	-894.225396825	-3393.0	-888.8	-890.725396825
1989	0.9945	-894.225396825	-3393.0	-888.8	-890.725396825
1990	0.995	-894.225396825	-3393.0	-888.8	-890.725396825
1991	0.9955	-894.225396825	-3393.0	-888.8	-890.725396825
1992	0.996	-894.225396825	-3393.0	-888.8	-890.725396825
1993	0.9965	-894.225396825	-3393.0	-888.8	-890.725396825
1994	0.997	-894.225396825	-3393.0	-888.8	-890.725396825
1995	0.9975	-894.225396825	-3393.0	-888.8	-890.725396825
1996	0.998	-894.225396825	-3393.0	-888.8	-890.725396825
1997	0.9985	-894.225396825	-3393.0	-888.8	-890.725396825
1998	0.999	-894.225396825	-3393.0	-888.8	-890.725396825
1999	0.9995	-894.225396825	-3393.0	-888.8	-890.725396825
2000	1.0	-894.225396825	-3393.0	-888.8	-890.725396825
2001	1.0005	-894.225396825	-3393.0	-888.8	-890.725396825
2002	1.001	-894.225396825	-3393.0	-888.8	-890.725396825
2003	1.0015	-894.225396825	-3393.0	-888.8	-890.725396825
2004	1.002	-894.225396825	-3393.0	-888.8	-890.725396825
2005	1.0025	-894.225396825	-3393.0	-888.8	-890.725396825
2006	1.003	-894.225396825	-3393.0	-888.8	-890.725396825
2007	1.0035	-894.225396825	-3393.0	-888.8	-890.725396825
2008	1.004	-894.225396825	-3393.0	-888.8	-890.725396825
2009	1.0045	-894.225396825	-3393.0	-888.8	-890.725396825
2010	1.005	-894.225396825	-3393.0	-888.8	-890.725396825
2011	1.0055	-894.225396825	-3393.0	-888.8	-890.725396825
2012	1.006	-894.225396825	-3393.0	-888.8	-890.725396825
2013	1.0065	-894.225396825	-3393.0	-888.8	-890.725396825
2014	1.007	-894.225396825	-3393.0	-888.8	-890.725396825
2015	1.0075	-894.225396825	-3393.0	-888.8	-890.725396825
2016	1.008	-894.225396825	-3393.0	-888.8	-890.725396825
2017	1.0085	-894.225396825	-3393.0	-888.8	-890.725396825
2018	1.009	-894.225396825	-3393.0	-888.8	-890.725396825
2019	1.0095	-894.225396825	-3393.0	-888.8	-890.725396825
2020	1.01	-894.225396825	-3393.0	-888.8	-890.725396825
2021	1.0105	-894.225396825	-3393.0	-888.8	-890.725396825
2022	1.011	-894.225396825	-3393.0	-888.8	-890.725396825
2023	1.0115	-894.225396825	-3393.0	-888.8	-890.725396825
2024	1.012	-894.225396825	-3393.0	-888.8	-890.725396825
2025	1.0125	-894.225396825	-3393.0	-888.8	-890.725396825
2026	1.013	-894.225396825	-3393.0	-888.8	-890.725396825
2027	1.0135	-894.225396825	-3393.0	-888.8	-890.725396825
2028	1.014	-894.225396825	-3393.0	-888.8	-890.725396825
2029	1.0145	-894.225396825	-3393.0	-888.8	-890.725396825
2030	1.015	-894.225396825	-3393.0	-888.8	-890.725396825
2031	1.0155	-894.225396825	-3393.0	-888.8	-890.725396825
2032	1.016	-894.225396825	-3393.0	-888.8	-890.725396825
2033	1.0165	-894.225396825	-3393.0	-888.8	-890.725396825
2034	1.017	-894.225396825	-3393.0	-888.8	-890.725396825
2035	1.0175	-894.225396825	-3393.0	-888.8	-890.725396825
2036	1.018	-894.225396825	-3393.0	-888.8	-890.725396825
2037	1.0185	-894.225396825	-3393.0	-888.8	-890.725396825
2038	1.019	-894.225396825	-3393.0	-888.8	-890.725396825
2039	1.0195	-894.225396825	-3393.0	-888.8	-890.725396825
2040	1.02	-894.225396825	-3393.0	-888.8	-890.725396825
2041	1.0205	-894.225396825	-3393.0	-888.8	-890.725396825
2042	1.021	-894.225396825	-3393.0	-888.8	-890.725396825
2043	1.0215	-894.225396825	-3393.0	-888.8	-890.725396825
2044	1.022	-894.225396825	-3393.0	-888.8	-890.725396825
2045	1.0225	-894.225396825	-3393.0	-888.8	-890.725396825
2046	1.023	-894.225396825	-3393.0	-888.8	-890.725396825
2047	1.0235	-894.225396825	-3393.0	-888.8	-890.725396825
2048	1.024	-894.225396825	-3393.0	-888.8	-890.725396825
2049	1.0245	-894.225396825	-3393.0	-888.8	-890.725396825
2050	1.025	-894.225396825	-3393.0	-888.8	-890.725396825
2051	1.0255	-894.225396825	-3393.0	-888.8	-890.725396825
2052	1.026	-894.225396825	-3393.0	-888.8	-890.725396825
2053	1.0265	-894.225396825	-3393.0	-888.8	-890.725396825
2054	1.027	-894.225396825	-3393.0	-888.8	-890.725396825
2055	1.0275	-894.225396825	-3393.0	-888.8	-890.725396825
2056	1.028	-894.225396825	-3393.0	-888.8	-890.725396825
2057	1.0285	-894.225396825	-3393.0	-888.8	-890.725396825
2058	1.029	-894.225396825	-3393.0	-888.8	-890.725396825
2059	1.0295	-894.225396825	-3393.0	-888.8	-890.725396825
2060	1.03	-894.225396825	-3393.0	-888.8	-890.725396825
2061	1.0305	-894.225396825	-3393.0	-888.8	-890.725396825
2062	1.031	-894.225396825	-3393.0	-888.8	-890.725396825
2063	1.0315	-894.225396825	-3393.0	-888.8	-890.725396825
2064	1.032	-894.225396825	-3393.0	-888.8	-890.725396825
2065	1.0325	-894.225396825	-3393.0	-888.8	-890.725396825
2066	1.033	-894.225396825	-3393.0	-888.8	-890.725396825
2067	1.0335	-894.225396825	-3393.0	-888.8	-890.725396825
2068	1.034	-894.225396825	-3393.0	-888.8	-890.725396825
2069	1.0345	-894.225396825	-3393.0	-888.8	-890.725396825
2070	1.035	-894.225396825	-3393.0	-888.8	-890.725396825
2071	1.0355	-894.225396825	-3393.0	-888.8	-890.725396825
2072	1.036	-894.225396825	-3393.0	-888.8	-890.725396825
2073	1.0365	-894.225396825	-3393.0	-888.8	-890.725396825
2074	1.037	-894.225396825	-3393.0	-888.8	-890.725396825
2075	1.0375	-894.225396825	-3393.0	-888.8	-890.725396825
2076	1.038	-894.225396825	-3393.0	-888.8	-890.725396825
2077	1.0385	-894.225396825	-3393.0	-888.8	-890.725396825
2078	1.039	-894.225396825	-3393.0	-888.8	-890.725396825
2079	1.0395	-894.225396825	-3393.0	-888.8	-890.725396825
2080	1.04	-894.225396825	-3393.0	-888.8	-890.725396825
2081	1.0405	-894.225396825	-3393.0	-888.8	-890.725396825
2082	1.041	-894.225396825	-3393.0	-888.8	-890.725396825
2083	1.0415	-894.225396825	-3393.0	-888.8	-890.725396825
2084	1.042	-894.225396825	-3393.0	-888.8	-890.725396825
2085	1.0425	-894.225396825	-3393.0	-888.8	-890.725396825
2086	1.043	-894.225396825	-3393.0	-888.8	-890.725396825
2087	1.0435	-894.225396825	-3393.0	-888.8	-890.725396825
2088	1.044	-894.225396825	-3393.0	-888.8	-890.725396825
2089	1.0445	-894.225396825	-3393.0	-888.8	-890.725396825
2090	1.045	-894.225396825	-3393.0	-888.8	-890.725396825
2091	1.0455	-894.225396825	-3393.0	-888.8	-890.725396825
2092	1.046	-894.225396825	-3393.0	-888.8	-890.725396825
2093	1.0465	-894.225396825	-3393.0	-888.8	-890.725396825
2094	1.047	-894.225396825	-3393.0	-888.8	-890.725396825
2095	1.0475	-894.225396825	-3393.0	-888.8	-890.725396825
2096	1.048	-894.225396825	-3393.0	-888.8	-890.725396825
2097	1.0485	-894.225396825	-3393.0	-888.8	-890.725396825
2098	1.049	-894.225396825	-3393.0	-888.8	-890.725396825
2099	1.0495	-894.225396825	-3393.0	-888.8	-890.725396825
2100	1.05	-894.225396825	-3393.0	-888.8	-890.725396825
2101	1.0505	-894.225396825	-3393.0	-888.8	-890.725396825
2102	1.051	-894.225396825	-3393.0	-888.8	-890.725396825
2103	1.0515	-894.225396825	-3393.0	-888.8	-890.725396825
2104	1.052	-894.225396825	-3393.0	-888.8	-890.725396825
2105	1.0525	-894.225396825	-3393.0	-888.8	-890.725396825
2106	1.053	-894.225396825	-3393.0	-888.8	-890.725396825
2107	1.0535	-894.225396825	-3393.0	-888.8	-890.725396825
2108	1.054	-894.225396825	-3393.0	-888.8	-890.725396825
2109	1.0545	-894.225396825	-3393.0	-888.8	-890.725396825
2110	1.055	-894.225396825	-3393.0	-888.8	-890.725396825
2111	1.0555	-894.225396825	-3393.0	-888.8	-890.725396825
2112	1.056	-894.225396825	-3393.0	-888.8	-890.725396825
2113	1.0565	-894.225396825	-3393.0	-888.8	-890.725396825
2114	1.057	-894.225396825	-3393.0	-888.8	-890.725396825
2115	1.0575	-894.225396825	-3393.0	-888.8	-890.725396825
2116	1.058	-894.225396825	-3393.0	-888.8	-890.725396825
2117	1.0585	-894.225396825	-3393.0	-888.8	-890.725396825
2118	1.059	-894.225396825	-3393.0	-888.8	-890.725396825
2119	1.0595	-894.225396825	-3393.0	-888.8	-890.725396825
2120	1.06	-894.225396825	-3393.0	-888.8	-890.725396825
2121	1.0605	-894.225396825	-3393.0	-888.8	-890.725396825
2122	1.061	-894.225396825	-3393.0	-888.8	-890.725396825
2123	1.0615	-894.225396825	-3393.0	-888.8	-890.725396825
2124	1.062	-894.225396825	-3393.0	-888.8	-890.725396825
2125	1.0625	-894.225396825	-3393.0	-888.8	-890.725396825
2126	1.063	-894.225396825	-3393.0	-888.8	-890.725396825
2127	1.0635	-894.225396825	-3393.0	-888.8	-890.725396825
2128	1.064	-894.225396825	-3393.0	-888.8	-890.725396825
2129	1.0645	-894.225396825	-3393.0	-888.8	-890.725396825
2130	1.065	-894.225396825	-3393.0	-888.8	-890.725396825
2131	1.0655	-894.225396825	-3393.0	-888.8	-890.725396825
2132	1.066	-894.225396825	-3393.0	-888.8	-890.725396825
2133	1.0665	-894.225396825	-3393.0	-888.8	-890.725396825
2134	1.067	-894.225396825	-3393.0	-888.8	-890.725396825
2135	1.0675	-894.225396825	-3393.0	-888.8	-890.725396825
2136	1.068	-894.225396825	-3393.0	-888.8	-890.725396825
2137	1.0685	-894.225396825	-3393.0	-888.8	-890.725396825
2138	1.069	-894.225396825	-3393.0	-888.8	-890.725396825
2139	1.0695	-894.225396825	-3393.0	-888.8	-890.725396825
2140	1.07	-894.225396825	-3393.0	-888.8	-890.725396825
2141	1.0705	-894.225396825	-3393.0	-888.8	-890.725396825
2142	1.071	-894.225396825	-3393.0	-888.8	-890.725396825
2143	1.0715	-894.225396825	-3393.0	-888.8	-890.725396825
2144	1.072	-894.225396825	-3393.0	-888.8	-890.725396825
2145	1.0725	-894.225396825	-3393.0	-888.8	-890.725396825
2146	1.073	-894.225396825	-3393.0	-888.8	-890.725396825
