Time,1,2
0.000000,10.100304,-10.988602
0.000500,10.100304,-6.770821
0.001000,10.100304,-3.958967
0.001500,10.100304,-3.958967
0.002000,8.694377,-5.364894
0.002500,8.694377,-6.770821
0.003000,5.882523,10.100304
0.003500,4.476596,-2.553040
0.004000,3.070669,-3.958967
0.004500,1.664742,-3.958967
0.005000,0.258815,-5.364894
0.005500,0.258815,-2.553040
0.006000,0.258815,-9.582675
0.006500,0.258815,-10.988602
0.007000,0.258815,-8.176748
0.007500,0.258815,-12.394529
0.008000,0.258815,-3.958967
0.008500,0.258815,-13.800456
0.009000,0.258815,-3.958967
0.009500,0.258815,-3.958967
0.010000,0.258815,-3.958967
0.010500,0.258815,-1.147112
0.011000,0.258815,-3.958967
0.011500,0.258815,-5.364894
0.012000,0.258815,-3.958967
0.012500,0.258815,-3.958967
0.013000,1.664742,-3.958967
0.013500,1.664742,-2.553040
0.014000,3.070669,-3.958967
0.014500,4.476596,-1.147112
0.015000,4.476596,-5.364894
0.015500,5.882523,-2.553040
0.016000,5.882523,0.258815
0.016500,7.288450,1.664742
0.017000,7.288450,0.258815
0.017500,8.694377,-6.770821
0.018000,8.694377,8.694377
0.018500,10.100304,-8.176748
0.019000,10.100304,-3.958967
0.019500,10.100304,-3.958967
0.020000,10.100304,-3.958967
0.020500,10.100304,-3.958967
0.021000,10.100304,-2.553040
0.021500,10.100304,-3.958967
0.022000,10.100304,-1.147112
0.022500,10.100304,-2.553040
0.023000,10.100304,-3.958967
0.023500,10.100304,-5.364894
0.024000,10.100304,0.258815
0.024500,10.100304,-1.147112
0.025000,10.100304,0.258815
0.025500,10.100304,-1.147112
0.026000,10.100304,10.100304
0.026500,10.100304,-1.147112
0.027000,10.100304,0.258815
0.027500,10.100304,-1.147112
0.028000,10.100304,-9.582675
0.028500,11.506231,-2.553040
0.029000,11.506231,-1.147112
0.029500,12.912158,-3.958967
0.030000,12.912158,-3.958967
0.030500,12.912158,-1.147112
0.031000,12.912158,-2.553040
0.031500,12.912158,-3.958967
0.032000,11.506231,-1.147112
0.032500,11.506231,-3.958967
0.033000,11.506231,-2.553040
0.033500,11.506231,-8.176748
0.034000,10.100304,-3.958967
0.034500,10.100304,-15.206383
0.035000,10.100304,-10.988602
0.035500,10.100304,-19.424164
0.036000,10.100304,-15.206383
0.036500,10.100304,-12.394529
0.037000,10.100304,-20.830091
0.037500,10.100304,-12.394529
0.038000,8.694377,-10.988602
0.038500,8.694377,-5.364894
0.039000,7.288450,3.070669
0.039500,5.882523,10.100304
0.040000,5.882523,10.100304
0.040500,5.882523,3.070669
0.041000,7.288450,4.476596
0.041500,8.694377,0.258815
0.042000,10.100304,0.258815
0.042500,10.100304,0.258815
0.043000,12.912158,0.258815
0.043500,15.724012,14.318085
0.044000,18.535866,11.506231
0.044500,19.941793,0.258815
0.045000,21.347720,0.258815
0.045500,22.753647,0.258815
0.046000,24.159574,-1.147112
0.046500,24.159574,0.258815
0.047000,24.159574,0.258815
0.047500,22.753647,-2.553040
0.048000,22.753647,-2.553040
0.048500,21.347720,-2.553040
0.049000,19.941793,-3.958967
0.049500,18.535866,-2.553040
0.050000,17.129939,-2.553040
0.050500,15.724012,0.258815
0.051000,14.318085,0.258815
0.051500,12.912158,-5.364894
0.052000,12.912158,11.506231
0.052500,11.506231,17.129939
0.053000,11.506231,-1.147112
0.053500,11.506231,-2.553040
0.054000,12.912158,-3.958967
0.054500,12.912158,-6.770821
0.055000,14.318085,-6.770821
0.055500,14.318085,-5.364894
0.056000,15.724012,-1.147112
0.056500,15.724012,-2.553040
0.057000,15.724012,-3.958967
0.057500,15.724012,-3.958967
0.058000,14.318085,0.258815
0.058500,12.912158,0.258815
0.059000,12.912158,-1.147112
0.059500,11.506231,0.258815
0.060000,11.506231,0.258815
0.060500,11.506231,0.258815
0.061000,10.100304,-2.553040
0.061500,10.100304,0.258815
0.062000,11.506231,-9.582675
0.062500,11.506231,-6.770821
0.063000,11.506231,5.882523
0.063500,11.506231,-3.958967
0.064000,11.506231,-1.147112
0.064500,11.506231,-3.958967
0.065000,11.506231,-2.553040
0.065500,11.506231,-3.958967
0.066000,11.506231,-1.147112
0.066500,11.506231,-1.147112
0.067000,11.506231,-2.553040
0.067500,11.506231,-3.958967
0.068000,11.506231,-1.147112
0.068500,11.506231,0.258815
0.069000,10.100304,3.070669
0.069500,10.100304,3.070669
0.070000,10.100304,-10.988602
0.070500,11.506231,-15.206383
0.071000,11.506231,-5.364894
0.071500,11.506231,-19.424164
0.072000,11.506231,-3.958967
0.072500,10.100304,-6.770821
0.073000,10.100304,-1.147112
0.073500,10.100304,-2.553040
0.074000,10.100304,-5.364894
0.074500,10.100304,-9.582675
0.075000,10.100304,-10.988602
0.075500,10.100304,-13.800456
0.076000,8.694377,-16.612310
0.076500,8.694377,-16.612310
0.077000,8.694377,-22.236018
0.077500,8.694377,-15.206383
0.078000,7.288450,-22.236018
0.078500,7.288450,-8.176748
0.079000,5.882523,-12.394529
0.079500,5.882523,1.664742
0.080000,4.476596,4.476596
0.080500,4.476596,-5.364894
0.081000,4.476596,-6.770821
0.081500,4.476596,-13.800456
0.082000,5.882523,-15.206383
0.082500,5.882523,-13.800456
0.083000,7.288450,-9.582675
0.083500,8.694377,-8.176748
0.084000,10.100304,-6.770821
0.084500,10.100304,-2.553040
0.085000,10.100304,-1.147112
0.085500,10.100304,-6.770821
0.086000,10.100304,-3.958967
0.086500,10.100304,-10.988602
0.087000,10.100304,-9.582675
0.087500,10.100304,-19.424164
0.088000,10.100304,-16.612310
0.088500,10.100304,-10.988602
0.089000,10.100304,-20.830091
0.089500,10.100304,-13.800456
0.090000,10.100304,-13.800456
0.090500,10.100304,-13.800456
0.091000,10.100304,-15.206383
0.091500,8.694377,-12.394529
0.092000,8.694377,-9.582675
0.092500,7.288450,-3.958967
0.093000,7.288450,-1.147112
0.093500,5.882523,3.070669
0.094000,7.288450,0.258815
0.094500,7.288450,-8.176748
0.095000,8.694377,-9.582675
0.095500,10.100304,-2.553040
0.096000,10.100304,-6.770821
0.096500,10.100304,-2.553040
0.097000,11.506231,-6.770821
0.097500,12.912158,-3.958967
0.098000,14.318085,-3.958967
0.098500,15.724012,-8.176748
0.099000,15.724012,-6.770821
0.099500,15.724012,-2.553040
0.100000,15.724012,-2.553040
0.100500,15.724012,-3.958967
0.101000,14.318085,-1.147112
0.101500,14.318085,-3.958967
0.102000,14.318085,-3.958967
0.102500,12.912158,-1.147112
0.103000,12.912158,-5.364894
0.103500,12.912158,-2.553040
0.104000,12.912158,-9.582675
0.104500,12.912158,-12.394529
0.105000,12.912158,-5.364894
0.105500,12.912158,-1.147112
0.106000,12.912158,-10.988602
0.106500,12.912158,-5.364894
0.107000,11.506231,-15.206383
0.107500,11.506231,-8.176748
0.108000,11.506231,-8.176748
0.108500,10.100304,-5.364894
0.109000,10.100304,-3.958967
0.109500,10.100304,-5.364894
0.110000,10.100304,-8.176748
0.110500,10.100304,-3.958967
0.111000,10.100304,-3.958967
0.111500,10.100304,0.258815
0.112000,10.100304,0.258815
0.112500,10.100304,0.258815
0.113000,10.100304,-6.770821
0.113500,10.100304,0.258815
0.114000,10.100304,10.100304
0.114500,11.506231,0.258815
0.115000,11.506231,-1.147112
0.115500,12.912158,-3.958967
0.116000,14.318085,0.258815
0.116500,14.318085,-3.958967
0.117000,15.724012,-2.553040
0.117500,15.724012,-2.553040
0.118000,15.724012,-1.147112
0.118500,15.724012,-5.364894
0.119000,14.318085,-2.553040
0.119500,14.318085,-5.364894
0.120000,14.318085,-8.176748
0.120500,12.912158,-5.364894
0.121000,11.506231,-5.364894
0.121500,11.506231,1.664742
0.122000,10.100304,-9.582675
0.122500,10.100304,-3.958967
0.123000,10.100304,8.694377
0.123500,10.100304,-2.553040
0.124000,10.100304,-1.147112
0.124500,10.100304,0.258815
0.125000,10.100304,-2.553040
0.125500,10.100304,-2.553040
0.126000,10.100304,-5.364894
0.126500,10.100304,-2.553040
0.127000,10.100304,-1.147112
0.127500,10.100304,-1.147112
0.128000,10.100304,0.258815
0.128500,10.100304,0.258815
0.129000,10.100304,-1.147112
0.129500,10.100304,-3.958967
0.130000,10.100304,-9.582675
0.130500,10.100304,-5.364894
0.131000,10.100304,-2.553040
0.131500,10.100304,-2.553040
0.132000,10.100304,-2.553040
0.132500,10.100304,0.258815
0.133000,10.100304,0.258815
0.133500,10.100304,-2.553040
0.134000,10.100304,-2.553040
0.134500,10.100304,-1.147112
0.135000,10.100304,0.258815
0.135500,10.100304,0.258815
0.136000,10.100304,-1.147112
0.136500,10.100304,0.258815
0.137000,10.100304,-9.582675
0.137500,10.100304,7.288450
0.138000,10.100304,-5.364894
0.138500,10.100304,10.100304
0.139000,10.100304,-10.988602
0.139500,10.100304,-2.553040
0.140000,10.100304,-8.176748
0.140500,10.100304,-3.958967
0.141000,10.100304,0.258815
0.141500,10.100304,0.258815
0.142000,10.100304,0.258815
0.142500,10.100304,0.258815
0.143000,10.100304,-1.147112
0.143500,10.100304,0.258815
0.144000,8.694377,0.258815
0.144500,8.694377,0.258815
0.145000,8.694377,-12.394529
0.145500,8.694377,-6.770821
0.146000,8.694377,-8.176748
0.146500,8.694377,12.912158
0.147000,8.694377,-2.553040
0.147500,8.694377,0.258815
0.148000,8.694377,-5.364894
0.148500,8.694377,-3.958967
0.149000,8.694377,-3.958967
0.149500,8.694377,-1.147112
0.150000,8.694377,-3.958967
0.150500,8.694377,-1.147112
0.151000,7.288450,-3.958967
0.151500,7.288450,-5.364894
0.152000,7.288450,-3.958967
0.152500,7.288450,-3.958967
0.153000,7.288450,-10.988602
0.153500,7.288450,-3.958967
0.154000,5.882523,-8.176748
0.154500,5.882523,-1.147112
0.155000,5.882523,-1.147112
0.155500,5.882523,-1.147112
0.156000,4.476596,-8.176748
0.156500,4.476596,-9.582675
0.157000,4.476596,0.258815
0.157500,4.476596,0.258815
0.158000,4.476596,0.258815
0.158500,4.476596,0.258815
0.159000,4.476596,0.258815
0.159500,5.882523,0.258815
0.160000,5.882523,0.258815
0.160500,7.288450,0.258815
0.161000,7.288450,0.258815
0.161500,8.694377,0.258815
0.162000,8.694377,0.258815
0.162500,10.100304,-8.176748
0.163000,10.100304,0.258815
0.163500,10.100304,-8.176748
0.164000,10.100304,1.664742
0.164500,10.100304,4.476596
0.165000,10.100304,0.258815
0.165500,10.100304,0.258815
0.166000,8.694377,0.258815
0.166500,8.694377,0.258815
0.167000,8.694377,0.258815
0.167500,8.694377,0.258815
0.168000,8.694377,0.258815
0.168500,8.694377,0.258815
0.169000,8.694377,0.258815
0.169500,8.694377,0.258815
0.170000,8.694377,1.664742
0.170500,8.694377,0.258815
0.171000,8.694377,4.476596
0.171500,10.100304,11.506231
0.172000,10.100304,-1.147112
0.172500,10.100304,-2.553040
0.173000,10.100304,-1.147112
0.173500,10.100304,-3.958967
0.174000,10.100304,-1.147112
0.174500,10.100304,-1.147112
0.175000,10.100304,-1.147112
0.175500,10.100304,-2.553040
0.176000,10.100304,0.258815
0.176500,8.694377,-1.147112
0.177000,8.694377,-1.147112
0.177500,7.288450,0.258815
0.178000,7.288450,-1.147112
0.178500,5.882523,0.258815
0.179000,5.882523,-10.988602
0.179500,5.882523,-5.364894
0.180000,5.882523,-13.800456
0.180500,4.476596,-3.958967
0.181000,4.476596,-3.958967
0.181500,4.476596,-5.364894
0.182000,4.476596,-8.176748
0.182500,3.070669,-8.176748
0.183000,3.070669,-2.553040
0.183500,3.070669,-2.553040
0.184000,3.070669,-1.147112
0.184500,1.664742,-2.553040
0.185000,1.664742,-2.553040
0.185500,1.664742,-1.147112
0.186000,3.070669,-1.147112
0.186500,3.070669,-1.147112
0.187000,3.070669,0.258815
0.187500,4.476596,1.664742
0.188000,4.476596,-6.770821
0.188500,5.882523,0.258815
0.189000,5.882523,0.258815
0.189500,7.288450,-8.176748
0.190000,7.288450,-3.958967
0.190500,8.694377,-9.582675
0.191000,8.694377,8.694377
0.191500,8.694377,0.258815
0.192000,8.694377,-1.147112
0.192500,8.694377,0.258815
0.193000,8.694377,0.258815
0.193500,8.694377,0.258815
0.194000,8.694377,0.258815
0.194500,8.694377,-3.958967
0.195000,8.694377,-3.958967
0.195500,8.694377,-3.958967
0.196000,8.694377,-3.958967
0.196500,8.694377,0.258815
0.197000,8.694377,-1.147112
0.197500,8.694377,-2.553040
0.198000,8.694377,-2.553040
0.198500,8.694377,-2.553040
0.199000,8.694377,-2.553040
0.199500,7.288450,-8.176748
0.200000,7.288450,10.100304
0.200500,7.288450,-5.364894
0.201000,7.288450,-1.147112
0.201500,7.288450,0.258815
0.202000,7.288450,0.258815
0.202500,7.288450,-2.553040
0.203000,7.288450,0.258815
0.203500,7.288450,0.258815
0.204000,8.694377,0.258815
0.204500,8.694377,0.258815
0.205000,8.694377,0.258815
0.205500,8.694377,-1.147112
0.206000,10.100304,-5.364894
0.206500,10.100304,-2.553040
0.207000,10.100304,0.258815
0.207500,10.100304,-1.147112
0.208000,10.100304,0.258815
0.208500,10.100304,-8.176748
0.209000,10.100304,7.288450
0.209500,10.100304,-2.553040
0.210000,10.100304,0.258815
0.210500,8.694377,0.258815
0.211000,8.694377,0.258815
0.211500,8.694377,0.258815
0.212000,8.694377,0.258815
0.212500,8.694377,0.258815
0.213000,8.694377,-1.147112
0.213500,10.100304,-1.147112
0.214000,10.100304,-1.147112
0.214500,10.100304,0.258815
0.215000,10.100304,-2.553040
0.215500,10.100304,0.258815
0.216000,10.100304,-1.147112
0.216500,10.100304,0.258815
0.217000,10.100304,10.100304
0.217500,10.100304,10.100304
0.218000,10.100304,-8.176748
0.218500,10.100304,11.506231
0.219000,10.100304,-8.176748
0.219500,10.100304,10.100304
0.220000,10.100304,-3.958967
0.220500,10.100304,-2.553040
0.221000,10.100304,0.258815
0.221500,10.100304,-1.147112
0.222000,10.100304,-3.958967
0.222500,10.100304,-8.176748
0.223000,10.100304,-3.958967
0.223500,10.100304,-5.364894
0.224000,10.100304,-5.364894
0.224500,10.100304,-1.147112
0.225000,8.694377,-3.958967
0.225500,8.694377,-5.364894
0.226000,7.288450,-2.553040
0.226500,5.882523,0.258815
0.227000,5.882523,-3.958967
0.227500,5.882523,0.258815
0.228000,5.882523,8.694377
0.228500,5.882523,-1.147112
0.229000,5.882523,-9.582675
0.229500,5.882523,0.258815
0.230000,7.288450,-1.147112
0.230500,8.694377,-5.364894
0.231000,8.694377,-1.147112
0.231500,10.100304,-3.958967
0.232000,10.100304,-2.553040
0.232500,10.100304,-1.147112
0.233000,10.100304,-2.553040
0.233500,10.100304,-3.958967
0.234000,10.100304,-2.553040
0.234500,10.100304,-5.364894
0.235000,10.100304,-3.958967
0.235500,8.694377,-5.364894
0.236000,8.694377,-3.958967
0.236500,8.694377,-16.612310
0.237000,8.694377,0.258815
0.237500,7.288450,-6.770821
0.238000,7.288450,0.258815
0.238500,7.288450,-6.770821
0.239000,7.288450,7.288450
0.239500,7.288450,-6.770821
0.240000,7.288450,-5.364894
0.240500,7.288450,-3.958967
0.241000,7.288450,-5.364894
0.241500,8.694377,-3.958967
0.242000,8.694377,-6.770821
0.242500,8.694377,-6.770821
0.243000,8.694377,-2.553040
0.243500,10.100304,-2.553040
0.244000,10.100304,-5.364894
0.244500,10.100304,-1.147112
0.245000,10.100304,-6.770821
0.245500,10.100304,4.476596
0.246000,10.100304,3.070669
0.246500,10.100304,-15.206383
0.247000,10.100304,-1.147112
0.247500,10.100304,-13.800456
0.248000,10.100304,-5.364894
0.248500,10.100304,-6.770821
0.249000,10.100304,-3.958967
0.249500,10.100304,-5.364894
0.250000,10.100304,-2.553040
0.250500,10.100304,-3.958967
0.251000,10.100304,-1.147112
0.251500,10.100304,-1.147112
0.252000,10.100304,0.258815
0.252500,10.100304,0.258815
0.253000,10.100304,-3.958967
0.253500,10.100304,-2.553040
0.254000,10.100304,-10.988602
0.254500,10.100304,-5.364894
0.255000,10.100304,-15.206383
0.255500,10.100304,-10.988602
0.256000,10.100304,-18.018237
0.256500,10.100304,-9.582675
0.257000,10.100304,-5.364894
0.257500,10.100304,-5.364894
0.258000,10.100304,-2.553040
0.258500,8.694377,-3.958967
0.259000,8.694377,-2.553040
0.259500,7.288450,-3.958967
0.260000,7.288450,-1.147112
0.260500,7.288450,-2.553040
0.261000,8.694377,-5.364894
0.261500,8.694377,-8.176748
0.262000,10.100304,-6.770821
0.262500,10.100304,-5.364894
0.263000,10.100304,-5.364894
0.263500,10.100304,-3.958967
0.264000,10.100304,7.288450
0.264500,10.100304,5.882523
0.265000,11.506231,5.882523
0.265500,11.506231,5.882523
0.266000,11.506231,-6.770821
0.266500,12.912158,-5.364894
0.267000,12.912158,-2.553040
0.267500,14.318085,-6.770821
0.268000,14.318085,-2.553040
0.268500,14.318085,-2.553040
0.269000,14.318085,-1.147112
0.269500,14.318085,-3.958967
0.270000,14.318085,-2.553040
0.270500,14.318085,-2.553040
0.271000,12.912158,0.258815
0.271500,12.912158,0.258815
0.272000,11.506231,0.258815
0.272500,11.506231,-1.147112
0.273000,11.506231,0.258815
0.273500,11.506231,-1.147112
0.274000,11.506231,-10.988602
0.274500,11.506231,-2.553040
0.275000,11.506231,-3.958967
0.275500,11.506231,0.258815
0.276000,11.506231,-1.147112
0.276500,11.506231,0.258815
0.277000,11.506231,0.258815
0.277500,11.506231,-1.147112
0.278000,11.506231,-2.553040
0.278500,11.506231,-1.147112
0.279000,11.506231,-1.147112
0.279500,11.506231,-1.147112
0.280000,11.506231,-1.147112
0.280500,11.506231,0.258815
0.281000,11.506231,-2.553040
0.281500,11.506231,-1.147112
0.282000,11.506231,-2.553040
0.282500,11.506231,1.664742
0.283000,11.506231,-8.176748
0.283500,11.506231,0.258815
0.284000,11.506231,3.070669
0.284500,11.506231,0.258815
0.285000,11.506231,0.258815
0.285500,11.506231,0.258815
0.286000,11.506231,0.258815
0.286500,11.506231,-2.553040
0.287000,11.506231,-2.553040
0.287500,11.506231,-2.553040
0.288000,11.506231,0.258815
0.288500,11.506231,-1.147112
0.289000,11.506231,-1.147112
0.289500,11.506231,-2.553040
0.290000,11.506231,-1.147112
0.290500,11.506231,-1.147112
0.291000,11.506231,-1.147112
0.291500,11.506231,-8.176748
0.292000,10.100304,-3.958967
0.292500,10.100304,12.912158
0.293000,10.100304,0.258815
0.293500,10.100304,-1.147112
0.294000,10.100304,0.258815
0.294500,10.100304,-1.147112
0.295000,10.100304,0.258815
0.295500,10.100304,-1.147112
0.296000,11.506231,-2.553040
0.296500,11.506231,-1.147112
0.297000,11.506231,-2.553040
0.297500,11.506231,-5.364894
0.298000,11.506231,-5.364894
0.298500,11.506231,-3.958967
0.299000,11.506231,0.258815
0.299500,10.100304,-5.364894
0.300000,10.100304,7.288450
0.300500,10.100304,-3.958967
0.301000,10.100304,-8.176748
0.301500,10.100304,-3.958967
0.302000,10.100304,-1.147112
0.302500,10.100304,-2.553040
0.303000,10.100304,-2.553040
0.303500,10.100304,0.258815
0.304000,10.100304,0.258815
0.304500,10.100304,0.258815
0.305000,10.100304,0.258815
0.305500,10.100304,0.258815
0.306000,10.100304,0.258815
0.306500,10.100304,0.258815
0.307000,10.100304,1.664742
0.307500,10.100304,3.070669
0.308000,10.100304,1.664742
0.308500,11.506231,11.506231
0.309000,11.506231,-3.958967
0.309500,11.506231,-9.582675
0.310000,12.912158,-9.582675
0.310500,12.912158,-5.364894
0.311000,12.912158,-3.958967
0.311500,12.912158,-2.553040
0.312000,11.506231,0.258815
0.312500,11.506231,0.258815
0.313000,10.100304,3.070669
0.313500,10.100304,3.070669
0.314000,10.100304,0.258815
0.314500,10.100304,0.258815
0.315000,10.100304,0.258815
0.315500,10.100304,0.258815
0.316000,10.100304,-1.147112
0.316500,10.100304,-8.176748
0.317000,10.100304,-3.958967
0.317500,10.100304,-13.800456
0.318000,10.100304,-9.582675
0.318500,10.100304,-10.988602
0.319000,10.100304,7.288450
0.319500,10.100304,-1.147112
0.320000,10.100304,-3.958967
0.320500,10.100304,-1.147112
0.321000,8.694377,-3.958967
0.321500,8.694377,0.258815
0.322000,8.694377,-1.147112
0.322500,7.288450,-5.364894
0.323000,7.288450,-1.147112
0.323500,8.694377,0.258815
0.324000,8.694377,0.258815
0.324500,8.694377,0.258815
0.325000,10.100304,0.258815
0.325500,10.100304,0.258815
0.326000,10.100304,-9.582675
0.326500,10.100304,0.258815
0.327000,10.100304,-3.958967
0.327500,10.100304,10.100304
0.328000,10.100304,-6.770821
0.328500,10.100304,-5.364894
0.329000,10.100304,-3.958967
0.329500,10.100304,-5.364894
0.330000,10.100304,-3.958967
0.330500,10.100304,-3.958967
0.331000,10.100304,-6.770821
0.331500,10.100304,-5.364894
0.332000,10.100304,-5.364894
0.332500,10.100304,-6.770821
0.333000,10.100304,-8.176748
0.333500,8.694377,-6.770821
0.334000,8.694377,-5.364894
0.334500,7.288450,-9.582675
0.335000,7.288450,1.664742
0.335500,7.288450,-3.958967
0.336000,7.288450,10.100304
0.336500,7.288450,-2.553040
0.337000,7.288450,10.100304
0.337500,7.288450,-3.958967
0.338000,8.694377,3.070669
0.338500,10.100304,0.258815
0.339000,10.100304,0.258815
0.339500,10.100304,0.258815
0.340000,10.100304,0.258815
0.340500,11.506231,0.258815
0.341000,11.506231,-1.147112
0.341500,12.912158,0.258815
0.342000,12.912158,0.258815
0.342500,12.912158,0.258815
0.343000,12.912158,-9.582675
0.343500,12.912158,0.258815
0.344000,11.506231,-8.176748
0.344500,11.506231,-6.770821
0.345000,10.100304,-6.770821
0.345500,10.100304,0.258815
0.346000,10.100304,-1.147112
0.346500,10.100304,-2.553040
0.347000,10.100304,-3.958967
0.347500,8.694377,-3.958967
0.348000,8.694377,-1.147112
0.348500,8.694377,-1.147112
0.349000,7.288450,0.258815
0.349500,8.694377,0.258815
0.350000,8.694377,0.258815
0.350500,8.694377,0.258815
0.351000,8.694377,0.258815
0.351500,10.100304,1.664742
0.352000,10.100304,0.258815
0.352500,10.100304,12.912158
0.353000,10.100304,0.258815
0.353500,10.100304,-5.364894
0.354000,11.506231,-12.394529
0.354500,11.506231,-9.582675
0.355000,11.506231,-15.206383
0.355500,11.506231,-16.612310
0.356000,11.506231,-15.206383
0.356500,10.100304,-15.206383
0.357000,10.100304,-13.800456
0.357500,10.100304,-12.394529
0.358000,7.288450,-13.800456
0.358500,5.882523,-10.988602
0.359000,3.070669,0.258815
0.359500,1.664742,5.882523
0.360000,0.258815,11.506231
0.360500,0.258815,15.724012
0.361000,0.258815,14.318085
0.361500,1.664742,4.476596
0.362000,3.070669,7.288450
0.362500,5.882523,12.912158
0.363000,10.100304,1.664742
0.363500,10.100304,0.258815
0.364000,12.912158,-1.147112
0.364500,15.724012,0.258815
0.365000,18.535866,0.258815
0.365500,19.941793,0.258815
0.366000,21.347720,0.258815
0.366500,21.347720,0.258815
0.367000,19.941793,-2.553040
0.367500,18.535866,-5.364894
0.368000,17.129939,-5.364894
0.368500,14.318085,-3.958967
0.369000,12.912158,-1.147112
0.369500,10.100304,0.258815
0.370000,10.100304,1.664742
0.370500,10.100304,11.506231
0.371000,8.694377,0.258815
0.371500,7.288450,3.070669
0.372000,7.288450,1.664742
0.372500,8.694377,0.258815
0.373000,8.694377,0.258815
0.373500,10.100304,-1.147112
0.374000,10.100304,0.258815
0.374500,10.100304,0.258815
0.375000,10.100304,0.258815
0.375500,10.100304,0.258815
0.376000,11.506231,1.664742
0.376500,11.506231,5.882523
0.377000,11.506231,1.664742
0.377500,11.506231,3.070669
0.378000,10.100304,-1.147112
0.378500,10.100304,10.100304
0.379000,10.100304,-6.770821
0.379500,10.100304,8.694377
0.380000,10.100304,12.912158
0.380500,10.100304,0.258815
0.381000,10.100304,1.664742
0.381500,10.100304,4.476596
0.382000,10.100304,5.882523
0.382500,10.100304,5.882523
0.383000,10.100304,4.476596
0.383500,10.100304,3.070669
0.384000,11.506231,0.258815
0.384500,11.506231,0.258815
0.385000,11.506231,0.258815
0.385500,11.506231,1.664742
0.386000,11.506231,-2.553040
0.386500,10.100304,-5.364894
0.387000,10.100304,-9.582675
0.387500,10.100304,-8.176748
0.388000,10.100304,10.100304
0.388500,10.100304,0.258815
0.389000,8.694377,-3.958967
0.389500,7.288450,1.664742
0.390000,7.288450,0.258815
0.390500,5.882523,0.258815
0.391000,5.882523,0.258815
0.391500,5.882523,1.664742
0.392000,5.882523,0.258815
0.392500,5.882523,1.664742
0.393000,5.882523,0.258815
0.393500,7.288450,0.258815
0.394000,7.288450,0.258815
0.394500,8.694377,0.258815
0.395000,8.694377,12.912158
0.395500,10.100304,-6.770821
0.396000,10.100304,10.100304
0.396500,10.100304,-5.364894
0.397000,10.100304,0.258815
0.397500,10.100304,0.258815
0.398000,10.100304,0.258815
0.398500,10.100304,0.258815
0.399000,10.100304,0.258815
0.399500,10.100304,0.258815
0.400000,10.100304,0.258815
0.400500,10.100304,1.664742
0.401000,8.694377,0.258815
0.401500,8.694377,0.258815
0.402000,8.694377,0.258815
0.402500,8.694377,-3.958967
0.403000,8.694377,0.258815
0.403500,8.694377,-1.147112
0.404000,8.694377,0.258815
0.404500,8.694377,-3.958967
0.405000,7.288450,0.258815
0.405500,7.288450,-12.394529
0.406000,7.288450,-3.958967
0.406500,7.288450,-3.958967
0.407000,7.288450,0.258815
0.407500,5.882523,1.664742
0.408000,5.882523,3.070669
0.408500,5.882523,1.664742
0.409000,5.882523,0.258815
0.409500,5.882523,0.258815
0.410000,5.882523,0.258815
0.410500,5.882523,0.258815
0.411000,7.288450,0.258815
0.411500,7.288450,0.258815
0.412000,8.694377,0.258815
0.412500,8.694377,0.258815
0.413000,8.694377,4.476596
0.413500,10.100304,10.100304
0.414000,10.100304,-5.364894
0.414500,10.100304,1.664742
0.415000,10.100304,-8.176748
0.415500,10.100304,1.664742
0.416000,10.100304,-9.582675
0.416500,10.100304,-1.147112
0.417000,10.100304,0.258815
0.417500,10.100304,-1.147112
0.418000,10.100304,1.664742
0.418500,8.694377,4.476596
0.419000,8.694377,5.882523
0.419500,7.288450,7.288450
0.420000,7.288450,8.694377
0.420500,7.288450,3.070669
0.421000,8.694377,3.070669
0.421500,8.694377,0.258815
0.422000,10.100304,-6.770821
0.422500,10.100304,-5.364894
0.423000,10.100304,-9.582675
0.423500,10.100304,-10.988602
0.424000,10.100304,-8.176748
0.424500,10.100304,-15.206383
0.425000,10.100304,-9.582675
0.425500,10.100304,-8.176748
0.426000,8.694377,0.258815
0.426500,5.882523,8.694377
0.427000,4.476596,4.476596
0.427500,3.070669,0.258815
0.428000,3.070669,1.664742
0.428500,1.664742,3.070669
0.429000,3.070669,1.664742
0.429500,3.070669,1.664742
0.430000,4.476596,0.258815
0.430500,5.882523,-1.147112
0.431000,8.694377,-9.582675
0.431500,10.100304,0.258815
0.432000,10.100304,-8.176748
0.432500,10.100304,10.100304
0.433000,10.100304,3.070669
0.433500,10.100304,0.258815
0.434000,10.100304,-1.147112
0.434500,10.100304,-2.553040
0.435000,10.100304,0.258815
0.435500,10.100304,0.258815
0.436000,10.100304,0.258815
0.436500,10.100304,1.664742
0.437000,10.100304,0.258815
0.437500,10.100304,0.258815
0.438000,10.100304,0.258815
0.438500,10.100304,0.258815
0.439000,10.100304,-6.770821
0.439500,10.100304,-1.147112
0.440000,10.100304,-5.364894
0.440500,10.100304,0.258815
0.441000,10.100304,14.318085
0.441500,10.100304,11.506231
0.442000,10.100304,1.664742
0.442500,10.100304,-5.364894
0.443000,10.100304,0.258815
0.443500,10.100304,0.258815
0.444000,10.100304,0.258815
0.444500,10.100304,0.258815
0.445000,10.100304,0.258815
0.445500,10.100304,1.664742
0.446000,10.100304,1.664742
0.446500,10.100304,3.070669
0.447000,10.100304,4.476596
0.447500,10.100304,3.070669
0.448000,10.100304,4.476596
0.448500,10.100304,4.476596
0.449000,10.100304,-1.147112
0.449500,10.100304,0.258815
0.450000,10.100304,-3.958967
0.450500,10.100304,14.318085
0.451000,10.100304,0.258815
0.451500,10.100304,4.476596
0.452000,10.100304,5.882523
0.452500,10.100304,3.070669
0.453000,10.100304,1.664742
0.453500,10.100304,0.258815
0.454000,10.100304,0.258815
0.454500,10.100304,1.664742
0.455000,10.100304,0.258815
0.455500,10.100304,0.258815
0.456000,10.100304,0.258815
0.456500,10.100304,0.258815
0.457000,10.100304,-1.147112
0.457500,10.100304,0.258815
0.458000,10.100304,0.258815
0.458500,10.100304,-2.553040
0.459000,10.100304,-5.364894
0.459500,10.100304,0.258815
0.460000,10.100304,11.506231
0.460500,8.694377,0.258815
0.461000,8.694377,0.258815
0.461500,8.694377,0.258815
0.462000,8.694377,0.258815
0.462500,8.694377,1.664742
0.463000,8.694377,0.258815
0.463500,10.100304,-1.147112
0.464000,10.100304,0.258815
0.464500,10.100304,-1.147112
0.465000,10.100304,-2.553040
0.465500,10.100304,0.258815
0.466000,10.100304,-2.553040
0.466500,10.100304,0.258815
0.467000,10.100304,-9.582675
0.467500,10.100304,0.258815
0.468000,10.100304,-5.364894
0.468500,8.694377,-5.364894
0.469000,8.694377,0.258815
0.469500,8.694377,0.258815
0.470000,7.288450,0.258815
0.470500,7.288450,3.070669
0.471000,7.288450,4.476596
0.471500,7.288450,4.476596
0.472000,7.288450,4.476596
0.472500,7.288450,4.476596
0.473000,8.694377,1.664742
0.473500,10.100304,0.258815
0.474000,10.100304,0.258815
0.474500,10.100304,0.258815
0.475000,10.100304,12.912158
0.475500,10.100304,12.912158
0.476000,11.506231,-3.958967
0.476500,11.506231,1.664742
0.477000,11.506231,1.664742
0.477500,12.912158,-1.147112
0.478000,12.912158,0.258815
0.478500,12.912158,1.664742
0.479000,11.506231,0.258815
0.479500,11.506231,0.258815
0.480000,11.506231,-1.147112
0.480500,10.100304,-1.147112
0.481000,10.100304,0.258815
0.481500,10.100304,0.258815
0.482000,10.100304,-1.147112
0.482500,10.100304,0.258815
0.483000,10.100304,-3.958967
0.483500,8.694377,11.506231
0.484000,8.694377,-3.958967
0.484500,8.694377,12.912158
0.485000,8.694377,0.258815
0.485500,8.694377,-5.364894
0.486000,8.694377,0.258815
0.486500,10.100304,-2.553040
0.487000,10.100304,-2.553040
0.487500,10.100304,0.258815
0.488000,10.100304,-2.553040
0.488500,10.100304,-2.553040
0.489000,10.100304,-3.958967
0.489500,10.100304,-3.958967
0.490000,10.100304,-1.147112
0.490500,10.100304,-3.958967
0.491000,8.694377,-1.147112
0.491500,8.694377,-2.553040
0.492000,7.288450,0.258815
0.492500,7.288450,11.506231
0.493000,7.288450,-3.958967
0.493500,7.288450,10.100304
0.494000,7.288450,-5.364894
0.494500,7.288450,-1.147112
0.495000,8.694377,0.258815
0.495500,8.694377,-3.958967
0.496000,10.100304,-3.958967
0.496500,10.100304,-3.958967
0.497000,10.100304,-3.958967
0.497500,10.100304,-5.364894
0.498000,10.100304,-2.553040
0.498500,10.100304,-1.147112
0.499000,10.100304,0.258815
0.499500,10.100304,0.258815
0.500000,8.694377,-1.147112
0.500500,8.694377,0.258815
0.501000,8.694377,-3.958967
0.501500,8.694377,0.258815
0.502000,8.694377,-6.770821
0.502500,8.694377,-3.958967
0.503000,8.694377,-1.147112
0.503500,8.694377,-2.553040
0.504000,8.694377,0.258815
0.504500,8.694377,1.664742
0.505000,10.100304,1.664742
0.505500,10.100304,4.476596
0.506000,10.100304,1.664742
0.506500,10.100304,1.664742
0.507000,10.100304,0.258815
0.507500,10.100304,0.258815
0.508000,10.100304,0.258815
0.508500,10.100304,-1.147112
0.509000,10.100304,0.258815
0.509500,10.100304,0.258815
0.510000,11.506231,12.912158
0.510500,11.506231,3.070669
0.511000,11.506231,-10.988602
0.511500,11.506231,-5.364894
0.512000,11.506231,-5.364894
0.512500,11.506231,-3.958967
0.513000,11.506231,0.258815
0.513500,10.100304,-3.958967
0.514000,10.100304,-3.958967
0.514500,10.100304,-3.958967
0.515000,10.100304,-1.147112
0.515500,10.100304,-1.147112
0.516000,10.100304,-2.553040
0.516500,8.694377,-2.553040
0.517000,8.694377,-1.147112
0.517500,8.694377,-1.147112
0.518000,8.694377,-2.553040
0.518500,8.694377,-3.958967
0.519000,8.694377,-5.364894
0.519500,8.694377,-5.364894
0.520000,8.694377,-10.988602
0.520500,8.694377,-6.770821
0.521000,10.100304,7.288450
0.521500,10.100304,-6.770821
0.522000,10.100304,-1.147112
0.522500,10.100304,-5.364894
0.523000,8.694377,0.258815
0.523500,8.694377,-1.147112
0.524000,10.100304,-2.553040
0.524500,10.100304,-3.958967
0.525000,10.100304,-1.147112
0.525500,10.100304,-2.553040
0.526000,10.100304,-2.553040
0.526500,10.100304,-2.553040
0.527000,10.100304,-1.147112
0.527500,10.100304,0.258815
0.528000,10.100304,-9.582675
0.528500,10.100304,-1.147112
0.529000,10.100304,-5.364894
0.529500,10.100304,0.258815
0.530000,10.100304,-6.770821
0.530500,10.100304,-1.147112
0.531000,10.100304,0.258815
0.531500,10.100304,-5.364894
0.532000,10.100304,-1.147112
0.532500,10.100304,-1.147112
0.533000,10.100304,-2.553040
0.533500,10.100304,-1.147112
0.534000,10.100304,0.258815
0.534500,10.100304,-1.147112
0.535000,10.100304,-2.553040
0.535500,10.100304,0.258815
0.536000,10.100304,-1.147112
0.536500,10.100304,0.258815
0.537000,10.100304,0.258815
0.537500,10.100304,-3.958967
0.538000,10.100304,-1.147112
0.538500,10.100304,-15.206383
0.539000,10.100304,-1.147112
0.539500,10.100304,10.100304
0.540000,10.100304,-3.958967
0.540500,10.100304,0.258815
0.541000,10.100304,0.258815
0.541500,10.100304,0.258815
0.542000,10.100304,-2.553040
0.542500,10.100304,-2.553040
0.543000,10.100304,-1.147112
0.543500,10.100304,1.664742
0.544000,10.100304,0.258815
0.544500,10.100304,0.258815
0.545000,10.100304,0.258815
0.545500,10.100304,0.258815
0.546000,11.506231,-2.553040
0.546500,11.506231,4.476596
0.547000,11.506231,-8.176748
0.547500,11.506231,8.694377
0.548000,11.506231,-1.147112
0.548500,11.506231,-12.394529
0.549000,11.506231,-2.553040
0.549500,11.506231,-8.176748
0.550000,11.506231,0.258815
0.550500,11.506231,0.258815
0.551000,10.100304,-1.147112
0.551500,10.100304,-1.147112
0.552000,10.100304,-3.958967
0.552500,10.100304,-5.364894
0.553000,10.100304,-8.176748
0.553500,10.100304,-9.582675
0.554000,10.100304,-3.958967
0.554500,10.100304,-5.364894
0.555000,10.100304,-6.770821
0.555500,10.100304,8.694377
0.556000,10.100304,-8.176748
0.556500,8.694377,0.258815
0.557000,8.694377,-12.394529
0.557500,8.694377,-5.364894
0.558000,10.100304,-5.364894
0.558500,10.100304,-5.364894
0.559000,10.100304,-2.553040
0.559500,10.100304,-2.553040
0.560000,10.100304,0.258815
0.560500,10.100304,-1.147112
0.561000,10.100304,-1.147112
0.561500,10.100304,-3.958967
0.562000,10.100304,-1.147112
0.562500,10.100304,-1.147112
0.563000,10.100304,-3.958967
0.563500,10.100304,0.258815
0.564000,10.100304,-5.364894
0.564500,10.100304,-1.147112
0.565000,10.100304,-9.582675
0.565500,10.100304,-3.958967
0.566000,10.100304,-9.582675
0.566500,10.100304,0.258815
0.567000,10.100304,0.258815
0.567500,10.100304,0.258815
0.568000,10.100304,1.664742
0.568500,10.100304,0.258815
0.569000,10.100304,0.258815
0.569500,10.100304,0.258815
0.570000,10.100304,0.258815
0.570500,10.100304,0.258815
0.571000,10.100304,0.258815
0.571500,10.100304,0.258815
0.572000,11.506231,0.258815
0.572500,11.506231,0.258815
0.573000,11.506231,-1.147112
0.573500,12.912158,-9.582675
0.574000,12.912158,-5.364894
0.574500,12.912158,-2.553040
0.575000,12.912158,5.882523
0.575500,11.506231,0.258815
0.576000,11.506231,0.258815
0.576500,11.506231,-2.553040
0.577000,10.100304,1.664742
0.577500,10.100304,0.258815
0.578000,10.100304,0.258815
0.578500,10.100304,0.258815
0.579000,10.100304,0.258815
0.579500,10.100304,0.258815
0.580000,10.100304,0.258815
0.580500,10.100304,-2.553040
0.581000,10.100304,-1.147112
0.581500,11.506231,0.258815
0.582000,11.506231,0.258815
0.582500,11.506231,1.664742
0.583000,11.506231,8.694377
0.583500,11.506231,-3.958967
0.584000,11.506231,4.476596
0.584500,11.506231,0.258815
0.585000,11.506231,0.258815
0.585500,11.506231,0.258815
0.586000,11.506231,0.258815
0.586500,11.506231,0.258815
0.587000,11.506231,0.258815
0.587500,11.506231,0.258815
0.588000,11.506231,1.664742
0.588500,11.506231,1.664742
0.589000,11.506231,1.664742
0.589500,10.100304,0.258815
0.590000,10.100304,0.258815
0.590500,10.100304,0.258815
0.591000,10.100304,3.070669
0.591500,10.100304,-1.147112
0.592000,10.100304,14.318085
0.592500,10.100304,0.258815
0.593000,10.100304,0.258815
0.593500,10.100304,3.070669
0.594000,10.100304,0.258815
0.594500,10.100304,1.664742
0.595000,10.100304,0.258815
0.595500,10.100304,0.258815
0.596000,10.100304,0.258815
0.596500,10.100304,1.664742
0.597000,10.100304,1.664742
0.597500,10.100304,3.070669
0.598000,10.100304,4.476596
0.598500,10.100304,1.664742
0.599000,10.100304,4.476596
0.599500,10.100304,1.664742
0.600000,10.100304,4.476596
0.600500,10.100304,0.258815
0.601000,10.100304,17.129939
0.601500,10.100304,3.070669
0.602000,10.100304,0.258815
0.602500,10.100304,-2.553040
0.603000,10.100304,0.258815
0.603500,10.100304,0.258815
0.604000,10.100304,0.258815
0.604500,10.100304,0.258815
0.605000,10.100304,0.258815
0.605500,10.100304,0.258815
0.606000,10.100304,1.664742
0.606500,10.100304,0.258815
0.607000,10.100304,0.258815
0.607500,10.100304,-2.553040
0.608000,8.694377,0.258815
0.608500,8.694377,0.258815
0.609000,8.694377,0.258815
0.609500,7.288450,0.258815
0.610000,7.288450,11.506231
0.610500,7.288450,-2.553040
0.611000,7.288450,0.258815
0.611500,7.288450,-8.176748
0.612000,8.694377,0.258815
0.612500,8.694377,0.258815
0.613000,8.694377,3.070669
0.613500,8.694377,0.258815
0.614000,8.694377,0.258815
0.614500,8.694377,0.258815
0.615000,8.694377,0.258815
0.615500,8.694377,0.258815
0.616000,8.694377,1.664742
0.616500,8.694377,0.258815
0.617000,8.694377,0.258815
0.617500,8.694377,3.070669
0.618000,8.694377,0.258815
0.618500,8.694377,0.258815
0.619000,8.694377,-2.553040
0.619500,8.694377,15.724012
0.620000,8.694377,3.070669
0.620500,8.694377,0.258815
0.621000,8.694377,1.664742
0.621500,8.694377,1.664742
0.622000,10.100304,0.258815
0.622500,10.100304,0.258815
0.623000,10.100304,-1.147112
0.623500,10.100304,-1.147112
0.624000,10.100304,0.258815
0.624500,10.100304,0.258815
0.625000,10.100304,0.258815
0.625500,10.100304,1.664742
0.626000,8.694377,1.664742
0.626500,8.694377,0.258815
0.627000,8.694377,-1.147112
0.627500,7.288450,-3.958967
0.628000,7.288450,-6.770821
0.628500,7.288450,0.258815
0.629000,7.288450,0.258815
0.629500,7.288450,0.258815
0.630000,5.882523,3.070669
0.630500,5.882523,1.664742
0.631000,5.882523,1.664742
0.631500,5.882523,0.258815
0.632000,5.882523,0.258815
0.632500,7.288450,0.258815
0.633000,7.288450,3.070669
0.633500,7.288450,1.664742
0.634000,8.694377,1.664742
0.634500,8.694377,3.070669
0.635000,8.694377,-6.770821
0.635500,8.694377,3.070669
0.636000,10.100304,4.476596
0.636500,10.100304,3.070669
0.637000,10.100304,0.258815
0.637500,10.100304,0.258815
0.638000,10.100304,0.258815
0.638500,10.100304,4.476596
0.639000,10.100304,3.070669
0.639500,10.100304,1.664742
0.640000,10.100304,0.258815
0.640500,10.100304,1.664742
0.641000,10.100304,3.070669
0.641500,10.100304,0.258815
0.642000,10.100304,0.258815
0.642500,10.100304,0.258815
0.643000,10.100304,-1.147112
0.643500,10.100304,0.258815
0.644000,10.100304,0.258815
0.644500,10.100304,1.664742
0.645000,10.100304,10.100304
0.645500,8.694377,4.476596
0.646000,8.694377,4.476596
0.646500,8.694377,3.070669
0.647000,8.694377,0.258815
0.647500,8.694377,1.664742
0.648000,10.100304,0.258815
0.648500,10.100304,-1.147112
0.649000,10.100304,0.258815
0.649500,10.100304,0.258815
0.650000,10.100304,0.258815
0.650500,10.100304,0.258815
0.651000,10.100304,0.258815
0.651500,10.100304,0.258815
0.652000,10.100304,1.664742
0.652500,8.694377,1.664742
0.653000,8.694377,-9.582675
0.653500,8.694377,0.258815
0.654000,8.694377,0.258815
0.654500,7.288450,0.258815
0.655000,7.288450,3.070669
0.655500,7.288450,1.664742
0.656000,7.288450,3.070669
0.656500,7.288450,0.258815
0.657000,7.288450,1.664742
0.657500,7.288450,0.258815
0.658000,7.288450,0.258815
0.658500,8.694377,-1.147112
0.659000,8.694377,-1.147112
0.659500,8.694377,0.258815
0.660000,8.694377,-1.147112
0.660500,8.694377,0.258815
0.661000,8.694377,-1.147112
0.661500,8.694377,-3.958967
0.662000,8.694377,-1.147112
0.662500,8.694377,0.258815
0.663000,8.694377,3.070669
0.663500,8.694377,0.258815
0.664000,7.288450,-3.958967
0.664500,7.288450,0.258815
0.665000,7.288450,0.258815
0.665500,7.288450,0.258815
0.666000,7.288450,0.258815
0.666500,7.288450,0.258815
0.667000,7.288450,1.664742
0.667500,7.288450,0.258815
0.668000,8.694377,0.258815
0.668500,8.694377,0.258815
0.669000,8.694377,0.258815
0.669500,8.694377,0.258815
0.670000,10.100304,0.258815
0.670500,10.100304,0.258815
0.671000,10.100304,-10.988602
0.671500,10.100304,7.288450
0.672000,10.100304,-1.147112
0.672500,10.100304,0.258815
0.673000,10.100304,0.258815
0.673500,10.100304,-1.147112
0.674000,10.100304,0.258815
0.674500,8.694377,0.258815
0.675000,8.694377,0.258815
0.675500,8.694377,0.258815
0.676000,8.694377,0.258815
0.676500,8.694377,-1.147112
0.677000,10.100304,-2.553040
0.677500,10.100304,-1.147112
0.678000,10.100304,-1.147112
0.678500,10.100304,0.258815
0.679000,10.100304,0.258815
0.679500,10.100304,-1.147112
0.680000,10.100304,0.258815
0.680500,10.100304,-9.582675
0.681000,10.100304,5.882523
0.681500,10.100304,-5.364894
0.682000,8.694377,-3.958967
0.682500,8.694377,-1.147112
0.683000,8.694377,0.258815
0.683500,8.694377,0.258815
0.684000,8.694377,0.258815
0.684500,8.694377,0.258815
0.685000,8.694377,1.664742
0.685500,8.694377,0.258815
0.686000,8.694377,0.258815
0.686500,10.100304,1.664742
0.687000,10.100304,0.258815
0.687500,10.100304,0.258815
0.688000,10.100304,-9.582675
0.688500,10.100304,0.258815
0.689000,10.100304,0.258815
0.689500,10.100304,0.258815
0.690000,10.100304,-3.958967
0.690500,10.100304,12.912158
0.691000,10.100304,7.288450
0.691500,10.100304,0.258815
0.692000,10.100304,0.258815
0.692500,10.100304,0.258815
0.693000,10.100304,0.258815
0.693500,10.100304,0.258815
0.694000,10.100304,0.258815
0.694500,10.100304,0.258815
0.695000,10.100304,0.258815
0.695500,10.100304,0.258815
0.696000,10.100304,0.258815
0.696500,10.100304,1.664742
0.697000,10.100304,-1.147112
0.697500,10.100304,-8.176748
0.698000,10.100304,1.664742
0.698500,10.100304,-3.958967
0.699000,10.100304,12.912158
0.699500,10.100304,-5.364894
0.700000,10.100304,0.258815
0.700500,10.100304,0.258815
0.701000,10.100304,0.258815
0.701500,10.100304,0.258815
0.702000,10.100304,0.258815
0.702500,10.100304,0.258815
0.703000,10.100304,0.258815
0.703500,10.100304,-1.147112
0.704000,10.100304,0.258815
0.704500,10.100304,0.258815
0.705000,10.100304,0.258815
0.705500,10.100304,0.258815
0.706000,10.100304,-2.553040
0.706500,10.100304,0.258815
0.707000,10.100304,-9.582675
0.707500,10.100304,3.070669
0.708000,10.100304,17.129939
0.708500,10.100304,11.506231
0.709000,10.100304,0.258815
0.709500,10.100304,-3.958967
0.710000,10.100304,0.258815
0.710500,10.100304,0.258815
0.711000,10.100304,0.258815
0.711500,10.100304,0.258815
0.712000,11.506231,0.258815
0.712500,11.506231,0.258815
0.713000,11.506231,0.258815
0.713500,11.506231,0.258815
0.714000,11.506231,0.258815
0.714500,10.100304,0.258815
0.715000,10.100304,0.258815
0.715500,10.100304,0.258815
0.716000,10.100304,0.258815
0.716500,10.100304,4.476596
0.717000,10.100304,12.912158
0.717500,10.100304,-2.553040
0.718000,10.100304,11.506231
0.718500,10.100304,0.258815
0.719000,10.100304,-6.770821
0.719500,10.100304,0.258815
0.720000,10.100304,-2.553040
0.720500,10.100304,0.258815
0.721000,10.100304,0.258815
0.721500,10.100304,0.258815
0.722000,10.100304,1.664742
0.722500,10.100304,0.258815
0.723000,10.100304,0.258815
0.723500,10.100304,0.258815
0.724000,10.100304,0.258815
0.724500,10.100304,-1.147112
0.725000,10.100304,1.664742
0.725500,10.100304,0.258815
0.726000,10.100304,3.070669
0.726500,10.100304,4.476596
0.727000,10.100304,3.070669
0.727500,10.100304,5.882523
0.728000,10.100304,0.258815
0.728500,10.100304,-2.553040
0.729000,10.100304,-2.553040
0.729500,10.100304,0.258815
0.730000,10.100304,0.258815
0.730500,10.100304,-1.147112
0.731000,10.100304,0.258815
0.731500,10.100304,0.258815
0.732000,10.100304,0.258815
0.732500,10.100304,0.258815
0.733000,10.100304,0.258815
0.733500,10.100304,0.258815
0.734000,10.100304,0.258815
0.734500,10.100304,0.258815
0.735000,10.100304,0.258815
0.735500,10.100304,8.694377
0.736000,10.100304,-2.553040
0.736500,10.100304,-2.553040
0.737000,10.100304,-5.364894
0.737500,10.100304,0.258815
0.738000,10.100304,4.476596
0.738500,10.100304,4.476596
0.739000,10.100304,1.664742
0.739500,10.100304,3.070669
0.740000,10.100304,1.664742
0.740500,10.100304,0.258815
0.741000,10.100304,0.258815
0.741500,10.100304,1.664742
0.742000,10.100304,1.664742
0.742500,10.100304,0.258815
0.743000,10.100304,0.258815
0.743500,10.100304,0.258815
0.744000,10.100304,-3.958967
0.744500,10.100304,0.258815
0.745000,10.100304,0.258815
0.745500,10.100304,-3.958967
0.746000,10.100304,10.100304
0.746500,10.100304,0.258815
0.747000,10.100304,0.258815
0.747500,10.100304,0.258815
0.748000,10.100304,0.258815
0.748500,10.100304,0.258815
0.749000,10.100304,0.258815
0.749500,10.100304,0.258815
0.750000,10.100304,0.258815
0.750500,10.100304,-2.553040
0.751000,10.100304,0.258815
0.751500,10.100304,0.258815
0.752000,10.100304,-1.147112
0.752500,10.100304,0.258815
0.753000,10.100304,0.258815
0.753500,10.100304,0.258815
0.754000,10.100304,1.664742
0.754500,10.100304,-5.364894
0.755000,10.100304,12.912158
0.755500,10.100304,-3.958967
0.756000,10.100304,7.288450
0.756500,10.100304,3.070669
0.757000,10.100304,0.258815
0.757500,10.100304,5.882523
0.758000,10.100304,4.476596
0.758500,10.100304,1.664742
0.759000,10.100304,3.070669
0.759500,10.100304,0.258815
0.760000,10.100304,0.258815
0.760500,10.100304,0.258815
0.761000,11.506231,0.258815
0.761500,11.506231,-1.147112
0.762000,11.506231,-10.988602
0.762500,10.100304,-9.582675
0.763000,10.100304,-13.800456
0.763500,10.100304,-10.988602
0.764000,10.100304,-8.176748
0.764500,10.100304,-3.958967
0.765000,8.694377,-1.147112
0.765500,7.288450,-3.958967
0.766000,5.882523,-1.147112
0.766500,4.476596,0.258815
0.767000,3.070669,-1.147112
0.767500,3.070669,0.258815
0.768000,3.070669,0.258815
0.768500,3.070669,3.070669
0.769000,4.476596,5.882523
0.769500,5.882523,10.100304
0.770000,7.288450,5.882523
0.770500,8.694377,3.070669
0.771000,10.100304,4.476596
0.771500,10.100304,1.664742
0.772000,11.506231,4.476596
0.772500,12.912158,5.882523
0.773000,12.912158,-3.958967
0.773500,14.318085,8.694377
0.774000,14.318085,1.664742
0.774500,15.724012,1.664742
0.775000,14.318085,0.258815
0.775500,14.318085,0.258815
0.776000,14.318085,0.258815
0.776500,12.912158,0.258815
0.777000,12.912158,0.258815
0.777500,11.506231,0.258815
0.778000,10.100304,0.258815
0.778500,10.100304,0.258815
0.779000,10.100304,-3.958967
0.779500,10.100304,-2.553040
0.780000,10.100304,-2.553040
0.780500,10.100304,0.258815
0.781000,10.100304,0.258815
0.781500,10.100304,0.258815
0.782000,8.694377,-5.364894
0.782500,8.694377,1.664742
0.783000,8.694377,0.258815
0.783500,8.694377,3.070669
0.784000,8.694377,-1.147112
0.784500,8.694377,7.288450
0.785000,8.694377,3.070669
0.785500,10.100304,5.882523
0.786000,10.100304,5.882523
0.786500,10.100304,7.288450
0.787000,10.100304,8.694377
0.787500,10.100304,4.476596
0.788000,10.100304,4.476596
0.788500,11.506231,4.476596
0.789000,11.506231,3.070669
0.789500,12.912158,3.070669
0.790000,12.912158,5.882523
0.790500,12.912158,11.506231
0.791000,14.318085,3.070669
0.791500,14.318085,0.258815
0.792000,14.318085,0.258815
0.792500,12.912158,1.664742
0.793000,12.912158,1.664742
0.793500,12.912158,3.070669
0.794000,11.506231,5.882523
0.794500,11.506231,4.476596
0.795000,11.506231,1.664742
0.795500,10.100304,4.476596
0.796000,10.100304,7.288450
0.796500,10.100304,5.882523
0.797000,10.100304,7.288450
0.797500,10.100304,7.288450
0.798000,10.100304,5.882523
0.798500,10.100304,7.288450
0.799000,10.100304,5.882523
0.799500,10.100304,0.258815
0.800000,10.100304,15.724012
0.800500,10.100304,18.535866
0.801000,11.506231,11.506231
0.801500,11.506231,7.288450
0.802000,11.506231,8.694377
0.802500,12.912158,7.288450
0.803000,12.912158,4.476596
0.803500,12.912158,10.100304
0.804000,14.318085,10.100304
0.804500,14.318085,10.100304
0.805000,14.318085,8.694377
0.805500,14.318085,5.882523
0.806000,12.912158,7.288450
0.806500,12.912158,7.288450
0.807000,12.912158,8.694377
0.807500,11.506231,3.070669
0.808000,11.506231,8.694377
0.808500,10.100304,7.288450
0.809000,10.100304,10.100304
0.809500,10.100304,7.288450
0.810000,10.100304,26.971429
0.810500,10.100304,12.912158
0.811000,10.100304,11.506231
0.811500,10.100304,5.882523
0.812000,10.100304,5.882523
0.812500,10.100304,8.694377
0.813000,10.100304,10.100304
0.813500,11.506231,10.100304
0.814000,11.506231,11.506231
0.814500,11.506231,10.100304
0.815000,11.506231,7.288450
0.815500,11.506231,8.694377
0.816000,11.506231,8.694377
0.816500,10.100304,10.100304
0.817000,10.100304,10.100304
0.817500,10.100304,15.724012
0.818000,10.100304,15.724012
0.818500,10.100304,26.971429
0.819000,10.100304,8.694377
0.819500,10.100304,10.100304
0.820000,10.100304,14.318085
0.820500,10.100304,11.506231
0.821000,10.100304,10.100304
0.821500,10.100304,8.694377
0.822000,10.100304,10.100304
0.822500,10.100304,5.882523
0.823000,10.100304,10.100304
0.823500,10.100304,11.506231
0.824000,10.100304,11.506231
0.824500,10.100304,12.912158
0.825000,10.100304,11.506231
0.825500,10.100304,7.288450
0.826000,10.100304,7.288450
0.826500,10.100304,8.694377
0.827000,8.694377,10.100304
0.827500,8.694377,3.070669
0.828000,8.694377,22.753647
0.828500,8.694377,4.476596
0.829000,7.288450,7.288450
0.829500,7.288450,8.694377
0.830000,7.288450,8.694377
0.830500,7.288450,8.694377
0.831000,7.288450,10.100304
0.831500,7.288450,10.100304
0.832000,7.288450,8.694377
0.832500,7.288450,8.694377
0.833000,7.288450,10.100304
0.833500,7.288450,10.100304
0.834000,7.288450,11.506231
0.834500,7.288450,11.506231
0.835000,7.288450,8.694377
0.835500,7.288450,12.912158
0.836000,7.288450,12.912158
0.836500,7.288450,29.783283
0.837000,7.288450,11.506231
0.837500,7.288450,7.288450
0.838000,8.694377,10.100304
0.838500,8.694377,7.288450
0.839000,10.100304,12.912158
0.839500,10.100304,14.318085
0.840000,10.100304,12.912158
0.840500,10.100304,11.506231
0.841000,10.100304,12.912158
0.841500,10.100304,12.912158
0.842000,10.100304,15.724012
0.842500,10.100304,14.318085
0.843000,10.100304,17.129939
0.843500,10.100304,15.724012
0.844000,8.694377,15.724012
0.844500,10.100304,14.318085
0.845000,10.100304,17.129939
0.845500,10.100304,18.535866
0.846000,10.100304,3.070669
0.846500,10.100304,11.506231
0.847000,10.100304,4.476596
0.847500,10.100304,25.565502
0.848000,10.100304,10.100304
0.848500,10.100304,11.506231
0.849000,10.100304,12.912158
0.849500,8.694377,11.506231
0.850000,8.694377,14.318085
0.850500,8.694377,14.318085
0.851000,7.288450,12.912158
0.851500,7.288450,15.724012
0.852000,7.288450,12.912158
0.852500,7.288450,10.100304
0.853000,7.288450,10.100304
0.853500,7.288450,7.288450
0.854000,7.288450,8.694377
0.854500,7.288450,7.288450
0.855000,7.288450,15.724012
0.855500,7.288450,22.753647
0.856000,7.288450,0.258815
0.856500,5.882523,14.318085
0.857000,5.882523,1.664742
0.857500,5.882523,10.100304
0.858000,5.882523,10.100304
0.858500,4.476596,10.100304
0.859000,4.476596,10.100304
0.859500,4.476596,10.100304
0.860000,4.476596,12.912158
0.860500,4.476596,12.912158
0.861000,4.476596,11.506231
0.861500,4.476596,11.506231
0.862000,4.476596,11.506231
0.862500,4.476596,12.912158
0.863000,4.476596,1.664742
0.863500,5.882523,14.318085
0.864000,5.882523,26.971429
0.864500,5.882523,4.476596
0.865000,5.882523,24.159574
0.865500,7.288450,10.100304
0.866000,7.288450,11.506231
0.866500,7.288450,10.100304
0.867000,8.694377,10.100304
0.867500,8.694377,10.100304
0.868000,8.694377,11.506231
0.868500,8.694377,12.912158
0.869000,8.694377,11.506231
0.869500,8.694377,12.912158
0.870000,8.694377,12.912158
0.870500,7.288450,11.506231
0.871000,7.288450,15.724012
0.871500,7.288450,12.912158
0.872000,7.288450,12.912158
0.872500,7.288450,8.694377
0.873000,7.288450,11.506231
0.873500,7.288450,5.882523
0.874000,7.288450,8.694377
0.874500,7.288450,28.377356
0.875000,7.288450,14.318085
0.875500,7.288450,7.288450
0.876000,7.288450,12.912158
0.876500,7.288450,14.318085
0.877000,7.288450,14.318085
0.877500,7.288450,15.724012
0.878000,8.694377,15.724012
0.878500,8.694377,17.129939
0.879000,8.694377,17.129939
0.879500,8.694377,15.724012
0.880000,8.694377,11.506231
0.880500,10.100304,4.476596
0.881000,10.100304,24.159574
0.881500,10.100304,10.100304
0.882000,10.100304,14.318085
0.882500,10.100304,18.535866
0.883000,10.100304,10.100304
0.883500,10.100304,11.506231
0.884000,10.100304,11.506231
0.884500,10.100304,15.724012
0.885000,10.100304,12.912158
0.885500,8.694377,15.724012
0.886000,8.694377,17.129939
0.886500,8.694377,17.129939
0.887000,8.694377,17.129939
0.887500,8.694377,15.724012
0.888000,8.694377,17.129939
0.888500,8.694377,17.129939
0.889000,10.100304,14.318085
0.889500,10.100304,31.189210
0.890000,10.100304,11.506231
0.890500,10.100304,28.377356
0.891000,10.100304,11.506231
0.891500,10.100304,15.724012
0.892000,10.100304,14.318085
0.892500,10.100304,17.129939
0.893000,10.100304,17.129939
0.893500,10.100304,15.724012
0.894000,10.100304,17.129939
0.894500,10.100304,18.535866
0.895000,10.100304,18.535866
0.895500,10.100304,19.941793
0.896000,10.100304,18.535866
0.896500,10.100304,21.347720
0.897000,10.100304,19.941793
0.897500,10.100304,22.753647
0.898000,10.100304,11.506231
0.898500,10.100304,17.129939
0.899000,10.100304,34.001064
0.899500,10.100304,12.912158
0.900000,10.100304,17.129939
0.900500,10.100304,21.347720
0.901000,10.100304,21.347720
0.901500,10.100304,19.941793
0.902000,10.100304,19.941793
0.902500,10.100304,18.535866
0.903000,10.100304,18.535866
0.903500,10.100304,18.535866
0.904000,10.100304,18.535866
0.904500,10.100304,19.941793
0.905000,10.100304,18.535866
0.905500,10.100304,22.753647
0.906000,10.100304,21.347720
0.906500,10.100304,21.347720
0.907000,10.100304,11.506231
0.907500,10.100304,22.753647
0.908000,10.100304,15.724012
0.908500,10.100304,19.941793
0.909000,10.100304,14.318085
0.909500,10.100304,21.347720
0.910000,10.100304,19.941793
0.910500,10.100304,17.129939
0.911000,10.100304,17.129939
0.911500,10.100304,21.347720
0.912000,10.100304,19.941793
0.912500,10.100304,22.753647
0.913000,10.100304,21.347720
0.913500,10.100304,21.347720
0.914000,10.100304,21.347720
0.914500,10.100304,11.506231
0.915000,10.100304,26.971429
0.915500,10.100304,18.535866
0.916000,10.100304,38.218845
0.916500,10.100304,24.159574
0.917000,10.100304,17.129939
0.917500,10.100304,21.347720
0.918000,10.100304,22.753647
0.918500,10.100304,21.347720
0.919000,10.100304,24.159574
0.919500,10.100304,24.159574
0.920000,10.100304,21.347720
0.920500,10.100304,19.941793
0.921000,10.100304,22.753647
0.921500,10.100304,19.941793
0.922000,10.100304,21.347720
0.922500,10.100304,19.941793
0.923000,10.100304,21.347720
0.923500,10.100304,24.159574
0.924000,10.100304,22.753647
0.924500,10.100304,12.912158
0.925000,10.100304,21.347720
0.925500,10.100304,15.724012
0.926000,10.100304,18.535866
0.926500,10.100304,15.724012
0.927000,8.694377,22.753647
0.927500,8.694377,22.753647
0.928000,8.694377,24.159574
0.928500,8.694377,21.347720
0.929000,8.694377,22.753647
0.929500,8.694377,24.159574
0.930000,8.694377,18.535866
0.930500,8.694377,12.912158
0.931000,8.694377,11.506231
0.931500,8.694377,19.941793
0.932000,8.694377,25.565502
0.932500,8.694377,32.595137
0.933000,8.694377,21.347720
0.933500,8.694377,21.347720
0.934000,8.694377,21.347720
0.934500,10.100304,22.753647
0.935000,10.100304,21.347720
0.935500,10.100304,22.753647
0.936000,10.100304,24.159574
0.936500,10.100304,21.347720
0.937000,10.100304,18.535866
0.937500,10.100304,19.941793
0.938000,10.100304,18.535866
0.938500,10.100304,12.912158
0.939000,10.100304,14.318085
0.939500,10.100304,24.159574
0.940000,10.100304,28.377356
0.940500,10.100304,19.941793
0.941000,8.694377,38.218845
0.941500,8.694377,24.159574
0.942000,8.694377,17.129939
0.942500,8.694377,26.971429
0.943000,8.694377,24.159574
0.943500,10.100304,24.159574
0.944000,10.100304,24.159574
0.944500,10.100304,24.159574
0.945000,10.100304,22.753647
0.945500,10.100304,22.753647
0.946000,10.100304,24.159574
0.946500,10.100304,17.129939
0.947000,10.100304,15.724012
0.947500,10.100304,21.347720
0.948000,10.100304,19.941793
0.948500,10.100304,35.406991
0.949000,10.100304,21.347720
0.949500,10.100304,19.941793
0.950000,10.100304,17.129939
0.950500,10.100304,10.100304
0.951000,10.100304,19.941793
0.951500,8.694377,18.535866
0.952000,8.694377,21.347720
0.952500,8.694377,17.129939
0.953000,8.694377,19.941793
0.953500,7.288450,19.941793
0.954000,7.288450,19.941793
0.954500,7.288450,18.535866
0.955000,7.288450,18.535866
0.955500,7.288450,22.753647
0.956000,7.288450,11.506231
0.956500,7.288450,15.724012
0.957000,7.288450,12.912158
0.957500,7.288450,32.595137
0.958000,7.288450,14.318085
0.958500,7.288450,31.189210
0.959000,7.288450,19.941793
0.959500,7.288450,24.159574
0.960000,8.694377,21.347720
0.960500,8.694377,19.941793
0.961000,8.694377,15.724012
0.961500,10.100304,19.941793
0.962000,10.100304,17.129939
0.962500,10.100304,17.129939
0.963000,10.100304,17.129939
0.963500,10.100304,18.535866
0.964000,10.100304,18.535866
0.964500,10.100304,18.535866
0.965000,10.100304,17.129939
0.965500,10.100304,31.189210
0.966000,8.694377,22.753647
0.966500,8.694377,22.753647
0.967000,8.694377,17.129939
0.967500,8.694377,14.318085
0.968000,8.694377,15.724012
0.968500,10.100304,18.535866
0.969000,10.100304,18.535866
0.969500,10.100304,17.129939
0.970000,10.100304,17.129939
0.970500,10.100304,18.535866
0.971000,10.100304,17.129939
0.971500,10.100304,14.318085
0.972000,10.100304,17.129939
0.972500,10.100304,19.941793
0.973000,8.694377,10.100304
0.973500,8.694377,15.724012
0.974000,8.694377,5.882523
0.974500,8.694377,12.912158
0.975000,7.288450,12.912158
0.975500,7.288450,12.912158
0.976000,7.288450,34.001064
0.976500,7.288450,14.318085
0.977000,5.882523,19.941793
0.977500,5.882523,21.347720
0.978000,5.882523,22.753647
0.978500,7.288450,19.941793
0.979000,7.288450,21.347720
0.979500,8.694377,18.535866
0.980000,10.100304,19.941793
0.980500,10.100304,15.724012
0.981000,10.100304,15.724012
0.981500,10.100304,14.318085
0.982000,10.100304,14.318085
0.982500,11.506231,17.129939
0.983000,11.506231,28.377356
0.983500,10.100304,21.347720
0.984000,10.100304,10.100304
0.984500,10.100304,11.506231
0.985000,10.100304,18.535866
0.985500,10.100304,17.129939
0.986000,10.100304,17.129939
0.986500,10.100304,18.535866
0.987000,10.100304,12.912158
0.987500,10.100304,12.912158
0.988000,10.100304,12.912158
0.988500,10.100304,12.912158
0.989000,10.100304,12.912158
0.989500,10.100304,11.506231
0.990000,10.100304,11.506231
0.990500,10.100304,11.506231
0.991000,10.100304,14.318085
0.991500,8.694377,7.288450
0.992000,8.694377,15.724012
0.992500,8.694377,17.129939
0.993000,8.694377,14.318085
0.993500,8.694377,15.724012
0.994000,8.694377,10.100304
0.994500,8.694377,15.724012
0.995000,8.694377,10.100304
0.995500,8.694377,18.535866
0.996000,8.694377,15.724012
0.996500,10.100304,10.100304
0.997000,10.100304,10.100304
0.997500,10.100304,10.100304
0.998000,10.100304,11.506231
0.998500,10.100304,11.506231
0.999000,10.100304,12.912158
0.999500,10.100304,18.535866
1.000000,10.100304,15.724012
1.000500,10.100304,29.783283
1.001000,10.100304,17.129939
1.001500,10.100304,8.694377
1.002000,10.100304,10.100304
1.002500,10.100304,22.753647
1.003000,10.100304,17.129939
1.003500,10.100304,14.318085
1.004000,10.100304,15.724012
1.004500,11.506231,18.535866
1.005000,11.506231,21.347720
1.005500,11.506231,21.347720
1.006000,12.912158,21.347720
1.006500,12.912158,19.941793
1.007000,12.912158,14.318085
1.007500,12.912158,10.100304
1.008000,14.318085,12.912158
1.008500,14.318085,17.129939
1.009000,14.318085,19.941793
1.009500,14.318085,3.070669
1.010000,14.318085,1.664742
1.010500,12.912158,7.288450
1.011000,12.912158,5.882523
1.011500,11.506231,10.100304
1.012000,10.100304,10.100304
1.012500,10.100304,10.100304
1.013000,10.100304,10.100304
1.013500,10.100304,10.100304
1.014000,8.694377,8.694377
1.014500,7.288450,10.100304
1.015000,7.288450,10.100304
1.015500,7.288450,8.694377
1.016000,7.288450,10.100304
1.016500,7.288450,0.258815
1.017000,7.288450,11.506231
1.017500,7.288450,5.882523
1.018000,8.694377,11.506231
1.018500,8.694377,5.882523
1.019000,8.694377,15.724012
1.019500,10.100304,15.724012
1.020000,10.100304,15.724012
1.020500,10.100304,12.912158
1.021000,10.100304,11.506231
1.021500,10.100304,11.506231
1.022000,10.100304,12.912158
1.022500,10.100304,8.694377
1.023000,11.506231,5.882523
1.023500,11.506231,0.258815
1.024000,11.506231,4.476596
1.024500,11.506231,0.258815
1.025000,11.506231,15.724012
1.025500,11.506231,12.912158
1.026000,10.100304,10.100304
1.026500,10.100304,14.318085
1.027000,10.100304,12.912158
1.027500,10.100304,11.506231
1.028000,10.100304,10.100304
1.028500,10.100304,10.100304
1.029000,10.100304,10.100304
1.029500,10.100304,10.100304
1.030000,10.100304,10.100304
1.030500,10.100304,12.912158
1.031000,11.506231,11.506231
1.031500,11.506231,10.100304
1.032000,11.506231,8.694377
1.032500,12.912158,5.882523
1.033000,12.912158,-2.553040
1.033500,12.912158,11.506231
1.034000,12.912158,3.070669
1.034500,12.912158,14.318085
1.035000,11.506231,3.070669
1.035500,11.506231,7.288450
1.036000,10.100304,11.506231
1.036500,10.100304,12.912158
1.037000,10.100304,12.912158
1.037500,10.100304,17.129939
1.038000,10.100304,17.129939
1.038500,10.100304,19.941793
1.039000,10.100304,24.159574
1.039500,11.506231,22.753647
1.040000,11.506231,19.941793
1.040500,14.318085,11.506231
1.041000,15.724012,15.724012
1.041500,17.129939,17.129939
1.042000,18.535866,22.753647
1.042500,19.941793,12.912158
1.043000,19.941793,5.882523
1.043500,21.347720,3.070669
1.044000,21.347720,3.070669
1.044500,21.347720,5.882523
1.045000,19.941793,8.694377
1.045500,18.535866,7.288450
1.046000,17.129939,8.694377
1.046500,14.318085,10.100304
1.047000,12.912158,8.694377
1.047500,10.100304,7.288450
1.048000,10.100304,7.288450
1.048500,10.100304,10.100304
1.049000,10.100304,10.100304
1.049500,8.694377,10.100304
1.050000,8.694377,10.100304
1.050500,8.694377,10.100304
1.051000,10.100304,12.912158
1.051500,10.100304,14.318085
1.052000,10.100304,11.506231
1.052500,10.100304,4.476596
1.053000,10.100304,5.882523
1.053500,11.506231,0.258815
1.054000,11.506231,-3.958967
1.054500,11.506231,-2.553040
1.055000,11.506231,-2.553040
1.055500,11.506231,-2.553040
1.056000,10.100304,0.258815
1.056500,10.100304,0.258815
1.057000,10.100304,3.070669
1.057500,8.694377,4.476596
1.058000,7.288450,5.882523
1.058500,5.882523,0.258815
1.059000,4.476596,4.476596
1.059500,4.476596,-3.958967
1.060000,4.476596,10.100304
1.060500,4.476596,0.258815
1.061000,4.476596,0.258815
1.061500,5.882523,5.882523
1.062000,5.882523,10.100304
1.062500,7.288450,8.694377
1.063000,8.694377,11.506231
1.063500,10.100304,19.941793
1.064000,10.100304,21.347720
1.064500,10.100304,17.129939
1.065000,10.100304,12.912158
1.065500,11.506231,8.694377
1.066000,12.912158,8.694377
1.066500,15.724012,1.664742
1.067000,17.129939,8.694377
1.067500,17.129939,1.664742
1.068000,18.535866,17.129939
1.068500,18.535866,0.258815
1.069000,18.535866,-2.553040
1.069500,17.129939,-3.958967
1.070000,15.724012,0.258815
1.070500,14.318085,3.070669
1.071000,12.912158,5.882523
1.071500,11.506231,7.288450
1.072000,10.100304,8.694377
1.072500,10.100304,11.506231
1.073000,10.100304,10.100304
1.073500,8.694377,8.694377
1.074000,8.694377,4.476596
1.074500,8.694377,4.476596
1.075000,10.100304,4.476596
1.075500,10.100304,3.070669
1.076000,10.100304,10.100304
1.076500,10.100304,14.318085
1.077000,10.100304,0.258815
1.077500,11.506231,8.694377
1.078000,11.506231,11.506231
1.078500,11.506231,12.912158
1.079000,12.912158,12.912158
1.079500,12.912158,10.100304
1.080000,12.912158,4.476596
1.080500,12.912158,4.476596
1.081000,12.912158,3.070669
1.081500,12.912158,4.476596
1.082000,12.912158,4.476596
1.082500,12.912158,7.288450
1.083000,12.912158,10.100304
1.083500,12.912158,12.912158
1.084000,11.506231,11.506231
1.084500,11.506231,14.318085
1.085000,11.506231,7.288450
1.085500,11.506231,4.476596
1.086000,11.506231,1.664742
1.086500,11.506231,5.882523
1.087000,11.506231,3.070669
1.087500,11.506231,4.476596
1.088000,11.506231,4.476596
1.088500,11.506231,1.664742
1.089000,11.506231,3.070669
1.089500,10.100304,0.258815
1.090000,10.100304,1.664742
1.090500,10.100304,1.664742
1.091000,10.100304,0.258815
1.091500,10.100304,4.476596
1.092000,10.100304,0.258815
1.092500,8.694377,14.318085
1.093000,8.694377,14.318085
1.093500,8.694377,0.258815
1.094000,8.694377,12.912158
1.094500,8.694377,3.070669
1.095000,8.694377,8.694377
1.095500,10.100304,7.288450
1.096000,10.100304,4.476596
1.096500,10.100304,5.882523
1.097000,10.100304,7.288450
1.097500,10.100304,3.070669
1.098000,11.506231,0.258815
1.098500,11.506231,0.258815
1.099000,11.506231,3.070669
1.099500,11.506231,1.664742
1.100000,10.100304,-2.553040
1.100500,10.100304,7.288450
1.101000,10.100304,0.258815
1.101500,10.100304,4.476596
1.102000,10.100304,10.100304
1.102500,8.694377,1.664742
1.103000,8.694377,0.258815
1.103500,8.694377,1.664742
1.104000,8.694377,4.476596
1.104500,8.694377,0.258815
1.105000,8.694377,0.258815
1.105500,8.694377,-1.147112
1.106000,8.694377,0.258815
1.106500,8.694377,-2.553040
1.107000,8.694377,0.258815
1.107500,8.694377,1.664742
1.108000,8.694377,7.288450
1.108500,8.694377,7.288450
1.109000,8.694377,10.100304
1.109500,8.694377,14.318085
1.110000,8.694377,4.476596
1.110500,8.694377,-2.553040
1.111000,8.694377,0.258815
1.111500,10.100304,0.258815
1.112000,10.100304,0.258815
1.112500,10.100304,0.258815
1.113000,10.100304,0.258815
1.113500,10.100304,0.258815
1.114000,10.100304,1.664742
1.114500,10.100304,0.258815
1.115000,10.100304,0.258815
1.115500,10.100304,0.258815
1.116000,10.100304,0.258815
1.116500,10.100304,-2.553040
1.117000,8.694377,-1.147112
1.117500,8.694377,-1.147112
1.118000,7.288450,-1.147112
1.118500,7.288450,-1.147112
1.119000,7.288450,10.100304
1.119500,7.288450,0.258815
1.120000,7.288450,8.694377
1.120500,7.288450,-5.364894
1.121000,7.288450,0.258815
1.121500,7.288450,0.258815
1.122000,8.694377,0.258815
1.122500,8.694377,0.258815
1.123000,8.694377,1.664742
1.123500,10.100304,1.664742
1.124000,10.100304,0.258815
1.124500,10.100304,3.070669
1.125000,10.100304,3.070669
1.125500,10.100304,4.476596
1.126000,10.100304,3.070669
1.126500,10.100304,-6.770821
1.127000,10.100304,-5.364894
1.127500,10.100304,4.476596
1.128000,10.100304,8.694377
1.128500,10.100304,0.258815
1.129000,10.100304,0.258815
1.129500,10.100304,0.258815
1.130000,10.100304,0.258815
1.130500,10.100304,0.258815
1.131000,10.100304,1.664742
1.131500,10.100304,0.258815
1.132000,10.100304,0.258815
1.132500,10.100304,0.258815
1.133000,10.100304,0.258815
1.133500,10.100304,-1.147112
1.134000,10.100304,0.258815
1.134500,10.100304,10.100304
1.135000,10.100304,17.129939
1.135500,10.100304,-1.147112
1.136000,10.100304,3.070669
1.136500,10.100304,8.694377
1.137000,10.100304,4.476596
1.137500,10.100304,7.288450
1.138000,10.100304,5.882523
1.138500,10.100304,4.476596
1.139000,11.506231,5.882523
1.139500,11.506231,3.070669
1.140000,11.506231,0.258815
1.140500,12.912158,0.258815
1.141000,12.912158,-3.958967
1.141500,12.912158,-8.176748
1.142000,11.506231,-9.582675
1.142500,11.506231,-2.553040
1.143000,10.100304,10.100304
1.143500,10.100304,1.664742
1.144000,10.100304,12.912158
1.144500,8.694377,10.100304
1.145000,8.694377,7.288450
1.145500,7.288450,11.506231
1.146000,7.288450,10.100304
1.146500,8.694377,8.694377
1.147000,8.694377,1.664742
1.147500,10.100304,0.258815
1.148000,10.100304,-3.958967
1.148500,10.100304,-2.553040
1.149000,11.506231,-1.147112
1.149500,12.912158,1.664742
1.150000,12.912158,1.664742
1.150500,11.506231,3.070669
1.151000,11.506231,0.258815
1.151500,10.100304,12.912158
1.152000,10.100304,-1.147112
1.152500,10.100304,4.476596
1.153000,10.100304,0.258815
1.153500,8.694377,0.258815
1.154000,8.694377,1.664742
1.154500,8.694377,0.258815
1.155000,8.694377,4.476596
1.155500,8.694377,3.070669
1.156000,8.694377,5.882523
1.156500,8.694377,4.476596
1.157000,8.694377,5.882523
1.157500,10.100304,-3.958967
1.158000,10.100304,0.258815
1.158500,10.100304,-6.770821
1.159000,10.100304,0.258815
1.159500,10.100304,-12.394529
1.160000,10.100304,0.258815
1.160500,10.100304,-3.958967
1.161000,8.694377,-3.958967
1.161500,8.694377,-5.364894
1.162000,7.288450,-5.364894
1.162500,5.882523,-1.147112
1.163000,5.882523,0.258815
1.163500,4.476596,4.476596
1.164000,4.476596,10.100304
1.164500,3.070669,12.912158
1.165000,3.070669,14.318085
1.165500,4.476596,10.100304
1.166000,5.882523,8.694377
1.166500,7.288450,4.476596
1.167000,8.694377,0.258815
1.167500,10.100304,0.258815
1.168000,10.100304,-1.147112
1.168500,11.506231,-3.958967
1.169000,12.912158,14.318085
1.169500,12.912158,0.258815
1.170000,12.912158,0.258815
1.170500,12.912158,4.476596
1.171000,12.912158,4.476596
1.171500,11.506231,0.258815
1.172000,10.100304,1.664742
1.172500,10.100304,1.664742
1.173000,10.100304,5.882523
1.173500,10.100304,8.694377
1.174000,10.100304,10.100304
1.174500,8.694377,11.506231
1.175000,8.694377,11.506231
1.175500,10.100304,5.882523
1.176000,10.100304,8.694377
1.176500,10.100304,0.258815
1.177000,10.100304,14.318085
1.177500,10.100304,0.258815
1.178000,10.100304,18.535866
1.178500,11.506231,10.100304
1.179000,11.506231,11.506231
1.179500,12.912158,10.100304
1.180000,12.912158,8.694377
1.180500,12.912158,5.882523
1.181000,12.912158,3.070669
1.181500,12.912158,7.288450
1.182000,12.912158,4.476596
1.182500,12.912158,4.476596
1.183000,11.506231,10.100304
1.183500,11.506231,10.100304
1.184000,10.100304,28.377356
1.184500,10.100304,10.100304
1.185000,10.100304,19.941793
1.185500,10.100304,8.694377
1.186000,10.100304,0.258815
1.186500,10.100304,-10.988602
1.187000,10.100304,-19.424164
1.187500,10.100304,-23.641945
1.188000,10.100304,-13.800456
1.188500,10.100304,-5.364894
1.189000,10.100304,-6.770821
1.189500,7.288450,-5.364894
1.190000,4.476596,-2.553040
1.190500,1.664742,0.258815
1.191000,0.258815,14.318085
1.191500,-1.147112,25.565502
1.192000,-2.553040,26.971429
1.192500,-3.958967,12.912158
1.193000,-2.553040,19.941793
1.193500,-1.147112,35.406991
1.194000,0.258815,10.100304
1.194500,4.476596,7.288450
1.195000,8.694377,4.476596
1.195500,10.100304,3.070669
1.196000,14.318085,7.288450
1.196500,17.129939,4.476596
1.197000,18.535866,7.288450
1.197500,19.941793,11.506231
1.198000,18.535866,17.129939
1.198500,18.535866,22.753647
1.199000,17.129939,28.377356
1.199500,14.318085,18.535866
1.200000,12.912158,8.694377
1.200500,11.506231,3.070669
1.201000,11.506231,-8.176748
1.201500,10.100304,-8.176748
1.202000,10.100304,-2.553040
1.202500,10.100304,10.100304
1.203000,10.100304,15.724012
1.203500,10.100304,11.506231
1.204000,8.694377,11.506231
1.204500,7.288450,8.694377
1.205000,7.288450,1.664742
1.205500,5.882523,-2.553040
1.206000,5.882523,-2.553040
1.206500,5.882523,0.258815
1.207000,5.882523,0.258815
1.207500,5.882523,0.258815
1.208000,4.476596,10.100304
1.208500,4.476596,1.664742
1.209000,4.476596,19.941793
1.209500,3.070669,7.288450
1.210000,3.070669,10.100304
1.210500,3.070669,5.882523
1.211000,4.476596,12.912158
1.211500,4.476596,11.506231
1.212000,5.882523,11.506231
1.212500,5.882523,7.288450
1.213000,7.288450,5.882523
1.213500,8.694377,4.476596
1.214000,10.100304,8.694377
1.214500,10.100304,10.100304
1.215000,10.100304,7.288450
1.215500,10.100304,10.100304
1.216000,10.100304,4.476596
1.216500,10.100304,24.159574
1.217000,10.100304,0.258815
1.217500,10.100304,0.258815
1.218000,10.100304,3.070669
1.218500,8.694377,4.476596
1.219000,8.694377,5.882523
1.219500,8.694377,10.100304
1.220000,7.288450,15.724012
1.220500,7.288450,15.724012
1.221000,7.288450,15.724012
1.221500,5.882523,14.318085
1.222000,7.288450,11.506231
1.222500,7.288450,8.694377
1.223000,7.288450,10.100304
1.223500,8.694377,-1.147112
1.224000,10.100304,11.506231
1.224500,10.100304,-10.988602
1.225000,10.100304,-9.582675
1.225500,10.100304,-8.176748
1.226000,10.100304,-5.364894
1.226500,8.694377,-2.553040
1.227000,7.288450,0.258815
1.227500,5.882523,0.258815
1.228000,3.070669,4.476596
1.228500,1.664742,10.100304
1.229000,0.258815,19.941793
1.229500,-1.147112,29.783283
1.230000,-1.147112,29.783283
1.230500,-1.147112,29.783283
1.231000,0.258815,26.971429
1.231500,1.664742,21.347720
1.232000,4.476596,29.783283
1.232500,8.694377,10.100304
1.233000,10.100304,12.912158
1.233500,14.318085,22.753647
1.234000,17.129939,26.971429
1.234500,19.941793,29.783283
1.235000,21.347720,29.783283
1.235500,22.753647,28.377356
1.236000,24.159574,21.347720
1.236500,24.159574,14.318085
1.237000,22.753647,11.506231
1.237500,22.753647,18.535866
1.238000,21.347720,15.724012
1.238500,19.941793,8.694377
1.239000,18.535866,-9.582675
1.239500,15.724012,-1.147112
1.240000,14.318085,-9.582675
1.240500,11.506231,4.476596
1.241000,10.100304,18.535866
1.241500,8.694377,43.842553
1.242000,5.882523,39.624772
1.242500,3.070669,38.218845
1.243000,1.664742,32.595137
1.243500,1.664742,22.753647
1.244000,3.070669,10.100304
1.244500,4.476596,1.664742
1.245000,7.288450,-3.958967
1.245500,10.100304,-9.582675
1.246000,10.100304,-12.394529
1.246500,11.506231,-8.176748
1.247000,11.506231,1.664742
1.247500,10.100304,3.070669
1.248000,10.100304,12.912158
1.248500,7.288450,21.347720
1.249000,4.476596,31.189210
1.249500,1.664742,50.872188
1.250000,0.258815,32.595137
1.250500,-1.147112,48.060334
1.251000,-1.147112,22.753647
1.251500,0.258815,17.129939
1.252000,3.070669,8.694377
1.252500,5.882523,3.070669
1.253000,10.100304,5.882523
1.253500,11.506231,10.100304
1.254000,14.318085,17.129939
1.254500,15.724012,15.724012
1.255000,15.724012,17.129939
1.255500,15.724012,14.318085
1.256000,14.318085,14.318085
1.256500,12.912158,14.318085
1.257000,10.100304,10.100304
1.257500,10.100304,5.882523
1.258000,8.694377,18.535866
1.258500,7.288450,4.476596
1.259000,5.882523,12.912158
1.259500,4.476596,10.100304
1.260000,3.070669,10.100304
1.260500,3.070669,10.100304
1.261000,3.070669,7.288450
1.261500,1.664742,8.694377
1.262000,1.664742,7.288450
1.262500,1.664742,4.476596
1.263000,1.664742,5.882523
1.263500,1.664742,1.664742
1.264000,1.664742,3.070669
1.264500,1.664742,-5.364894
1.265000,1.664742,12.912158
1.265500,1.664742,15.724012
1.266000,0.258815,28.377356
1.266500,0.258815,19.941793
1.267000,0.258815,17.129939
1.267500,0.258815,18.535866
1.268000,1.664742,11.506231
1.268500,3.070669,12.912158
1.269000,4.476596,10.100304
1.269500,5.882523,10.100304
1.270000,7.288450,12.912158
1.270500,8.694377,12.912158
1.271000,10.100304,10.100304
1.271500,10.100304,12.912158
1.272000,10.100304,15.724012
1.272500,10.100304,19.941793
1.273000,10.100304,35.406991
1.273500,10.100304,34.001064
1.274000,10.100304,31.189210
1.274500,10.100304,25.565502
1.275000,10.100304,36.812918
1.275500,10.100304,48.060334
1.276000,11.506231,45.248480
1.276500,12.912158,35.406991
1.277000,14.318085,29.783283
1.277500,17.129939,19.941793
1.278000,19.941793,10.100304
1.278500,21.347720,-2.553040
1.279000,22.753647,-10.988602
1.279500,22.753647,-15.206383
1.280000,22.753647,-10.988602
1.280500,19.941793,-1.147112
1.281000,15.724012,-1.147112
1.281500,11.506231,4.476596
1.282000,8.694377,0.258815
1.282500,3.070669,21.347720
1.283000,-1.147112,4.476596
1.283500,-5.364894,12.912158
1.284000,-8.176748,7.288450
1.284500,-10.988602,12.912158
1.285000,-10.988602,12.912158
1.285500,-10.988602,15.724012
1.286000,-8.176748,17.129939
1.286500,-6.770821,17.129939
1.287000,-2.553040,14.318085
1.287500,0.258815,15.724012
1.288000,3.070669,12.912158
1.288500,5.882523,15.724012
1.289000,8.694377,15.724012
1.289500,10.100304,18.535866
1.290000,10.100304,10.100304
1.290500,11.506231,17.129939
1.291000,11.506231,32.595137
1.291500,11.506231,22.753647
1.292000,11.506231,12.912158
1.292500,11.506231,11.506231
1.293000,11.506231,17.129939
1.293500,11.506231,3.070669
1.294000,11.506231,10.100304
1.294500,10.100304,11.506231
1.295000,10.100304,17.129939
1.295500,10.100304,19.941793
1.296000,10.100304,19.941793
1.296500,10.100304,17.129939
1.297000,10.100304,18.535866
1.297500,10.100304,17.129939
1.298000,8.694377,17.129939
1.298500,10.100304,15.724012
1.299000,10.100304,14.318085
1.299500,10.100304,19.941793
1.300000,10.100304,18.535866
1.300500,10.100304,26.971429
1.301000,10.100304,21.347720
1.301500,10.100304,25.565502
1.302000,10.100304,24.159574
1.302500,11.506231,21.347720
1.303000,11.506231,17.129939
1.303500,11.506231,17.129939
1.304000,12.912158,14.318085
1.304500,12.912158,18.535866
1.305000,12.912158,21.347720
1.305500,12.912158,21.347720
1.306000,12.912158,15.724012
1.306500,12.912158,12.912158
1.307000,12.912158,12.912158
1.307500,11.506231,17.129939
1.308000,11.506231,15.724012
1.308500,10.100304,31.189210
1.309000,10.100304,17.129939
1.309500,10.100304,22.753647
1.310000,10.100304,21.347720
1.310500,10.100304,29.783283
1.311000,10.100304,28.377356
1.311500,10.100304,25.565502
1.312000,10.100304,25.565502
1.312500,10.100304,25.565502
1.313000,10.100304,22.753647
1.313500,11.506231,18.535866
1.314000,12.912158,17.129939
1.314500,14.318085,12.912158
1.315000,14.318085,15.724012
1.315500,14.318085,14.318085
1.316000,14.318085,8.694377
1.316500,12.912158,7.288450
1.317000,12.912158,0.258815
1.317500,11.506231,7.288450
1.318000,10.100304,-3.958967
1.318500,10.100304,-3.958967
1.319000,7.288450,1.664742
1.319500,4.476596,15.724012
1.320000,1.664742,24.159574
1.320500,0.258815,22.753647
1.321000,0.258815,12.912158
1.321500,-1.147112,7.288450
1.322000,-1.147112,5.882523
1.322500,-1.147112,10.100304
1.323000,0.258815,10.100304
1.323500,0.258815,11.506231
1.324000,1.664742,12.912158
1.324500,3.070669,12.912158
1.325000,4.476596,14.318085
1.325500,5.882523,15.724012
1.326000,7.288450,17.129939
1.326500,8.694377,15.724012
1.327000,8.694377,11.506231
1.327500,10.100304,10.100304
1.328000,10.100304,5.882523
1.328500,10.100304,12.912158
1.329000,10.100304,8.694377
1.329500,10.100304,4.476596
1.330000,10.100304,3.070669
1.330500,10.100304,3.070669
1.331000,10.100304,0.258815
1.331500,8.694377,4.476596
1.332000,7.288450,7.288450
1.332500,7.288450,10.100304
1.333000,5.882523,11.506231
1.333500,4.476596,17.129939
1.334000,4.476596,29.783283
1.334500,3.070669,34.001064
1.335000,4.476596,35.406991
1.335500,4.476596,19.941793
1.336000,7.288450,18.535866
1.336500,8.694377,12.912158
1.337000,10.100304,14.318085
1.337500,11.506231,5.882523
1.338000,14.318085,12.912158
1.338500,15.724012,12.912158
1.339000,17.129939,11.506231
1.339500,18.535866,15.724012
1.340000,18.535866,11.506231
1.340500,17.129939,11.506231
1.341000,15.724012,12.912158
1.341500,14.318085,12.912158
1.342000,12.912158,17.129939
1.342500,11.506231,15.724012
1.343000,10.100304,15.724012
1.343500,10.100304,12.912158
1.344000,10.100304,12.912158
1.344500,10.100304,15.724012
1.345000,10.100304,12.912158
1.345500,10.100304,31.189210
1.346000,10.100304,15.724012
1.346500,10.100304,17.129939
1.347000,10.100304,19.941793
1.347500,11.506231,17.129939
1.348000,11.506231,24.159574
1.348500,12.912158,24.159574
1.349000,12.912158,21.347720
1.349500,14.318085,17.129939
1.350000,15.724012,15.724012
1.350500,15.724012,14.318085
1.351000,15.724012,15.724012
1.351500,15.724012,17.129939
1.352000,15.724012,18.535866
1.352500,15.724012,21.347720
1.353000,15.724012,22.753647
1.353500,14.318085,25.565502
1.354000,14.318085,11.506231
1.354500,14.318085,28.377356
1.355000,12.912158,41.030699
1.355500,12.912158,41.030699
1.356000,12.912158,17.129939
1.356500,14.318085,10.100304
1.357000,14.318085,7.288450
1.357500,15.724012,0.258815
1.358000,15.724012,7.288450
1.358500,17.129939,8.694377
1.359000,15.724012,10.100304
1.359500,15.724012,7.288450
1.360000,12.912158,7.288450
1.360500,11.506231,7.288450
1.361000,10.100304,5.882523
1.361500,10.100304,7.288450
1.362000,7.288450,7.288450
1.362500,5.882523,14.318085
1.363000,4.476596,12.912158
1.363500,3.070669,11.506231
1.364000,1.664742,8.694377
1.364500,1.664742,18.535866
1.365000,1.664742,4.476596
1.365500,3.070669,4.476596
1.366000,4.476596,7.288450
1.366500,4.476596,3.070669
1.367000,5.882523,5.882523
1.367500,7.288450,5.882523
1.368000,7.288450,10.100304
1.368500,8.694377,12.912158
1.369000,8.694377,12.912158
1.369500,8.694377,14.318085
1.370000,8.694377,12.912158
1.370500,8.694377,12.912158
1.371000,8.694377,12.912158
1.371500,8.694377,10.100304
1.372000,8.694377,15.724012
1.372500,10.100304,11.506231
1.373000,10.100304,14.318085
1.373500,10.100304,15.724012
1.374000,10.100304,25.565502
1.374500,10.100304,21.347720
1.375000,11.506231,17.129939
1.375500,11.506231,14.318085
1.376000,12.912158,15.724012
1.376500,12.912158,19.941793
1.377000,14.318085,18.535866
1.377500,14.318085,12.912158
1.378000,15.724012,8.694377
1.378500,15.724012,12.912158
1.379000,15.724012,25.565502
1.379500,15.724012,32.595137
1.380000,15.724012,31.189210
1.380500,14.318085,22.753647
1.381000,14.318085,19.941793
1.381500,14.318085,12.912158
1.382000,15.724012,21.347720
1.382500,15.724012,4.476596
1.383000,15.724012,14.318085
1.383500,15.724012,21.347720
1.384000,17.129939,19.941793
1.384500,15.724012,21.347720
1.385000,15.724012,22.753647
1.385500,15.724012,21.347720
1.386000,14.318085,18.535866
1.386500,14.318085,15.724012
1.387000,14.318085,10.100304
1.387500,12.912158,12.912158
1.388000,12.912158,15.724012
1.388500,12.912158,17.129939
1.389000,12.912158,15.724012
1.389500,11.506231,11.506231
1.390000,11.506231,19.941793
1.390500,11.506231,15.724012
1.391000,10.100304,15.724012
1.391500,10.100304,18.535866
1.392000,10.100304,29.783283
1.392500,10.100304,10.100304
1.393000,10.100304,10.100304
1.393500,10.100304,7.288450
1.394000,10.100304,4.476596
1.394500,10.100304,5.882523
1.395000,10.100304,1.664742
1.395500,10.100304,1.664742
1.396000,10.100304,0.258815
1.396500,10.100304,10.100304
1.397000,8.694377,21.347720
1.397500,7.288450,31.189210
1.398000,5.882523,34.001064
1.398500,4.476596,36.812918
1.399000,4.476596,11.506231
1.399500,5.882523,10.100304
1.400000,7.288450,4.476596
1.400500,8.694377,1.664742
1.401000,10.100304,0.258815
1.401500,10.100304,4.476596
1.402000,10.100304,7.288450
1.402500,11.506231,10.100304
1.403000,11.506231,15.724012
1.403500,10.100304,22.753647
1.404000,10.100304,32.595137
1.404500,10.100304,39.624772
1.405000,10.100304,34.001064
1.405500,10.100304,26.971429
1.406000,10.100304,14.318085
1.406500,10.100304,28.377356
1.407000,10.100304,18.535866
1.407500,11.506231,31.189210
1.408000,14.318085,24.159574
1.408500,15.724012,17.129939
1.409000,17.129939,11.506231
1.409500,18.535866,11.506231
1.410000,19.941793,8.694377
1.410500,19.941793,10.100304
1.411000,19.941793,11.506231
1.411500,18.535866,11.506231
1.412000,15.724012,12.912158
1.412500,14.318085,11.506231
1.413000,11.506231,14.318085
1.413500,10.100304,12.912158
1.414000,10.100304,12.912158
1.414500,8.694377,17.129939
1.415000,7.288450,12.912158
1.415500,5.882523,5.882523
1.416000,5.882523,11.506231
1.416500,5.882523,15.724012
1.417000,5.882523,10.100304
1.417500,5.882523,12.912158
1.418000,5.882523,15.724012
1.418500,7.288450,14.318085
1.419000,7.288450,17.129939
1.419500,8.694377,19.941793
1.420000,8.694377,19.941793
1.420500,8.694377,22.753647
1.421000,10.100304,22.753647
1.421500,10.100304,21.347720
1.422000,10.100304,21.347720
1.422500,10.100304,21.347720
1.423000,10.100304,17.129939
1.423500,11.506231,18.535866
1.424000,11.506231,15.724012
1.424500,12.912158,18.535866
1.425000,12.912158,18.535866
1.425500,12.912158,7.288450
1.426000,12.912158,34.001064
1.426500,12.912158,22.753647
1.427000,12.912158,22.753647
1.427500,11.506231,24.159574
1.428000,11.506231,24.159574
1.428500,11.506231,12.912158
1.429000,11.506231,15.724012
1.429500,11.506231,12.912158
1.430000,11.506231,17.129939
1.430500,11.506231,17.129939
1.431000,11.506231,22.753647
1.431500,10.100304,18.535866
1.432000,10.100304,17.129939
1.432500,10.100304,12.912158
1.433000,10.100304,11.506231
1.433500,10.100304,11.506231
1.434000,10.100304,7.288450
1.434500,10.100304,10.100304
1.435000,10.100304,10.100304
1.435500,10.100304,24.159574
1.436000,8.694377,8.694377
1.436500,7.288450,3.070669
1.437000,7.288450,3.070669
1.437500,5.882523,4.476596
1.438000,5.882523,3.070669
1.438500,4.476596,5.882523
1.439000,4.476596,8.694377
1.439500,3.070669,7.288450
1.440000,1.664742,10.100304
1.440500,1.664742,10.100304
1.441000,1.664742,7.288450
1.441500,0.258815,11.506231
1.442000,0.258815,14.318085
1.442500,0.258815,15.724012
1.443000,1.664742,18.535866
1.443500,1.664742,18.535866
1.444000,3.070669,17.129939
1.444500,4.476596,1.664742
1.445000,5.882523,15.724012
1.445500,7.288450,29.783283
1.446000,8.694377,5.882523
1.446500,10.100304,7.288450
1.447000,10.100304,8.694377
1.447500,10.100304,3.070669
1.448000,10.100304,11.506231
1.448500,10.100304,11.506231
1.449000,10.100304,10.100304
1.449500,10.100304,10.100304
1.450000,10.100304,8.694377
1.450500,10.100304,8.694377
1.451000,8.694377,10.100304
1.451500,7.288450,11.506231
1.452000,7.288450,12.912158
1.452500,7.288450,10.100304
1.453000,5.882523,4.476596
1.453500,5.882523,1.664742
1.454000,5.882523,-5.364894
1.454500,5.882523,10.100304
1.455000,5.882523,12.912158
1.455500,5.882523,24.159574
1.456000,5.882523,14.318085
1.456500,5.882523,7.288450
1.457000,5.882523,10.100304
1.457500,7.288450,5.882523
1.458000,7.288450,5.882523
1.458500,7.288450,4.476596
1.459000,8.694377,5.882523
1.459500,8.694377,7.288450
1.460000,8.694377,8.694377
1.460500,8.694377,10.100304
1.461000,8.694377,12.912158
1.461500,8.694377,12.912158
1.462000,8.694377,17.129939
1.462500,8.694377,18.535866
1.463000,8.694377,18.535866
1.463500,8.694377,11.506231
1.464000,10.100304,10.100304
1.464500,10.100304,5.882523
1.465000,10.100304,4.476596
1.465500,10.100304,5.882523
1.466000,10.100304,4.476596
1.466500,10.100304,4.476596
1.467000,10.100304,8.694377
1.467500,10.100304,10.100304
1.468000,10.100304,11.506231
1.468500,10.100304,12.912158
1.469000,10.100304,12.912158
1.469500,10.100304,10.100304
1.470000,10.100304,7.288450
1.470500,8.694377,7.288450
1.471000,8.694377,7.288450
1.471500,8.694377,4.476596
1.472000,8.694377,7.288450
1.472500,10.100304,1.664742
1.473000,10.100304,3.070669
1.473500,10.100304,0.258815
1.474000,10.100304,3.070669
1.474500,10.100304,4.476596
1.475000,8.694377,7.288450
1.475500,8.694377,10.100304
1.476000,7.288450,11.506231
1.476500,7.288450,10.100304
1.477000,7.288450,10.100304
1.477500,7.288450,8.694377
1.478000,7.288450,10.100304
1.478500,8.694377,8.694377
1.479000,8.694377,10.100304
1.479500,10.100304,8.694377
1.480000,10.100304,5.882523
1.480500,10.100304,-2.553040
1.481000,10.100304,15.724012
1.481500,10.100304,5.882523
1.482000,10.100304,21.347720
1.482500,10.100304,18.535866
1.483000,10.100304,7.288450
1.483500,10.100304,0.258815
1.484000,10.100304,11.506231
1.484500,10.100304,12.912158
1.485000,10.100304,11.506231
1.485500,11.506231,10.100304
1.486000,11.506231,10.100304
1.486500,11.506231,10.100304
1.487000,11.506231,8.694377
1.487500,11.506231,10.100304
1.488000,11.506231,10.100304
1.488500,11.506231,18.535866
1.489000,11.506231,15.724012
1.489500,11.506231,7.288450
1.490000,11.506231,8.694377
1.490500,11.506231,7.288450
1.491000,11.506231,10.100304
1.491500,11.506231,8.694377
1.492000,11.506231,8.694377
1.492500,11.506231,0.258815
1.493000,11.506231,10.100304
1.493500,11.506231,10.100304
1.494000,10.100304,5.882523
1.494500,10.100304,3.070669
1.495000,10.100304,1.664742
1.495500,10.100304,4.476596
1.496000,10.100304,5.882523
1.496500,10.100304,7.288450
1.497000,10.100304,15.724012
1.497500,10.100304,15.724012
1.498000,8.694377,29.783283
1.498500,8.694377,11.506231
1.499000,10.100304,17.129939
1.499500,10.100304,24.159574
1.500000,10.100304,17.129939
1.500500,10.100304,12.912158
1.501000,11.506231,12.912158
1.501500,12.912158,8.694377
1.502000,15.724012,3.070669
1.502500,17.129939,4.476596
1.503000,17.129939,0.258815
1.503500,17.129939,0.258815
1.504000,17.129939,0.258815
1.504500,15.724012,3.070669
1.505000,14.318085,8.694377
1.505500,11.506231,0.258815
1.506000,10.100304,8.694377
1.506500,10.100304,7.288450
1.507000,8.694377,11.506231
1.507500,7.288450,22.753647
1.508000,5.882523,15.724012
1.508500,4.476596,19.941793
1.509000,5.882523,22.753647
1.509500,5.882523,21.347720
1.510000,7.288450,19.941793
1.510500,10.100304,14.318085
1.511000,10.100304,11.506231
1.511500,11.506231,12.912158
1.512000,14.318085,12.912158
1.512500,15.724012,11.506231
1.513000,17.129939,14.318085
1.513500,18.535866,7.288450
1.514000,18.535866,0.258815
1.514500,18.535866,1.664742
1.515000,17.129939,-2.553040
1.515500,15.724012,10.100304
1.516000,14.318085,5.882523
1.516500,11.506231,10.100304
1.517000,10.100304,10.100304
1.517500,10.100304,4.476596
1.518000,8.694377,3.070669
1.518500,7.288450,4.476596
1.519000,5.882523,10.100304
1.519500,4.476596,17.129939
1.520000,4.476596,25.565502
1.520500,4.476596,31.189210
1.521000,5.882523,24.159574
1.521500,7.288450,18.535866
1.522000,8.694377,12.912158
1.522500,10.100304,15.724012
1.523000,10.100304,14.318085
1.523500,12.912158,19.941793
1.524000,14.318085,12.912158
1.524500,15.724012,12.912158
1.525000,17.129939,7.288450
1.525500,18.535866,10.100304
1.526000,18.535866,10.100304
1.526500,17.129939,12.912158
1.527000,17.129939,17.129939
1.527500,15.724012,18.535866
1.528000,12.912158,15.724012
1.528500,11.506231,10.100304
1.529000,10.100304,5.882523
1.529500,10.100304,8.694377
1.530000,10.100304,11.506231
1.530500,10.100304,14.318085
1.531000,10.100304,11.506231
1.531500,10.100304,10.100304
1.532000,10.100304,4.476596
1.532500,10.100304,4.476596
1.533000,8.694377,-5.364894
1.533500,8.694377,0.258815
1.534000,8.694377,4.476596
1.534500,8.694377,4.476596
1.535000,7.288450,3.070669
1.535500,5.882523,7.288450
1.536000,5.882523,8.694377
1.536500,4.476596,10.100304
1.537000,3.070669,8.694377
1.537500,3.070669,10.100304
1.538000,3.070669,10.100304
1.538500,3.070669,8.694377
1.539000,3.070669,4.476596
1.539500,3.070669,7.288450
1.540000,4.476596,0.258815
1.540500,5.882523,7.288450
1.541000,5.882523,14.318085
1.541500,7.288450,15.724012
1.542000,7.288450,18.535866
1.542500,8.694377,8.694377
1.543000,8.694377,10.100304
1.543500,8.694377,0.258815
1.544000,10.100304,8.694377
1.544500,10.100304,8.694377
1.545000,10.100304,10.100304
1.545500,10.100304,7.288450
1.546000,10.100304,7.288450
1.546500,10.100304,11.506231
1.547000,10.100304,14.318085
1.547500,10.100304,10.100304
1.548000,10.100304,11.506231
1.548500,10.100304,1.664742
1.549000,10.100304,17.129939
1.549500,10.100304,4.476596
1.550000,10.100304,17.129939
1.550500,10.100304,0.258815
1.551000,10.100304,19.941793
1.551500,10.100304,8.694377
1.552000,10.100304,10.100304
1.552500,10.100304,10.100304
1.553000,10.100304,10.100304
1.553500,10.100304,11.506231
1.554000,10.100304,15.724012
1.554500,10.100304,17.129939
1.555000,10.100304,15.724012
1.555500,10.100304,12.912158
1.556000,10.100304,11.506231
1.556500,10.100304,5.882523
1.557000,10.100304,4.476596
1.557500,10.100304,10.100304
1.558000,10.100304,11.506231
1.558500,10.100304,10.100304
1.559000,10.100304,4.476596
1.559500,10.100304,14.318085
1.560000,10.100304,4.476596
1.560500,10.100304,10.100304
1.561000,10.100304,11.506231
1.561500,10.100304,10.100304
1.562000,8.694377,12.912158
1.562500,8.694377,11.506231
1.563000,8.694377,15.724012
1.563500,8.694377,15.724012
1.564000,8.694377,15.724012
1.564500,8.694377,11.506231
1.565000,10.100304,11.506231
1.565500,10.100304,3.070669
1.566000,10.100304,7.288450
1.566500,10.100304,0.258815
1.567000,10.100304,10.100304
1.567500,10.100304,0.258815
1.568000,10.100304,4.476596
1.568500,10.100304,7.288450
1.569000,10.100304,14.318085
1.569500,10.100304,15.724012
1.570000,8.694377,17.129939
1.570500,7.288450,17.129939
1.571000,7.288450,18.535866
1.571500,7.288450,15.724012
1.572000,7.288450,18.535866
1.572500,7.288450,17.129939
1.573000,8.694377,10.100304
1.573500,10.100304,-1.147112
1.574000,10.100304,-2.553040
1.574500,10.100304,0.258815
1.575000,10.100304,-1.147112
1.575500,10.100304,1.664742
1.576000,10.100304,4.476596
1.576500,10.100304,5.882523
1.577000,10.100304,5.882523
1.577500,8.694377,4.476596
1.578000,7.288450,7.288450
1.578500,4.476596,4.476596
1.579000,3.070669,8.694377
1.579500,1.664742,7.288450
1.580000,1.664742,8.694377
1.580500,1.664742,10.100304
1.581000,1.664742,10.100304
1.581500,3.070669,10.100304
1.582000,3.070669,7.288450
1.582500,4.476596,8.694377
1.583000,5.882523,4.476596
1.583500,7.288450,10.100304
1.584000,8.694377,5.882523
1.584500,8.694377,24.159574
1.585000,10.100304,11.506231
1.585500,10.100304,8.694377
1.586000,10.100304,5.882523
1.586500,10.100304,3.070669
1.587000,10.100304,5.882523
1.587500,10.100304,10.100304
1.588000,10.100304,12.912158
1.588500,10.100304,11.506231
1.589000,10.100304,7.288450
1.589500,10.100304,4.476596
1.590000,10.100304,10.100304
1.590500,10.100304,8.694377
1.591000,10.100304,12.912158
1.591500,10.100304,11.506231
1.592000,10.100304,10.100304
1.592500,10.100304,7.288450
1.593000,10.100304,7.288450
1.593500,10.100304,1.664742
1.594000,10.100304,5.882523
1.594500,10.100304,0.258815
1.595000,10.100304,4.476596
1.595500,10.100304,4.476596
1.596000,10.100304,8.694377
1.596500,10.100304,8.694377
1.597000,8.694377,5.882523
1.597500,8.694377,4.476596
1.598000,7.288450,8.694377
1.598500,7.288450,5.882523
1.599000,7.288450,7.288450
1.599500,7.288450,7.288450
1.600000,7.288450,0.258815
1.600500,7.288450,10.100304
1.601000,7.288450,4.476596
1.601500,7.288450,11.506231
1.602000,8.694377,10.100304
1.602500,8.694377,10.100304
1.603000,8.694377,8.694377
1.603500,8.694377,8.694377
1.604000,10.100304,8.694377
1.604500,10.100304,11.506231
1.605000,10.100304,11.506231
1.605500,10.100304,11.506231
1.606000,10.100304,11.506231
1.606500,10.100304,15.724012
1.607000,10.100304,15.724012
1.607500,10.100304,17.129939
1.608000,11.506231,11.506231
1.608500,11.506231,25.565502
1.609000,11.506231,35.406991
1.609500,12.912158,10.100304
1.610000,12.912158,24.159574
1.610500,14.318085,4.476596
1.611000,15.724012,4.476596
1.611500,15.724012,3.070669
1.612000,17.129939,3.070669
1.612500,17.129939,4.476596
1.613000,15.724012,7.288450
1.613500,15.724012,5.882523
1.614000,14.318085,7.288450
1.614500,11.506231,7.288450
1.615000,10.100304,11.506231
1.615500,10.100304,14.318085
1.616000,8.694377,12.912158
1.616500,7.288450,12.912158
1.617000,7.288450,3.070669
1.617500,5.882523,17.129939
1.618000,5.882523,21.347720
1.618500,7.288450,4.476596
1.619000,7.288450,-2.553040
1.619500,8.694377,1.664742
1.620000,10.100304,5.882523
1.620500,10.100304,7.288450
1.621000,10.100304,7.288450
1.621500,10.100304,8.694377
1.622000,10.100304,12.912158
1.622500,10.100304,19.941793
1.623000,10.100304,28.377356
1.623500,10.100304,26.971429
1.624000,10.100304,21.347720
1.624500,10.100304,15.724012
1.625000,10.100304,11.506231
1.625500,10.100304,5.882523
1.626000,10.100304,10.100304
1.626500,11.506231,19.941793
1.627000,12.912158,10.100304
1.627500,14.318085,0.258815
1.628000,14.318085,12.912158
1.628500,14.318085,3.070669
1.629000,14.318085,12.912158
1.629500,12.912158,21.347720
1.630000,11.506231,22.753647
1.630500,10.100304,15.724012
1.631000,10.100304,17.129939
1.631500,10.100304,18.535866
1.632000,10.100304,19.941793
1.632500,10.100304,19.941793
1.633000,10.100304,17.129939
1.633500,10.100304,12.912158
1.634000,10.100304,5.882523
1.634500,11.506231,0.258815
1.635000,11.506231,1.664742
1.635500,11.506231,0.258815
1.636000,11.506231,18.535866
1.636500,11.506231,1.664742
1.637000,10.100304,4.476596
1.637500,10.100304,18.535866
1.638000,10.100304,7.288450
1.638500,8.694377,8.694377
1.639000,7.288450,8.694377
1.639500,5.882523,11.506231
1.640000,4.476596,11.506231
1.640500,4.476596,11.506231
1.641000,4.476596,12.912158
1.641500,4.476596,11.506231
1.642000,5.882523,8.694377
1.642500,5.882523,10.100304
1.643000,7.288450,11.506231
1.643500,7.288450,10.100304
1.644000,8.694377,3.070669
1.644500,8.694377,5.882523
1.645000,10.100304,1.664742
1.645500,10.100304,-13.800456
1.646000,10.100304,-8.176748
1.646500,8.694377,-6.770821
1.647000,8.694377,8.694377
1.647500,7.288450,11.506231
1.648000,4.476596,12.912158
1.648500,3.070669,10.100304
1.649000,1.664742,12.912158
1.649500,0.258815,14.318085
1.650000,0.258815,15.724012
1.650500,0.258815,11.506231
1.651000,1.664742,12.912158
1.651500,3.070669,15.724012
1.652000,5.882523,10.100304
1.652500,7.288450,18.535866
1.653000,10.100304,17.129939
1.653500,10.100304,11.506231
1.654000,10.100304,10.100304
1.654500,11.506231,1.664742
1.655000,12.912158,-6.770821
1.655500,14.318085,-12.394529
1.656000,14.318085,-10.988602
1.656500,12.912158,-3.958967
1.657000,11.506231,-8.176748
1.657500,10.100304,-5.364894
1.658000,8.694377,-1.147112
1.658500,5.882523,3.070669
1.659000,3.070669,7.288450
1.659500,0.258815,3.070669
1.660000,-1.147112,7.288450
1.660500,-2.553040,4.476596
1.661000,-2.553040,7.288450
1.661500,-2.553040,8.694377
1.662000,-1.147112,14.318085
1.662500,0.258815,-3.958967
1.663000,0.258815,8.694377
1.663500,3.070669,3.070669
1.664000,5.882523,0.258815
1.664500,7.288450,0.258815
1.665000,10.100304,-1.147112
1.665500,10.100304,-1.147112
1.666000,10.100304,0.258815
1.666500,10.100304,4.476596
1.667000,10.100304,7.288450
1.667500,10.100304,12.912158
1.668000,10.100304,10.100304
1.668500,10.100304,4.476596
1.669000,8.694377,7.288450
1.669500,8.694377,3.070669
1.670000,8.694377,1.664742
1.670500,8.694377,3.070669
1.671000,10.100304,3.070669
1.671500,10.100304,1.664742
1.672000,10.100304,24.159574
1.672500,10.100304,7.288450
1.673000,10.100304,1.664742
1.673500,10.100304,0.258815
1.674000,10.100304,0.258815
1.674500,10.100304,4.476596
1.675000,10.100304,4.476596
1.675500,10.100304,7.288450
1.676000,10.100304,4.476596
1.676500,10.100304,0.258815
1.677000,10.100304,-2.553040
1.677500,10.100304,0.258815
1.678000,10.100304,0.258815
1.678500,10.100304,-3.958967
1.679000,10.100304,-1.147112
1.679500,10.100304,-8.176748
1.680000,8.694377,0.258815
1.680500,8.694377,-10.988602
1.681000,7.288450,-3.958967
1.681500,7.288450,10.100304
1.682000,5.882523,-1.147112
1.682500,5.882523,0.258815
1.683000,4.476596,1.664742
1.683500,4.476596,4.476596
1.684000,5.882523,8.694377
1.684500,5.882523,4.476596
1.685000,5.882523,1.664742
1.685500,7.288450,1.664742
1.686000,8.694377,0.258815
1.686500,10.100304,-1.147112
1.687000,10.100304,-1.147112
1.687500,10.100304,4.476596
1.688000,10.100304,4.476596
1.688500,10.100304,-10.988602
1.689000,11.506231,8.694377
1.689500,11.506231,-5.364894
1.690000,11.506231,-2.553040
1.690500,10.100304,3.070669
1.691000,10.100304,0.258815
1.691500,10.100304,3.070669
1.692000,10.100304,7.288450
1.692500,10.100304,10.100304
1.693000,10.100304,7.288450
1.693500,10.100304,3.070669
1.694000,10.100304,-1.147112
1.694500,10.100304,-2.553040
1.695000,10.100304,1.664742
1.695500,10.100304,-3.958967
1.696000,11.506231,0.258815
1.696500,11.506231,12.912158
1.697000,11.506231,8.694377
1.697500,11.506231,10.100304
1.698000,11.506231,11.506231
1.698500,12.912158,-1.147112
1.699000,12.912158,-9.582675
1.699500,12.912158,-6.770821
1.700000,12.912158,-3.958967
1.700500,12.912158,-5.364894
1.701000,12.912158,-5.364894
1.701500,12.912158,-3.958967
1.702000,11.506231,-3.958967
1.702500,10.100304,0.258815
1.703000,10.100304,0.258815
1.703500,10.100304,4.476596
1.704000,10.100304,0.258815
1.704500,8.694377,-1.147112
1.705000,8.694377,11.506231
1.705500,8.694377,-5.364894
1.706000,8.694377,10.100304
1.706500,10.100304,0.258815
1.707000,10.100304,8.694377
1.707500,10.100304,5.882523
1.708000,10.100304,8.694377
1.708500,11.506231,5.882523
1.709000,12.912158,8.694377
1.709500,14.318085,7.288450
1.710000,14.318085,0.258815
1.710500,15.724012,0.258815
1.711000,17.129939,0.258815
1.711500,17.129939,1.664742
1.712000,17.129939,4.476596
1.712500,17.129939,5.882523
1.713000,15.724012,3.070669
1.713500,15.724012,1.664742
1.714000,14.318085,-1.147112
1.714500,14.318085,19.941793
1.715000,12.912158,5.882523
1.715500,12.912158,15.724012
1.716000,12.912158,18.535866
1.716500,12.912158,3.070669
1.717000,12.912158,0.258815
1.717500,12.912158,0.258815
1.718000,14.318085,-3.958967
1.718500,15.724012,-12.394529
1.719000,15.724012,-15.206383
1.719500,15.724012,-16.612310
1.720000,15.724012,-16.612310
1.720500,14.318085,-15.206383
1.721000,11.506231,-9.582675
1.721500,10.100304,-5.364894
1.722000,10.100304,1.664742
1.722500,7.288450,10.100304
1.723000,4.476596,29.783283
1.723500,3.070669,10.100304
1.724000,1.664742,0.258815
1.724500,1.664742,0.258815
1.725000,3.070669,0.258815
1.725500,5.882523,0.258815
1.726000,8.694377,0.258815
1.726500,10.100304,-1.147112
1.727000,10.100304,0.258815
1.727500,12.912158,0.258815
1.728000,14.318085,0.258815
1.728500,15.724012,0.258815
1.729000,15.724012,3.070669
1.729500,15.724012,4.476596
1.730000,14.318085,10.100304
1.730500,14.318085,10.100304
1.731000,12.912158,14.318085
1.731500,12.912158,0.258815
1.732000,12.912158,18.535866
1.732500,12.912158,0.258815
1.733000,12.912158,0.258815
1.733500,12.912158,-1.147112
1.734000,14.318085,0.258815
1.734500,14.318085,-2.553040
1.735000,14.318085,0.258815
1.735500,14.318085,0.258815
1.736000,14.318085,3.070669
1.736500,14.318085,0.258815
1.737000,12.912158,0.258815
1.737500,11.506231,0.258815
1.738000,11.506231,-3.958967
1.738500,10.100304,-3.958967
1.739000,10.100304,-5.364894
1.739500,10.100304,-9.582675
1.740000,10.100304,-2.553040
1.740500,10.100304,-6.770821
1.741000,8.694377,-2.553040
1.741500,8.694377,-9.582675
1.742000,7.288450,4.476596
1.742500,7.288450,0.258815
1.743000,5.882523,0.258815
1.743500,5.882523,1.664742
1.744000,5.882523,3.070669
1.744500,5.882523,5.882523
1.745000,7.288450,11.506231
1.745500,8.694377,21.347720
1.746000,8.694377,19.941793
1.746500,10.100304,15.724012
1.747000,10.100304,14.318085
1.747500,11.506231,12.912158
1.748000,14.318085,3.070669
1.748500,17.129939,12.912158
1.749000,18.535866,5.882523
1.749500,19.941793,11.506231
1.750000,21.347720,0.258815
1.750500,22.753647,7.288450
1.751000,22.753647,4.476596
1.751500,22.753647,-3.958967
1.752000,21.347720,-23.641945
1.752500,19.941793,-27.859726
1.753000,17.129939,-26.453799
1.753500,14.318085,-32.077508
1.754000,11.506231,-29.265653
1.754500,10.100304,-26.453799
1.755000,5.882523,-23.641945
1.755500,1.664742,-5.364894
1.756000,-2.553040,14.318085
1.756500,-5.364894,32.595137
1.757000,-8.176748,36.812918
1.757500,-9.582675,24.159574
1.758000,-9.582675,34.001064
1.758500,-6.770821,5.882523
1.759000,-2.553040,3.070669
1.759500,1.664742,0.258815
1.760000,8.694377,3.070669
1.760500,11.506231,3.070669
1.761000,17.129939,3.070669
1.761500,21.347720,0.258815
1.762000,24.159574,5.882523
1.762500,25.565502,10.100304
1.763000,25.565502,11.506231
1.763500,25.565502,11.506231
1.764000,22.753647,11.506231
1.764500,21.347720,10.100304
1.765000,18.535866,10.100304
1.765500,17.129939,8.694377
1.766000,14.318085,7.288450
1.766500,12.912158,-5.364894
1.767000,12.912158,0.258815
1.767500,11.506231,-5.364894
1.768000,11.506231,0.258815
1.768500,10.100304,5.882523
1.769000,10.100304,1.664742
1.769500,10.100304,5.882523
1.770000,10.100304,5.882523
1.770500,10.100304,3.070669
1.771000,10.100304,3.070669
1.771500,10.100304,1.664742
1.772000,8.694377,4.476596
1.772500,8.694377,7.288450
1.773000,8.694377,10.100304
1.773500,8.694377,12.912158
1.774000,10.100304,8.694377
1.774500,10.100304,7.288450
1.775000,10.100304,-3.958967
1.775500,10.100304,0.258815
1.776000,10.100304,0.258815
1.776500,10.100304,4.476596
1.777000,10.100304,1.664742
1.777500,10.100304,0.258815
1.778000,10.100304,0.258815
1.778500,10.100304,7.288450
1.779000,10.100304,10.100304
1.779500,10.100304,11.506231
1.780000,10.100304,12.912158
1.780500,8.694377,10.100304
1.781000,8.694377,10.100304
1.781500,8.694377,7.288450
1.782000,10.100304,4.476596
1.782500,10.100304,0.258815
1.783000,10.100304,-3.958967
1.783500,10.100304,-3.958967
1.784000,10.100304,-2.553040
1.784500,10.100304,0.258815
1.785000,10.100304,-3.958967
1.785500,10.100304,0.258815
1.786000,10.100304,-1.147112
1.786500,8.694377,10.100304
1.787000,7.288450,19.941793
1.787500,5.882523,3.070669
1.788000,5.882523,12.912158
1.788500,4.476596,24.159574
1.789000,4.476596,8.694377
1.789500,5.882523,8.694377
1.790000,7.288450,8.694377
1.790500,8.694377,11.506231
1.791000,10.100304,10.100304
1.791500,10.100304,8.694377
1.792000,11.506231,7.288450
1.792500,11.506231,4.476596
1.793000,12.912158,0.258815
1.793500,12.912158,1.664742
1.794000,12.912158,0.258815
1.794500,12.912158,-1.147112
1.795000,11.506231,-6.770821
1.795500,10.100304,-6.770821
1.796000,10.100304,-3.958967
1.796500,10.100304,-1.147112
1.797000,7.288450,15.724012
1.797500,4.476596,0.258815
1.798000,3.070669,0.258815
1.798500,1.664742,0.258815
1.799000,0.258815,0.258815
1.799500,0.258815,1.664742
1.800000,0.258815,5.882523
1.800500,0.258815,8.694377
1.801000,1.664742,4.476596
1.801500,3.070669,3.070669
1.802000,3.070669,0.258815
1.802500,4.476596,-1.147112
1.803000,5.882523,0.258815
1.803500,7.288450,0.258815
1.804000,7.288450,-1.147112
1.804500,8.694377,-5.364894
1.805000,8.694377,-5.364894
1.805500,8.694377,8.694377
1.806000,7.288450,19.941793
1.806500,7.288450,-3.958967
1.807000,5.882523,10.100304
1.807500,5.882523,-1.147112
1.808000,5.882523,7.288450
1.808500,5.882523,-1.147112
1.809000,5.882523,7.288450
1.809500,5.882523,3.070669
1.810000,7.288450,4.476596
1.810500,7.288450,4.476596
1.811000,7.288450,5.882523
1.811500,8.694377,1.664742
1.812000,8.694377,0.258815
1.812500,8.694377,0.258815
1.813000,10.100304,1.664742
1.813500,10.100304,3.070669
1.814000,10.100304,0.258815
1.814500,10.100304,0.258815
1.815000,8.694377,0.258815
1.815500,8.694377,-3.958967
1.816000,8.694377,0.258815
1.816500,7.288450,1.664742
1.817000,7.288450,0.258815
1.817500,7.288450,3.070669
1.818000,5.882523,1.664742
1.818500,5.882523,5.882523
1.819000,5.882523,4.476596
1.819500,5.882523,0.258815
1.820000,5.882523,0.258815
1.820500,5.882523,0.258815
1.821000,7.288450,0.258815
1.821500,7.288450,0.258815
1.822000,7.288450,1.664742
1.822500,7.288450,4.476596
1.823000,8.694377,4.476596
1.823500,8.694377,4.476596
1.824000,8.694377,8.694377
1.824500,8.694377,8.694377
1.825000,8.694377,11.506231
1.825500,8.694377,11.506231
1.826000,10.100304,14.318085
1.826500,10.100304,25.565502
1.827000,10.100304,28.377356
1.827500,10.100304,10.100304
1.828000,11.506231,8.694377
1.828500,12.912158,7.288450
1.829000,14.318085,4.476596
1.829500,15.724012,0.258815
1.830000,17.129939,0.258815
1.830500,17.129939,-3.958967
1.831000,17.129939,-1.147112
1.831500,17.129939,-1.147112
1.832000,14.318085,-1.147112
1.832500,12.912158,0.258815
1.833000,10.100304,3.070669
1.833500,10.100304,5.882523
1.834000,8.694377,8.694377
1.834500,5.882523,10.100304
1.835000,4.476596,5.882523
1.835500,3.070669,0.258815
1.836000,3.070669,0.258815
1.836500,3.070669,-1.147112
1.837000,4.476596,7.288450
1.837500,4.476596,-5.364894
1.838000,5.882523,-2.553040
1.838500,5.882523,-15.206383
1.839000,7.288450,-5.364894
1.839500,7.288450,-3.958967
1.840000,7.288450,0.258815
1.840500,7.288450,3.070669
1.841000,5.882523,1.664742
1.841500,4.476596,0.258815
1.842000,4.476596,0.258815
1.842500,3.070669,0.258815
1.843000,3.070669,0.258815
1.843500,3.070669,0.258815
1.844000,3.070669,0.258815
1.844500,3.070669,0.258815
1.845000,4.476596,0.258815
1.845500,4.476596,1.664742
1.846000,5.882523,-5.364894
1.846500,5.882523,3.070669
1.847000,7.288450,15.724012
1.847500,7.288450,4.476596
1.848000,8.694377,15.724012
1.848500,8.694377,0.258815
1.849000,10.100304,-2.553040
1.849500,10.100304,4.476596
1.850000,10.100304,3.070669
1.850500,10.100304,1.664742
1.851000,10.100304,3.070669
1.851500,10.100304,3.070669
1.852000,10.100304,4.476596
1.852500,10.100304,1.664742
1.853000,10.100304,4.476596
1.853500,10.100304,3.070669
1.854000,10.100304,1.664742
1.854500,10.100304,-3.958967
1.855000,10.100304,-1.147112
1.855500,10.100304,-9.582675
1.856000,10.100304,-3.958967
1.856500,10.100304,7.288450
1.857000,8.694377,1.664742
1.857500,8.694377,5.882523
1.858000,7.288450,3.070669
1.858500,7.288450,0.258815
1.859000,7.288450,-6.770821
1.859500,7.288450,-3.958967
1.860000,7.288450,-1.147112
1.860500,7.288450,0.258815
1.861000,7.288450,-1.147112
1.861500,7.288450,0.258815
1.862000,7.288450,0.258815
1.862500,7.288450,0.258815
1.863000,7.288450,-1.147112
1.863500,7.288450,0.258815
1.864000,7.288450,-8.176748
1.864500,7.288450,-3.958967
1.865000,7.288450,-9.582675
1.865500,7.288450,0.258815
1.866000,7.288450,-5.364894
1.866500,7.288450,1.664742
1.867000,7.288450,12.912158
1.867500,7.288450,4.476596
1.868000,7.288450,4.476596
1.868500,7.288450,1.664742
1.869000,7.288450,3.070669
1.869500,8.694377,3.070669
1.870000,10.100304,3.070669
1.870500,10.100304,4.476596
1.871000,10.100304,3.070669
1.871500,10.100304,3.070669
1.872000,11.506231,4.476596
1.872500,11.506231,5.882523
1.873000,12.912158,7.288450
1.873500,12.912158,5.882523
1.874000,12.912158,5.882523
1.874500,12.912158,-5.364894
1.875000,12.912158,-6.770821
1.875500,12.912158,-5.364894
1.876000,12.912158,-9.582675
1.876500,11.506231,-8.176748
1.877000,11.506231,-5.364894
1.877500,10.100304,-5.364894
1.878000,10.100304,-5.364894
1.878500,10.100304,-3.958967
1.879000,8.694377,0.258815
1.879500,7.288450,-1.147112
1.880000,5.882523,0.258815
1.880500,4.476596,0.258815
1.881000,4.476596,0.258815
1.881500,4.476596,-3.958967
1.882000,4.476596,0.258815
1.882500,5.882523,0.258815
1.883000,7.288450,0.258815
1.883500,7.288450,8.694377
1.884000,8.694377,0.258815
1.884500,10.100304,0.258815
1.885000,10.100304,3.070669
1.885500,10.100304,1.664742
1.886000,10.100304,0.258815
1.886500,11.506231,0.258815
1.887000,11.506231,0.258815
1.887500,12.912158,1.664742
1.888000,12.912158,0.258815
1.888500,12.912158,0.258815
1.889000,12.912158,0.258815
1.889500,11.506231,1.664742
1.890000,11.506231,0.258815
1.890500,11.506231,3.070669
1.891000,11.506231,15.724012
1.891500,11.506231,-2.553040
1.892000,10.100304,-3.958967
1.892500,10.100304,0.258815
1.893000,11.506231,0.258815
1.893500,11.506231,0.258815
1.894000,11.506231,0.258815
1.894500,11.506231,1.664742
1.895000,11.506231,1.664742
1.895500,11.506231,1.664742
1.896000,11.506231,0.258815
1.896500,10.100304,3.070669
1.897000,10.100304,0.258815
1.897500,10.100304,1.664742
1.898000,10.100304,4.476596
1.898500,10.100304,4.476596
1.899000,10.100304,3.070669
1.899500,10.100304,17.129939
1.900000,10.100304,-9.582675
1.900500,11.506231,4.476596
1.901000,11.506231,0.258815
1.901500,11.506231,0.258815
1.902000,11.506231,0.258815
1.902500,12.912158,0.258815
1.903000,12.912158,0.258815
1.903500,11.506231,0.258815
1.904000,11.506231,-1.147112
1.904500,11.506231,0.258815
1.905000,11.506231,-2.553040
1.905500,10.100304,-2.553040
1.906000,10.100304,-2.553040
1.906500,10.100304,0.258815
1.907000,10.100304,-1.147112
1.907500,10.100304,-1.147112
1.908000,10.100304,-6.770821
1.908500,10.100304,3.070669
1.909000,8.694377,-8.176748
1.909500,8.694377,11.506231
1.910000,8.694377,-1.147112
1.910500,8.694377,0.258815
1.911000,8.694377,0.258815
1.911500,8.694377,0.258815
1.912000,10.100304,0.258815
1.912500,10.100304,0.258815
1.913000,10.100304,0.258815
1.913500,10.100304,4.476596
1.914000,10.100304,3.070669
1.914500,10.100304,4.476596
1.915000,10.100304,-2.553040
1.915500,10.100304,3.070669
1.916000,11.506231,0.258815
1.916500,11.506231,0.258815
1.917000,11.506231,-5.364894
1.917500,11.506231,12.912158
1.918000,11.506231,0.258815
1.918500,11.506231,-2.553040
1.919000,11.506231,-1.147112
1.919500,10.100304,0.258815
1.920000,10.100304,0.258815
1.920500,10.100304,0.258815
1.921000,10.100304,4.476596
1.921500,10.100304,4.476596
1.922000,10.100304,7.288450
1.922500,10.100304,4.476596
1.923000,10.100304,7.288450
1.923500,10.100304,0.258815
1.924000,10.100304,0.258815
1.924500,10.100304,-6.770821
1.925000,10.100304,0.258815
1.925500,11.506231,-13.800456
1.926000,11.506231,-9.582675
1.926500,11.506231,1.664742
1.927000,10.100304,-9.582675
1.927500,10.100304,-5.364894
1.928000,10.100304,-3.958967
1.928500,10.100304,-3.958967
1.929000,8.694377,-1.147112
1.929500,8.694377,0.258815
1.930000,7.288450,0.258815
1.930500,5.882523,0.258815
1.931000,5.882523,0.258815
1.931500,5.882523,-2.553040
1.932000,5.882523,-9.582675
1.932500,5.882523,-12.394529
1.933000,7.288450,0.258815
1.933500,7.288450,-9.582675
1.934000,8.694377,-9.582675
1.934500,8.694377,-9.582675
1.935000,8.694377,-2.553040
1.935500,8.694377,0.258815
1.936000,8.694377,-2.553040
1.936500,8.694377,-3.958967
1.937000,8.694377,-3.958967
1.937500,7.288450,0.258815
1.938000,7.288450,0.258815
1.938500,7.288450,0.258815
1.939000,8.694377,0.258815
1.939500,8.694377,-3.958967
1.940000,8.694377,-6.770821
1.940500,10.100304,-8.176748
1.941000,10.100304,-8.176748
1.941500,10.100304,-3.958967
1.942000,10.100304,-10.988602
1.942500,10.100304,7.288450
1.943000,10.100304,-16.612310
1.943500,10.100304,-9.582675
1.944000,10.100304,-9.582675
1.944500,10.100304,-10.988602
1.945000,10.100304,-9.582675
1.945500,8.694377,-8.176748
1.946000,8.694377,-5.364894
1.946500,7.288450,-8.176748
1.947000,7.288450,-5.364894
1.947500,7.288450,-5.364894
1.948000,5.882523,-9.582675
1.948500,5.882523,-6.770821
1.949000,5.882523,-6.770821
1.949500,7.288450,-5.364894
1.950000,7.288450,-5.364894
1.950500,7.288450,-6.770821
1.951000,8.694377,0.258815
1.951500,8.694377,4.476596
1.952000,8.694377,-5.364894
1.952500,10.100304,0.258815
1.953000,10.100304,-1.147112
1.953500,10.100304,-2.553040
1.954000,10.100304,-8.176748
1.954500,10.100304,-3.958967
1.955000,11.506231,-6.770821
1.955500,11.506231,-6.770821
1.956000,11.506231,-5.364894
1.956500,11.506231,-1.147112
1.957000,11.506231,-1.147112
1.957500,11.506231,0.258815
1.958000,11.506231,-1.147112
1.958500,11.506231,-3.958967
1.959000,10.100304,0.258815
1.959500,10.100304,7.288450
1.960000,10.100304,11.506231
1.960500,10.100304,0.258815
1.961000,11.506231,1.664742
1.961500,11.506231,-1.147112
1.962000,12.912158,-2.553040
1.962500,14.318085,-3.958967
1.963000,14.318085,-6.770821
1.963500,15.724012,0.258815
1.964000,15.724012,0.258815
1.964500,15.724012,-2.553040
1.965000,15.724012,-5.364894
1.965500,14.318085,-3.958967
1.966000,14.318085,-2.553040
1.966500,12.912158,-6.770821
1.967000,12.912158,-5.364894
1.967500,11.506231,-13.800456
1.968000,10.100304,-5.364894
1.968500,10.100304,-3.958967
1.969000,10.100304,3.070669
1.969500,10.100304,-1.147112
1.970000,10.100304,-2.553040
1.970500,10.100304,0.258815
1.971000,10.100304,-2.553040
1.971500,10.100304,-3.958967
1.972000,10.100304,-8.176748
1.972500,10.100304,-9.582675
1.973000,10.100304,-8.176748
1.973500,10.100304,-8.176748
1.974000,10.100304,-5.364894
1.974500,10.100304,-8.176748
1.975000,10.100304,-10.988602
1.975500,10.100304,-5.364894
1.976000,10.100304,-3.958967
1.976500,10.100304,0.258815
1.977000,10.100304,-5.364894
1.977500,10.100304,-3.958967
1.978000,10.100304,-10.988602
1.978500,8.694377,7.288450
1.979000,10.100304,-8.176748
1.979500,10.100304,-15.206383
1.980000,10.100304,-12.394529
1.980500,10.100304,-13.800456
1.981000,10.100304,-9.582675
1.981500,10.100304,-8.176748
1.982000,10.100304,-3.958967
1.982500,10.100304,-6.770821
1.983000,10.100304,-3.958967
1.983500,10.100304,-5.364894
1.984000,10.100304,-5.364894
1.984500,8.694377,0.258815
1.985000,8.694377,-2.553040
1.985500,8.694377,10.100304
1.986000,10.100304,-9.582675
1.986500,10.100304,-2.553040
1.987000,10.100304,-2.553040
1.987500,10.100304,-3.958967
1.988000,10.100304,-3.958967
1.988500,11.506231,-3.958967
1.989000,11.506231,-2.553040
1.989500,12.912158,0.258815
1.990000,12.912158,0.258815
1.990500,12.912158,0.258815
1.991000,12.912158,-3.958967
1.991500,12.912158,-2.553040
1.992000,12.912158,-1.147112
1.992500,12.912158,-3.958967
1.993000,12.912158,-8.176748
1.993500,12.912158,-3.958967
1.994000,11.506231,0.258815
1.994500,11.506231,-5.364894
1.995000,11.506231,5.882523
1.995500,11.506231,0.258815
1.996000,10.100304,0.258815
1.996500,10.100304,0.258815
1.997000,10.100304,-1.147112
1.997500,10.100304,-2.553040
1.998000,11.506231,-8.176748
1.998500,11.506231,-10.988602
1.999000,11.506231,-12.394529
1.999500,11.506231,-12.394529
2.000000,11.506231,-12.394529
2.000500,11.506231,-8.176748
2.001000,10.100304,-2.553040
2.001500,10.100304,-1.147112
2.002000,10.100304,4.476596
2.002500,10.100304,-15.206383
2.003000,8.694377,-8.176748
2.003500,8.694377,-13.800456
2.004000,7.288450,-6.770821
2.004500,7.288450,-5.364894
2.005000,7.288450,-5.364894
2.005500,7.288450,-5.364894
2.006000,7.288450,-5.364894
2.006500,7.288450,-5.364894
2.007000,8.694377,-8.176748
2.007500,8.694377,-6.770821
2.008000,8.694377,-3.958967
2.008500,8.694377,-8.176748
2.009000,10.100304,-6.770821
2.009500,10.100304,-2.553040
2.010000,10.100304,0.258815
2.010500,10.100304,-10.988602
2.011000,10.100304,-9.582675
2.011500,10.100304,8.694377
2.012000,10.100304,0.258815
2.012500,10.100304,-2.553040
2.013000,10.100304,-2.553040
2.013500,10.100304,-3.958967
2.014000,10.100304,-9.582675
2.014500,10.100304,-5.364894
2.015000,10.100304,-5.364894
2.015500,10.100304,-8.176748
2.016000,10.100304,-8.176748
2.016500,10.100304,-5.364894
2.017000,10.100304,-6.770821
2.017500,10.100304,-5.364894
2.018000,10.100304,-9.582675
2.018500,10.100304,-9.582675
2.019000,10.100304,-6.770821
2.019500,10.100304,-16.612310
2.020000,10.100304,5.882523
2.020500,8.694377,-10.988602
2.021000,8.694377,-10.988602
2.021500,8.694377,-9.582675
2.022000,8.694377,-1.147112
2.022500,8.694377,-1.147112
2.023000,8.694377,0.258815
2.023500,8.694377,0.258815
2.024000,8.694377,-2.553040
2.024500,8.694377,-9.582675
2.025000,10.100304,-9.582675
2.025500,10.100304,-10.988602
2.026000,10.100304,-8.176748
2.026500,10.100304,-5.364894
2.027000,10.100304,-6.770821
2.027500,10.100304,-5.364894
2.028000,10.100304,-9.582675
2.028500,10.100304,-6.770821
2.029000,10.100304,-6.770821
2.029500,10.100304,-1.147112
2.030000,10.100304,0.258815
2.030500,10.100304,4.476596
2.031000,10.100304,7.288450
2.031500,10.100304,-10.988602
2.032000,10.100304,-6.770821
2.032500,10.100304,-8.176748
2.033000,10.100304,-5.364894
2.033500,10.100304,-5.364894
2.034000,10.100304,-3.958967
2.034500,10.100304,-8.176748
2.035000,10.100304,-10.988602
2.035500,10.100304,-8.176748
2.036000,10.100304,-8.176748
2.036500,10.100304,-5.364894
2.037000,10.100304,-2.553040
2.037500,10.100304,-10.988602
2.038000,10.100304,-9.582675
2.038500,10.100304,-15.206383
2.039000,8.694377,-8.176748
2.039500,8.694377,-8.176748
2.040000,8.694377,-9.582675
2.040500,7.288450,-5.364894
2.041000,7.288450,-13.800456
2.041500,7.288450,-9.582675
2.042000,7.288450,-6.770821
2.042500,7.288450,-9.582675
2.043000,7.288450,-8.176748
2.043500,7.288450,-8.176748
2.044000,7.288450,-5.364894
2.044500,7.288450,-3.958967
2.045000,7.288450,-3.958967
2.045500,7.288450,-5.364894
2.046000,8.694377,-8.176748
2.046500,8.694377,-8.176748
2.047000,10.100304,-9.582675
2.047500,10.100304,-8.176748
2.048000,10.100304,3.070669
2.048500,10.100304,-1.147112
2.049000,10.100304,-15.206383
2.049500,10.100304,-9.582675
2.050000,10.100304,7.288450
2.050500,10.100304,-3.958967
2.051000,10.100304,-8.176748
2.051500,10.100304,-8.176748
2.052000,10.100304,-2.553040
2.052500,10.100304,-6.770821
2.053000,10.100304,-5.364894
2.053500,10.100304,-8.176748
2.054000,10.100304,-8.176748
2.054500,10.100304,-9.582675
2.055000,10.100304,-6.770821
2.055500,10.100304,-8.176748
2.056000,10.100304,-9.582675
2.056500,10.100304,-8.176748
2.057000,10.100304,0.258815
2.057500,10.100304,-12.394529
2.058000,10.100304,0.258815
2.058500,10.100304,-15.206383
2.059000,10.100304,-12.394529
2.059500,8.694377,-16.612310
2.060000,8.694377,-18.018237
2.060500,8.694377,-18.018237
2.061000,8.694377,-18.018237
2.061500,8.694377,-15.206383
2.062000,7.288450,-15.206383
2.062500,7.288450,-12.394529
2.063000,5.882523,-9.582675
2.063500,5.882523,-9.582675
2.064000,4.476596,-9.582675
2.064500,4.476596,-12.394529
2.065000,3.070669,-13.800456
2.065500,3.070669,-12.394529
2.066000,4.476596,-18.018237
2.066500,4.476596,-19.424164
2.067000,4.476596,-20.830091
2.067500,5.882523,-6.770821
2.068000,5.882523,-15.206383
2.068500,5.882523,-29.265653
2.069000,5.882523,-20.830091
2.069500,5.882523,-19.424164
2.070000,5.882523,-19.424164
2.070500,5.882523,-18.018237
2.071000,5.882523,-20.830091
2.071500,4.476596,-22.236018
2.072000,4.476596,-16.612310
2.072500,3.070669,-16.612310
2.073000,3.070669,-18.018237
2.073500,3.070669,-18.018237
2.074000,3.070669,-15.206383
2.074500,3.070669,-13.800456
2.075000,3.070669,-15.206383
2.075500,3.070669,-13.800456
2.076000,4.476596,-22.236018
2.076500,4.476596,-12.394529
2.077000,5.882523,0.258815
2.077500,7.288450,-16.612310
2.078000,7.288450,-13.800456
2.078500,8.694377,-15.206383
2.079000,10.100304,-10.988602
2.079500,10.100304,-12.394529
2.080000,10.100304,-12.394529
2.080500,10.100304,-12.394529
2.081000,10.100304,-19.424164
2.081500,10.100304,-20.830091
2.082000,10.100304,-20.830091
2.082500,10.100304,-22.236018
2.083000,10.100304,-22.236018
2.083500,10.100304,-18.018237
2.084000,10.100304,-19.424164
2.084500,10.100304,-20.830091
2.085000,10.100304,-20.830091
2.085500,8.694377,-27.859726
2.086000,8.694377,-18.018237
2.086500,7.288450,-27.859726
2.087000,7.288450,-6.770821
2.087500,5.882523,-15.206383
2.088000,5.882523,-20.830091
2.088500,5.882523,-20.830091
2.089000,5.882523,-22.236018
2.089500,5.882523,-20.830091
2.090000,7.288450,-20.830091
2.090500,7.288450,-20.830091
2.091000,8.694377,-18.018237
2.091500,8.694377,-20.830091
2.092000,10.100304,-19.424164
2.092500,10.100304,-25.047872
2.093000,10.100304,-22.236018
2.093500,10.100304,-19.424164
2.094000,10.100304,-20.830091
2.094500,10.100304,-23.641945
2.095000,10.100304,-8.176748
2.095500,10.100304,-23.641945
2.096000,10.100304,-29.265653
2.096500,10.100304,-19.424164
2.097000,10.100304,-18.018237
2.097500,10.100304,-19.424164
2.098000,10.100304,-22.236018
2.098500,10.100304,-19.424164
2.099000,10.100304,-20.830091
2.099500,10.100304,-23.641945
2.100000,10.100304,-25.047872
2.100500,10.100304,-22.236018
2.101000,10.100304,-23.641945
2.101500,10.100304,-22.236018
2.102000,10.100304,-20.830091
2.102500,10.100304,-20.830091
2.103000,10.100304,-23.641945
2.103500,10.100304,-20.830091
2.104000,10.100304,-18.018237
2.104500,10.100304,-12.394529
2.105000,10.100304,-6.770821
2.105500,10.100304,-22.236018
2.106000,10.100304,-20.830091
2.106500,10.100304,-20.830091
2.107000,10.100304,-20.830091
2.107500,11.506231,-20.830091
2.108000,11.506231,-25.047872
2.108500,12.912158,-22.236018
2.109000,12.912158,-23.641945
2.109500,12.912158,-26.453799
2.110000,12.912158,-26.453799
2.110500,12.912158,-22.236018
2.111000,11.506231,-26.453799
2.111500,11.506231,-22.236018
2.112000,10.100304,-23.641945
2.112500,10.100304,-26.453799
2.113000,10.100304,-32.077508
2.113500,10.100304,-22.236018
2.114000,10.100304,-3.958967
2.114500,10.100304,-16.612310
2.115000,10.100304,-18.018237
2.115500,10.100304,-23.641945
2.116000,10.100304,-20.830091
2.116500,10.100304,-23.641945
2.117000,10.100304,-27.859726
2.117500,10.100304,-30.671581
2.118000,11.506231,-30.671581
