	VL	GM	SM	BF
0	21.462989578	7.84250712271	11.9123536936	7.04885841769
1	21.3709393978	7.79303762284	11.6865463281	6.96763850529
2	21.4721946691	7.75765343588	12.4308913726	7.00327312654
3	21.6405238106	8.0490851153	12.5035716983	7.02957079254
4	21.8867658709	8.40088756824	12.6286026	7.10788003942
5	22.1871744672	8.37136372342	12.7347949441	6.82834348996
6	22.3373609244	8.35472497185	12.4436923161	6.69317113692
7	22.4972536895	8.34559377924	12.6194788785	6.71472260017
8	22.5932134594	7.58624359659	12.9961290591	6.76354125948
9	22.4499486205	7.52820222939	12.7615415727	6.83675263979
10	22.6090038079	7.55061962955	12.4788971255	6.84616708529
11	22.7444104289	7.94588104079	12.3053570548	6.89178271613
12	22.8912271555	7.36649669282	12.2965175093	6.95439056952
13	23.1731418758	7.32905348362	12.3465898236	7.04837071502
14	23.0795529237	7.3130552783	12.5806132394	7.33021118026
15	23.2174832969	7.30262169883	12.7878123667	7.1671512698
16	23.4305076236	7.30262169883	12.9688725543	7.23628037138
17	23.5848640952	7.28656546076	12.9789711656	7.28160314661
18	23.6683055007	7.35132909794	13.140065542	7.393105652
19	23.7182294407	7.3338779072	13.140065542	7.46760365238
20	23.6382293131	7.3338779072	13.2984819348	7.49761339794
21	23.6980278167	7.37129661033	13.5326298534	7.18752614296
22	23.9382385463	7.42357705532	13.7199280721	7.16351528802
23	23.9069270464	7.47149597646	13.7247606822	7.34587092378
24	23.8227016907	7.50822886478	13.9082173137	7.3655128374
25	23.7381774973	6.92923497896	13.8262242531	7.3992315481
26	23.6517593902	6.94453151551	13.596876392	7.3992315481
27	23.6650841434	6.99573254204	13.366304947	7.38510251025
28	23.6467853897	6.95629392997	13.304617922	7.32950241752
29	23.5565179977	6.90480046129	13.2818561389	7.28543205158
30	23.3681332968	6.82464448091	13.340247595	7.28543205158
31	23.0535275659	6.74353580635	13.731898875	7.27658594921
32	22.6266539187	6.92697274719	13.7462032029	7.28543205158
33	22.1702309143	7.36318954119	13.8727497123	7.29760803749
34	21.7277851423	7.31047725122	13.9855455022	7.31190614576
35	20.705914799	7.30639109901	14.4096653126	7.2811310336
36	19.8473066326	7.28214597021	15.2262173945	7.37307101528
37	19.3578049163	7.25066675899	15.6391671809	7.32926262908
38	18.9371197703	7.14087970512	15.3535579131	7.12623761952
39	18.6640852391	7.17930438989	15.1903806535	7.10029799145
40	18.464164765	7.3833544668	15.5086150588	7.06515275297
41	18.4235014638	7.4396792193	15.7642110239	7.06515275297
42	18.9988397728	7.38825809987	15.9046534356	7.01719120359
43	19.3834117685	7.34054598538	15.9762014619	7.06219991498
44	19.5411822662	7.31415573214	16.0517296417	7.13112499291
45	19.7695051796	7.31415573214	16.054121277	7.08705005048
46	19.9439043576	7.23853417169	15.9308474991	7.07229736383
47	20.0954017107	6.80991841006	15.9002300929	7.10740727319
48	20.1540852354	6.94389101992	15.8484089776	7.14234459344
49	20.4123621129	6.94389101992	15.8566738097	7.08139866866
50	20.4490251828	6.94389101992	15.8710423281	7.35131899338
51	20.3971876511	6.95994658857	15.8710423281	7.52588954882
52	20.3284173733	6.95994658857	15.3396848129	7.65477403662
53	20.3609704222	6.61991379933	15.1325637372	7.68405283088
54	20.8273899444	6.14832257673	14.8178857422	7.68405283088
55	22.175545255	6.14384271382	14.5781383867	7.71322048587
56	25.0868795435	6.16198322875	14.6203986346	7.74744757537
57	29.9647940334	6.17434459182	14.3963932243	7.83391670884
58	34.0032373593	6.17434459182	14.0752534001	7.77010648009
59	36.4976967374	6.11138679512	14.1497905724	7.77010648009
60	36.6271995999	6.05802599964	14.1930803619	7.77010648009
61	38.2290326598	5.49333737864	14.4068888788	7.75148985569
62	41.7497151164	5.47154900916	14.4066466142	7.75148985569
63	43.2552414853	5.45759605802	14.3796178504	7.66613419136
64	43.4108149086	5.43811862286	14.1592365629	7.13990516493
65	43.3281893334	5.43262435729	13.9790746112	7.1201345521
66	43.2300830312	5.39691264687	13.8942923403	7.04986664774
67	43.139956261	5.40201197086	13.8692850746	6.98811423518
68	43.0714081014	5.57249924843	13.7159942058	6.84541950866
69	43.135483721	5.55384432904	13.7065365673	6.76407237706
70	43.3363491999	5.74448971971	13.5433191268	6.66608532642
71	43.4944876131	5.67773660925	13.3126066112	6.64070689472
72	43.5126357679	5.61845093833	13.1112039814	6.61286299715
73	43.5130011378	5.51323440777	13.000941602	6.5605366185
74	43.9485023149	5.44263456941	12.7946339376	6.53847696284
75	44.7789335887	5.59870085851	12.7971937116	6.49037870598
76	44.9115460598	6.19827583442	12.8059602053	6.45191193388
77	46.2630148464	6.10396587894	12.8118920098	6.4419213361
78	48.6890697102	6.10396587894	12.8118920098	6.39309668736
79	51.3250821944	6.08474748769	12.8059602053	6.75195251347
80	52.7954243164	6.09726543756	12.7510812667	6.73052026333
81	53.5654957668	6.09726543756	12.4977943088	6.80408695596
82	53.8961495316	5.84246471656	12.436289667	6.81941989613
83	54.0329128717	5.43511889668	12.1798955571	6.88268602413
84	54.0949637235	5.44465774336	11.8827244408	6.90364589443
85	54.0650350811	5.45013987814	11.3646895561	6.90364589443
86	54.1634764988	5.44061064312	10.1845275027	6.94763064783
87	54.1175387176	5.44061064312	8.92513239166	6.94763064783
88	54.1175387176	5.4760373866	8.62395945283	6.94763064783
89	54.1350458891	5.42556327949	8.73008902714	6.89885212072
90	54.1197295838	5.13862807479	8.3026377799	6.88950966916
91	54.1197295838	5.03352235766	7.96294297173	6.86140599114
92	54.1197295838	5.05455912036	7.73242617246	6.86495724414
93	53.9678441142	5.05455912036	7.58827332557	6.7292260143
94	53.987578737	5.05455912036	7.67848931665	6.60652828304
95	53.987578737	5.10870007545	7.61476284279	6.61627032826
96	54.032878256	5.14641212402	7.58632712079	6.63203750533
97	54.1445186604	5.13479349656	7.57538369294	6.59439711631
98	54.3932584762	4.92617459689	7.57105863127	6.62231865513
99	54.3206874508	4.92010867869	7.52071328696	6.63807146584
100	54.4186664045	4.89849454771	7.50531131661	6.51499395644
101	54.6009667219	4.88628645661	7.56037719968	6.57986361377
102	54.7125166276	4.89191808511	7.53433790184	6.42946756155
103	54.7653134861	5.07196046814	7.4963987726	6.47048891464
104	54.5896373487	5.16457029021	7.50216271161	6.47048891464
105	54.2070036008	5.15299260475	7.52628024532	6.47048891464
106	52.9963838422	5.13235932184	7.52117735754	6.57006758517
107	50.3326858929	5.11056534928	7.65137830869	7.09096218537
108	47.654611561	5.08976007422	7.61832306079	7.27082952707
109	45.7249553917	5.09084188089	7.94934370286	7.33779517547
110	45.5512447107	5.06886940422	9.95631510303	7.46246562803
111	44.1468329354	5.168546691	11.4097929851	7.57130504249
112	40.759914971	5.11657105043	12.8437677167	7.52772670033
113	38.9616202385	5.1096535227	13.3502261695	7.83768028819
114	38.7912143292	5.1096535227	13.4592828144	8.08346066987
115	38.7941984238	5.11872310252	13.4496446606	8.13390864221
116	38.7755668754	5.11288562861	13.7886961493	8.29118128478
117	38.7691613934	5.16108329671	14.9807474935	8.40171662874
118	38.8026432075	4.86809094667	17.3988147745	8.55406684606
119	38.877846238	4.86195256209	18.929556105	8.72392616218
120	38.5466501719	4.61100568078	19.1770650054	8.86348057359
121	38.4246150519	4.60981127001	19.2340168237	8.93876752922
122	38.288799103	4.62274955444	19.5158154133	8.92258960237
123	38.3079423109	4.62394062312	19.8449570466	8.77663875952
124	37.901266786	5.45992402606	19.8880134595	8.7930852176
125	36.9975188621	5.41380043191	19.9152640328	8.79209459574
126	36.8716635176	4.6993158303	19.9799494051	8.79209459574
127	35.1207824517	4.69814387071	20.1032878483	8.84853793965
128	31.66324088	4.67432581349	20.1128211047	8.84755352658
129	27.0887999773	4.65038576803	20.2176691094	8.57784624362
130	23.971743133	4.62751198976	20.6174403421	8.55813885501
131	22.0357005952	4.71335661602	21.1289166397	8.49689935117
132	21.1928256471	4.84851686343	21.7726954595	8.47700377884
133	20.7282538639	4.68627257181	22.3354873568	8.42571741037
134	20.3636801505	4.68627257181	22.4440199955	8.42571741037
135	20.0480614468	4.77106004906	22.4779431924	8.3635083429
136	19.7133174452	4.80013700079	22.4922358385	8.20762173254
137	19.3355984633	4.85550108736	23.5068562006	8.29622042939
138	18.87098387	4.85550108736	23.9949637195	8.27584242815
139	18.2545486832	4.96437729985	24.1195658855	8.31654849867
140	17.9669040876	4.97371179839	24.1195658855	8.3242895212
141	17.6679751176	5.00491264832	24.0945521453	8.56647319642
142	17.0544055683	4.99296476248	24.0878098092	8.71594402932
143	16.9641161812	4.98587574327	24.2340904915	8.72791892365
144	16.7418851484	4.97988254664	24.6305427709	8.71594402932
145	16.4712505578	4.91218160502	24.9923054644	8.74445701383
146	16.1252303149	5.03217570423	25.5811286027	8.73250479824
147	15.5650800512	5.02185342249	26.1153841595	8.72512595607
148	14.6318872407	4.99406753683	26.1974687808	8.66506669747
149	14.6318872407	5.00004373095	26.282085947	8.66506669747
150	14.2631678145	4.99894227495	27.0215512881	8.51102300105
151	13.7043642099	4.98855122726	27.447226262	8.27899925634
152	13.1490068663	5.46643706232	27.5391670452	8.26152945631
153	12.7484993653	5.51953105302	27.5495185911	8.16189942113
154	13.324496031	5.41340920095	27.5479495391	8.11162553143
155	13.766302555	5.41035662851	27.5396739911	8.22351528915
156	13.7689517055	5.4299336482	27.522734993	8.22351528915
157	14.1385012672	5.43644365517	28.1325456897	7.67293817735
158	14.3472734746	5.43543063361	29.2088123254	7.51129683065
159	14.5613886271	5.43543063361	29.3392556174	7.37872670341
160	14.6839740894	5.47735224851	28.7000753908	7.2425282316
161	14.6972982745	5.32083148921	28.1754107105	7.10494495905
162	14.9014594106	5.32083148921	27.7733573698	7.10494495905
163	14.8619372105	5.34691957777	27.7474671598	6.7769143614
164	14.8540831104	5.37185598863	28.1603891568	6.71990927408
165	14.8462248553	5.38807548907	28.9452533206	6.63702399607
166	14.8198323011	5.41282230148	29.0870063642	6.4394774809
167	14.7883014251	5.34751371018	28.6589413416	6.28433750785
168	14.7883014251	5.50327564259	27.3109909018	6.07533378632
169	14.2255166353	5.55064004762	26.2774682028	6.13832780365
170	14.2255823757	5.57565298174	26.2549092785	6.323545766
171	13.971344367	5.60055420538	26.3682745539	6.26686678
172	13.7527533858	5.60546827863	26.4163405074	6.39608364823
173	13.6033903486	5.60546827863	26.156710147	6.54857681864
174	13.2958872158	4.82386073318	26.1238539659	6.7475719112
175	13.0693831341	4.68916417189	26.1030857161	6.93760508085
176	12.9606380308	4.68279124903	26.0492993625	6.97339317709
177	13.0463154194	4.69385922278	25.9542326644	7.18849339687
178	13.0466738271	4.6950322519	25.969217361	7.46550592955
179	13.0621695043	4.69620498801	25.9426857557	7.50735932474
180	13.0685057528	4.75162113697	25.6458131028	7.51593381642
181	13.0684341918	4.75162113697	25.165220718	7.5277369789
182	12.9120450901	4.61362311466	24.6335074787	7.5277369789
183	12.9120450901	4.60355853291	24.1176512359	7.51917594696
184	12.9149607856	4.59347189909	23.9710968061	7.51454096181
185	12.8588867036	4.50900887585	23.8828448949	7.52634630862
186	12.8579412134	4.48961471946	23.8217024091	7.56786323898
187	12.8792943389	4.45480625453	22.7510835405	7.5381331673
188	12.8792943389	5.16567743085	22.2536108207	7.60389031595
189	12.8579412134	5.16567743085	22.0931402124	7.60389031595
190	12.6819691119	5.1566904349	22.2236946542	7.60389031595
191	12.6165771162	5.10459407381	22.5917222013	7.34207353787
192	12.5980646503	5.09441852787	23.432499632	7.17298010872
193	12.5794505982	5.09549934552	23.5670269676	7.14940124224
194	12.5515895232	5.11628128198	23.0759178492	7.16399515201
195	12.5425869941	5.44539679249	22.7050847692	7.16399515201
196	12.6534275936	5.45852736437	22.089603633	7.25526071765
197	13.2770172925	5.50727669276	21.5565688333	7.2983198976
198	13.2177021826	5.58593771333	21.8836881652	7.32474741092
199	13.1285475939	5.73810773549	22.3709073304	7.57338367705
200	12.9627115633	5.84963807165	22.1110696156	7.57338367705
201	12.7976686903	5.92375464851	21.5671776322	7.52981736487
202	12.7361213369	5.6593537417	21.5631314644	7.52981736487
203	12.4938456123	5.78274359252	22.0020782362	7.52981736487
204	11.4175290795	5.7907590638	22.4119502461	7.49668602809
205	9.41517710444	5.85958649646	22.7433999297	7.2983198976
206	8.74369140647	5.9147378181	23.0652231077	7.2983198976
207	8.17723583921	5.93225795961	22.9153124102	7.40957084618
208	7.93130577096	5.94099865516	22.1609912432	7.40957084618
209	7.7647622643	5.94880089588	21.8258391874	7.40957084618
210	7.88119891164	5.91899747749	21.8910603111	7.41074627741
211	7.92726496715	5.95527717242	21.9439540897	7.40745668901
212	7.64753115984	5.99999181527	21.976682345	7.60297590919
213	8.10579815637	5.99999181527	22.0799754346	7.79359164647
214	8.53950787007	5.9776763037	21.550863823	7.58073460545
215	8.8409599817	5.95527717242	20.5734179814	7.55842785509
216	9.43103472558	5.99670805898	20.1315673416	7.58073460545
217	10.1120626385	6.06319807685	19.921491352	7.67543717343
218	12.4524094387	5.92218127056	19.8790341818	7.76898541949
219	12.9761800067	5.8856975746	19.8942493087	7.76898541949
220	13.6630814623	5.87085302374	19.8449976333	7.57890009406
221	14.0521043848	5.84710304269	19.707419002	7.70689812353
222	14.383814283	5.82420176507	19.4071206513	7.70689812353
223	14.662165341	6.02391252303	19.4370208518	7.64316705699
224	14.9433913749	6.35574829199	19.4687369135	7.49274084407
225	14.9194438538	6.36044519669	19.4692747298	7.34136592036
226	15.9604541072	6.36773351973	19.4716740368	7.34136592036
227	16.3113465657	6.36044519669	19.4725702538	7.5138392889
228	16.8064242526	6.36044519669	19.4408604459	7.6175932456
229	17.2804155557	6.38142232513	19.4243226914	7.57634883099
230	17.7038377659	6.38142232513	19.3992197519	7.56784279084
231	18.2133547022	6.33033816982	19.3698017765	7.55932717937
232	18.8755941067	6.51539643246	19.3446280871	7.55610227672
233	19.6965122548	6.53587625829	19.3317581343	7.5528759971
234	20.4403179078	6.60145958006	19.3423934671	7.51266968841
235	21.0419037029	6.65943628488	19.3365905771	7.5265592579
236	21.3951306159	6.74808834384	19.4270454116	7.49341351576
237	21.6586269138	6.75216731958	19.4470602037	7.42667825001
238	21.866474913	6.36453966582	19.4118651796	7.35933784658
239	22.002252501	6.55774564798	19.2913711163	7.31544722008
240	22.6358472139	6.57809362772	19.0585942666	7.37445911351
241	22.7932662832	6.59921336294	18.5882681163	8.10106887283
242	23.0285249217	6.62026572308	17.5022804604	8.14905483789
243	23.2342036873	6.64042212782	17.1634434065	8.16974909459
244	23.3872757427	6.6314216076	17.18848457	8.16655003521
245	23.5594916292	6.4240612942	17.1672597744	8.13387059189
246	23.7119333678	6.31918701687	17.1008998716	8.0504055013
247	23.470333378	6.41805807158	16.9779997967	8.0172526506
248	23.6001940119	6.35058101962	16.4316956036	7.9931150847
249	23.7425070292	6.23010915493	15.7135303715	7.73614681568
250	23.8724643102	6.13397549868	14.792987859	7.78213205813
251	24.0001491821	6.08533919239	14.8258920416	7.85294037272
252	24.1714234247	6.33197737271	14.7645934264	7.9231159038
253	24.3414925588	6.21949344926	14.6488892879	7.96453114731
254	24.5361294934	6.21949344926	14.5377314696	8.04672218605
255	24.623299629	6.14983809884	14.1132560514	8.18506259715
256	24.7835891938	6.07938471545	13.5761077314	8.33928213273
257	24.9270360824	6.06501424608	12.4310857519	8.22790807416
258	25.0727776863	6.05645253295	11.3126683147	8.33928213273
259	25.1453317225	6.04878915203	11.4261586342	8.39876912281
260	25.2364769221	6.10389648203	11.4862703806	8.43599360034
261	25.5095811936	6.08286757335	11.4251012192	8.43599360034
262	25.6905384824	6.11058965227	11.4794431273	8.24756155074
263	25.7121033813	6.13152348498	10.959494336	8.16099065115
264	25.807372941	6.20138455269	10.8821274764	8.16099065115
265	26.0591929508	6.27046732659	11.4721437639	8.15992329281
266	26.236252799	6.21683669049	11.8429598862	8.13813383788
267	26.359629889	6.25050718381	11.9778718123	8.04887717127
268	25.7109299654	6.31170841374	12.0482044654	7.96670836515
269	25.587477626	6.37232188024	12.0649725574	7.71721051117
270	25.3309686379	6.50358563125	11.8054040433	7.61045802018
271	25.2040502473	6.57032949171	11.9447643347	7.50543471549
272	25.137992572	6.70463545806	12.0196919305	7.43997810771
273	25.0764894992	6.54623773875	12.0631699372	7.39562596889
274	25.0338248079	6.56387925215	12.0122067922	7.32800021715
275	25.1286691842	6.57967110723	12.0402018952	7.30158447712
276	24.7271347573	6.61232689308	12.1522885502	7.2817701246
277	24.5987455957	6.6517989357	12.1603719062	6.81323180738
278	24.4292323798	6.65876836653	12.3359517721	6.38813434904
279	24.2829990257	6.6386676651	12.5313903545	6.43699663725
280	24.1948347771	6.93937537462	12.7257473574	6.46317501121
281	24.012598213	7.31160706036	12.9997024909	6.48924777946
282	23.5819035148	7.18449469763	13.4451924156	6.51895605518
283	22.9681428802	7.1723387641	14.2316361842	6.54852955674
284	22.5474223521	7.14873522824	15.1574174982	6.59989775607
285	22.213284742	7.12505350015	15.9812589788	6.64955947128
286	22.0254200599	7.04114924682	15.8970722215	6.7868841433
287	21.9660401755	7.27181367157	16.72021276	6.85984640233
288	21.9948517311	7.28316385372	19.2167561992	6.96435864302
289	21.9046097417	7.0380202432	21.2450425537	7.1058907877
290	21.2777627252	7.02561087952	22.1469576132	7.26433212287
291	21.4001776217	7.01317955831	22.3524296467	6.5856667649
292	21.464806055	7.03142673044	22.363561308	6.54217985729
293	21.5586357964	7.03142673044	22.3761512986	6.51631888167
294	21.7759996416	7.024043091	22.4212203503	6.54244849331
295	21.8956291538	7.2286669441	22.4157473802	6.56104879044
296	21.7905143592	7.21626257434	22.4205976727	6.57959650536
297	22.3994068605	7.181428151	22.4510766071	6.58224359172
298	22.5964488249	7.30450664206	22.4454554183	6.60758058716
299	22.7691924094	7.40752566572	22.4793764489	6.60758058716
300	22.9302961105	7.43654701794	22.618837172	6.51526371338
301	23.0902757986	7.65530684611	22.6897666206	6.45217233623
302	23.2031302222	7.61227486823	22.7564050738	6.335375555
303	23.1792312067	7.5406832931	22.4407181748	6.25629979571
304	23.2065366011	7.61908847505	22.1047303912	6.16718687947
305	23.267886724	7.70271906101	22.0585765633	6.00646667814
306	23.1689985238	7.73662995578	22.067897781	5.7306150533
307	23.1450642649	7.74790060507	22.2317148795	5.84430752375
308	23.0731125232	7.74790060507	22.3701032266	5.76000472281
309	23.1501864613	7.98799088344	22.3727554594	5.79885822923
310	23.0731125232	8.07753201521	22.2764253332	6.02267590942
311	23.303449217	8.06096989607	22.3030087555	7.97265278892
312	23.2473339887	8.03997560206	22.2692892667	10.2303893533
313	23.3000570063	8.0240222665	22.2498101498	12.9292515684
314	23.3000570063	7.97597080537	22.3186284415	15.0086399673
315	23.1107658797	7.92107989617	22.1003817494	16.2472221736
316	22.8819032026	7.99575583578	22.3444287191	17.1278156854
317	22.6786699452	7.93208846615	23.055804371	17.8480632877
318	22.218411295	7.91075214195	23.882698754	18.3832717707
319	22.5455035146	7.86200842063	24.3479551261	18.8575119115
320	22.5665711305	7.75377562794	24.3794274077	19.1208732651
321	22.6068992976	7.69801574205	24.2556178031	19.180318864
322	22.585869299	7.58060195011	24.2085851229	19.180318864
323	22.585869299	7.71779981725	24.6938032749	19.1748727065
324	22.585869299	7.4196102819	26.2443642325	19.1748727065
325	22.5191101314	7.40157611214	27.3909825107	19.175689527
326	22.5507204255	7.36612291534	27.5388355755	19.1905695144
327	22.5278836865	7.33049825482	27.5305572879	19.1939254815
328	22.4592341464	7.342392347	27.4733994126	19.3651962003
329	22.3638394796	7.59531170823	27.3432552093	19.3724741218
330	22.2609356557	7.43526528254	27.2502987647	19.3872030746
331	22.1450223455	7.09153327357	27.1202917061	19.4130423839
332	22.1450223455	7.14476408094	26.9188983342	19.5037490665
333	22.3071323325	7.1748483492	26.5258481221	19.5576679929
334	22.1629043591	7.19836626031	25.9996255337	19.5440448385
335	22.0375104259	7.32523791849	25.5015135739	19.5418163774
336	21.9294287766	7.81978893832	25.4853795266	19.4985655816
337	21.7772133077	7.66423797638	24.9869121297	19.4717646263
338	21.5799301368	7.56544367485	23.4113278394	19.4370469875
339	21.5560215719	7.60461967026	22.5323785975	19.385752578
340	21.6330629988	7.6550025065	22.7680703345	19.3155857694
341	21.369732877	7.68308912068	23.4718464444	19.27887096
342	21.0899589894	7.66639316027	23.8523382673	19.304855271
343	20.7949782399	7.64822089464	23.9579329739	19.3395375875
344	20.4319732864	7.84458633104	23.9930279367	19.357978353
345	20.1529551406	7.7540760908	24.0484883577	19.3970526335
346	19.9987954213	7.7540760908	24.1742584557	19.3957054544
347	19.2917999999	7.67704965192	24.2159812301	19.4157968661
348	18.9039794057	7.56617151804	24.226256628	19.4157968661
349	18.5144897651	7.44741864302	24.3289043402	19.4231463123
350	18.1448632486	7.41144175322	25.0468180933	19.4198299573
351	17.7698257786	7.20307238974	25.6371330039	19.4198299573
352	17.4181194101	7.03410703134	25.8163168709	19.4210849686
353	17.2323711628	6.94910476712	25.7739138632	19.420636475
354	16.9166419036	6.87575254891	26.1305538575	19.7380201691
355	16.7511866342	6.78193197929	26.6884673472	20.0431733908
356	16.5890154644	6.74322172495	27.7110523396	20.0013543853
357	16.3938758745	6.72781377487	27.7528560929	20.4058636231
358	16.2111929293	6.78505421999	27.7008871556	21.0897130243
359	15.8899209933	6.49983944088	27.7769048752	21.7417482815
360	15.799948658	6.32826346785	28.4306299007	22.0356711784
361	15.0811294791	6.32826346785	29.3357048516	21.4116276773
362	14.7649036409	6.2867604041	29.9965952414	20.5456245704
363	14.4032610726	6.26546635033	30.4194997134	18.9147027131
364	13.9926808142	6.27937809822	30.6756795392	17.3192868184
365	13.6770910093	6.38145551466	31.0436396515	16.1724335275
366	13.3864210614	6.32180076271	31.6315750857	15.2812127049
367	13.2507794767	6.34203746692	32.2828239189	14.4366944048
368	13.2896378973	6.34203746692	32.1684771828	13.7543976637
369	12.4714184958	6.40236380387	31.8019153148	13.5191364464
370	12.2527327451	6.41597872428	31.8600632443	13.2238860022
371	12.0464099235	6.41597872428	32.0508159447	13.1506237292
372	11.8765705583	6.76626786313	32.0583624814	13.1637185188
373	11.7244300824	6.91313872047	31.6515828594	13.1799716362
374	11.4607875922	7.07565656141	30.4512829766	13.2176907446
375	11.4354779369	7.08220889647	29.4321002045	13.3415629698
376	10.8375001226	7.08220889647	29.2536796685	13.9598925178
377	10.5480626805	7.08220889647	29.91619369	14.3673036182
378	10.2968013462	7.08220889647	30.0160381015	14.4130340161
379	10.0631251362	7.02928778	30.1762105999	14.4710114323
380	9.79165468144	6.98925065306	30.952211516	14.4740206299
381	9.75111206238	6.97089308072	31.7986226545	14.4276469367
382	9.47865009999	6.87837034484	32.2871897963	14.3434332086
383	8.89184095148	6.84698353576	32.4244347267	14.279946998
384	8.64719551334	6.79060825654	32.4351392552	14.279946998
385	8.33874160236	6.61325571605	32.6650422475	14.2581112362
386	8.12625874545	6.19301137162	32.7439499527	14.2581112362
387	7.9776126057	6.20278467487	32.7027055958	14.2793370295
388	7.84199466057	6.13293955615	32.5172553669	14.3078329736
389	8.04164227208	6.06228978818	32.0502965838	14.3278919892
390	7.66235084259	5.99080690329	31.7294063196	14.4169086799
391	7.52067727326	5.94602318945	32.5817989061	14.5312762777
392	7.42434865614	5.94602318945	32.8604120941	14.6179831633
393	7.39641986591	5.94694923575	32.8043156831	14.7041787689
394	7.31455098659	5.73223594627	34.1261400265	14.7898720336
395	7.16061786986	5.53037974619	35.6007061002	14.772561097
396	7.312632929	5.51457880747	36.3783850004	15.0206330667
397	7.06325307798	5.53037974619	36.4969249536	15.2442488775
398	7.07922701287	5.54613566823	36.5069133825	15.2348836265
399	7.06166406866	5.54613566823	36.3805916212	15.3055574735
400	7.09463773665	5.81393779656	35.8250959556	15.335210613
401	7.10524397787	6.025740533	35.5321562516	15.3178326102
402	7.03857724734	5.91355602458	35.5321562516	15.3172639727
403	7.09981111821	5.97820774992	35.6467018189	15.6033528728
404	7.18217465887	6.02770853916	35.3871252194	15.191858768
405	7.14921229777	6.04983950404	35.2720107058	14.7753846966
406	7.17666972727	6.04983950404	36.5881535665	14.7753846966
407	7.17666972727	6.19061695403	38.045264794	14.192628238
408	7.17666972727	6.13628847219	38.880735928	13.1383126375
409	7.26009359937	6.15892340011	39.3288856704	12.0455331096
410	7.2028540733	6.16644991277	39.1188383265	11.7381332993
411	7.00884460955	6.17396725006	38.4475882845	11.7326448958
412	7.05901492494	6.17307525969	37.8395369423	11.5223077603
413	7.07565931159	6.21533750505	37.4532513809	11.6278730347
414	7.04794105987	6.19379790679	37.1869078466	11.7809042586
415	7.07579148075	6.19379790679	36.8437575301	11.9667881092
416	7.38655107414	6.15138767843	36.2293015299	12.0407429924
417	7.19447187756	6.11627135668	35.2862645802	12.0361162744
418	7.0933194458	6.08095224836	34.820555193	12.2958000443
419	7.0933194458	6.01465850006	34.8186738023	11.9866980662
420	7.0933194458	5.99147858527	34.832465738	11.9405758825
421	7.04326070972	5.99147858527	35.1209828942	11.9077310825
422	6.99284363403	5.60214230039	35.4370046799	11.8633564895
423	6.87996628255	5.19698915683	35.6500608046	11.851906502
424	7.12719643613	4.96301188477	35.7229241108	12.1778740527
425	7.04392457031	4.95254545129	35.7566684392	12.0687508921
426	7.1105411658	4.95254545129	35.7911610974	11.306964059
427	7.14342013685	5.12938723855	35.2567763609	10.7763193713
428	7.19788468139	5.31453853972	35.1566872773	10.4015121088
429	7.24597202064	5.19576639942	35.0193020699	10.2742148637
430	7.34387648943	5.120336548	34.3460620748	10.2960474659
431	7.15120832648	5.14530083797	33.5884537445	10.323060477
432	7.30341924066	5.19592945037	33.1820080199	10.2692981496
433	7.41530670219	5.23722043788	33.1035524465	10.2552193909
434	7.55709941001	5.22835641829	33.1470115076	10.2670956798
435	7.70129233109	5.73267931	32.9758034566	10.3016263406
436	7.87803064468	5.58445878958	32.9648754182	10.4456016643
437	7.87803064468	5.58445878958	33.0288693895	10.5747881081
438	8.14305365629	5.69803051191	33.0594190543	10.53785394
439	8.04810169284	5.77313968635	32.9212493185	10.8816159759
440	8.2078733909	5.88307008119	32.6325602321	10.9629008549
441	8.27455898803	5.92832937371	31.2858042762	10.8518328052
442	8.33134135447	5.96994727845	30.8704374065	10.7014588684
443	8.33134135447	6.04167697175	30.9881358908	10.5352365357
444	8.66519567831	6.02043073895	29.5992158381	10.3802772382
445	8.79123246306	6.0349073726	27.8873179997	10.5096051154
446	8.79123246306	6.0349073726	26.9763055182	10.2644393853
447	8.81357589831	6.01272144743	26.7631474377	10.6687456784
448	8.9112634688	5.9904533562	26.8767863995	11.9663927682
449	8.990324537	5.98953403611	26.9715776832	12.9611929347
450	9.05571592794	5.72994468716	26.9836991862	13.940077077
451	9.04282026636	5.46752181407	26.7331859463	14.5041887702
452	9.31319309595	5.41290055843	26.4748780079	14.8148182946
453	9.37643278197	5.34141080709	26.3853340009	14.8236346776
454	9.430871056	5.25909363328	26.828844869	14.9304622191
455	9.51817478822	5.2336199759	26.5916774868	14.9542286206
456	9.57180695893	5.23256768796	23.8421156741	15.0101157878
457	9.61692449313	5.05933371237	21.4649816383	15.4584798668
458	9.7200849773	5.05933371237	19.9792237665	16.1163911984
459	9.94736390445	5.03284907599	19.0301593312	16.2390561657
460	9.85183195424	5.02362446282	18.5107322673	16.9927088925
461	9.9234964559	5.02362446282	18.365732954	18.0276677564
462	10.1005722673	5.31780543037	18.687476156	18.7133133813
463	10.2168264097	5.42173631702	18.7104777417	19.3115389207
464	10.3849186264	5.50061949373	19.339728241	20.3200722358
465	10.96143946	5.54602110243	21.1794039345	22.1273810805
466	10.6775527194	5.70449446178	22.9090082194	24.6585363588
467	10.6387160788	5.85076037641	23.8134735771	26.543633853
468	10.8441540314	5.99345784167	23.9794059035	28.8634169973
469	11.0885407784	6.1355290845	24.2619151362	30.117646881
470	11.2857934345	6.57058736958	24.1424075097	30.5794832873
471	11.4210614623	6.61030865552	23.7771990096	30.6654320741
472	11.4039100056	6.66820842254	23.8116132417	30.6755908588
473	11.8077795183	6.73250278054	23.4894435691	30.7958232703
474	11.8077795183	6.82780922955	23.7143916616	30.7287139842
475	11.9073774993	6.89141367512	24.2241398313	31.0874564287
476	11.9073774993	6.91077927828	24.2935099346	31.5491591311
477	11.9073774993	6.95285258883	24.4921888793	32.0743953236
478	11.8941721642	6.82551338155	24.7688500882	32.5220898783
479	11.9371340209	6.75768570217	24.8276601656	32.9012288862
480	11.8929927138	6.73262861487	24.8263949217	33.3487839205
481	11.9787708055	6.71356937235	24.9147960484	33.6528481466
482	12.0050587369	6.68140843353	25.1719944444	33.9057598193
483	12.0280038279	6.68140843353	25.1065490368	34.0885445279
484	12.1161654514	7.01767789356	25.0569349324	34.2703543479
485	12.1713384732	6.87747732645	25.0072223944	34.3376376305
486	12.2681377055	6.84608642321	24.9200110649	34.3463031929
487	12.280940933	6.7587198973	25.0241368109	34.3947678857
488	12.3162140625	6.67020914112	25.6852396799	34.4123744875
489	12.3162140625	6.60447472701	26.8748883624	34.353443083
490	12.2905916688	6.51133177058	26.9549988296	34.3275898186
491	12.3097944711	6.51133177058	27.4374819521	34.351919529
492	12.3513107434	6.45166326211	27.5159545226	34.3783589671
493	12.4085481075	6.3918022343	27.4140462201	34.3815480155
494	12.1585736648	6.37813570639	27.2422678789	34.380534651
495	12.2457953079	6.36443983205	27.1087462855	34.3901003039
496	12.2457953079	6.37813570639	26.8813411419	34.3566765905
497	12.3131565874	6.39905484276	26.9984804477	34.1666102799
498	12.367450834	6.4199058149	26.8766665275	33.7702338114
499	12.4151426171	6.51978342104	26.7773486026	33.3845345504
500	12.3961030107	6.56065175423	26.7773486026	33.0212216123
501	12.8734368022	6.61898591066	26.8092737195	32.8131865629
502	12.9498164364	6.63831671691	26.7617529906	32.6758207247
503	12.9498164364	6.67068541424	26.7054831096	32.5449890962
504	13.0014522543	6.71063480445	26.2743006966	32.5425803049
505	13.0589381122	6.80543835626	26.1088860383	32.5994416185
506	13.1101441488	6.80543835626	25.8786810586	32.6076084336
507	13.1820838791	6.84379670656	25.6713233341	32.4430921388
508	13.6022815224	6.84379670656	25.5545092559	32.1611493745
509	13.392564651	6.84379670656	25.5730249746	32.1307693231
510	13.524364552	6.85057081118	25.9454280944	31.8737598662
511	13.6346853403	6.84379670656	26.392740636	31.3617543728
512	13.6664649036	6.62563823569	26.18578306	30.9969708127
513	13.787118937	6.50531141016	26.4745839184	30.602769508
514	13.847051722	6.83528090283	26.37042286	29.8931526906
515	13.5794303738	6.76755111899	25.0211432769	28.5005112115
516	13.7091610369	6.63368884627	23.311147081	26.2837391327
517	13.7378917783	6.50505094457	22.2412170339	24.3789105642
518	13.8094909808	6.36567100568	22.0234100968	21.4288331267
519	13.9742312156	6.23150282314	21.8320257385	19.5282195224
520	14.2676456808	5.79024699123	21.9038483453	18.7700996721
521	14.7169111673	6.18603076943	21.6827270251	18.6312210169
522	15.1655278613	6.26005539534	21.1691588441	18.63355838
523	14.924346164	6.18996688087	21.2550994922	18.4534249694
524	15.2538151437	6.0931999247	20.843139722	18.3291558174
525	15.3953554555	6.02978127937	20.313624886	17.7057309696
526	15.5887582954	6.01529230909	20.1637887416	16.8683754098
527	15.8371150187	5.83822177298	19.9118395255	15.8479027318
528	16.0472516974	5.90929244277	19.5666229762	14.9113353915
529	16.1134377525	5.94470510562	19.4919460314	14.0668966551
530	16.6338976965	5.97306845569	19.5019571086	12.9254671417
531	16.9952588858	6.09862000626	19.4776710114	12.170122824
532	17.1224098117	6.23564799347	19.2509830476	11.5443077221
533	17.2096811579	6.3358228159	19.779192255	11.2742655924
534	17.2919956865	6.03304703411	19.8803306889	10.7395873438
535	17.3670944813	5.79580421529	19.9059463762	10.4795441547
536	17.5636447271	6.10545772172	19.9035994192	10.2933535412
537	17.9215397819	6.2020334291	19.7907402705	9.99878712066
538	17.8752732943	6.33682559121	19.1824682808	10.0040124683
539	18.3975000762	6.43799221486	17.4734179194	9.85942407996
540	18.6635972478	6.53218101033	17.0542706896	9.75131725752
541	18.8716302932	6.55800402068	15.9295497742	9.66525921438
542	19.1682344759	6.73681126818	15.48371814	9.59005092699
543	19.4603184949	6.74567117202	16.1377216723	9.61289700763
544	20.1593179361	6.7775271761	18.2271376259	9.65896492035
545	20.2296339293	6.80923414816	19.7050483995	9.58479940842
546	20.6217828553	6.79640706338	20.3541467692	9.5689871308
547	20.9143539261	6.79640706338	20.2344076416	9.40477344165
548	21.1861497787	6.83998913034	20.221864999	9.29212644223
549	21.4029042504	6.7448547885	20.2331338232	9.22670872291
550	21.6557151968	6.70593050799	20.187980888	9.07491642685
551	21.5954919926	6.64054970703	20.1509623229	9.01970352125
552	21.4948175437	6.60803339503	20.1500962788	9.04918450929
553	22.0190652056	6.57535628602	20.1801728428	9.03706045177
554	22.3127988734	6.54251597066	20.8444793041	8.91899134865
555	22.455564393	6.45103949472	21.3948857771	8.6515113969
556	22.5607111513	6.45103949472	21.9036522286	8.46664942238
557	22.578181101	6.53697794538	22.0955219194	8.25238623678
558	22.2881130277	6.53697794538	22.1354623187	8.09587003183
559	22.2825408483	6.53697794538	22.0157530078	7.88875004023
560	22.3048212138	6.53697794538	21.6255571488	6.71518844556
561	22.3501212618	6.576902219	21.2037794945	6.42806455064
562	22.3315825655	6.56984594341	21.1322455567	6.25792325023
563	22.2437578834	6.63059115725	20.7579768237	6.25792325023
564	22.1644181332	6.80322835494	20.3494504207	6.22976665911
565	22.0254037018	6.90096516182	20.3494504207	6.24511495321
566	21.9949629061	6.96390147339	20.5816899451	6.23618985763
567	21.9958557764	6.99476366955	20.8057770627	6.23228033322
568	21.85021519	7.12184240431	21.0361950467	6.66732220247
569	21.6689275533	7.23952893147	21.0152408575	6.74157857186
570	21.4566592804	7.34720801184	21.0152408575	6.72606818469
571	21.1901547717	7.2454069269	20.8942790074	6.68895695012
572	21.0162495972	7.12053376493	20.8252660952	6.62384072073
573	21.0668302384	7.2855480525	20.7575370679	6.5580779735
574	21.0668302384	7.36666919912	21.1296663271	6.89777694849
575	20.9993177753	7.41866821838	21.1296663271	7.01538264302
576	20.8957711957	7.44764615138	21.2927076612	7.01885599058
577	20.7252523814	7.46483138086	22.1199924551	7.02009684265
578	20.5572553704	7.37775862708	22.735725531	7.00992420194
579	20.463153782	7.5997720347	22.7524287906	6.98953450455
580	20.067905309	7.62734007359	22.9661161827	6.96558698712
581	19.7109329346	7.54433375071	23.2187336203	6.82242110696
582	19.6005812156	7.4432084841	23.173419835	6.73847246106
583	19.524000005	7.34069024911	22.8368904722	6.22920240657
584	19.3821195167	7.3176297631	22.750587902	6.14876136576
585	19.2535671738	7.26534487922	22.7385122275	6.14111469998
586	18.9441439023	7.32214353917	22.7485344274	6.14111469998
587	18.6808286085	7.27021157918	22.7326904771	6.08587534568
588	18.7516125449	7.1830795311	22.676817975	5.99422935795
589	18.1617653873	7.11214085909	22.7763585908	5.91059128232
590	17.9266120926	7.04048745818	22.8570203965	5.8546646817
591	17.8352438937	6.97903098756	22.9321658459	5.73814224857
592	17.6026239069	6.90087308844	22.9663967481	5.67591621699
593	17.3417834338	7.08899419404	22.6026053522	5.61300038659
594	16.6103555785	7.08899419404	21.2668686575	5.5087584283
595	16.4005465295	7.11279598096	20.4430936062	5.23061473961
596	15.9478412193	7.2306297502	20.3858846724	5.31839691905
597	15.4865257071	7.30041714801	21.2143242584	5.31839691905
598	15.0506676064	7.36324706956	22.4810484661	5.31348143853
599	14.6527586029	7.56701125011	23.4944493083	5.29970259843
600	14.252125375	7.60152757011	23.5594271323	5.29476976278
601	13.9251047847	7.75631553813	23.8140034643	5.18413280331
602	13.9251047847	7.86451337622	24.0658869604	5.11857615819
603	12.9717329078	7.97124272384	24.0658869604	5.18245237882
604	12.3168147885	8.04545307776	23.4771761408	5.08068603449
605	11.8834843061	8.1189851515	23.5120295162	5.10869996258
606	11.540238704	8.22872045516	24.404930248	5.14638383856
607	11.351139507	8.23741555885	25.9371898572	5.11687420439
608	11.330559691	8.30924904869	26.3341530915	5.11687420439
609	11.4445981867	8.34069432919	26.3850592643	5.09027132462
610	11.170901712	8.36647936439	26.3382512242	5.06215541362
611	10.9452282756	8.36647936439	26.1691065027	5.35230717333
612	10.8762326458	8.41781248771	26.2669526556	5.33765533293
613	10.8762326458	8.37202150218	26.5001777601	5.28390717178
614	10.8762326458	7.93438444467	26.9861865059	5.26311659815
615	10.8800377662	7.87621952584	27.3984602576	5.23592891464
616	11.2111699046	7.83840109252	27.1108359155	5.37374827358
617	11.0183980925	7.83840109252	27.9362685776	5.66053597437
618	10.9865790277	7.75765343589	30.6029234594	5.26973219247
619	10.8681657107	7.64187672208	32.1523234597	5.17439668863
620	10.7231139989	7.54205944229	33.35714007	5.17439668863
621	10.5009791087	7.63990868165	33.6556975462	5.1619341326
622	10.204290239	7.75642476292	33.7530549755	5.14944141507
623	10.0020769128	7.60236339687	33.7590440053	5.27567326795
624	9.6838958279	7.53537293486	33.4851500576	4.84465444807
625	9.49994177125	7.48418480679	33.3911042779	4.70354862347
626	9.39244658254	7.46704411891	33.3757353711	4.76969966559
627	9.34261646514	7.438141758	32.8283442047	4.9188244068
628	9.34311695002	7.47399012543	32.4467670091	4.93684073427
629	9.34381758381	7.36784788399	32.5011841263	4.93684073427
630	9.22543469701	7.33930520029	32.5875665396	4.94177520979
631	9.3034343221	7.4637815193	32.6923186246	5.08585694541
632	9.154257311	7.56463176713	32.7642863475	5.18314551331
633	9.03786811515	7.581551828	33.1219010376	5.18314551331
634	8.94629639483	7.66415507259	33.2846312515	5.27832300084
635	8.88496986461	7.95901107794	33.3673603195	5.27832300084
636	8.88496986461	7.6634365355	33.3680925164	5.27667257251
637	8.68152380039	7.74516651787	33.4459275524	5.27667257251
638	8.45028288041	7.79393443594	33.7664154956	5.25684173454
639	8.45484800749	7.79393443594	34.811363172	5.26577264954
640	8.24569801006	7.79393443594	35.9669129382	5.26080799932
641	7.86667263239	7.82745016794	36.3989626325	5.25186864182
642	7.54240704914	7.74516651787	36.7445498141	5.23693580316
643	7.28022204624	7.66702854755	36.8451566089	5.20493094011
644	7.09802392748	7.65029753673	36.8908816171	5.20994883682
645	7.50526360265	7.59377786593	36.7435780126	5.36955253911
646	7.27983666619	7.47945733527	36.552224174	5.28262048948
647	7.26340265525	7.39330171764	36.107734236	5.4662648628
648	7.26340265525	7.27172629381	35.4181953572	5.95109378077
649	7.32878999311	7.06445267748	34.8380611315	6.22137211915
650	7.37741849429	7.23976297272	34.8778811585	6.40337751626
651	7.47372633921	7.16444999693	34.8067739647	6.75345681974
652	7.3354557509	7.04550948057	34.7205463556	7.04981177113
653	8.39330238774	6.91702850955	34.7379094744	7.08159221957
654	8.46430234146	6.82815043835	34.7366651228	7.15495565618
655	8.58133028074	6.7328488193	34.3686924454	7.5318560846
656	8.77391253507	6.5991170794	33.4237969728	7.57541067207
657	8.93554559416	6.4617664604	32.1308811552	7.61780364415
658	9.05926666664	6.4617664604	31.7603521288	7.58115744256
659	8.96864339532	6.42026870199	31.7170838748	7.56851901082
660	8.9954606681	6.38404376667	31.7110393877	7.87287985706
661	8.9954606681	6.35021415017	31.7061369196	8.15737623929
662	8.92910437935	6.32354265973	31.6537882011	8.1552404368
663	8.92910437935	6.41683694926	31.4405075747	8.14028363383
664	8.92910437935	6.47221386106	30.996660079	8.1184414673
665	9.01771290676	6.51084384063	30.4832444813	8.15267293897
666	8.4738276795	6.58826012447	30.4685148072	8.06055405144
667	9.08321600051	6.6455233857	29.5092809107	7.86380061623
668	9.14433796622	6.70229741746	26.729710851	8.2568386296
669	9.17474625288	6.76626786312	25.439417341	8.26463557922
670	9.10938801647	6.84079416049	24.1068506555	8.26252750252
671	9.0962600161	6.67563664036	24.6560580975	8.27031908889
672	9.18776210831	6.59876402776	25.735311686	8.27031908889
673	9.20075955087	6.69515186058	25.8299680055	8.19037217036
674	8.80408538535	6.71426338362	25.8331796002	8.16973015292
675	8.82660818996	6.77127431359	25.8349878952	8.15202619246
676	8.84907366935	6.79017158681	26.5239958273	8.14775122275
677	8.96055624043	6.82181978947	29.651207835	8.05860107852
678	9.01364037272	6.8030104286	31.6095587024	8.04757655771
679	9.01364037272	6.59674164071	32.0519970405	8.04454738712
680	9.104534785	6.59674164071	31.8626586157	8.06550979053
681	9.70651766234	6.43568894378	31.5011466228	7.97544039763
682	9.70651766234	6.33709297116	31.3279284961	7.82072850495
683	9.76373847755	6.33709297116	30.9068564262	7.82072850495
684	9.78828212464	6.20230661991	30.8888348129	7.79709967268
685	9.80864057877	5.92818646699	30.7865014447	7.83718243709
686	9.80864057877	5.97310391424	30.8238384057	7.85980625292
687	9.84837664991	5.82100076717	30.7241636091	7.87109377559
688	9.7747264822	5.70891099477	30.2196061359	8.16802792901
689	9.88414445403	5.68545310021	28.9600160985	8.28231102946
690	9.9642637781	5.66092534133	27.4818512284	8.30288483051
691	10.0437440076	5.61449139105	26.8960389062	8.36263073428
692	10.091131667	5.99147858528	27.1570439115	8.44094629416
693	10.0713442633	6.05179967337	28.4718674852	8.52895766049
694	10.2005717799	6.05179967337	29.3688438737	8.5936146005
695	9.89261100153	6.07384285919	29.6957503239	8.5936146005
696	9.94071914192	6.09090536133	29.6957503239	8.82663884891
697	9.98859558142	6.19519974358	29.6822489689	8.89989408074
698	9.96473304041	6.21673448478	29.6822489689	8.79938210832
699	9.96473304041	6.38663096977	29.6660627623	8.84299231585
700	9.92878460285	6.50879413543	29.6660627623	8.92508918748
701	9.8686111328	6.47646658902	29.5917135548	8.87737337736
702	9.85267366002	6.64966527618	29.4868362651	9.03306973246
703	8.97325746758	6.68974019438	29.4372172228	8.9599312078
704	8.91993301256	6.72431849775	29.4383298969	9.04808754693
705	8.86193467856	6.7449803924	29.4963859733	8.80294135719
706	8.67184676918	7.14224392507	29.5209788505	8.80294135719
707	8.63520123408	7.23215275492	29.5455512572	8.78651334769
708	8.50520384799	7.17956989438	29.5746063165	8.8221019069
709	8.60255992321	7.19892527415	29.6367712399	8.82407630197
710	8.64402557315	7.2310691114	29.7253179154	8.74283128913
711	8.54240706891	7.22465178507	30.0274849757	8.29997680514
712	8.45827622967	7.18755993593	30.0663271019	8.33200477902
713	8.3543986737	7.30827507003	30.0947634079	8.36391010889
714	8.3543986737	7.35075286123	30.1023365348	8.42425716976
715	8.51416292139	7.24692682607	30.1015249009	8.45025567421
716	8.51416292139	7.19445194718	30.0972166318	8.50671274458
717	7.87095116106	7.11136654633	30.0713808392	8.6979374323
718	7.81010419579	7.02729887598	29.9142641258	8.48644423144
719	7.77436013989	6.98488562257	29.5882203073	8.51572567888
720	7.77436013989	6.89927695462	29.4288069647	8.51020606467
721	7.75873256788	6.67598562669	28.6819308831	8.53940603366
722	7.98525412974	6.61863391886	27.8885984067	8.57602009409
723	7.98443428294	6.52027068202	27.9989929848	8.74843156074
724	7.97971723392	6.47914764331	28.106470523	8.89484525275
725	7.90448406684	6.41145464128	28.1994514026	8.93175586555
726	7.84389722856	6.41145464128	27.4562924071	8.95628131196
727	7.71629836125	6.37049358192	24.0367408116	8.99119792828
728	7.71629836125	6.41696897369	21.3306522975	9.01266284134
729	7.76117433363	6.43690648974	20.5555188037	9.03407675404
730	7.684775296	6.39057609498	20.453387347	9.38655150704
731	6.74577663432	6.41059569573	20.6131947263	9.59036327577
732	6.74005403015	6.41059569573	20.6560015492	9.60795364679
733	6.65081269915	6.39057609498	20.744974224	9.62551187192
734	6.61463768211	6.39991533723	20.5687455922	9.66791664191
735	6.57812156977	6.53519571171	20.6039972345	9.71013622939
736	6.94754039908	6.56100685671	20.5775935207	10.1508112499
737	6.92488340388	6.62717243931	20.563262665	10.2103099361
738	6.8682543286	6.69268392403	20.5769541962	10.066430409
739	6.70422106217	6.69961082341	20.4749296622	10.0401119272
740	6.58412696133	6.70735161643	20.4621277069	10.0401119272
741	6.45597180523	6.92963232178	20.3907306316	10.0072901796
742	6.40034616823	6.61341584476	19.3352159534	9.9663294818
743	7.28073585459	6.439242217	16.8506827546	9.89111616079
744	7.13650080308	6.42567658818	14.8165267779	9.97522588626
745	7.13650080308	6.41208225949	14.0549242023	10.0401042206
746	7.05801245279	6.41208225949	14.4798487859	9.90992281517
747	6.9728416742	6.54711123849	15.0928228802	9.7607244673
748	6.89248990459	6.52666666666	15.5973434566	9.60341174854
749	6.80511042741	6.53931031713	16.1747294853	9.40857595632
750	6.78752710309	6.36570427733	16.8239420156	9.24527320371
751	6.78656256711	6.30502719273	17.9404071727	9.19504794052
752	6.75208458786	6.13632298758	18.1662167828	9.08899195958
753	6.7516690622	6.10111995835	19.5020259428	9.34731714805
754	6.73939646195	6.06571262791	23.3668241671	9.28622200972
755	6.65000567787	6.11450505081	25.9640476354	9.26200933156
756	6.63796777771	5.75774747336	26.9811718345	9.26200933156
757	6.48596954652	5.64440172045	27.1923642077	9.25072583327
758	6.49191612925	5.59783070858	27.2145307992	9.23509440739
759	6.26772777985	5.58222069866	27.3333068525	9.24639698093
760	6.17150892138	5.54350005564	27.2369849258	9.07480802206
761	6.15135486584	5.62067460278	26.9775794036	9.06770773322
762	6.13159213913	6.01743972097	26.8525313839	9.05176026009
763	6.15610566042	5.90068425038	26.8359890349	9.03578464092
764	6.03804630834	6.28841096644	26.9637525397	9.01534098272
765	5.8557779984	6.50446485885	27.4712689493	8.96519120378
766	5.87551343961	6.56245934862	28.0971459562	8.93329524124
767	5.89470688289	6.73344648073	28.454237947	8.83040366679
768	5.91383803391	7.00175470854	28.9433796158	8.68210264624
769	5.93290749528	7.36710044716	28.9480821997	8.83316334656
770	5.95238721522	7.7904009381	29.1150436215	8.9442018661
771	6.37395273206	7.94081498721	29.4627798711	8.96480775388
772	6.04683467706	8.02109184608	29.5520114152	9.36276121639
773	6.02734988436	8.10125296411	29.6867531175	9.3015868909
774	6.03359348265	8.11841122529	29.593591572	9.24018939398
775	6.03359348265	8.15126839246	29.969391672	9.24018939398
776	6.01985712952	8.4520117166	30.1335544511	9.22019896717
777	6.01908032283	8.70699742248	30.3089746556	9.24018939398
778	5.98459704555	8.68756445338	30.4445991621	9.24018939398
779	6.24556692484	8.68756445338	30.515154913	9.39765545829
780	6.214147142	8.67216745342	30.5109050502	9.19788929154
781	6.22020324329	8.64192838435	30.4173108011	9.00395215281
782	6.22020324329	8.61696763012	30.4541835425	8.98517940013
783	6.28267626278	8.60683509922	30.5314273831	8.97354781773
784	6.30107476827	8.62043258122	30.4717749778	8.91164784479
785	6.30719567686	8.47373480931	30.9270639319	8.83750449882
786	5.884226695	8.47373480931	31.940841973	8.3073194721
787	5.86420163491	8.47373480931	33.0053854466	8.28655393017
788	5.90386703869	8.42274251626	33.2503483486	8.36454047255
789	5.94326772123	8.44827713542	33.2478532272	8.36454047255
790	6.00235121897	8.45859960455	33.4617376103	8.41330319882
791	6.04110961261	8.30904513174	33.4859358029	8.4523169301
792	6.41947170281	8.30279775016	33.6258333365	8.50057615019
793	5.59556574998	8.31330086027	33.8741720217	8.78634854765
794	5.56740950739	8.31330086027	33.9530056444	8.60721613416
795	5.60917407633	8.31330086027	33.8380823717	8.5003784993
796	5.64346561721	8.32870011117	33.5216116704	8.5003784993
797	5.6639408882	8.25341832994	33.3026462827	8.56525117897
798	5.69790283693	8.39554107927	32.9810381859	8.56525117897
799	5.84078830357	8.39554107927	32.6215995109	8.56525117897
800	5.82013177408	8.39554107927	32.1940394196	8.59142771108
801	6.01962753225	8.52986159444	31.5836084241	8.4453267634
802	6.15489695362	8.69036762384	31.508586225	8.30754965745
803	6.24354845861	8.85781918805	30.7079495569	8.01361202947
804	6.36815786175	9.0634556466	27.8878282441	7.96240192155
805	6.53862268588	9.04478856991	25.4257043506	7.9077787762
806	6.69857846692	9.10456063833	24.3138473092	7.86606473415
807	6.71611617385	9.20255099719	24.0556658296	7.85476998462
808	6.87234999589	9.29891670313	24.0286973554	7.8687159172
809	7.03046770541	9.3401646076	23.8344007943	7.86539442079
810	7.14676062456	9.4610836432	23.9644653791	7.87534488255
811	7.28305889741	9.42036520833	24.1571935268	7.89344675953
812	7.39538086721	9.2615564854	24.2961179583	7.89013567403
813	7.5795027681	9.33637695817	24.3044374512	7.88682319845
814	7.64145172921	9.02887478994	24.1626165032	7.86516113271
815	8.10240158338	8.88892027772	23.5790996272	8.4021073588
816	8.30395603802	8.84619093743	22.8298472735	8.44117283559
817	8.48688384281	8.71674625619	22.4807260153	8.3628593972
818	8.6249161805	8.51298528828	22.5285534519	8.31380080943
819	8.84586144913	8.26047229092	22.9581303212	8.17572300132
820	9.07439328094	7.85661871374	23.2017874829	8.09290674148
821	9.30620935242	7.704561099	23.1208537375	8.07007487474
822	9.28505146003	7.62703461801	22.9075784032	7.88018425121
823	9.42387528345	7.54871196963	22.5791810677	7.79422842654
824	9.56884991144	7.53098696115	22.679978884	8.07007487474
825	9.71553681392	7.49541119792	22.1122109687	8.02920405223
826	9.82418615398	7.24204447862	21.9082482526	7.98703365945
827	9.89595635895	7.14864634609	21.7023687433	7.92445647273
828	9.967303613	7.17225017446	21.5644885714	7.91126551019
829	9.88988166375	7.19577657717	21.5176002	7.72355448589
830	10.1025405958	7.28426882334	21.6021546754	7.61461366852
831	10.2070712986	7.37169885663	21.5696672044	7.61461366852
832	10.3142841037	7.56838261212	21.4895330109	7.7431462362
833	10.3827571303	8.04800620283	21.2479994843	7.82766217834
834	10.4770418108	8.09222835013	21.2768521873	7.84609806893
835	10.9155169369	8.2457162175	20.5603639556	7.92951678542
836	10.9117241888	8.33645258493	18.9077014387	8.02010193796
837	11.0977958808	8.42621192839	16.9777625933	7.96368729803
838	11.2703664123	8.56546807518	16.4468840379	7.77388104576
839	11.4781907702	8.58517741986	16.4593835556	7.80784222325
840	11.5397596341	8.94130462488	16.5719247873	7.71476516416
841	11.6416508354	8.9238773429	17.1785631324	7.64996112729
842	11.9922729029	8.99599755538	17.1785631324	7.55171244258
843	11.8990870198	9.02896862041	16.8403231665	7.4437567318
844	11.9716234655	9.09455216117	16.685203406	7.65018074969
845	12.0698695171	9.15966613344	16.685203406	7.563681905
846	12.1673222987	9.29554516664	16.7085029204	7.47618234241
847	12.2735885813	9.72624751943	16.4934235228	7.3876465044
848	12.3215677716	9.6888300202	16.4798094567	7.32874079819
849	12.4646973871	9.59326813008	16.4798094567	7.30566466308
850	12.5125416971	9.49674468809	16.4826439329	7.21503670306
851	12.5125416971	9.37628555794	16.3973310145	7.38551559477
852	12.5345578514	9.24159372594	16.3253262617	7.52744183171
853	12.5753321105	9.07611239389	16.6345365398	7.52975571032
854	12.6503135725	8.93751382437	16.748257323	7.49662410106
855	12.6752088246	8.97306051964	17.220584529	7.48477187508
856	12.7000552759	8.85533212228	17.8183101321	7.46847247294
857	12.7005707238	8.75749546097	18.5464503086	7.47173519791
858	12.7005707238	8.6551036824	18.9444709026	7.74400412593
859	12.7005707238	8.61057470253	19.3342994832	7.97194290889
860	12.6819596418	8.47753312593	20.7181152016	7.96211316914
861	12.6601998226	8.47753312593	20.6143148203	7.94416775953
862	12.6415293061	8.6373686805	20.5345840241	7.92618172041
863	12.6134346424	8.59878451869	20.6530898568	8.0319913006
864	12.7717962101	8.59878451869	20.7495034173	8.1364250037
865	12.5694168801	8.61841767278	22.7278004718	7.89076466306
866	12.5159987903	8.63800620317	25.7371790155	8.03374161101
867	12.4876217111	8.70653523681	27.0188188049	8.22707242974
868	12.5819878608	8.79314363776	28.1026493534	8.3085514882
869	12.5819878608	8.76358787415	28.75833349	8.36721601594
870	12.6538808376	8.8363931652	28.8344684767	8.38923923249
871	12.9315640734	8.9086034771	28.5448069627	8.43785922485
872	12.9013277126	9.00296372479	28.3327699024	8.16356501101
873	12.9926894552	9.02685719903	28.2881977425	8.14584765141
874	13.0199657833	9.07445541149	28.2226915668	7.80202724385
875	13.0199657833	9.10386272953	28.4793725249	7.78862893571
876	13.0441555596	9.0105591769	28.7726976281	7.83186770403
877	13.0893819692	8.87031568838	28.9322833127	7.83186770403
878	13.2391386132	8.87031568838	29.0193991883	7.8225260861
879	13.1406828771	8.8367526886	29.1062543247	7.80091077055
880	13.0594393951	8.79376986721	29.1351484981	7.86468469763
881	13.0594393951	8.72592595737	29.2226151047	7.84917425276
882	13.0594393951	8.55047047856	29.2322511299	7.7212786423
883	13.0383095725	8.12719828656	29.204096566	7.62394907108
884	12.9989876278	8.19097810761	29.1842047796	7.58159046165
885	12.6609384883	8.00380434235	29.1842047796	7.48453706114
886	12.7268373794	7.85459662019	29.2014947587	7.42499027383
887	12.8379273619	7.70178412694	29.1578730689	7.43787259358
888	12.7331201588	7.54587764347	29.1491703713	7.51540435617
889	12.5930417444	7.49255670888	29.2482276223	7.38290798549
890	12.5523250124	7.07643478159	28.9293972055	7.3796059877
891	12.4578843091	7.15157887352	28.5749265795	7.3796059877
892	11.9241184984	7.06064410652	28.4273150875	7.3796059877
893	11.9272757011	7.16640083726	28.3480694772	7.15103525032
894	11.9848011229	7.08065363982	28.2841828029	6.92850154557
895	11.8759510446	6.98879608959	28.3546604327	6.91567572811
896	11.7760872727	6.76845864087	28.4436681938	6.90282607964
897	11.7056357807	5.99409389243	28.8627417482	6.90030197588
898	11.7291666302	5.96412618054	29.1254158204	6.88742364515
899	11.5394953524	5.9251131387	29.3842709865	6.89424260108
900	11.4875177403	5.88864760745	29.568033054	6.89171535361
901	11.4875177403	5.9251131387	29.6296227944	6.76167629789
902	11.5149272293	5.9251131387	29.618611358	6.45346220082
903	11.5729669524	5.9691312472	29.4515784315	6.45346220082
904	11.5422716292	5.86081531054	29.3822882154	6.46962617104
905	11.606986614	5.76098361705	29.1879763398	6.48333445718
906	11.5559600288	5.94035691934	28.8612161827	6.48602083029
907	11.6875416991	6.29312447341	28.390561812	6.49594360451
908	11.7462412403	6.30049067264	28.1600459312	6.3851436695
909	11.7025786097	6.30049067264	27.9276274269	6.27265464546
910	11.7025786097	6.31432525527	26.9138012965	6.27265464546
911	11.6520509108	6.30697521409	27.0457043588	6.29951599878
912	11.6959021708	5.95001128516	27.1025556777	6.29951599878
913	11.6689177872	5.75292666021	27.3566449124	6.1513207205
914	11.4953728678	5.68571386129	27.7786059704	5.98464940522
915	11.7700881904	5.61475544775	26.2789598637	5.55942695903
916	11.8268757918	5.55662750152	23.5451779562	5.55942695903
917	11.8001909193	5.44559126244	22.5017592258	5.38284047525
918	11.6995206398	5.2783087972	20.6707097208	5.33346021946
919	11.6081951241	5.22592529595	19.1014273309	5.14507780292
920	11.4129699179	6.30868763241	18.2388734386	5.06013304283
921	10.8638250855	6.26742666786	18.1386475806	4.91529732225
922	11.1888138607	6.21755208338	18.1797641858	4.94460387646
923	10.9652150122	6.26854174732	18.3670047255	4.94460387646
924	10.8568912732	6.26063053136	18.4218847473	5.00199929511
925	10.8278161627	6.27968165165	17.9822159564	5.07934787319
926	10.7986627686	6.36410704154	17.5602454541	5.01728109341
927	10.769430455	6.3580472108	17.5536851956	5.01728109341
928	10.5176315008	7.10594399464	17.7275523286	5.01901681946
929	10.7949155971	7.08633465342	17.822257429	5.01728109341
930	10.9328134779	7.05353127372	17.8442980088	5.09919483606
931	10.8678066548	7.05353127372	17.6969940182	5.2299722797
932	10.787850805	7.05353127372	17.6673858408	5.23163744062
933	10.7476498242	7.02292733606	17.7138864266	5.23629411881
934	10.7476498242	6.91975312166	18.2269166786	5.2502393721
935	10.787850805	7.01172981559	18.8165478386	5.25189810716
936	10.7209183987	7.01834183302	19.072366495	5.23098031479
937	10.7723183815	7.02573146415	19.1420888735	5.20362472966
938	10.7978833167	7.02573146415	19.1675285698	5.16029146185
939	10.8233878674	7.02573146415	19.0478991408	5.22065831268
940	10.8705824172	6.99815413641	19.1194239897	5.31974767216
941	10.9247250664	6.90519921014	19.1509370297	5.41252358743
942	10.9570651687	7.02371139859	19.1782549765	5.44810635823
943	10.974914971	6.85239465318	19.1887934982	5.48345823334
944	11.0912612988	6.90348135869	19.1739287278	5.48504644105
945	11.1548821539	6.93653633676	19.0577771961	5.91826498021
946	11.137320789	6.96864437245	18.8945196676	6.24037857277
947	11.1055056176	7.04481803738	18.5045670161	6.24316948823
948	11.0415155647	6.96852279997	18.1654925914	6.27404307962
949	11.027273395	7.1655141575	17.7539301388	6.2665492889
950	11.0307720762	7.21209367652	17.4436919057	6.2551512873
951	11.0984700069	7.22863764446	17.3415642414	6.14311767553
952	11.165757493	7.22330312899	17.3270051243	6.14311767553
953	11.0273582019	7.23982148186	17.3032506088	6.16009603748
954	10.9197365881	7.27059028743	17.3810755377	6.13120358573
955	10.7232961344	7.42040951473	18.3459580032	6.11670618217
956	10.646143373	7.26333313504	18.7691315064	6.10616716255
957	10.4896899027	6.98764439645	18.8094265941	6.09161017518
958	10.3974324301	7.06361316901	18.9994068889	5.81530400486
959	10.3407101411	7.08860578405	19.4272112502	5.60962405654
960	10.2954706464	7.10123314704	19.4028315955	5.88316229144
961	10.3537957547	7.13259982383	18.9715766871	5.88316229144
962	10.3283087062	7.13182773235	18.7554658518	5.93618259439
963	10.3946867696	7.24175201805	18.221952025	5.97796888069
964	10.3612232097	7.32335831124	17.4449693351	5.99280191806
965	10.0105210108	7.31852695307	17.2962048188	6.04630137682
966	10.3659156105	7.30401370389	17.0284015119	5.7985284567
967	10.3978117053	7.29916954143	16.3082138091	5.69004672871
968	10.5581074779	7.29916954143	16.1037967664	5.55725537845
969	10.7931789733	7.3204656654	15.8013969933	5.56570426056
970	11.0482230242	6.44992312882	15.7954830364	5.55255135503
971	11.3365044591	6.78989085572	15.8036906049	5.55098246139
972	11.6146348277	6.70308738726	15.7755666299	5.49266062818
973	12.2357203321	6.62298450331	15.4935465462	5.80511273152
974	12.8520485148	6.56971699119	15.3756624841	5.73755661907
975	13.4638559416	6.51058359638	15.466976422	5.66919554155
976	14.242027989	6.45553583644	15.3614248442	5.71810827812
977	15.1844125472	6.42000478614	15.0123460001	5.79701278686
978	16.2549645154	5.81841686027	14.557257348	5.82158071124
979	17.3169871524	5.83756873871	14.1884072637	5.90057770154
980	18.4872550451	5.8706004862	13.9893076111	5.64178414553
981	19.6316878827	5.90064835665	14.0300118874	5.5688055224
982	20.9898509024	5.91860385606	14.1751931764	5.59437571788
983	22.2582615056	5.92868662546	14.1416103347	5.60276862342
984	23.5792998538	5.92868662546	13.5169475549	5.58690015634
985	24.7584239687	5.85785126127	12.7216537951	5.58690015634
986	26.2884831021	5.86803841987	12.3348199876	5.58690015634
987	27.9944268138	5.95829939557	12.2858361013	5.58253594421
988	29.2633923716	6.0557880576	12.2358004148	5.50434631735
989	30.5366036096	6.14597967113	12.3759979831	5.44264800866
990	31.7588127444	6.17736249603	12.2615116349	5.34583719061
991	33.0531154499	6.23965463678	12.2085177507	5.24724053107
992	34.200443053	6.11173334655	12.1335392073	5.2102861615
993	35.5826450334	6.17468760976	12.0855833983	5.17609467683
994	37.4799553494	6.12996888397	12.0751378541	5.22962142945
995	38.3999467742	6.09834217055	12.0937113397	4.76896266446
996	39.5440344844	6.07910600062	12.108687086	4.35936961385
997	40.6977878651	5.98199736337	11.7858523128	4.33895615783
998	41.8159646963	5.96423271505	11.6857652034	4.2998645353
999	42.9998060371	5.8746037312	11.6693495069	4.2998645353
1000	44.2484862594	6.00955037815	11.6693495069	4.2998645353
1001	45.0770226835	5.96820864274	11.6656447366	4.2998645353
1002	45.9293618797	5.95317849189	11.6656447366	4.34256445714
1003	47.0526071125	5.91144253224	11.668452186	4.37570860472
1004	48.149656172	5.88144980866	11.6633660637	4.39238695463
1005	49.1852547695	5.69650632951	9.84120653333	4.39793234916
1006	50.1608638768	5.79229500988	8.86355384978	4.39238695463
1007	51.1542368099	5.81950879189	8.74677223264	4.4608063329
1008	52.1931951831	5.71799311537	8.14037054765	4.4608063329
1009	53.2273615212	5.68407459293	6.83879370355	4.48221611388
1010	54.0921177195	5.66343151417	6.48511569855	4.2734677187
1011	54.93024761	5.62289738785	6.50239767395	4.95266285058
1012	55.7557800197	5.62289738785	7.10171797426	4.88720613452
1013	56.5524467253	5.59094039858	7.08589784708	4.83240055556
1014	57.3650190598	6.10431285166	7.08639039273	4.81399337752
1015	58.0129975638	6.11010438397	7.08688290414	4.74332385608
1016	58.8536187064	6.1149899699	7.05464591776	4.70759128281
1017	59.4621253697	6.12077139942	7.05464591776	4.72788365317
1018	60.1256146427	6.15802923064	6.86911256881	4.74662477225
1019	60.8039655809	6.20950768852	6.88796485647	4.73671512272
1020	61.4748316351	6.13487317403	6.88270078298	4.73855362083
1021	62.1097818952	5.68973551763	6.86911256881	4.75029338629
1022	62.7162243191	5.75730604011	6.80897074011	4.76200420981
1023	62.9931288296	5.81517625675	6.75314496316	4.36971512274
1024	63.4535579647	5.82827321977	6.75954271286	4.51778616104
1025	63.9248917051	5.83433877284	6.48478449387	5.18513482767
1026	64.3233241954	5.80110055307	6.58939077216	5.22726843373
1027	64.6985087873	5.82503809957	6.59932491565	5.13962452983
1028	64.9839530948	5.96874093195	6.63324876027	5.10700986806
1029	65.1862930163	6.05764141219	6.64311731868	5.01240551364
1030	65.659563457	6.02837610957	6.62198715131	4.99326955825
1031	65.7011117228	5.99123113225	6.58661957073	5.55968741217
1032	65.7474428819	5.98125379683	6.26194090158	5.66299196888
1033	65.8177791941	5.9634869335	6.20097600393	5.87866641018
1034	65.8177791941	5.89921242796	6.14189789483	5.91144399181
1035	65.8652283899	6.0114179881	6.10374911738	5.91144399181
1036	65.7155614672	6.24148732758	6.03967682456	5.88281093957
1037	65.3934464202	6.19027481877	5.93429328014	5.88281093957
1038	65.0836763881	6.16610643657	5.939810269	5.89610822283
1039	64.9559561892	6.07893179736	5.52892144415	5.92878937739
1040	64.8279843642	6.04118616792	5.42197928901	5.97965496178
1041	64.6936505727	5.97774716592	5.27866436759	5.99157707329
1042	64.6147512447	6.01000852488	5.27866436759	6.01940082901
1043	64.3178667819	5.98366120128	5.27866436759	6.04450587977
1044	63.6690822162	5.96590150736	5.32101468509	6.02200231362
1045	63.3596145042	5.95996984921	5.35014933989	6.00608389164
1046	62.9444396202	5.94121255169	5.37912619665	6.04738719266
1047	62.5783625916	5.94121255169	5.23848344882	6.05141616867
1048	62.2323780402	5.94121255169	5.20377361767	6.05141616867
1049	61.7353845685	5.82765541421	5.24048188053	6.04997664316
1050	61.1095868677	5.73382450762	5.34909541593	6.05256498583
1051	60.7688825159	5.70950455378	5.39089246247	6.05659051747
1052	60.3968019551	5.69420069336	5.4971695871	5.97382560904
1053	59.7212154424	5.68936326147	5.5319313034	5.91967118149
1054	59.0720616661	5.68645882705	5.27917295797	6.22747206833
1055	58.4502053263	5.68645882705	5.34517902184	6.22747206833
1056	57.8558435173	5.6024825479	6.14639868379	6.23138460941
1057	57.2207712488	5.53941046617	6.13573126742	6.18653133496
1058	56.5254407011	5.60879228458	6.09904077808	6.19833907787
1059	55.749118509	5.62726504921	6.15626267049	6.17527024491
1060	55.1607776384	5.60739493124	6.15626267049	6.05313292139
1061	54.5856632782	5.60739493124	6.17503040102	5.47609567933
1062	54.0461576446	5.60739493124	5.50819632524	5.47768602175
1063	53.3664734926	5.49194921433	5.50819632524	5.81195200815
1064	52.6457137623	4.83732113056	6.03723142386	5.82421741595
1065	52.0564271963	4.88502928457	6.07831609334	5.82690604294
1066	51.131217086	4.93227599613	6.17276910778	5.83496449072
1067	50.5140621698	4.97132656254	6.26524140689	5.80625697784
1068	49.7439768746	5.05460102235	6.53481171667	5.79515340528
1069	48.8833236341	5.06657077015	6.51493758921	5.79515340528
1070	47.97420446	5.1566904349	7.05506453556	5.91849656887
1071	47.0812105599	5.23956547481	7.62564975857	6.03153576679
1072	46.1546411163	5.19209639939	8.23357013072	6.03442327264
1073	45.6591017719	5.16903840425	8.30380182305	6.00927609976
1074	44.88054413	5.31880103448	8.30380182305	5.89581013711
1075	44.0316647006	5.53137537871	8.78594321549	5.31512043713
1076	43.192617078	6.06382681237	9.51485846028	5.24788087696
1077	42.4033705459	6.04941938512	9.72672313048	5.24622087174
1078	41.5618582309	5.59749017831	9.71481921971	5.76050747967
1079	40.7437359984	5.48183587443	9.74269180142	5.78944185034
1080	39.4043482156	5.48183587443	10.20427957	5.80595427904
1081	38.7880180376	5.49029066921	10.4630520211	5.20457840179
1082	37.9871504136	5.79821556203	10.7965253502	5.06215541362
1083	37.1296674497	5.79821556203	11.1715993979	4.79841430794
1084	36.2920942667	5.79726575729	11.5642387226	4.77659831419
1085	35.4741137868	5.64042284068	11.9330031498	4.87971185052
1086	34.6411692412	5.36499127799	12.2550943639	5.26111264953
1087	33.7853297237	5.32158773506	12.7747888055	5.32491477361
1088	33.2789693771	5.24570611524	13.2885857283	5.29639994298
1089	32.3567180149	5.28660833704	13.8809143183	5.26276795752
1090	31.3960102197	5.49183351814	13.892108659	5.20490120888
1091	30.3112275218	5.49083071565	14.2766901021	5.20490120888
1092	29.1656741955	5.45852736438	14.4795521159	5.40827209519
1093	28.143717563	5.42603170166	14.4802752382	5.60426779491
1094	27.0262191413	5.47406450157	14.5237815456	6.14218375473
1095	26.4336695571	5.48353560111	14.4976008337	6.15775035453
1096	25.7431193756	5.5320645578	14.8895350183	6.12998115076
1097	24.820957593	5.53305988714	14.9584362625	6.15321977791
1098	23.8414501786	6.01095994881	15.0126321413	6.16085141924
1099	23.0134199889	6.04539176491	15.0060852963	6.16988549718
1100	22.4202490855	6.01057234983	14.9706003648	6.19438068241
1101	21.6017795098	6.11713700662	14.9556001388	6.20196167461
1102	20.7605283848	6.17965923033	15.1907694852	6.20953341146
1103	20.2209830025	6.35154811929	15.1781450472	6.20701052545
1104	19.5939706642	6.84042261989	15.1788348885	5.911404725
1105	18.9462191266	6.99518756778	15.1437547503	5.93549918283
1106	18.3164640663	7.23112769088	14.8378210134	5.94341039505
1107	17.5413688674	7.26312901391	14.837115317	6.0265930187
1108	16.7510920194	7.21687889708	14.891608497	6.21569477203
1109	16.1950020605	7.23461231605	15.0571500858	6.22324980004
1110	15.4279990362	7.23537343933	15.0506226056	6.22576610536
1111	14.5746602108	7.25457993554	15.271097239	6.25254780979
1112	13.5021854335	7.41661239172	15.2635179595	6.32478846164
1113	12.9773174483	7.42286376321	15.2784443178	6.05740990106
1114	12.5664305678	7.39378870306	15.1024079112	6.15942490804
1115	12.277371147	7.35829798565	15.1007900861	6.15942490804
1116	11.8958162471	7.32896678829	15.0648331917	6.15037546491
1117	11.6415634004	7.30479659016	15.0539580379	6.17748402463
1118	11.5473502451	7.27600656988	14.8982597106	6.18508572691
1119	11.5831618404	7.21840480309	14.9013950252	6.20811808649
1120	11.7545356751	7.11264709492	14.6706098595	6.11403109718
1121	12.1360629811	7.05181952218	14.4085846167	6.01847342263
1122	12.2318416708	7.03708729027	14.1307086512	6.05393999216
1123	12.2302359979	6.99978823901	14.0961818217	6.05393999216
1124	12.2640536979	6.8712537717	14.1365783722	6.24500344612
1125	12.3236894009	6.71268598151	13.8835638808	6.34400256386
1126	12.5037321281	6.71268598151	13.3945366735	6.46629370447
1127	12.35840625	6.74469778034	13.2502238376	6.65388831617
1128	12.468784047	6.75157131536	13.2417514649	6.41141308234
1129	12.4460504466	6.79023396992	13.3184941915	6.57758528442
1130	12.6649072617	6.84661233104	13.7740266271	6.62478516014
1131	12.8401663785	6.96894829434	14.764011524	6.85718235884
1132	13.1070919203	6.8821259117	14.62977934	6.92437471088
1133	13.3597470348	6.94444001975	14.3451660698	7.09987609669
1134	13.6168343877	7.02826326338	14.0151543507	7.11089784858
1135	13.7362904422	7.34942734535	13.7338929943	7.06078017293
1136	13.7445111287	7.43609131511	13.6935829187	6.79085526171
1137	14.1261785639	7.55106842066	13.4607389122	7.37005257369
1138	14.4403757397	7.70227910617	13.2655333328	7.3905710151
1139	14.8118050081	7.78360124141	13.2655333328	7.41103264866
1140	15.1117536469	7.67509063051	13.4656047268	7.47534251247
1141	15.3080677955	7.68184852154	13.2857366786	7.52963239971
1142	15.5403925225	7.73172812204	13.0643503431	7.40327583429
1143	16.1135538282	7.75953702323	13.2244047056	7.25603766647
1144	16.4812453459	7.74300590639	13.9621055011	6.78572281565
1145	16.7893690307	7.75426728838	14.5994677007	6.83148478554
1146	17.0457393032	7.72643942046	15.1186121572	6.80928185529
1147	17.2731599691	7.72643942046	15.6921583895	6.79520796098
1148	17.4819673437	7.47132589053	15.8988285482	6.80928185529
1149	17.8922730804	7.57134838214	15.9270382919	6.84319567176
1150	18.0831159196	7.52040512728	15.9241049187	6.86300710092
1151	18.558989995	7.44096019439	15.9479440027	7.2538787619
1152	18.9273004962	7.38911805084	15.7017879306	7.24619626107
1153	19.4049244201	7.22723112157	15.7155463852	7.25603766647
1154	19.7555658615	6.76636176815	16.582144428	7.23634147139
1155	20.1412943094	6.66665189299	17.4056493553	7.23634147139
1156	20.3323633764	6.39339255112	17.7881794174	7.249559024
1157	21.1055160684	6.35144808133	17.9107366931	7.20040654963
1158	21.4283480294	6.34414104916	17.9469008688	7.63089931083
1159	21.6937051139	6.3027425389	17.7759195061	8.18323119051
1160	21.8892366188	6.30186877589	17.9684449034	8.21825268368
1161	22.0973499224	6.34884654095	17.7688193869	8.21825268368
1162	22.3035214132	6.15967990368	17.7840735904	8.18025225337
1163	22.5008211812	6.58526971574	17.7738804005	8.14506737069
1164	22.6319671288	6.98497658853	17.7524934597	8.06819818701
1165	22.9867645785	7.11145589442	18.1565930255	8.53167881105
1166	23.2513339971	7.22931150636	19.0173306805	8.55246567466
1167	23.5096044411	7.31105666233	19.0877604644	8.55246567466
1168	23.8397090811	7.45796204101	19.0864804523	8.55246567466
1169	24.2240338675	7.62928359517	19.2702193839	8.53576150028
1170	24.6840724163	7.96590033678	19.3481252351	8.51800207792
1171	25.0571381927	8.07703381022	19.3565879379	8.500205551
1172	25.3499687077	8.12652069128	19.3123467609	8.46737918233
1173	25.8907676726	8.23548696446	19.46784052	8.52188508792
1174	26.2089439287	8.28763148705	19.8242740872	8.38287819537
1175	26.5396543246	8.32671635235	20.3926528942	8.31972442464
1176	26.7662141514	8.2835671196	20.461694714	8.24152705663
1177	26.9411101774	8.46538252145	20.5219108612	8.14785296921
1178	27.3482346627	8.49078890894	20.5519527737	8.03122886062
1179	27.47473889	8.49078890894	20.5691763317	7.91288607372
1180	27.9646677764	8.47085995119	20.9885358191	7.87341195235
1181	28.2105781548	8.3961969639	21.0450888374	7.67911721004
1182	28.4363339456	8.28574014267	21.2969816988	7.6561890224
1183	28.6010189654	8.2653167954	21.5466401461	7.49372770355
1184	28.7935677998	8.24723153449	21.8551820679	7.49372770355
1185	28.9753234084	8.11026753603	21.8444304561	7.49372770355
1186	29.3406537434	8.03665570011	22.0290049162	7.52687206212
1187	29.4976429763	7.92426112664	22.9273886458	6.93994838289
1188	29.6458033031	7.77352677479	23.8873186216	6.91809356448
1189	29.7216011738	7.65727092896	23.6326572925	6.93769111681
1190	29.8977155701	7.62300701426	23.636349193	6.89263431411
1191	30.0031265184	7.80137672068	23.5687471298	6.89263431411
1192	30.1081684174	7.75194528442	23.5766742023	6.91809356448
1193	29.9622945237	7.73539794349	23.4872717979	6.93769111681
1194	29.8990061772	7.73539794349	23.0211232983	7.11163927799
1195	29.9965394437	7.75194528442	22.6242016785	7.04746892505
1196	30.1147310752	7.82823481741	22.0032252429	7.50255203244
1197	30.338042064	8.44138011327	21.5628450914	7.49303440778
1198	30.5403465658	8.38925712543	21.4087979033	7.47279731065
1199	30.6822148258	8.38925712543	21.5737370362	7.44175328997
1200	30.8400640794	8.48939191192	22.0313082524	7.42348655037
1201	30.8682143972	8.55911091751	22.681778156	7.20695084982
1202	31.0404001158	8.7717528002	23.5203752265	7.23154660726
1203	31.0696409933	8.87279855422	23.7360396684	7.22504600389
1204	31.2154345155	8.91787068522	23.3398534719	7.22504600389
1205	31.3668508909	9.17516840316	22.7323479747	7.20405613305
1206	31.7956820637	9.30322046987	22.7007092101	7.18421742722
1207	31.5263164487	9.33190691628	23.2154494653	7.16092099708
1208	31.6088587547	9.3599171382	23.5860101507	6.86658006237
1209	31.6874445382	9.38784378725	23.6120060932	6.21343234288
1210	31.8117782442	9.4162724343	23.5902670272	6.19154278142
1211	31.9418150867	9.4162724343	23.6842008439	6.19154278142
1212	32.0158805478	9.42119703833	24.0210312236	6.16449604583
1213	31.9702315153	9.19366290364	24.4013876413	6.21091104063
1214	32.246891353	8.90358565892	24.6808182241	6.24807358886
1215	32.0811817528	8.81806205361	24.6264221063	5.63026002978
1216	32.0331582838	8.74636344576	24.1420850069	5.59863396032
1217	31.959132864	8.70293421342	24.3230658797	5.56870826193
1218	31.8774975565	8.52700565934	24.4639566981	5.56026394444
1219	31.7919234106	8.71276052034	24.4906760915	5.55587880927
1220	31.5450855964	8.5300354031	24.5097435389	5.55744632065
1221	31.0786644531	8.43038338751	24.5326596329	5.58462842069
1222	31.0786644531	8.37912727776	24.5675018642	5.79930425009
1223	30.7786718497	8.27138764041	24.5675018642	5.80680902937
1224	30.6205061198	8.23204008437	24.3023495593	5.797209179
1225	30.3810940304	8.28781037567	23.8032681306	5.797209179
1226	30.1816816323	8.00203118933	23.7340488312	5.75713701834
1227	29.9783375005	7.79301044508	23.7812861887	5.68594831598
1228	29.8833587404	7.76532141867	23.928273848	5.68594831598
1229	29.8661919578	7.78705622934	23.870813382	5.63521106937
1230	29.3905145879	7.80873054359	23.0601824082	5.61819683213
1231	29.1234268251	7.88895541617	22.2752080241	5.61819683213
1232	28.8688976403	8.00488921243	22.2414463877	5.57683853338
1233	28.6424770215	8.00488921243	22.3726354557	5.57683853338
1234	28.3614465554	8.18502875668	22.1491395901	5.5496182785
1235	28.154716022	8.18502875668	22.1889834773	5.52226385162
1236	27.7794482711	8.32274741622	22.0915968264	5.69666131148
1237	27.4264343815	8.42983066219	21.2169185048	5.66264062002
1238	27.0936613558	8.53492542376	20.0318046436	5.65987396208
1239	26.7877160586	8.58589282228	20.1264055297	5.606107677
1240	26.412620148	8.80315796311	20.6018470871	5.57903022898
1241	26.188100242	8.77597721805	20.7591925708	5.50553901992
1242	25.9384331599	8.80048698615	20.7501891804	5.43105344329
1243	25.7601975992	8.83418776829	20.7496845644	5.41082829423
1244	25.6549553057	8.86776047587	20.7674163938	6.07406189207
1245	25.4722208405	8.84343715959	20.7836217569	6.08179286423
1246	25.2678034077	8.81967114903	20.8384247384	5.53801414621
1247	25.0003272315	8.37718074305	20.8262458693	5.59243512828
1248	24.7299582352	8.34757305193	20.8070932437	5.6023858759
1249	24.46802463	8.21027082688	20.7850426772	5.59243512828
1250	24.5085918556	8.13321598107	20.5356691842	5.56247608075
1251	24.2946339078	8.0706330758	20.0696048655	5.35033663081
1252	24.1086117804	7.86642522473	19.2882673442	5.31409924228
1253	24.0364791264	7.75227313891	19.1736906857	5.31245992862
1254	23.9576876873	7.89096870515	19.0222147731	5.31245992862
1255	23.9597564627	7.61786525585	19.0964650835	5.31409924228
1256	23.4516036936	7.46094331646	18.8327211748	5.3095108031
1257	23.5977957787	7.42503195875	18.0947076614	5.5518346566
1258	23.9143548658	7.38894606866	17.533147512	5.2505151626
1259	24.3147110269	7.35973701594	17.5629819936	5.23225012024
1260	24.7085810194	7.32408129419	17.6571556994	5.20021641912
1261	25.3846420559	7.30096834812	17.5307585601	5.16798416121
1262	26.1687781163	7.29461251487	17.0571985854	5.16798416121
1263	27.0441829223	7.24248314737	16.5078558362	5.11381228621
1264	28.1887824371	7.28339649284	16.1401671027	5.05424040961
1265	28.9528829827	7.32408129419	16.1401671027	5.02072112356
1266	30.1111864238	7.34712153074	16.5576942538	5.12062077812
1267	31.3440989324	7.43233070062	16.9670850088	5.13453790682
1268	32.4256931316	7.63352985532	17.0000452447	5.13453790682
1269	33.5030970043	7.33621675449	16.8819460249	5.13928256717
1270	34.690682222	7.29635438969	16.8367516163	5.13928256717
1271	35.6194978723	7.32581616215	16.8367516163	5.13928256717
1272	36.683981625	7.38438708121	16.8223780341	4.89575020984
1273	37.9638507514	7.44323693911	16.7220431869	4.82266716192
1274	39.2734716607	7.48673130805	16.841471004	4.83420266363
1275	40.7071252968	7.36595039625	16.8562424295	4.81435844544
1276	42.0524781154	7.54747734452	16.858519933	4.83420266363
1277	43.5298879264	7.68526657699	16.7414269935	4.8539657544
1278	44.8878040737	7.68526657699	16.5011537836	4.7911641137
1279	47.2044550493	7.63508345168	16.4932119068	4.82266716192
1280	48.6506218041	7.58456829812	16.4659721686	4.84247733155
1281	50.0731435908	7.46537044157	16.5611638707	4.83096158836
1282	51.447923161	7.31152015817	16.2026577143	4.85073788408
1283	52.8482512588	7.27973156321	15.6919188585	4.85073788408
1284	54.3158433372	7.3810592509	15.6191202089	4.84750786437
1285	55.6455659706	7.3810592509	15.5649316867	4.85898439321
1286	57.4761813122	7.2254139576	15.2264642516	4.58014915123
1287	58.7180399114	7.10516900656	14.9231978481	4.59570327707
1288	60.2768478592	6.98285374076	14.8064303001	4.63755753786
1289	61.9305539423	6.92519913001	14.5284946073	5.12400653123
1290	63.5866103065	6.68033056524	13.625280625	5.13486511707
1291	65.1441193189	6.56675039114	13.406337419	5.17975360299
1292	66.8483842419	6.53386682125	13.5489875616	5.1982031068
1293	68.0661279581	6.46674663732	13.675376153	5.29375925831
1294	69.4744097662	6.39978296099	13.8330965966	4.35414321618
1295	70.9856536658	6.39253117862	13.9912842322	4.34333818304
1296	72.4724905648	6.33211116646	13.9678923041	4.32124037985
1297	73.9149701338	6.21216758169	15.1396765752	4.26733064142
1298	75.3691842579	6.48858789256	15.2280510945	4.25057507167
1299	76.9393410783	6.69723940425	15.1938621096	4.26365867282
1300	78.2009638941	6.7224284021	15.3273406805	4.28036302685
1301	79.4590514801	6.7224284021	14.9753162286	4.26528903353
1302	80.5832521016	6.74752336824	15.9690913473	4.56340373247
1303	81.7509967552	6.81106905914	16.5642923879	4.60214943333
1304	82.9156305896	6.58395093212	16.8157694049	4.61612353699
1305	84.0989033283	6.52614742971	17.0918386858	4.65255865373
1306	85.3404273258	6.62359207805	17.0493267567	4.65592392026
1307	86.4905545241	6.62359207805	17.150830844	4.36772137278
1308	87.6431329875	6.62892994446	17.1906555854	4.19907029534
1309	88.7326374893	6.62109746849	17.1307348674	4.22180761014
1310	89.8428152123	6.62026572308	16.8897686965	4.22757676283
1311	90.917667317	6.6144405767	17.5863551519	4.27303833259
1312	91.9980047753	6.6481044051	17.7514347796	4.29376518715
1313	93.031812344	6.67347886523	17.7727474629	4.29376518715
1314	93.938970557	6.93174091399	17.7245533991	4.31439246859
1315	95.0186577095	6.87365759434	17.3810137507	4.31439246859
1316	95.9651409299	6.82625806551	16.7816953514	4.19533858232
1317	96.7030736179	6.72765636901	16.0754796728	4.48219885134
1318	97.6145967187	6.49762328607	15.8105015188	4.55156805832
1319	98.4663044234	6.41861904988	15.7584705221	4.65966394482
1320	99.3238399786	6.29944849198	15.802110597	4.76530842314
1321	100.363317212	6.89771115692	16.1985312175	4.77078873549
1322	101.185633735	6.89052234716	16.5717303749	4.83602009976
1323	102.104740916	6.91215827087	16.5065221494	4.84142036971
1324	102.962288438	6.93372668241	16.8726717819	4.93366708551
1325	103.870612741	6.98928095624	17.9950813133	4.91918169489
1326	104.791816748	6.81479955715	17.9627810724	4.90323576048
1327	105.642133847	6.65488675301	17.9284011122	4.88723779842
1328	106.576571828	7.3368230006	17.9425470603	4.90537013781
1329	107.065093616	7.34495917212	18.1570070556	4.91069414441
1330	107.965248817	7.35308634099	18.4785778526	4.98248618086
1331	109.286360655	7.35308634099	18.6868152678	5.12712272636
1332	110.373787658	7.34677559612	19.1685090389	5.09750159009
1333	111.464079722	7.34902388001	19.9810378136	5.16029146185
1334	112.535021894	7.01363254146	21.2293158877	5.26051803997
1335	113.548532886	7.06088407713	21.8440494448	5.34553736898
1336	114.388667989	7.26598618779	21.860733972	5.40834362798
1337	115.530734825	7.26187500114	22.6310834745	5.43082956289
1338	116.318509937	7.26187500114	23.1807176887	5.8350307926
1339	117.266278544	7.26187500114	23.3139801567	5.54911035834
1340	118.217146962	7.230307535	23.3199906652	5.54063617235
1341	119.2191352	7.17464171065	23.2460989339	5.48570134202
1342	120.116043924	7.19924889391	23.1549680245	5.46822192875
1343	121.22338506	7.21855150782	23.1040333572	5.37090483304
1344	122.189729256	7.2332362361	22.9920656728	5.27574659862
1345	123.055355073	7.26403293533	22.8809816164	5.27409536406
1346	123.816317748	7.28833831856	22.8503123921	5.26517856625
1347	124.805654667	7.2815351718	22.0969313801	5.26848610721
1348	125.797892847	7.0714347219	22.1831143317	5.2714581841
1349	126.651645365	6.98576491055	22.317834484	5.25790348175
1350	127.585545805	6.93051861985	22.2263764371	5.2443137454
1351	128.428045056	6.92654467428	22.2862336936	5.23966419454
1352	129.640051883	6.94806842724	21.3947351906	5.01560647388
1353	130.086643959	6.94093177333	20.7975296806	5.35596129094
1354	130.650372097	7.25002409532	20.5247103548	5.70959065535
1355	131.224930854	7.51096460518	20.2795498794	5.73483959502
1356	131.739082681	7.66172282896	20.2715387091	5.74757536239
1357	132.245258683	7.89188122695	20.3414667797	5.76028297153
1358	132.738481488	7.90153675733	20.6667608512	5.7895220381
1359	133.140536647	7.9503311696	21.3715196501	5.79403367445
1360	133.30879115	7.99882793197	22.4177475045	5.82310327388
1361	133.532798369	8.04332046578	22.326939241	5.91740017793
1362	133.681041046	8.06294023372	22.326939241	5.91740017793
1363	134.038687539	8.05679118663	22.3468196868	5.97011642368
1364	134.761383994	7.7843631028	22.4280926043	6.01166684513
1365	135.877049088	7.7864850379	22.4247046308	6.03968904617
1366	137.305297671	8.36966843992	22.3883984372	6.06901718202
1367	138.979918218	8.35566289004	22.3369658128	5.88111025027
1368	140.560924293	8.35989488714	22.3482613527	6.23315110167
1369	142.531501625	8.3409736498	22.3849804683	6.47289715435
1370	144.492436735	8.35170771001	22.5040976868	6.4055849369
1371	146.540714644	7.85993382102	22.1741321376	6.37917023336
1372	148.644284767	7.81510187291	21.9351799566	6.32600994554
1373	150.687271651	7.78961247762	21.9176946501	6.2992615689
1374	152.608677206	7.82033061443	21.5181616695	6.2158068049
1375	155.378419619	7.87621952584	20.6807084183	6.33480849509
1376	157.723421078	7.90660119058	20.93598536	6.36851362245
1377	160.114812269	7.96632573267	21.741265528	6.35702197523
1378	162.504082518	7.44767458943	23.6114830436	6.34688201336
1379	164.942871253	7.43965075068	23.6365650094	6.31636445951
1380	167.463941324	8.3010119204	23.3860272642	6.24457686885
1381	169.592522033	9.17773033797	23.1450986177	6.15104758172
1382	172.114827808	9.37013944965	22.735442119	6.15104758172
1383	174.380055772	9.55382255316	22.1163266357	6.40909039356
1384	176.750015407	9.7158549026	21.0148575883	6.40909039356
1385	179.171589178	9.67303428704	20.8730665894	6.34110088911
1386	181.673819259	9.70078002323	20.8544204355	6.31827514096
1387	184.198709134	10.8791492093	20.1104181888	6.30172296609
1388	186.794241471	10.911399081	19.4947832547	5.98464940522
1389	189.521107749	10.9835620539	19.3627037523	5.98464940522
1390	191.955148203	11.2211063374	19.460488536	6.06008444447
1391	194.645453021	11.4929156207	19.5486946633	6.22473626567
1392	197.299077143	11.741986638	19.7617828568	6.33231108265
1393	200.053861392	11.9933552934	20.0074370753	6.33643625696
1394	202.771223486	12.2846954871	20.0380761361	6.36439708219
1395	205.414936425	12.3331669658	20.1433131998	6.39223560274
1396	208.309881322	12.4591058475	20.401590352	6.46965009023
1397	211.335208822	12.571222237	20.9163427733	6.46965009023
1398	213.810415948	12.7141048232	21.2588127864	6.49703763813
1399	216.27721832	12.7141048232	21.1916078885	6.74779797072
1400	218.807087027	12.774796539	21.0650702056	6.82475051055
1401	221.383404401	12.8524005647	21.01380995	6.90084499238
1402	223.738463873	12.8710414746	21.0184855903	6.9255239606
1403	226.513579546	12.8587599536	21.0910927885	6.64041892971
1404	229.106424631	12.7739343871	21.1951803018	6.33893204416
1405	231.877284825	12.6664055637	21.2631820232	6.31609845802
1406	234.444193741	12.5900271243	21.2785177565	6.31609845802
1407	237.200699417	12.5900271243	21.1153668559	6.30589269092
1408	239.927839945	12.7226310787	20.9838918893	6.28653749583
1409	242.821056796	12.6949832287	20.3466400085	6.28237955678
1410	245.861796059	13.3806922095	19.2900628607	6.25405205561
1411	248.743525703	13.5002963743	18.9550827459	6.13603684845
1412	252.095432029	13.6659837428	18.9254851033	6.12155089131
1413	254.868696183	13.7975340036	19.0413015238	6.2682194646
1414	257.461056374	14.097203548	19.260464223	6.29066808697
1415	259.852835562	14.3500443689	19.965108885	6.25987649034
1416	262.119209742	14.0687342892	20.3364770626	6.25987649034
1417	264.385436336	14.7698146372	20.3525110854	6.24316948823
1418	266.548184978	14.9449414943	20.3424038651	5.86715353893
1419	268.239305601	15.1720203277	20.2327888169	5.60154137134
1420	270.53796893	15.4325196525	20.0629685385	5.62015606104
1421	272.345114736	15.7273779096	20.2092348617	5.83352460682
1422	274.087714867	16.028877387	20.46834605	5.83770118514
1423	275.745347759	16.1986434596	20.4738281694	5.83770118514
1424	277.487819959	16.4435561488	20.5140336015	5.85288971514
1425	278.697967382	17.0602018523	20.5140336015	5.726613232
1426	279.964734875	17.2577427565	20.3207871185	5.68604357103
1427	281.390331984	17.4667796465	19.4985701668	5.71261380472
1428	282.559151165	17.6276502001	17.1864694975	5.97910592837
1429	283.699748926	17.8304985093	16.9100557774	6.00698744944
1430	284.829809523	17.5903280102	16.9851617783	6.00698744944
1431	285.973236247	17.3023205466	16.9833122843	6.00698744944
1432	287.003463183	17.2118559483	16.9558306816	6.01625257583
1433	288.150060141	17.2352693072	16.8287288105	5.68573447228
1434	288.825133645	17.2352693072	16.6895956564	5.62292850095
1435	289.530033997	17.2050497739	16.031026267	5.7387547839
1436	290.304983623	17.1652542309	16.019717669	5.70498511511
1437	291.028300135	16.5762028345	16.218093756	5.69368405003
1438	291.778408545	16.7114215397	16.3558701661	5.60121379559
1439	292.439288924	17.2644790867	16.320671477	5.48248250712
1440	293.19333623	17.215325692	16.1912534267	5.39446695065
1441	293.627658205	17.215325692	16.0826095287	5.20661897046
1442	294.261685057	17.2458465288	15.8259468341	5.06115961712
1443	294.672434042	17.3441585222	15.4852612831	5.05599405448
1444	295.168193569	17.3768055836	15.4453675771	5.05082320893
1445	295.746932512	17.5707874068	15.3054996118	5.01242095017
1446	296.165630208	17.7790623147	14.951991381	4.91209400283
1447	296.422564884	18.3514858281	14.2212754929	4.8989642161
1448	296.972773137	18.3294983344	13.436663148	4.85936200385
1449	297.968012419	18.5812282371	13.0983994799	4.50467753587
1450	298.29336896	18.7951198902	12.9627847572	4.89858965822
1451	298.730860098	18.9598119054	12.9507871568	4.94421712666
1452	299.167711467	19.2032809982	12.9807913905	4.88043212728
1453	299.577670524	19.5097308351	12.8548418399	4.8786470958
1454	300.124728367	20.2805618518	12.6702243482	4.86041506404
1455	300.372355641	20.3478932287	12.5109345372	4.82374427323
1456	300.920595545	20.6811495914	12.4828767253	4.81037334429
1457	301.602328749	20.8583900413	12.4921431998	4.8679231612
1458	301.738595962	21.0341370588	12.4446200344	4.91525009745
1459	301.849398517	21.3233500947	12.3337751713	4.88612717742
1460	302.017881627	21.1417532655	12.133140912	4.94455693157
1461	302.184701344	21.2371692822	11.8544480395	5.00230423956
1462	301.954924944	21.1801272517	11.667324685	5.03559710662
1463	302.038167428	21.3039130083	11.4222339571	5.03559710662
1464	302.150429767	21.2772924033	10.9569217916	4.94279505805
1465	302.094827122	21.2525619209	10.2861715948	5.40182617278
1466	301.955448495	21.3849724938	10.5257310032	5.39698667869
1467	301.786144764	21.0273694662	12.0986831239	5.38342157408
1468	301.618318411	21.0273694662	12.3066224452	5.35196434281
1469	301.645706356	21.0543060706	12.4801449204	5.25348267809
1470	301.155232563	20.8641161354	12.4328566231	5.22124264246
1471	301.328038641	20.807751286	12.4328566231	5.01028584714
1472	301.024872067	20.807751286	12.6223294205	5.03869119877
1473	300.858197438	20.8601973826	13.4488661232	5.07209172967
1474	300.718245652	20.8601973826	13.5364385031	5.19014204768
1475	300.578228703	20.6193651304	13.3850123649	5.27859732405
1476	300.578228703	20.4543154512	13.4114431797	5.39535820847
1477	300.408938171	20.3354092579	13.4114431797	5.45280115554
1478	300.436831011	20.4248560077	13.5425657996	5.28749149259
1479	300.165027813	20.5139127469	13.671409829	6.47385166239
1480	300.025411334	20.5906767161	13.628255695	6.46658942349
1481	299.886388809	20.7278473284	13.6003512026	6.44448089806
1482	299.690725795	21.0120739345	13.6106519576	6.4803041335
1483	299.440159083	21.2000474803	13.6528391971	6.47895990101
1484	299.602873665	21.3141306194	13.6510495805	6.46416686411
1485	299.657092225	21.5741049499	13.659523602	6.34759078812
1486	299.439103185	21.8071335656	13.6563587475	6.34759078812
1487	299.274714845	21.9883113605	13.2592172707	6.37413635962
1488	299.164015566	22.2156516829	13.0365362733	6.48217842879
1489	298.967879787	22.0652540296	13.0398515635	6.54870341133
1490	298.80085136	22.1748863871	13.0462120896	6.55109470963
1491	298.773202634	22.2805575188	13.0634049796	6.54870341133
1492	298.575883546	22.3622252157	13.0620690232	6.55959135411
1493	298.196626023	22.3912072322	13.069589705	6.55959135411
1494	297.864794995	22.4779290744	13.0781736089	6.54498056384
1495	297.475330947	22.53374428	13.0809447189	6.73270908013
1496	297.085356331	22.4779290744	13.167844432	6.73968457217
1497	296.66396004	22.1229625289	13.1696997109	6.76082782349
1498	296.21914684	22.4230611866	13.1767922144	6.80547741451
1499	295.297532215	22.3669697808	13.1597474629	6.80777851904
1500	294.968871226	22.3669697808	13.1333416209	6.56436514697
1501	294.446465929	22.2963222468	13.1162404049	6.46335116172
1502	293.949489177	22.1688587548	13.1804999922	6.47061703506
1503	293.451670769	22.0552403498	13.3329399942	6.4792192163
1504	292.812785623	21.3994472577	13.3469477432	6.50495750701
1505	292.289095888	21.3485839136	13.3346716335	6.52819555147
1506	291.487966014	21.1865061619	13.32730054	6.5707169586
1507	290.672394554	21.1002883889	13.3136956065	6.52819555147
1508	290.152605779	21.0695307346	13.008931033	6.55507039909
1509	289.571284566	21.0695307346	12.9969760306	6.57680717853
1510	288.870869503	21.0695307346	13.0494837736	6.55613096256
1511	288.281205745	21.232501434	13.0513558778	6.53538933293
1512	287.637156811	21.7774812401	13.0222152415	6.53538933293
1513	286.997997233	21.6992644303	13.0133262239	6.35306501774
1514	286.538179277	21.7831115791	12.9952613725	6.37685660101
1515	285.774316498	21.9221441809	12.5784789754	6.37685660101
1516	285.272206954	22.0051420976	11.9071011797	6.43230531554
1517	284.657314744	22.1646737926	10.2890423187	6.54498056384
1518	284.073513097	22.2921612137	10.0476609342	6.55215591662
1519	283.544275859	22.2012797738	9.85445631667	6.62480851912
1520	282.902295598	22.3095032252	9.79485560751	7.03562044988
1521	281.742765626	22.4886963467	9.5384186998	7.28575520829
1522	281.490122612	22.5804751597	8.62539140392	7.30436639418
1523	280.905647862	22.666472875	7.49249396127	7.65688775564
1524	280.234491671	22.725422673	7.14434752706	7.62864653856
1525	279.509263549	22.7913951587	7.13370461238	7.87320838452
1526	278.756059031	22.8707573037	6.96660280543	8.0321137797
1527	277.996975313	22.9518660044	6.88203761421	8.12712199904
1528	277.231964102	22.8970700589	6.56763810626	8.28115653102
1529	276.532306268	22.8970700589	6.30023978236	7.37149372259
1530	275.748752827	22.8970700589	6.17563906927	7.43286719058
1531	275.045469133	22.8173167579	6.19322107644	9.29208480782
1532	274.340382546	22.7318897119	6.49248063239	10.0785500025
1533	273.666989395	22.5978395971	6.46720637344	10.508245116
1534	272.958342041	22.7159424326	6.43240689816	10.6194676906
1535	272.308095885	22.4798511704	6.43620400512	10.6351908561
1536	271.77528866	22.3442890516	6.44291648162	10.6636304571
1537	271.15544274	22.2315672326	6.44799830073	10.64778423
1538	270.417265874	22.0502846331	6.60290405429	10.590743555
1539	269.700079881	21.928596997	6.72477883206	10.6119249622
1540	268.98465496	21.9858068321	6.70598825365	10.6286441838
1541	268.263638999	21.7734739637	6.70598825365	10.6468083711
1542	267.536986793	21.7436685895	6.69464848721	10.7877849041
1543	266.904185242	21.7753512505	6.66595288696	11.2900108582
1544	266.173521286	21.7436685895	6.64909602913	11.3450714262
1545	265.601176334	21.7138223031	6.65067060537	11.6759500986
1546	264.97345042	21.8032385936	6.56563471294	11.6841464753
1547	264.313877974	21.9256219824	6.53423650567	11.6957606988
1548	263.689682399	21.9644875244	6.51489637907	11.6711787694
1549	263.147986082	22.0528874836	6.51489637907	11.7107825999
1550	262.370856895	22.1464724375	6.50986678304	11.8137779319
1551	261.758636823	22.2740640358	6.51650338192	11.9113553851
1552	261.302805085	22.4316832687	6.38553041176	12.181562257
1553	260.873603218	22.5757754653	6.04536410904	12.691040425
1554	260.475563102	22.8522934707	6.16423831577	12.8637793656
1555	260.104421352	23.5639290149	6.11780850897	12.9047143287
1556	259.851273143	23.5175132477	6.1042329464	12.9350278228
1557	259.271069285	23.5948999279	6.1042329464	13.0549108
1558	258.743340207	23.6823921441	6.09177312227	13.0310224369
1559	258.291980016	23.6532640309	6.05423979548	13.1391724338
1560	257.786014816	23.6823921441	5.91834658531	13.6598331362
1561	257.192850557	23.6823921441	5.9142170075	13.763042825
1562	256.631277721	23.1372985655	5.95204692396	13.9907094732
1563	256.101041159	23.566598355	6.22219828308	14.1543538254
1564	255.162151625	23.5132350437	6.60859414348	14.3094390077
1565	255.049661566	23.4061434375	7.00821545761	14.2539832576
1566	254.351298507	23.3524134687	7.00821545761	14.3046914545
1567	253.789667161	23.2445809429	7.06487591224	14.2859369288
1568	253.203530324	23.1433119096	7.06487591224	14.2826474212
1569	252.666100509	23.1624947423	7.06487591224	14.2703330928
1570	252.133481738	23.3784196621	7.06487591224	14.1198731029
1571	251.750195276	23.1834249598	6.98250096512	14.0693622124
1572	251.19470969	23.0431328007	6.88387092496	14.1362591961
1573	250.609127236	22.9849978508	6.68610092492	14.4381643795
1574	249.99940572	22.900196332	6.68766678856	14.9992020369
1575	249.473133836	22.8043271349	6.88893924347	14.9714402475
1576	248.974963002	22.9900929459	6.92950731692	14.8867921857
1577	248.526217393	23.2742205361	6.89653473733	14.934538659
1578	247.993791319	23.2063351291	6.91006902775	14.9093419577
1579	247.59180206	23.1783723631	6.99360433448	15.0384904887
1580	247.174768859	23.2325048414	7.02443987486	15.0082511043
1581	246.645514557	23.3403931589	7.12994006647	14.4357510922
1582	246.115122131	23.3941507351	6.85498828584	13.9445912738
1583	245.613036783	23.4667190071	6.88441692316	13.6576570379
1584	245.053957665	23.4061434375	7.0930931881	13.7096848667
1585	244.415014431	23.5505148229	7.14430994749	13.8397157841
1586	243.80050127	23.6500402851	7.15591264021	13.9318519951
1587	243.188010679	23.786753227	7.15133389077	14.2046753254
1588	242.577557977	23.9226848969	6.99053250269	14.2320967874
1589	241.854127378	24.0038744129	6.92671714673	14.2132464727
1590	241.13278786	24.1286489895	6.94239726741	14.2484717369
1591	240.405009675	24.1685901321	6.9147298821	14.3456262513
1592	239.696956083	24.0780004661	6.94239726741	14.3221889566
1593	239.30993569	24.0493515109	6.94239726741	14.0309429819
1594	238.60674489	24.1083109827	6.94761611019	14.3840387467
1595	237.875558135	24.0830929773	6.94761611019	14.0419819099
1596	237.202614842	24.0021714267	6.98784354215	14.0419819099
1597	236.399040258	23.8446477388	7.0403218335	14.0254856722
1598	235.652949657	23.4973493412	7.04645884916	14.0459479137
1599	234.818655232	23.3106014726	7.08169087	14.0237478069
1600	234.277678691	23.1955266133	7.13953573571	13.8845368565
1601	233.378172905	23.0940424743	7.21896645262	13.800917565
1602	232.385227985	22.9621066627	7.1682831273	13.6544679298
1603	231.431922925	22.8204539568	7.28213793331	13.2334148454
1604	230.480505084	22.584723742	7.17741608013	13.1532022162
1605	229.519288922	21.9333291431	7.15981352447	13.1571748534
1606	228.559909568	21.9830900594	7.15981352447	13.23040085
1607	227.350596936	21.9258731356	7.15981352447	13.3322415893
1608	226.919877583	21.8034911565	7.16127580825	13.4437998595
1609	226.023447153	21.8350870153	7.19643071015	13.4717378986
1610	225.261940663	21.7737268719	7.19643071015	12.9435131609
1611	224.451361508	21.614837268	7.16468664311	12.8225887295
1612	223.694044024	21.8487982926	7.38395711497	12.6920158696
1613	222.888047417	21.8487982926	7.19993675961	13.1976286206
1614	222.199769698	21.8487982926	6.79918495849	14.3430224574
1615	221.320123692	21.9024842281	6.18398047478	16.1462153319
1616	220.476941405	21.9302099043	5.96304294628	17.1610332902
1617	219.689909903	22.0131774103	5.92999370968	17.1920458623
1618	218.910159255	22.0627582355	5.92705010123	17.5593982115
1619	218.009799685	22.1615871156	5.91044795353	17.9036729746
1620	217.142479821	22.1615871156	5.9145801629	17.8916132277
1621	216.384239706	22.26732136	5.93646451049	17.8311921482
1622	215.042888735	22.3200006515	5.92247328368	17.7611602226
1623	214.082137724	22.2927597663	5.85820571077	17.4960440897
1624	213.353596055	22.3490374245	5.88905961332	17.0332701314
1625	212.56622026	22.2927597663	5.94888857548	17.4757392397
1626	211.750343756	22.2289853042	5.80271794946	17.8844205716
1627	210.786589928	21.9848049408	5.84186749876	18.3552326111
1628	209.881510715	21.9462263005	5.85866399141	18.8342400054
1629	208.984610824	21.8464231926	5.79188109524	18.880485831
1630	207.995877985	21.7386418445	5.84793081223	18.9187088317
1631	206.966707231	21.5984280407	5.71882898754	18.5385789658
1632	205.908013513	21.5138611266	6.45607098844	18.5975482472
1633	204.795405849	21.3912903189	6.39552933422	18.7851108757
1634	203.660609653	21.2185017099	6.16859223476	18.9235990499
1635	202.638286478	21.2776208872	6.06832540679	19.001720826
1636	201.702716147	21.1440172005	6.06832540679	19.0992187024
1637	200.598307675	20.9418820976	6.07544434888	19.0450970372
1638	199.567624903	20.7163488979	6.09617879646	19.8790284946
1639	198.64385551	20.5455743668	6.12298476265	21.1826573481
1640	197.772141698	20.2375627745	6.1458308048	21.8737290069
1641	196.941535566	20.48806443	6.13993049515	22.0039290684
1642	196.069514718	20.3701662616	6.10269335729	21.9690153222
1643	195.240779223	20.2545307638	6.09732375031	21.953718095
1644	194.440624086	20.0937998613	6.11262787197	21.7240081129
1645	193.627778337	20.0937998613	6.20521761291	21.715832996
1646	192.785261968	20.0393480833	6.56326255909	21.715832996
1647	192.019757025	20.1240175897	6.71207096198	21.715832996
1648	191.251188084	20.1999670374	6.74264110496	21.7095799878
1649	190.536785976	20.450929205	6.70562792026	21.705169778
1650	189.845932662	20.4806200207	6.6629717652	21.7044481517
1651	189.538771879	20.5339016676	6.58943151643	21.7003572938
1652	188.976927297	20.5339016676	6.55155282696	21.6552292675
1653	188.347730011	20.5910161534	6.42639370522	21.6218444167
1654	187.694942246	20.6734263869	6.37378901397	21.5642044894
1655	186.982805481	20.7867317209	6.46932324982	21.5302739497
1656	186.299138891	20.8159435703	6.55687802488	21.4563309848
1657	185.888111704	20.8451144829	6.58816832699	21.3269471255
1658	184.843195098	20.8179072041	6.58816832699	21.2568009076
1659	184.085241212	20.7242400633	6.56686135283	21.2391058541
1660	183.129987131	20.6674937442	6.57237839927	21.2345979319
1661	182.264739937	20.6400523308	6.63519127572	21.236810634
1662	181.339133811	20.5515422041	6.36185714268	21.1618422847
1663	180.454563922	20.4086419335	6.33627371772	20.7368333412
1664	179.517417964	20.2123774843	6.29631804007	19.8508703213
1665	178.446926757	20.0617736402	6.27624481514	18.3370872739
1666	177.499393478	19.9100306282	6.21036424345	17.346835891
1667	176.451148983	19.744704501	6.11078285657	17.3315764361
1668	175.484062324	19.6214985396	6.13367434722	16.9592899951
1669	174.519542855	19.431159977	6.11842286972	16.578645678
1670	173.534171428	19.3180827746	6.63862975234	16.5551114357
1671	172.47924317	19.0635065009	7.06590189675	16.5464881447
1672	171.674513578	18.9037519592	7.14077658588	16.5479610741
1673	171.012848122	18.7750282887	7.16757146638	16.4298305491
1674	169.959943141	18.599616218	7.14077658588	16.4644389678
1675	169.004359536	18.5145988889	6.90917533826	15.9753996803
1676	168.02734277	18.3872976522	6.96895324256	15.5026022218
1677	167.157216229	18.3233153774	6.93667135763	14.8165349915
1678	166.282536535	18.5603117287	6.90373299395	14.114764993
1679	165.622238346	18.6146981028	6.87591003253	14.0070675341
1680	164.860060951	18.6146981028	6.79811872069	14.0259443381
1681	164.269863913	18.6429281303	6.78210503847	14.029294036
1682	163.632125771	18.6146981028	6.14810200604	14.0851353258
1683	163.077967156	18.6927011423	6.11148578526	13.8045220469
1684	162.506835342	18.7379794921	6.3404671602	13.5081677616
1685	162.030576819	18.7033374222	6.34728088265	13.4707458861
1686	161.296276127	18.6579750047	6.39204409125	13.6491799777
1687	160.586670549	18.7120775241	6.39204409125	13.9200515886
1688	159.932510675	18.7896763091	6.37905216909	13.4134008923
1689	159.238929705	18.8734545657	6.35332669479	11.2018538685
1690	158.511144937	18.9503925494	6.32087396007	10.2335697161
1691	157.610796504	18.8086600169	6.32826033848	10.3714490494
1692	156.648506333	19.3808901821	6.32826033848	11.8546276097
1693	155.50877682	19.2620099603	6.33343415602	14.575323659
1694	154.765744056	19.2346885573	6.31347894006	18.1180947972
1695	153.586039612	19.1524905027	6.2149882471	21.1056474841
1696	152.568053614	19.0827949427	5.68714602696	22.6444522917
1697	151.618072481	18.8870282453	5.540369594	22.6742594512
1698	150.685977245	18.8634980689	5.51501598915	23.5479434225
1699	149.691049266	18.7211076929	5.51438308986	25.5737473265
1700	148.655962714	18.5215184681	5.49931811894	27.9120154139
1701	147.774219798	18.3375965862	5.47632430479	28.771851337
1702	146.674674173	18.2119074239	5.48421176513	29.5487578932
1703	145.627918561	17.9777522166	5.49614385537	29.8708215857
1704	144.545958276	17.8082602403	5.86644928478	29.8692484945
1705	143.489727097	17.5204262527	6.1342433516	29.9127505119
1706	142.425663104	17.3696982417	6.17355195687	29.9543299693
1707	141.387702905	17.1031770126	6.23233001493	29.9552022978
1708	140.381218385	17.0439681392	6.24562715053	29.9496236068
1709	139.774473659	16.9511503589	6.23512950221	29.906875249
1710	139.008751359	16.8914086002	6.22987404466	29.9074577269
1711	138.263665366	16.8314547947	6.18111438632	29.90559531
1712	137.57231205	16.7712866685	6.17355195687	29.9040240482
1713	136.94185474	16.164534143	6.16959320151	29.9035002758
1714	136.296296277	16.5715512915	6.26266973419	29.9002986707
1715	135.240205528	16.5958680133	6.35383377404	29.8955250141
1716	135.041582162	16.6468505901	6.35898678448	29.9775704696
1717	134.390123635	16.673509262	6.35898678448	29.9531719915
1718	133.68079437	16.673509262	6.38447919592	29.9553222225
1719	132.998893885	16.673509262	6.39909659157	30.1274139929
1720	132.3054069	16.3442458381	5.88532006693	30.2384319817
1721	131.678538985	17.035988454	5.45490721263	30.3691118324
1722	131.03900717	17.0856577882	5.61450050076	30.4647971248
1723	130.503034112	17.1092438455	5.95939487714	30.5438877344
1724	129.905204782	17.1092438455	6.02258274728	30.5551696809
1725	129.259665563	17.1092438455	6.50396648557	30.5438877344
1726	128.64930035	17.0808721905	6.49913498518	30.5613228652
1727	127.948308246	16.9717288849	6.53731740249	30.5589302481
1728	127.219217682	16.6905220716	6.53731740249	30.5478772891
1729	126.28040256	16.6589838589	6.53891889516	30.5292382516
1730	125.796126746	16.5205286437	6.53731740249	30.5392146789
1731	124.906457445	16.3659239981	6.54232589512	30.536877883
1732	124.086885402	16.2422551935	7.32177419239	30.498550412
1733	123.228505843	16.0525912253	7.33661002863	30.5393323103
1734	122.488100354	15.887797407	7.16644764735	30.5466842769
1735	121.574225622	15.6341810645	7.19169109888	30.4749701984
1736	120.694040678	15.5441727842	7.16566086915	30.3255238148
1737	120.403813924	15.3797564737	7.17479715991	30.163394021
1738	119.647903785	15.1951060817	7.20001133787	29.8605170913
1739	118.830644425	14.9410437362	7.19564721033	29.9708947054
1740	118.031509587	14.7346401111	7.27446526544	29.9264278871
1741	117.278506678	14.4862318438	7.26804056163	29.8596342228
1742	116.625431276	13.9583890534	7.27302573909	29.3528812749
1743	115.968670087	13.9269293768	7.26804056163	28.081670125
1744	115.340741402	13.8309266586	7.282985857	25.9171770329
1745	114.867788105	13.798777326	7.33543890614	23.6003886444
1746	114.140661549	13.8279708779	7.34132922156	22.1238335771
1747	113.486236937	13.9063685561	7.26708006064	22.0907626224
1748	112.705658519	13.9063685561	7.25805993456	21.1490899321
1749	111.974021707	13.6167038749	7.25854079775	18.6629520906
1750	111.237572845	13.7287001853	7.33668321757	15.0290948388
1751	110.283865425	13.7287001853	7.37052806116	13.4333966727
1752	109.649676986	13.7287001853	7.44749555373	11.7384986622
1753	108.930177681	13.7665529145	7.48801346008	11.2020522041
1754	108.333690962	13.8279708779	7.23007801604	11.5501583696
1755	107.733901745	13.9897779848	7.1744229504	11.8284770795
1756	107.1543713	13.832519149	7.0893828189	11.9256460139
1757	106.620277417	13.9738119362	7.06080850754	11.9234547032
1758	105.735576822	13.9130377911	7.12948818739	12.1209436544
1759	104.527335237	13.8258110739	7.18093141339	12.153212248
1760	103.825260935	13.6941303297	7.29907769156	12.1852511592
1761	103.06164895	13.5818489582	7.31825314027	12.2087980681
1762	102.235120385	13.386674065	7.4020785216	12.2068015663
1763	101.378847412	13.772720876	7.56694398486	12.2080846166
1764	100.664630384	13.2958194281	7.83774806846	12.2159239584
1765	100.008136546	13.1592545892	7.90911847819	12.2387001903
1766	98.7370050716	12.9871040605	8.01245311928	11.9985362434
1767	98.0099701501	12.8281533023	8.08865637203	12.0406805679
1768	97.3542877356	12.6966514709	8.21708656184	12.0346063987
1769	96.7170553321	12.6273683867	8.21496251181	11.594967052
1770	96.1718371336	12.6286766014	8.23953524437	11.2944235459
1771	95.5987084421	11.6284867804	8.21496251181	10.9796363067
1772	94.9962926441	11.4194830986	8.05116180121	10.7536086052
1773	93.8966273377	11.27783295	7.77004212657	10.5093221912
1774	93.3179956529	11.1558928924	7.71692488659	10.4004334339
1775	92.6431958743	11.0177748146	7.58699950252	10.2731228225
1776	91.9733287069	10.9773897317	7.53676064352	10.1765947258
1777	91.3327489319	11.3077660047	7.53351826876	10.1820664431
1778	90.771746996	11.1907900845	7.58423881864	10.1890725493
1779	90.282144857	11.0091402105	7.60809617695	10.1225677248
1780	89.1638016026	10.9692253635	7.60378972228	10.319263953
1781	88.5086835164	10.9692253635	7.59948082724	10.3207816592
1782	87.9062684373	10.9436119756	6.76795785409	10.1601466623
1783	87.2756883488	10.991060615	6.75187263853	10.0368988974
1784	86.5825452169	11.0654030961	6.71854778607	9.96937898804
1785	85.6888315784	11.025691932	6.68505681206	9.89665189659
1786	85.4393169907	11.0437148329	6.65789272975	9.93141656858
1787	84.3865734535	11.0437148329	6.64101541289	9.79730405323
1788	83.7606378887	11.0437148329	6.66909370787	10.0233627098
1789	83.1637491134	11.083361422	6.70402620423	9.85577420194
1790	82.5285395903	11.7044264427	6.61841833254	9.66963831986
1791	81.9328047095	11.6573196419	6.61841833254	9.4025965269
1792	81.182843531	11.3915728725	6.61293969643	9.45687490706
1793	80.6110083196	11.4545387342	6.61841833254	9.85809996398
1794	79.8486334167	11.3313788922	6.60144009576	9.87539140591
1795	79.2307443545	11.1886133819	6.86391226707	10.5295210956
1796	78.7075209678	11.0259800693	6.85761188872	11.6418479763
1797	78.0917372542	10.835550517	6.85283383129	12.1212017282
1798	77.5801915611	10.7347495168	6.84652325824	12.2510419289
1799	77.1262907144	10.7238332571	6.84652325824	12.2234453944
1800	76.431042143	10.4968323395	6.77497569676	12.1724967478
1801	75.6944487964	10.417904947	6.79890854253	12.3177780218
1802	75.154483439	10.349165755	6.70806980088	12.2897656243
1803	74.5013593423	10.2417393124	6.81539487163	12.1441492406
1804	73.8215693585	10.4529357918	6.86868261802	11.983409248
1805	73.1149102545	10.2111495855	6.63608140526	11.9345026301
1806	72.6510773194	10.2484167066	6.59847051611	12.1091247353
1807	71.8900519339	10.0432546274	6.55245431853	12.2632531709
1808	71.5156080579	9.88658952321	6.582379006	12.9803840634
1809	71.094152242	9.76458450536	6.73076478253	13.3612716513
1810	70.4735336398	9.74000011267	6.68899146379	13.4186005364
1811	69.8819217434	9.74000011267	6.85878631099	13.3960109875
1812	69.3896220372	9.76289251365	6.8873801581	13.410427349
1813	69.199614307	9.24894741351	6.72896955651	13.4145800725
1814	68.6436960313	9.24358735936	6.35657975034	13.4577231521
1815	68.5924070686	9.24358735936	6.23633504792	13.4867937372
1816	68.4596869012	9.21377548622	6.11543825363	13.4993077907
1817	68.2305808481	9.16218617025	6.01972901508	13.6692165737
1818	67.8854720191	9.343565379	5.77177462423	14.0797155074
1819	67.5315772521	9.36046019644	5.75290473805	14.3915169304
1820	67.4665565354	9.3793345206	5.65291135634	14.5010432924
1821	66.9818907815	9.40369063351	5.58741735089	14.481345487
1822	66.8719966972	9.44156519655	5.66718909156	14.5891292868
1823	66.6421768115	9.44156519655	5.66780492769	14.8763556376
1824	66.213008479	9.38226962225	5.66718909156	14.9296174788
1825	65.8158924756	9.29244591945	5.28095263858	14.9306665487
1826	65.3001916181	9.09597263871	5.35240704958	14.9402224989
1827	64.9876020989	8.51868073919	5.31647164464	14.9483770777
1828	64.4432009535	8.51868073919	5.32237684104	15.0798515207
1829	64.0992666347	8.40113967708	5.2793763804	15.2101895621
1830	63.6143891502	8.38231154136	5.2793763804	14.9958205888
1831	63.1044820033	8.35733567195	5.29993248577	15.124806576
1832	62.600538117	8.29028886334	5.29993248577	15.4144678541
1833	62.3549770302	8.16012389292	5.30610908772	15.7344482864
1834	61.700835067	8.05834202978	5.32656202804	16.5610320041
1835	61.4394122697	8.01668099722	5.34693673296	16.6773948688
1836	60.3943237569	7.94329509082	5.45254422712	17.428856544
1837	59.8556401212	7.80281546739	5.49863458623	18.4741408848
1838	59.3314008447	8.03167327417	5.42935232478	19.2664218886
1839	58.887177561	7.96188454368	5.31515848781	19.8673444007
1840	58.3955700853	6.93818495179	5.31318814404	20.3819831888
1841	58.2396173471	6.93818495179	5.42098885641	20.5346206785
1842	57.9325763689	6.85841915501	5.44165141	20.5299542988
1843	57.4885438235	6.69521512904	5.59077990576	20.3297242855
1844	56.9007743667	6.65399557142	5.61081721688	20.3280104406
1845	56.2723992399	6.56539562807	5.23827843835	19.9429721689
1846	55.6255438375	6.54128570357	5.2445276522	19.3118857776
1847	54.949419038	6.54128570357	5.25276318602	19.0240151135
1848	54.4483385087	6.38745997977	5.25899518781	18.9800473778
1849	53.7486909662	6.38745997977	5.25833147363	19.0673406075
1850	53.4786786017	6.36909707344	5.39522355312	19.0317046141
1851	53.0442682216	6.4295318733	5.36503266627	18.8754831349
1852	52.5724164942	6.55053940752	5.44115800666	18.8425296428
1853	52.1744262169	6.59121704334	5.25209868429	18.7911858809
1854	51.7550163594	5.81976354645	5.18221448212	18.6909654735
1855	51.285101364	5.80190371293	5.15848384271	18.4929443233
1856	50.4806348828	5.74102293213	5.16685652493	18.2441857862
1857	49.9417981341	5.72772646694	5.47588305555	18.1317304196
1858	49.3778780085	5.68861867606	5.40258340824	17.517576706
1859	48.8876005209	6.44578432218	5.13642101679	17.4447881009
1860	48.3506282725	6.39620776709	5.02972750059	17.8232458034
1861	47.7537619713	6.2388059865	4.75032229483	18.1408468249
1862	47.1141810337	6.20773379324	4.60032809636	18.1565749241
1863	45.9815111514	6.12115202046	4.54100071882	18.1565749241
1864	45.3029062796	6.0576414122	4.79269171526	18.1153986581
1865	44.501206711	6.0166301311	4.71275857901	18.0770198233
1866	43.6775371793	6.37135793379	4.68962941353	18.0676766678
1867	42.7353712096	6.82756106699	4.68263971914	17.9103413475
1868	41.8597248307	6.58134475358	4.69260546304	17.5894690128
1869	40.9334471451	6.53026773631	4.74534606715	17.3527455852
1870	39.4752656622	6.53616789942	4.91351378212	17.2788602725
1871	38.5184584214	6.52244666996	4.9039969815	17.2676738738
1872	37.487777477	6.45363265809	4.96082393859	17.1767061679
1873	36.4279464309	6.69809321187	5.08298446444	17.1041911329
1874	35.3763726167	6.65806857068	5.13239464869	17.399314976
1875	34.4074073479	6.61780186383	5.20563065115	17.6865655831
1876	33.59762637	6.55910199113	5.132133087	17.9264548196
1877	32.2996501963	6.50531141016	5.15030606932	18.3524219423
1878	31.2802980826	6.48813089603	5.18941081246	18.244545665
1879	30.4339610356	6.48813089603	5.26873704247	18.1329563242
1880	29.6702874697	6.59031725196	5.29263279519	18.1294039602
1881	28.9411722598	6.5200432981	5.28024083832	18.0397958589
1882	28.0748066078	6.48437577706	5.29592904022	17.8110155488
1883	26.6519275597	6.47976870491	5.31354184929	17.7508151765
1884	26.2023881765	6.47976870491	5.45224878193	17.2111222606
1885	25.4421130003	6.4717557083	5.54405125413	17.1011399467
1886	24.812024742	6.4717557083	5.50746514611	16.2948116091
1887	24.2016216245	6.4717557083	5.50746514611	15.1867676851
1888	23.6325468402	6.23065306254	5.52440358054	14.373082573
1889	22.8564533731	6.18849541051	5.59836224837	14.1179581698
1890	22.1443173092	6.18277730909	5.70114966327	14.2805244315
1891	20.4909847466	6.17705391443	5.59936925505	14.98256235
1892	19.2936083316	6.17221745508	5.78009501762	14.891319272
1893	18.2762641489	6.1731095694	5.73809168148	14.891319272
1894	17.8311418937	6.72164070539	5.7191106614	14.9031204934
1895	17.5262559898	6.85378539285	5.7191106614	14.9753601259
1896	17.266619136	6.82793330745	5.73542407694	15.0062462373
1897	17.2895474589	6.8319646125	5.77116988262	14.9981231223
1898	16.6999157198	6.83599354021	5.80849858245	15.0589319721
1899	16.3984984098	6.85872796119	5.80909943805	15.0844562299
1900	15.9582553717	6.85001428813	5.76730734516	15.4239419235
1901	15.9011327153	7.18867960082	5.74599361559	15.9618069494
1902	16.1969351516	7.22913572235	5.67395961274	16.5761712614
1903	15.9507652091	7.25247759567	5.67088310519	16.8454421453
1904	16.0003021929	7.25475510303	5.63264247263	17.3572281181
1905	16.8294649163	7.28665266058	5.60957296445	18.0529132475
1906	17.8336865586	7.28891948955	5.67481127379	18.4958412097
1907	19.4606295943	7.29118561376	5.37722922185	18.5854088315
1908	21.43913629	7.35003250182	5.34236548115	18.5759470999
1909	23.6494829368	6.71946618332	5.38486297006	18.4215345962
1910	26.445638825	6.68733360369	5.38486297006	18.1431389183
1911	28.9787722637	6.69144961442	5.37812787226	18.1431389183
1912	31.8520760734	6.69391800604	5.35787178109	18.1550315863
1913	34.9119523211	6.69391800604	5.38396544381	18.3940158836
1914	38.0811111228	6.733729565	5.19122126588	18.5739768116
1915	40.9723893496	6.72075837546	5.30084424029	18.6791080878
1916	43.9632121268	6.3735183006	5.34301875657	18.6791080878
1917	46.9892366289	5.87204341155	5.34914560749	18.7331737049
1918	49.697740458	5.87204341155	5.36137830453	18.8024582068
1919	52.5098565602	5.86413904584	5.3351741721	18.8401014525
1920	55.4417985387	5.82729196859	5.91548795387	18.8517408968
1921	58.5377725594	5.81229825232	5.93736895547	18.8517408968
1922	61.6648393687	6.0453917649	5.79716311887	18.9101901389
1923	64.5814588708	5.82703754316	5.68974189325	19.1109883677
1924	66.8116922909	5.85086897512	5.64583027964	19.3233960619
1925	69.9511455701	5.8746037312	5.57837645738	19.3573268274
1926	72.1061135898	5.88343008115	5.57837645738	19.3275393672
1927	74.0834535321	5.90104317578	5.62925722999	18.938612903
1928	76.0088392401	5.9461656675	5.52513251808	19.0182237167
1929	77.927722465	6.17866522624	5.45018021712	19.0538849231
1930	79.8390869921	6.27887214322	5.43493728673	19.0684953485
1931	81.3405834469	6.27887214322	5.43493728673	19.075886469
1932	83.0152271974	6.41462513618	5.41965148531	19.068311012
1933	84.7356337775	6.51373835673	5.50882993532	18.8684394053
1934	86.4638402218	6.69372816207	5.75127110075	18.6560734085
1935	88.1195899679	6.91724284376	6.0120082405	18.6560734085
1936	89.7800001229	6.98003238718	6.08542334799	18.6180580862
1937	91.6326707225	7.24637151525	6.05153409084	18.5449868563
1938	93.3829710493	7.21746582218	6.03780951705	18.2276412695
1939	95.4537320963	7.30569535612	5.96929801743	17.6877242284
1940	97.4054698949	7.39361682951	5.86562544873	16.8364410308
1941	99.6169574209	7.45239380254	5.93533376046	15.95089435
1942	101.709717459	7.4703052936	5.73996294441	15.8883491272
1943	103.873731826	7.83085876332	5.63145071791	15.8687267209
1944	106.244663999	7.71711372017	5.65072619899	15.8490800206
1945	108.452773202	7.61828228445	5.62835097465	15.8490800206
1946	109.999310891	7.64650377802	5.6135918631	15.8379836697
1947	111.410151059	7.66324307169	5.59169225032	15.8379836697
1948	112.640702438	7.7615020183	5.5547916028	15.8118009194
1949	113.674397	7.8101679356	5.81140984218	15.8062913322
1950	114.446147263	7.82133261635	5.95502326115	15.4849780742
1951	114.890002007	7.76292087209	6.00271231212	14.9478912561
1952	115.125212297	7.69273139552	6.0440316319	14.4923837971
1953	115.202509578	7.69273139552	6.09388824339	14.4086650476
1954	115.209721886	7.72068075919	6.12925182149	14.2964805337
1955	115.19015037	7.72068075919	6.19655818446	13.6392292523
1956	115.19015037	7.77031108969	6.36329183625	13.0341418994
1957	115.251239199	7.77031108969	6.36603373284	12.9073196751
1958	115.338691796	8.0643060519	6.33750238722	12.8893713415
1959	115.454844499	8.35388836138	6.30884201169	12.7729777053
1960	115.497642469	8.42472880384	6.30309429824	12.6538653999
1961	115.417509641	8.48470031108	6.3105014876	12.4325272231
1962	115.261542639	8.55445755339	6.3105014876	12.5745312524
1963	115.073419547	8.65268073781	6.66977804946	12.7424409195
1964	114.755869298	8.75851115746	6.7047069803	12.9940502334
1965	114.398734566	8.82610459712	6.61837776673	13.6494715121
1966	113.910405053	8.88822926564	6.58437730464	14.409667665
1967	113.313261374	9.09317804556	6.59855189226	14.948392606
1968	112.948774451	9.20786593417	6.58861658323	15.1644700917
1969	112.112596887	9.33546950862	6.57866626959	15.09924438
1970	111.220397803	9.42555732379	5.92668770992	15.09924438
1971	110.136639324	9.54539468386	6.00834521686	15.6671628797
1972	108.918410356	9.54539468386	6.02097768935	16.6046044573
1973	107.684189974	9.47919905977	6.06274822996	16.7002491436
1974	106.774968075	9.55880923646	6.06987371314	16.18135521
1975	105.034616762	9.66797507818	6.063899496	15.8289843717
1976	103.998144661	9.72925211803	6.08180454185	15.5954528845
1977	102.980017145	9.83652656528	6.11495531121	15.5704326466
1978	101.95172274	9.83652656528	6.11666738958	15.4700556425
1979	100.812592841	9.69501440186	6.11609675004	15.4589146064
1980	99.6100476571	9.92697443328	6.10902518101	15.4730977152
1981	98.6616297837	10.0024710527	6.10902518101	15.4759120644
1982	97.4560260192	10.0315859189	6.10194541671	15.4691617681
1983	96.1173233194	10.0106410599	6.00776428849	15.4566656981
1984	94.800207494	9.98146509996	5.64844513352	15.5370883848
1985	93.5152817203	9.94809544675	5.27856264364	16.0851237163
1986	92.1755759187	9.96917171265	5.16238585002	16.6526607468
1987	90.5527904706	9.82180941537	5.31738056325	16.8650652784
1988	88.9559622841	9.77479530832	5.35591715079	17.0911300952
1989	86.9857035678	9.73595468957	5.40218583459	17.3437751319
1990	84.9413273403	9.71437245007	5.40218583459	17.5641753913
1991	82.5333998133	9.73595468957	5.32484801185	17.55723578
1992	80.1132737592	9.76642800871	5.53489101917	17.5673462428
1993	77.4714249281	9.54712522176	5.54332480436	17.632623928
1994	74.3187605325	9.71437245007	5.529601233	17.7888980048
1995	71.1986107728	10.083873257	5.529601233	17.8121747866
1996	68.9403887834	10.1748284314	5.529601233	17.8141306744
1997	66.6660599366	10.2973205193	5.5067338699	17.8634068861
1998	64.7067065967	10.3577575415	5.52177860859	17.9317826921
1999	62.9900143228	10.4418871836	5.25102508079	17.895930522
