	VL	GM	SM	BF
0	50.7014743317	207.836664803	1730.12440674	30.9942355372
1	49.097974581	214.250351922	1657.86800501	29.8434181819
2	49.1906212324	217.288755213	1661.44674189	29.1190942149
3	47.6029585178	215.444820167	1681.55583482	30.0975669422
4	46.7675549441	212.361067572	1684.27854667	30.0975669422
5	45.5314743944	208.403531089	1678.31082936	30.3588636364
6	46.187919479	200.493316976	1682.72350029	29.9863768595
7	47.1975304334	193.723313907	1711.12222911	29.9863768595
8	47.1793178438	192.099646903	1701.03927997	31.2039082645
9	39.057294665	192.980719073	1625.52367144	31.2253520661
10	39.5300301476	198.795147546	1643.11439397	30.8155371901
11	39.2156650129	212.944130038	1683.93850355	30.6757553719
12	49.3553264006	217.064438126	1683.93850355	30.6638421488
13	51.3785075657	219.530306469	1673.56837182	30.879868595
14	52.4205844391	224.000452036	1665.38209011	32.9194123967
15	54.1974997168	237.423035873	1653.61628255	23.8463016529
16	56.4780326951	248.793563755	1637.02044255	22.8066743801
17	57.8534791462	252.498439837	1705.9466308	22.4135380165
18	57.3332325594	254.624188408	1865.80003388	21.6820661156
19	52.8553110371	246.830586789	2081.42997628	21.4350652892
20	48.0408525293	235.298906919	2322.01719022	14.292690909
21	46.9599749205	219.102727327	2479.85400347	14.1759413222
22	46.4373527783	205.111657587	2583.17898534	14.2164462809
23	48.7218450137	169.81694302	2642.57607659	13.8860528925
24	48.0060110499	161.897821009	2674.29791822	14.0290115702
25	46.9694771382	157.609072653	2689.59512487	13.4547942148
26	46.4096379644	159.183341309	2716.22973207	13.1712595041
27	47.0557889762	168.965833783	2781.28763396	13.3626652892
28	47.7138177631	174.808605571	2887.08759326	13.0576867768
29	57.9041576584	177.996013714	3036.61583551	13.8860528925
30	56.649864522	180.248092487	3166.86970784	13.8860528925
31	57.5430732706	182.754451278	3274.2957202	13.8479305785
32	58.0870754086	190.134240509	3417.55170536	13.7843933884
33	59.7848055154	189.385167203	3633.46251864	14.1179636363
34	70.2720898118	190.305110204	3910.0075174	19.2906851239
35	65.5843275806	189.475865809	4243.06358017	19.9197033057
36	65.3087631793	186.107060454	4626.32925823	20.6694421487
37	64.8376114008	175.24590242	5077.1364942	20.6885033057
38	63.930941171	162.768365662	5297.70534596	20.808429752
39	63.6656708415	161.677552966	5453.23128613	20.9267677685
40	63.063863528	156.812220617	5452.85968448	22.6351239669
41	59.8354840283	151.597050789	5358.13361204	24.8938710743
42	58.8987234326	147.673526282	5209.85903225	24.8279512396
43	58.9486100915	151.677221878	4974.1760133	24.7604429751
44	58.9486100915	149.789557146	4808.4148541	24.6119247933
45	66.0436015786	149.519890756	4695.25860233	24.9550256197
46	65.7561594009	148.894718224	4602.98857221	20.8632305784
47	66.7127162895	148.458231184	4546.92169445	19.3192768594
48	66.9399777347	150.80991646	4512.80692756	19.3192768594
49	67.1403162237	150.80991646	4447.13600129	19.8839636363
50	75.3050994022	149.896451931	4378.67924612	19.776744628
51	70.6300067936	148.920632111	4326.41832663	20.4502388429
52	70.6205045727	149.753925551	4313.66868202	20.411322314
53	68.5973234049	155.810486909	4308.96093887	20.4081454545
54	67.5006087618	159.928365571	4308.29820981	20.3708173553
55	70.949914892	161.321237015	4304.50408599	20.7163008264
56	64.9801447076	164.735391673	4299.75531675	21.6312363636
57	59.7974751406	167.400473025	4298.6065864	23.3729495867
58	58.5661457037	167.400473025	4318.28253856	23.2903512396
59	57.7489547185	168.615186495	4209.87663396	23.1942512396
60	57.4892273516	168.615186495	3852.61439258	23.3697727272
61	57.4892273516	162.940854975	3475.46160106	23.7954719008
62	53.7698997809	160.472557205	3180.96137879	25.510976033
63	54.1278167628	159.211684624	3127.68348578	25.43393719
64	54.6377692773	159.211684624	3421.95096393	24.2942388429
65	55.2720425132	151.473959824	3919.72675453	24.2942388429
66	55.1128803161	145.351803938	4753.95193844	24.3633355372
67	57.0798400115	143.110252682	6053.46498809	24.5761851239
68	55.8128772465	141.782165956	7430.68854178	24.2044925619
69	55.430412862	150.378288274	8788.28900384	23.4460173553
70	53.9100575441	154.589294968	9856.01887942	23.4293388429
71	52.7975058643	160.990025143	10599.884902	23.5000239669
72	51.7871030597	165.140296163	11161.5122698	23.2832033058
73	44.6414330621	169.824231301	11626.3259687	23.5087603305
74	43.4758273165	171.696509662	11979.6197254	23.9408132231
75	42.9413274001	172.670709864	12165.437117	24.6651371901
76	42.63012967	171.358819317	12214.175316	24.6651371901
77	45.6455010541	159.853053335	12210.9058527	24.6651371901
78	45.6455010541	148.114062367	12187.1138797	24.6651371901
79	40.7209751548	141.392647837	12145.5071187	24.1449264463
80	40.5499351814	135.148210795	12128.198056	25.453792562
81	40.542808516	130.516103432	12089.05286	26.7936330579
82	40.6346633164	120.312510289	12004.6866628	28.0556404959
83	48.6545376219	110.882284721	11864.4129584	28.1279140496
84	42.7789977945	107.902187677	11682.5790418	23.9289
85	42.7797896461	106.084976326	11369.7709294	23.3824801653
86	42.7797896461	118.624058566	10938.1410209	22.5564966943
87	42.5351074612	126.087258122	10319.0266416	22.7177223141
88	43.5961887793	136.958943673	9709.38770988	23.0171413224
89	41.8897483056	145.493520509	9113.14695045	24.6754619835
90	41.3219906167	153.89690829	8675.56825973	22.6994553719
91	40.856381801	151.467481352	8376.48179463	19.3065694215
92	40.7399795967	152.082126367	8199.62781345	20.3803479339
93	41.1770817502	151.797883415	8141.0938479	20.5256892562
94	41.512826884	151.797883415	8062.84763788	21.7741950414
95	37.0911268327	149.973383784	7993.77470249	25.1766115703
96	37.0911268327	147.680004754	8000.85091303	23.9566975207
97	37.0911268327	144.327395579	7963.8761547	24.0051446282
98	38.9915709802	138.063523121	7963.8761547	24.0178520662
99	43.3372532656	136.826135001	8003.27066304	24.0178520662
100	36.90029056	137.486129319	8053.18362818	23.9058677687
101	37.2043616246	137.486129319	7979.02424731	21.3135504133
102	37.2970082772	137.814101956	7925.86390982	20.9323272728
103	37.1132986761	144.409186286	7833.27119376	20.7933396695
104	40.2229004154	152.069169424	7692.17381181	20.3668462811
105	34.6522235043	159.471633306	7656.7896032	20.7933396695
106	31.2187544076	163.669683056	7744.49705939	22.1784504133
107	30.9780314822	166.112066939	8076.04856942	20.8084297521
108	30.8157018775	166.189808601	8689.58419021	20.9204140496
109	31.0318773998	159.795556898	9396.20720695	20.7798380166
110	34.4210027959	153.02474402	10077.9699946	20.828285124
111	33.4826584983	147.100991334	10705.3116817	20.9386809918
112	34.0884250707	142.821150877	11210.9999838	20.9386809918
113	34.2079946822	141.178858266	11454.5813129	21.1110256199
114	35.0323123322	134.529516735	11360.2015953	21.9115942149
115	36.2676010272	136.465770005	11095.3663877	22.6549793389
116	36.1725788193	139.079833391	10591.2189307	22.5723809918
117	35.3957722729	140.262154501	9716.5546512	28.5917355372
118	35.6974677812	140.262154501	8682.29022583	28.849855372
119	35.6024455744	147.149579873	7561.33137296	28.3923876034
120	35.3870619046	148.697934642	6581.15273886	28.3733264463
121	42.3046786072	148.697934642	5848.83950381	28.3288504133
122	39.9378337891	149.267230354	5245.59906325	27.8205528926
123	39.3874968378	150.481943824	4719.23361474	27.8801190083
124	38.7603502685	151.690178821	4300.57583844	28.163653719
125	38.7603502685	158.832694021	4021.21976396	28.4241561984
126	41.7812646109	159.879777032	3912.26000722	29.2437859505
127	39.5458671809	158.130589636	3874.47498373	30.9021066116
128	39.2354613037	156.374923768	3840.47461649	30.8068008265
129	39.2758457421	157.132095164	3840.47461649	30.9592900827
130	38.6296947313	159.15094895	3840.47461649	31.1776991736
131	38.2472303467	162.483312901	3874.15308676	31.0387115703
132	43.6310302482	163.076093074	3883.45732926	32.0934289256
133	38.2218910915	163.662394775	3816.24950277	34.8509429752
134	38.3485873678	163.662394775	3667.73192232	35.1749826446
135	38.1522081384	163.662394775	3541.07887783	35.1749826446
136	37.4894282414	155.208798837	3350.01645916	35.1042975207
137	37.2875060501	155.208798837	3096.93364676	35.2822016529
138	42.063955675	152.247327399	2816.8832847	33.5643148761
139	41.2364706183	148.437985959	2537.90827942	29.8338876033
140	40.7653188399	144.602730632	2345.72079929	27.9158586777
141	40.0391908044	154.605491148	2289.04168612	27.2614256199
142	39.8966574931	155.745702191	2291.95769395	24.7199380166
143	45.5322662462	156.940980245	2302.58029389	25.7174719008
144	44.0301235153	156.138459546	2333.53920815	25.812777686
145	44.3128145829	158.541162789	2389.71890764	22.6740404959
146	44.3436968004	164.657650011	2441.72735893	22.1784504133
147	44.3603256867	164.387983621	2481.61733612	22.7145454546
148	43.9287664954	162.094604591	2487.98663569	23.2109297521
149	46.9694771344	160.479035677	2475.66855392	23.6676033058
150	47.3693622566	156.961225469	2469.71977172	23.6676033058
151	47.8191340378	156.961225469	2500.30313952	23.6874586777
152	47.7835007101	157.941904144	2540.33197424	23.8335942149
153	47.6449266558	157.941904144	2543.30163156	23.38486281
154	41.3734609633	155.859075448	2525.38901205	23.5087603306
155	42.3173482236	153.931730077	2524.43278871	29.8624793389
156	41.4803609473	149.187059265	2521.48601131	26.5339247934
157	40.8350017872	147.333406511	2460.32558742	26.5458380166
158	39.7541241781	147.867880438	2302.66471295	27.222509091
159	40.1120411601	149.248604748	2082.71204141	27.3654677686
160	43.3625925081	153.947926256	1860.71911116	27.4766578513
161	42.9888384914	157.660900428	1658.75479959	37.2836231405
162	43.1907606821	160.764088438	1508.35948683	37.8046280991
163	43.3340858452	166.342052689	1458.54119727	38.6186983471
164	43.6310302435	168.926962952	1444.76826745	39.4002057851
165	43.4481124951	166.400358936	1441.67237602	39.6225859504
166	44.1259375761	164.993720738	1440.90234798	39.1103173553
167	46.0453861683	163.257490286	1438.00843112	36.3154752066
168	47.9355362462	163.03155358	1429.27697587	37.0898347107
169	50.9509076292	167.406951497	1435.16816376	37.427376033
170	54.3376574741	165.70635264	1445.16669384	37.7252066115
171	60.6526750073	166.435990531	1453.7632364	37.9833264462
172	67.0547962372	167.164008803	1467.0012492	37.2018190082
173	74.3715062086	165.787333538	1473.09598958	37.3948132231
174	82.4864027249	167.487932395	1483.06453907	37.3606619834
175	89.9511889723	158.827025358	1618.90190366	37.3606619834
176	87.3737115978	159.669226697	1825.3143895	37.3606619834
177	89.6376156899	161.152796748	2053.45728757	37.1184264462
178	91.0035599207	165.440735295	2348.20761116	37.1184264462
179	94.0125964874	173.188987611	2628.54199996	37.2995074379
180	96.3057990948	178.446267507	2753.92007999	37.3479545454
181	101.456002741	176.243587082	2925.3964883	37.843544628
182	94.9754881954	177.290670093	3179.03946454	34.8509429751
183	95.1774103858	178.323176542	3593.668006	33.9415669421
184	95.3935859089	180.416532754	4102.4506216	32.7216528925
185	98.3392743388	180.416532754	4698.44049075	32.7383314049
186	100.581798433	181.122686184	5241.878313	32.9797727272
187	100.581798433	175.343079497	5713.69090405	31.1618148759
188	98.9347468393	170.19026496	6188.63015608	30.7075239668
189	100.964262819	165.953344379	6582.7685354	30.7361157024
190	102.484618138	160.261197061	7037.64918814	30.2309950412
191	102.371383341	152.943763122	7482.71671714	29.668690909
192	103.289931344	150.285160242	7891.34834965	29.7520834709
193	94.300830518	153.044989244	8283.08749201	25.3044801652
194	93.6040009978	157.690053551	8764.49781985	29.6909289255
195	91.8745968212	162.123757714	9328.24670961	29.0436438015
196	90.4365940816	157.029249424	10080.1727798	28.9292768594
197	88.707189906	162.276811611	10896.7993515	29.3859504131
198	90.1792422701	167.225554286	11799.259592	30.1198049585
199	78.6752203554	169.723005179	12776.055941	30.0380008263
200	75.3050994002	172.279572127	13665.3152499	28.3224966941
201	71.7417666231	176.108348983	14422.7269809	28.4559247932
202	69.430351427	178.421163429	15103.217171	28.5321694213
203	65.5977890622	167.967339311	15897.0718992	27.9563636362
204	68.1277553374	159.334775589	16657.9227205	27.8300834709
205	68.3692701149	151.791404944	17568.4864016	25.2528561982
206	65.4615905659	151.791404944	18603.4522152	25.5141528924
207	63.2760797936	152.636035709	19588.9492499	25.9144371899
208	61.5078748838	154.917267605	20435.1153912	26.4672107437
209	60.9282394192	154.729391921	21259.1653173	28.1318851238
210	47.7771659095	152.409289195	22026.1069342	29.790205785
211	45.7721973305	150.048696019	22828.7309879	25.7492404958
212	44.43951087	148.85017873	23268.7925457	27.4004132231
213	43.2042221726	148.85017873	23630.7096697	28.9920198346
214	45.9662010028	147.40547951	23541.363537	31.6605818181
215	44.0974309195	147.641133923	23171.2198941	34.0591107438
216	43.016553311	148.348097162	22576.0260888	38.4471479338
217	42.7671200171	149.106078367	21817.1192726	37.3408066115
218	42.7156496553	149.44538833	21070.6031228	38.9363842975
219	43.7894005988	128.873810821	20200.2844524	39.8981785124
220	45.8014958431	124.577774184	19222.5894744	40.4223603306
221	43.299244382	121.737774093	18066.3095299	41.239607438
222	42.6364644836	117.376952738	16904.2898785	37.9039049587
223	41.7218757373	118.333337143	15771.2125516	35.9112198347
224	40.5554781409	113.130314449	14607.5431782	35.3870380165
225	41.7305861046	116.210827807	13535.2854431	34.5483471075
226	41.2111313709	115.929014282	12549.3592124	34.8890652893
227	41.2721039533	114.992875102	11626.6573332	34.4061826447
228	41.671197224	112.016827102	10911.4898455	32.2459181819
229	42.0473267953	112.016827102	10370.4473154	31.9242611571
230	42.7797896446	108.149179416	9798.41431246	31.3563975208
231	43.9010516913	108.352441469	9368.3978336	32.1784099175
232	42.4464200659	108.025278642	9096.30022016	38.4400000001
233	42.0821682712	107.691637342	9056.17749884	45.988218182
234	41.880246081	106.814614217	9285.15275303	46.7959347109
235	42.1265119693	118.08958464	9685.3117102	46.4528338844
236	42.8558074131	137.991450123	10203.3007369	46.3472033059
237	44.1346479549	143.899816438	10917.3415852	45.3464925621
238	42.8043370502	146.815128764	11883.8277637	42.1418355373
239	42.8043370502	147.418436454	13109.9396261	41.0799702481
240	42.8043370502	152.957529874	14758.1081181	40.5081355373
241	43.5011665726	146.886391954	16609.4582917	39.3461991736
242	43.4481125071	147.742360046	18636.9989286	38.8656991736
243	43.3934747381	146.615105946	20962.9001844	38.3605785124
244	41.2752713627	144.833526191	23609.9599386	38.7807181819
245	39.3938316545	147.100991334	26510.5103992	37.9031107438
246	38.0849007475	150.923289718	29702.3294889	37.4424661157
247	37.2368275458	149.329585646	33088.0488978	38.0627479339
248	38.7761873075	145.117769143	36656.9836978	42.1728099173
249	38.1110318541	143.531353352	40394.977523	39.5709619835
250	37.7364859856	141.555419442	44554.2043002	36.3599512397
251	38.4048088459	137.184880379	49026.1113777	35.6928107438
252	37.8948563332	135.137683278	53282.1029082	35.6356272727
253	40.4034426103	139.387560803	57534.210373	33.1981818182
254	34.1731532065	145.866842449	61981.0844386	30.5685363636
255	34.7029020123	152.21493504	66716.4799636	30.5685363636
256	34.7029020123	158.431838576	71569.3797163	29.8315049586
257	34.9808419697	155.179645714	76526.4920344	28.8331768594
258	35.0481493666	151.761442012	81401.3754565	27.5600504132
259	33.9458917597	152.198738861	86005.9979714	27.3972363636
260	38.2591081242	155.085707873	90597.7824779	27.042222314
261	42.9975488697	157.204168163	95450.4360741	27.7411314049
262	48.0147214232	159.383364127	100946.74396	28.1858917355
263	53.579855375	164.04786385	105707.894398	28.9221289256
264	58.5970279302	171.842275279	110301.799637	29.5797388429
265	69.9490143119	172.962241097	114459.698589	30.3302719008
266	72.118688051	172.962241097	118741.502628	33.5603438016
267	74.292321048	172.298197734	123336.140025	31.7685950413
268	75.903739318	173.643290449	127126.047626	32.007653719
269	74.4308951039	182.369792013	130502.237938	31.4358190082
270	76.0050963385	185.226798093	133516.961623	31.1499016529
271	80.6303022856	185.226798093	136155.418523	34.5928231405
272	81.6209088004	188.964066534	138546.191486	31.527153719
273	83.3946566732	191.915820265	140507.632	30.5645652892
274	84.8271164502	201.412450168	142293.703362	29.8275338843
275	82.9195456367	200.849632927	143894.194022	29.624214876
276	85.5643304092	202.307289091	145383.405373	29.624214876
277	85.4257563565	205.034725734	146847.143471	29.624214876
278	85.2380874968	207.73624849	147916.508078	29.8815404958
279	85.1240608482	202.216590485	148030.834362	30.1833421488
280	84.7479312767	200.985680836	147767.863474	30.0221165289
281	83.1444315252	201.892666893	147188.383448	29.8593024794
282	83.5316470215	201.892666893	146673.581044	28.8585917355
283	83.7335692115	201.892666893	146400.527207	32.0735735537
284	84.3963491086	201.471566224	146230.63267	33.3443173554
285	85.226209719	193.476322168	145806.97839	33.5801991736
286	90.0208719318	180.248092487	145330.844647	33.3641727273
287	95.3777488727	183.700308167	144803.864597	34.9526024794
288	98.1904062115	187.794702368	143913.762675	35.4251603306
289	100.292772553	195.257901923	142827.164746	34.1266190083
290	102.355546308	197.269467429	141716.983129	35.9779338844
291	103.811761637	197.269467429	140106.286443	36.5624760331
292	109.969200679	196.702601143	137973.104428	39.3843214877
293	111.537067102	195.134810959	135699.356004	37.4273760331
294	111.35731676	190.91165713	133345.636696	38.837901653
295	111.096797541	180.752603481	130716.122693	39.3525528927
296	110.834694618	176.302703138	127801.613897	39.9498024794
297	116.155938237	175.498562821	124598.68305	40.8075545456
298	133.545002193	175.978779546	121381.969017	41.1435074381
299	150.591194361	174.534080327	118193.068302	41.2110157026
300	161.122822354	173.387390812	115232.664729	41.9472528927
301	168.744395239	172.168628297	112576.714149	42.1283338844
302	176.504542177	179.940365074	109215.103876	42.1132438018
303	178.701930721	182.449963102	105359.462232	41.6811909092
304	181.920807996	182.449963102	101220.047897	41.1403305786
305	182.085513156	183.445218338	97345.5531898	36.1081851241
306	183.104626332	185.511850854	93900.5211087	32.2363876034
307	184.853034949	191.944163579	90659.9149043	28.9006851241
308	184.914007534	195.391520405	87728.5128284	27.9118876034
309	184.03346841	194.031041319	84963.039172	27.1470586778
310	184.03346841	190.22089007	82242.7944065	25.6285198348
311	183.484715161	187.915363905	79811.828505	30.1714289257
312	184.112653583	185.109375791	77568.0930281	31.3087446282
313	184.81819347	182.177867285	74889.8984208	31.3905487605
314	183.167974464	171.728902021	72072.996201	32.0672198348
315	179.611768351	170.374901407	69040.1934245	30.0602388431
316	179.215050634	170.374901407	66311.5556689	45.3306082646
317	182.370579771	171.566940225	63906.3793951	52.2942842976
318	182.370579771	167.157530331	61319.3337013	52.4181818183
319	182.521823451	165.463409946	58661.5795515	53.4474842976
320	176.285991087	163.675351719	56008.4913298	56.3741661158
321	175.956580768	166.918636683	53391.0650317	55.9929429753
322	174.305569911	173.65867682	50832.8172821	54.9445793389
323	171.126285218	174.534080327	48426.4796546	54.6586619835
324	169.605929901	171.417125564	45987.5775727	54.9509330579
325	168.237610116	183.003872444	43553.6136112	55.4012528926
326	167.167026579	179.116789342	41070.1406338	51.9011479339
327	167.891570911	172.534661956	38663.2980698	50.1975570248
328	167.489310233	166.406837407	35975.0820525	49.9759710744
329	166.665784435	163.03155358	33429.8845425	49.9759710744
330	165.912733441	169.192580297	31060.3875495	50.6558190083
331	166.086148969	173.137969646	28717.1930103	51.0330710744
332	169.456269921	172.680427572	26384.7867533	48.9149
333	170.498346798	172.680427572	24094.0046144	50.6041950413
334	168.303333806	173.674872999	21921.869122	50.6081661157
335	164.547581058	173.986649456	19853.1698552	52.7168066116
336	155.427824704	170.921522469	18015.7559267	53.5300826446
337	139.378573871	169.979714625	16344.9820624	55.0263834711
338	133.164913359	166.461094609	14757.3980512	55.2368504132
339	127.526929049	161.942360503	13236.1792539	54.277438843
340	121.419376662	160.423158857	11810.5898919	54.3910115702
341	115.183544296	160.423158857	10514.5190885	54.9350487603
342	101.614373075	161.511542126	9435.86128418	55.1979338843
343	96.0524065315	166.675693989	8662.05884364	57.5496041322
344	95.1401933413	171.281887464	8122.72994151	58.2604264463
345	94.5003771438	176.298654093	7707.19882615	59.9632231405
346	93.8851083502	179.833470289	7318.70705615	60.7772933884
347	93.0750440312	182.906695367	7149.93836943	61.5516528925
348	82.8308582199	183.603940898	7317.28692247	61.9837057851
349	76.1412948113	186.256065306	7804.97581912	62.1076033058
350	70.9031956254	189.901015523	8493.57023878	62.1076033058
351	66.9621495739	193.013111432	9491.72855424	62.028976033
352	63.1018723993	184.643735628	10688.0594243	62.0607446281
353	58.8258730667	180.023775399	12077.4480009	60.0656768595
354	62.2783466074	176.270310779	13676.190318	58.5685818181
355	62.3155636386	170.947436356	15528.5061826	58.9339206611
356	61.6860415132	164.443050632	17757.8249357	61.4214016529
357	60.7381949948	160.828063347	20361.2936865	61.631868595
358	60.0033565894	158.15893295	23081.9881611	62.9216735537
359	58.7205567906	158.632671203	25659.7083103	61.8185090909
360	65.5977890589	160.355134903	28334.7312857	59.9481330578
361	65.2359128206	163.114963905	31155.6848313	54.8611867769
362	63.9032263608	163.114963905	34324.2563327	61.1990214876
363	62.7692946871	155.625850462	37344.4893483	80.870929752
364	61.6290281995	155.625850462	40347.4969312	85.4924661156
365	55.8445513218	156.122263367	43286.1645688	84.8134123966
366	57.0299533596	156.698037551	46111.3808823	78.4088636363
367	55.1318847663	157.272192118	48862.994034	75.2121487602
368	55.1318847663	157.844727066	51217.5322856	77.4526289255
369	55.5278106313	152.451399262	53790.4358148	80.1966413222
370	56.2285994127	151.130600816	56223.976892	82.062252066
371	59.528245565	145.762377091	58526.5185268	83.7864925619
372	58.4386575875	132.777090103	60674.6592828	91.2584661156
373	59.0254197213	124.555909342	62660.3217552	91.5483545454
374	57.4797251458	118.900203429	64489.6716913	91.4649619834
375	56.7955652498	107.027593979	65963.429621	91.3220033057
376	61.7517652187	109.473217097	67352.8765808	91.3220033057
377	62.7938420923	114.996114338	68735.7396432	91.3220033057
378	67.7231191035	122.220420245	70052.5759569	92.1257487603
379	75.5711615866	126.148803605	70372.2953864	93.2003214875
380	80.6390126521	139.015048673	70054.1688735	91.6055380165
381	83.2402455806	139.793275102	69293.4103607	89.7748727272
382	74.6431113637	143.08028975	68567.0711547	89.5874380164
383	72.9327116276	146.964943425	68018.1042786	92.4752033057
384	74.6842876494	149.895642122	67545.7110107	95.4995735536
385	76.547514766	150.077039334	67011.8764479	95.0802280991
386	75.305891252	148.538402273	66586.7617971	94.9730090908
387	74.6526135743	147.240278478	65791.707845	94.305868595
388	88.0737085251	142.043734256	64430.8623776	94.5782842974
389	85.3940822746	136.368592927	62673.5203198	93.6379338842
390	82.9868530211	128.31909167	61007.1283569	93.8166322313
391	80.3135615866	126.715669891	59513.7788942	94.0382181817
392	79.7877720374	121.390366041	58310.7434151	94.1311413222
393	78.6221662945	122.585644095	57287.1110573	91.2362280991
394	78.8494277412	123.774443677	56097.1147723	92.9263173553
395	78.4891352046	124.956764787	54584.7481416	90.6485090909
396	77.9182101064	127.301971592	52346.6868878	89.6263545454
397	78.2547470914	125.047463393	50208.7505813	89.4929264463
398	77.3639138953	125.365718322	48064.6737745	90.6389785124
399	71.1082852393	125.128444291	45963.2585725	89.5080165289
400	71.2864518786	124.808569744	43797.781929	91.9454619835
401	71.1724252298	124.568056477	41748.1440121	93.908761157
402	68.6725493203	122.883653799	39708.7397363	91.5761520661
403	66.4276496691	119.042729809	37756.8070167	90.9066289256
404	55.5634439492	119.042729809	35844.982817	91.4339876033
405	53.4373220566	119.961863001	34049.3152961	92.1519578512
406	50.935862445	119.123710707	32477.8261333	91.4014247934
407	47.7930029321	117.037642776	31425.1094376	92.4061066115
408	45.6811343725	112.12939055	30457.4461261	91.8557157024
409	43.9477709383	115.190468493	29376.0143273	93.1423438016
410	45.1165440884	116.441623367	28336.739197	93.6450818181
411	44.7839663636	118.164087066	27369.7441372	91.8715999999
412	44.2138331198	122.126482403	26601.3326819	84.7022223139
413	44.1069331363	125.442650175	25710.1127996	66.8800404958
414	44.293018293	126.521315736	24798.3743524	64.5101033057
415	42.7314866864	127.531957342	23894.7156769	69.357990909
416	45.6747995623	127.531957342	23055.9776238	68.4263768594
417	46.1055669018	127.74007825	22343.0334342	87.9998024793
418	45.8513824982	127.855880934	21348.1508938	98.0188231404
419	45.2590774059	126.531843252	20533.4612266	96.7226644627
420	45.000141892	130.73232243	19678.0034662	90.525405785
421	45.7856588078	132.646710857	18854.0647839	85.2264041321
422	47.4319185515	136.796981878	18138.322931	88.3079578511
423	50.1685581261	141.480917016	17562.8918638	96.3096727271
424	52.202825216	141.480917016	17064.1495933	103.744318182
425	54.7042848271	137.069077695	16477.1333911	103.473490909
426	56.2602734734	139.109796323	15972.8147291	106.368404132
427	56.4305215943	140.606323318	15626.1103927	111.488707438
428	55.0368625514	141.473628735	15376.3901412	111.428347107
429	52.0412874609	146.400506567	15055.8162645	112.556926446
430	50.1685581201	135.796057979	14720.8974598	114.653653719
431	55.5095980292	136.433377646	14311.8871249	115.561441322
432	61.6979192881	136.988096797	13774.224513	116.396955372
433	60.4784676266	136.988096797	13219.6646771	114.685422314
434	59.3896715012	136.988096797	12793.1196361	114.338350413
435	59.3896715029	137.201886368	12448.8129588	118.023507438
436	60.1878580453	132.51795123	12212.5942338	119.767603306
437	61.0430579108	122.656907285	11943.3274202	121.454515702
438	49.4313441579	126.57314351	11693.6371494	129.6389
439	52.7127777198	132.16082547	11394.9546334	129.501500826
440	56.7923978244	132.955248078	11027.4169359	130.200409917
441	60.9923793928	135.229191693	10563.8292857	130.442645454
442	66.8647518158	135.28749794	10066.0061573	130.448999173
443	66.3769711514	137.427823073	9621.35914568	130.327484297
444	66.70638147	139.553571644	9244.73969326	129.476880165
445	66.4236904016	140.881658371	8920.58944659	133.551996694
446	66.2811570923	148.720609293	8469.22678057	148.646050413
447	64.9484706327	155.382907768	8102.92696623	163.716277686
448	66.6652051814	156.38140224	7686.73312187	168.936652066
449	69.5372513992	156.634062642	7209.88379003	176.979666115
450	68.5181382254	157.36532015	6713.40505486	174.778102479
451	68.0073938602	159.027048176	6235.53559366	172.955379339
452	68.9702855617	160.766517865	5762.28393382	185.230764463
453	75.2702579176	165.81729647	5351.74537737	211.331842149
454	82.7873063746	163.815448673	4994.84369215	223.842314876
455	84.8865053059	163.815448673	4682.10185274	237.012780165
456	86.4076524805	166.937262289	4357.9831646	240.215054545
457	88.2914677444	166.937262289	4189.95373633	240.215054545
458	89.6091090217	169.629877146	3945.91165273	251.308647934
459	89.882297873	167.258756454	3637.84284209	269.556528925
460	80.2114127091	167.779463628	3344.38641807	286.4741
461	76.1571318552	167.779463628	3068.07574138	302.932614876
462	74.2313484532	163.763620898	2793.4155756	318.932073554
463	73.1670997297	165.396195801	2541.88149787	322.927768595
464	74.957476491	165.396195801	2307.08606247	322.506040496
465	75.3969541995	164.735391674	2102.44874374	324.630565289
466	75.3217282852	164.945132199	1959.83497459	319.102829752
467	73.6422107667	164.605012428	1871.61705924	294.018347107
468	72.0078287992	164.630926315	1742.63341758	275.77443719
469	72.0078288004	166.548553979	1597.27563458	269.4644
470	71.4004785275	167.469306789	1444.70278351	271.701703306
471	71.7615629155	165.545200653	1308.63425271	287.045934711
472	71.8209517946	170.358705228	1234.93325943	306.738492562
473	72.3918768914	169.360210756	1203.42522681	344.658281818
474	73.0118967959	172.836720705	1198.26856362	384.562019835
475	75.7010252654	168.541493878	1180.91137418	416.347293388
476	62.0780081272	166.930783817	1175.50460966	421.330991736
477	59.4910285275	165.443974531	1160.74232004	413.808982645
478	56.1549571954	160.495231856	1188.55800509	413.830426446
479	53.9251027267	158.486905587	1226.85743256	413.29671405
480	52.290720759	159.189009972	1292.18358193	417.871391736
481	53.5956924082	156.796024438	1374.91110268	424.987557025
482	53.5576835259	156.231587579	1353.88050077	456.209732231
483	51.66753345	154.194917995	1376.66181192	502.709424793
484	50.3942358721	152.471644487	1386.20511026	537.400730579
485	50.1527210953	152.568821564	1398.22023018	558.530817356
486	52.9661702867	158.237484421	1387.09269382	560.417871901
487	42.8391785319	162.412049711	1357.21308115	576.997107438
488	42.9056940774	166.208434207	1354.46748936	592.014916529
489	43.273905132	177.206449959	1354.17636196	632.620740496
490	43.2319369905	177.932038805	1363.31334428	643.790578513
491	44.6137182582	180.659475448	1358.14405767	645.874598347
492	44.2645116452	180.445685878	1350.2031435	650.601765289
493	42.6681385625	176.189329881	1361.82614873	651.338796694
494	42.6681385625	172.995443265	1377.71981152	651.338796694
495	42.2254934452	176.000644389	1428.22528798	645.236843802
496	42.8589748301	165.521716193	1483.78407347	626.791203306
497	42.0663312489	157.045445603	1542.65650422	607.463984298
498	31.0413796278	155.40558242	1600.82517982	594.978926446
499	31.0120811136	154.479970756	1650.64031353	583.10382562
500	30.6644582064	152.742930495	1674.31315304	580.530569422
501	30.5528071131	151.353298286	1692.65417954	580.689412397
502	30.9210181666	151.668313979	1720.35388701	577.226635537
503	29.9517916497	152.386614544	1766.70626142	567.181405785
504	29.1409354808	151.19133649	1795.19808789	608.639422314
505	29.3183102686	146.825656281	1853.89694674	659.253147934
506	29.5233998654	145.108861244	1907.33105445	744.913987603
507	30.9210181653	146.00855902	1964.6957766	860.534995041
508	32.6527978963	146.00855902	2012.32627133	946.736695041
509	31.6392276825	145.454649678	1907.66241898	1005.79371901
510	31.6392276825	144.729870642	1698.30315575	1002.83606281
511	31.8078921012	152.60364335	1487.42356051	995.914480165
512	32.6440875255	162.804807066	1339.37620211	1058.81629835
513	37.6992689591	161.786877179	1308.28710892	1255.62274463
514	36.4449758197	162.399902576	1318.83160151	1446.92051653
515	36.507532106	164.673846191	1362.73582325	1536.52304463
516	35.7829877752	166.240826566	1405.08736549	1563.84800743
517	35.3332159926	169.840427481	1449.96358984	1563.17689586
518	35.3332159926	169.279229858	1480.19271318	1561.65597438
519	35.0125160418	171.132882612	1476.09010477	1562.71704545
520	30.6795033801	170.354656183	1442.37376427	1575.58332644
521	31.104727758	169.036287164	1409.32567557	1600.39380496
522	31.781760986	159.549374968	1418.35141408	1599.39309421
523	32.1206735254	159.549374968	1434.76815944	1570.57262479
524	31.9662624379	158.418071824	1492.54787621	1533.06026777
525	26.6568965986	158.094958041	1515.12800176	1507.2006314
526	26.7051995543	158.094958041	1553.3295978	1508.31014958
527	26.7051995543	157.36532015	1572.89588408	1520.12806694
528	27.3157172376	159.140421433	1601.61493194	1540.52985867
529	37.1821897765	158.172699703	1630.23141459	1560.44876777
530	36.9992720267	158.654536046	1659.72285739	1574.05128595
531	36.6975765174	157.932996245	1700.77497732	1569.75299504
532	36.8496120491	155.625850462	1679.46666038	1540.78003636
533	36.7617165077	155.807247673	1668.97266144	1497.57871818
534	40.0114760021	156.377353195	1669.73716673	1459.68752066
535	41.5128268787	156.232397388	1679.9266259	1434.84130248
536	39.8847797241	154.560951654	1677.62048659	1430.62243305
537	40.5436003639	149.993629009	1602.22322253	1417.35586777
538	40.5436003639	149.993629009	1512.95046344	1402.50404958
539	40.5436003639	138.202810266	1380.29419829	1371.08173223
540	42.9215311028	138.700842789	1250.9515784	1363.44853305
541	42.0164445764	135.889186011	1132.33254574	1361.12545454
542	42.0164445764	135.769334282	1018.10093719	1356.69452975
543	41.5920120489	146.575425306	923.37407579	1360.88798429
544	40.6861336694	154.891353718	833.243713745	1388.78319339
545	49.1114360623	152.973726054	780.22460066	1432.47454215
546	47.9141562474	155.830732134	738.015860747	1503.88478429
547	47.0708341562	156.338482364	693.095454463	1559.03506529
548	47.0557889735	157.609072653	660.684847991	1625.69113719
549	47.1001326701	162.144002939	647.518630834	1698.24504876
550	47.1001326701	161.120404388	632.654564965	1756.24814958
551	47.3875748483	160.025542648	611.327312915	1777.02481074
552	46.9599749154	161.249973825	621.289550693	1803.26567024
553	47.3875748483	162.224174028	674.523261756	1796.0025752
554	47.3875748483	161.002982086	682.551750837	1728.0757595
555	49.4186745316	162.224983837	711.850686621	1638.21431735
556	52.5163984925	161.33338415	761.025182243	1504.70441405
557	50.9287357778	160.27820305	819.250663198	1322.51152148
558	49.2658471469	158.803540898	876.471794057	1155.78596363
559	49.272973812	163.961214289	946.037042461	1004.05915372
560	49.3489915778	169.408799295	980.151809352	955.119633055
561	49.5390359925	164.311051768	1030.51921727	964.497722311
562	48.7851931479	158.869135425	1101.56929433	935.379422311
563	43.5209628575	157.366129959	1181.85418515	809.225537189
564	43.5209628575	158.545211833	1206.31598782	677.59951157
565	43.4132710227	165.788143347	1182.41987173	610.275504959
566	43.4132710227	167.62721954	1161.65041663	615.078916529
567	47.5309000116	168.317986599	1176.0134909	708.631075207
568	47.7019399856	168.913196199	1184.78912809	857.192938843
569	47.9830473499	166.578516911	1194.19751373	1078.92184793
570	49.3648286154	181.303273587	1218.07706159	1441.9963843
571	49.3648286154	182.906695366	1225.23532431	1882.30911157
572	52.6019184824	189.382737776	1222.35718672	2235.2383471
573	53.7160538641	188.478181146	1219.49719527	2368.26933884
574	54.7137870432	181.50734545	1221.88380882	2388.76723057
575	55.3504358346	180.911326041	1215.16184273	2388.37568264
576	55.4620869286	179.878819592	1209.95389693	2393.26804628
577	55.8801846419	181.187470903	1218.21355222	2389.72028842
578	56.934139292	183.785338109	1249.70501661	2369.67430495
579	46.0707254267	183.016829388	1284.22767746	2365.27117768
580	46.0707254267	184.588668617	1291.29284252	2359.70452561
581	45.8680113845	185.604978887	1281.86315488	2365.80409586
582	45.5005921826	186.208286576	1245.86828878	2370.35732975
583	46.6052253431	185.611457358	1187.32327775	2369.49957768
584	42.0861275264	186.386444552	1142.63088182	2372.6129
585	41.1295706393	185.932141714	1119.7761971	2379.42329256
586	41.1295706393	185.932141714	1107.78316815	2388.76723057
587	40.4644151864	184.730385189	1057.01260006	2396.53068099
588	40.7241425527	177.267185633	1002.858169	2389.98635041
589	41.3631668983	174.806176144	931.367850489	2383.61754132
590	38.5505095605	173.562309551	875.373557341	2381.46601322
591	40.384438165	171.379064542	820.383614291	2385.35210661
592	41.066222502	171.437370789	797.042928267	2389.71631735
593	44.9684678244	165.509569058	753.744630233	2392.9543314
594	43.3934747375	162.402332003	751.310678896	2363.18636363
595	30.6201145026	165.02368367	744.236046271	2310.87063553
596	30.2716997411	165.02368367	752.494123631	2222.61033057
597	30.0555242186	166.658688	761.921444387	2148.24322644
598	29.8377649925	166.658688	797.480802817	2061.54355371
599	29.9446649765	164.313481195	854.296406613	1963.55729338
600	28.3649207763	166.983421401	904.833441609	1878.69066859
601	28.3649207763	168.032124029	975.414085597	1825.87140826
602	28.3482918902	165.788143347	1081.84284853	1748.91198677
603	28.6024762954	159.06348958	1241.43352688	1730.70619917
604	29.3056406298	159.788268617	1448.06297759	1730.70619917
605	30.1861797506	159.788268617	1543.2348142	1730.70619917
606	28.9817732722	157.123187265	1556.4065541	1708.61431818
607	29.15914806	152.244088163	1560.93520262	1679.22836776
608	28.677702208	160.268485342	1604.4551993	1633.21473471
609	28.5708022252	158.298220095	1637.69895087	1613.11712727
610	27.8446741912	157.395283082	1689.75079512	1616.20265206
611	26.9102891492	159.856292571	1739.97934552	1628.23897851
612	28.7727244126	161.083962985	1823.5155535	1628.23897851
613	30.2930797329	159.847384673	1859.68399149	1602.42064132
614	30.629616716	161.812791066	1915.89919432	1572.56848677
615	30.350884907	155.144014119	2052.63676588	1553.08719008
616	30.350884907	153.271735758	2177.85389742	1551.88077768
617	29.4758887479	151.097398648	2279.33428344	1538.54035041
618	29.5558657725	150.745131742	2431.51817568	1492.19076446
619	29.5558657725	147.441111105	2474.43777139	1383.07834793
620	33.3971385075	127.56515951	2469.25270553	1164.71293884
621	33.6093547712	124.885501597	2487.12745481	887.744796692
622	27.1573468843	122.686060408	2542.4527072	668.160267769
623	26.8311039728	122.686060408	2543.79473353	610.13572314
624	26.8311039728	127.16025502	2534.43052982	605.782631405
625	27.3157172302	127.15296674	2533.53821249	608.530614876
626	32.8468015547	128.759627755	2534.54414052	613.337203306
627	32.8966882135	129.39856704	2487.88801529	634.530827273
628	32.4033645871	128.20004975	2346.9926079	638.23107438
629	33.9831087874	133.233822367	2204.0821886	635.074070248
630	34.2943065153	136.776736653	2099.31182623	630.86393719
631	34.6743953461	135.520722926	2028.84163708	629.16828843
632	34.7432864465	135.720745744	1947.90585166	633.882747934
633	34.2721346686	136.000129842	1854.89656306	633.882747934
634	34.4455501976	135.801726642	1754.594888	628.065123967
635	34.4455501976	144.655368215	1619.45417787	609.656017355
636	34.4740568599	139.355168444	1465.10458177	586.022565289
637	38.4436095737	140.796628428	1379.18649402	563.133292562
638	37.8378430015	140.796628428	1314.5704115	558.273491735
639	37.5306045302	139.355168444	1229.0665294	566.256145454
640	37.4142023259	138.23115358	1159.99359401	578.878602479
641	36.1409047454	140.796628428	1087.64014981	584.482582644
642	36.1409047454	140.881658371	1043.50160601	585.094922314
643	32.7581141571	140.258915265	988.779121471	611.006182645
644	33.8603717646	137.120905469	911.70136589	671.511854545
645	34.0567509942	133.537500735	834.111573218	722.548102479
646	34.5437398069	131.853907866	774.958271589	764.766182645
647	34.5437398069	132.497706005	734.967307108	795.823161157
648	35.2183974787	134.570816993	688.102895606	819.649607438
649	34.1486057935	136.618014093	628.611128784	841.887623967
650	34.147813942	136.068153796	558.270329596	857.155610744
651	34.3829939059	135.380625972	508.092272838	866.559114876
652	34.1288095008	133.959411213	476.420135881	867.937871901
653	36.190791402	134.522228454	475.93492354	857.27553719
654	35.7726936899	133.15203166	491.842787666	838.519358678
655	33.4391066476	133.878430315	471.980640199	819.550330579
656	32.8372993348	130.197848503	392.011334648	817.609269422
657	33.5974769935	129.456873286	326.296226447	820.265918182
658	38.0088829769	121.85114735	304.684947661	820.728945455
659	38.8015265575	120.706887262	290.673750963	816.421918182
660	38.3644244031	119.207121032	289.789323265	789.119193389
661	38.0413488983	118.333337143	316.828668567	753.55107438
662	36.6120565292	115.498195905	336.511721397	707.737583471
663	35.5390974358	121.248649469	349.675571665	665.07871405
664	36.2105877032	118.475053714	362.627190844	654.249594215
665	36.2422617723	117.763231621	388.741082364	653.365633058
666	36.2422617723	117.522718354	451.646692764	643.136145454
667	35.9500684838	122.544343837	483.231254811	643.314049587
668	36.0047062532	122.527337848	514.190169076	644.22024876
669	36.2668091761	124.791563755	538.963612192	637.233540496
670	30.7903626225	126.181195964	565.548514717	591.357306611
671	30.1188723557	124.791563755	585.076141806	489.201418182
672	29.7736250022	120.097910909	643.494918735	403.607292562
673	29.7736250022	113.412937783	666.740140217	350.283705785
674	29.0807547388	113.412937783	697.187806355	346.242740496
675	27.489924616	113.612960601	719.604616523	357.257706611
676	23.9170896175	112.793433913	737.996925629	369.230495868
677	24.7762487439	111.643505162	755.215257559	353.190532231
678	25.0296412966	111.643505162	795.492615665	352.412995868
679	24.4595080507	108.028517877	869.154160779	351.288387603
680	24.1997806841	104.015104575	934.744612802	347.342728099
681	31.3644551252	104.404622694	993.541303083	347.926476033
682	31.5758795363	104.711540297	1011.81447875	356.265732231
683	31.5640017604	105.09781918	1006.7019975	359.484685124
684	31.6297254542	109.101514776	1000.66169557	363.508971901
685	31.5798387951	100.056758282	1005.29369826	370.127164463
686	35.6301603878	101.929846452	1004.68856352	375.698581818
687	33.5776807096	100.43979793	1010.17974709	373.631240496
688	33.831865115	99.7328346906	989.142833485	350.47828843
689	35.3078767377	97.0062078563	997.524778061	330.241693388
690	37.3152208715	108.920117564	1002.01792324	307.463610744
691	39.0509598618	106.813804408	1007.3828727	285.358228099
692	40.0676974836	106.636456242	1005.4514909	284.440909917
693	38.8997161848	106.130325629	978.752977677	285.024657851
694	38.0951948277	106.130325629	936.262577916	269.902806612
695	38.2591081348	105.800733375	912.558968839	264.311533884
696	38.8197391599	108.048763102	876.018140242	255.760222314
697	45.9123550941	107.448694648	845.412681472	251.540558678
698	44.6097590016	105.233867089	811.918828586	252.083801653
699	44.6358901087	102.978549081	743.819473726	251.449223967
700	44.5305738284	104.128477832	687.676855503	245.273409091
701	45.1553448429	104.747981701	636.552042957	245.456872727
702	47.6568044517	105.389350413	580.825997281	251.627128099
703	47.6187955677	106.072019383	533.279921613	257.122300826
704	48.4051043348	106.072019383	499.966741289	256.443247107
705	48.3029554614	102.680539376	472.195238178	267.599583471
706	47.749451103	107.490804715	455.948908857	328.188647934
707	46.1974217145	106.814614217	454.554021996	394.407107438
708	41.9214223753	104.303396571	437.240225525	411.172189256
709	41.1359054614	105.389350413	404.974788274	428.162033884
710	41.7179164825	103.817511184	371.873050076	425.595131405
711	42.3133889831	100.59852049	363.337257685	433.245009091
712	43.6341976663	102.14606545	334.047000497	465.553670248
713	51.9454734075	97.6662021746	313.083460463	516.497789256
714	51.4893668111	97.3592845713	300.673858973	554.238085951
715	51.5693438359	99.4194386154	288.037825058	597.949290083
716	51.6477371572	104.222415673	293.198433065	623.922499174
717	51.5661764295	101.907171801	275.0514915	663.551438843
718	55.8603883567	102.075612068	249.777056779	735.25951157
719	56.3489608709	100.941879497	230.484540711	835.580763636
720	58.6168242218	100.941879497	214.806264864	998.303478512
721	59.7127470154	100.332093335	204.758819065	1126.06644298
722	59.9431758673	108.67717487	214.064639497	1175.7088438
723	59.6335618408	112.531865613	218.881259568	1174.24987107
724	63.9626152439	107.323174256	228.108972647	1227.84746198
725	64.3807129572	107.004919327	226.037944361	1389.54325703
726	64.4416855401	107.837402958	230.857720284	1536.25301157
727	64.080601151	115.511962658	257.293508772	1648.38423884
728	64.0164611613	121.899735889	309.163891501	1700.25202975
729	69.8611187709	121.228404245	347.298425675	1707.66443719
730	69.9711861615	121.656793195	373.672675036	1700.00423471
731	64.1399900316	122.589693139	391.991610569	1685.26122397
732	64.1566189183	125.096051931	381.056581219	1666.80367025
733	64.3973418446	127.966824764	368.667492771	1666.80367025
734	64.8597832536	124.503271758	368.042633951	1665.27480661
735	64.9231313919	124.593970364	380.687346461	1667.1213562
736	61.2386452977	124.593970364	418.327989699	1647.24056942
737	60.5996209526	128.92239936	441.20792124	1632.58809918
738	59.8837869896	128.92239936	436.624834263	1636.07390827
739	57.7386606567	132.967395213	437.240225525	1653.01927686
740	55.9870846312	126.687326576	439.917177515	1696.59308182
741	53.0548576787	127.298732356	448.648632769	1804.37677686
742	49.8834915038	127.260671334	454.471180865	1915.42469504
743	49.7480848578	131.594768993	452.045119158	1991.19517686
744	50.6222891662	139.498504633	449.148046447	2022.72630165
745	51.6485290069	141.221778142	441.365713871	2022.37605289
746	51.6485290069	140.582838857	428.698121429	2041.28233802
747	45.9780787775	139.705005923	415.976090529	2077.62561075
748	46.0034180326	144.697478282	393.819638203	2122.85773636
749	46.1974217064	149.558761587	370.674615041	2150.89590413
750	46.0572639501	149.025097469	353.247207875	2173.77882314
751	45.8870158281	149.025097469	329.462335594	2184.48881074
752	43.9485627982	149.025097469	300.062412527	2182.95994711
753	42.3965334119	149.025097469	274.603360427	2181.79483389
754	41.3346602433	160.200461388	261.100256002	2187.98256198
755	41.8066038729	164.80908429	254.510835719	2175.25050331
756	46.3462898315	164.80908429	261.485270023	2091.32661157
757	45.8331699121	167.24579951	287.331703032	1996.62125289
758	43.7806902325	168.366575138	301.197730509	1981.4271281
759	43.5209628649	169.429044519	301.028103431	1998.50592479
760	43.2382717972	173.946968816	266.768167319	2069.88280992
761	43.9984494564	174.757587605	247.940350551	2171.00621901
762	44.0142864913	175.21351006	231.845502156	2216.27646694
763	36.4449758201	174.326769228	222.645402787	2245.18588843
764	36.428346934	174.696042122	215.667812631	2231.60401984
765	36.3309491711	173.834405368	204.455068249	2190.68606942
766	36.6120565352	169.424995474	193.744893399	2165.35061488
767	36.7419202188	167.066831726	178.939999765	2121.97456942
768	32.6369608549	167.659611899	161.791885557	2041.21244711
769	31.427803266	169.513264653	144.856791401	1923.86561074
770	29.6350509519	172.324111621	127.184016694	1714.91323636
771	28.6301911077	178.259201633	121.109000388	1537.1941562
772	28.0861889705	174.75353856	120.181968679	1463.14156116
773	28.8463666317	173.986649456	115.946814454	1498.08066198
774	25.1214960968	173.986649456	114.242654036	1528.34263141
775	24.7057739387	173.986649456	108.043770515	1454.15660826
776	24.6178783972	173.538825091	106.655195359	1350.11843058
777	24.5283991522	165.327362038	108.009056136	1293.94758347
778	24.6178783972	158.641579102	107.5901167	1355.95988099
779	18.3202815982	157.439822576	118.521990198	1495.52329008
780	18.3939238086	157.439822576	120.1622446	1546.91216942
781	18.453312688	158.665063562	119.366969738	1547.95338512
782	20.4582812647	155.697113652	106.132112787	1549.77134297
783	23.5567970763	151.473959824	101.410168294	1540.60928016
784	23.8347370336	150.981595964	99.6783941658	1536.34593471
785	24.4214991646	154.880826201	99.684705871	1531.82129256
786	24.725570228	161.224059938	98.9328239827	1566.14487686
787	25.0233064775	161.224059938	99.8827356233	1634.09790165
788	25.0233064775	161.224059938	98.6235504254	1750.86654959
789	25.0233064775	163.675351719	95.4045807465	1929.77456942
790	24.0414103344	166.84089502	93.1994287239	2067.20551157
791	24.871270947	165.370281913	92.9367039928	2018.75840413
792	25.279074587	168.119583399	93.93079757	1849.64781901
793	25.1016998005	161.654878315	94.7615757739	1689.71200413
794	25.9925329936	152.293486511	95.1970834364	1634.39573223
795	27.0781617134	148.96922065	93.4132377394	1783.30546198
796	28.5296259292	146.009368829	91.5702198056	2006.82532562
797	29.3776991311	144.699907709	91.5986224792	2214.60146777
798	29.3848257958	138.254638041	86.347283709	2346.50467438
799	29.6698924181	129.877973956	83.8044554553	2452.23452975
800	29.2517947061	126.107503347	82.9271284252	2535.47460248
801	29.3776991311	124.183397211	84.8324744483	2617.64010248
802	29.3650295034	128.005695595	79.6095383518	2699.89852562
803	29.5075628147	139.375413669	64.0046360778	2750.2271281
804	33.2926140806	131.536462746	46.0920165707	2759.42016529
805	33.2926140806	130.435122534	37.7629325267	2741.63054628
806	31.9623031764	130.435122534	47.4016954107	2730.58698843
807	43.1408740297	131.108073796	47.4016954107	2730.27247934
808	53.49829464	131.00198882	47.0222041324	2725.00206942
809	56.2602734713	129.349978501	45.8931978553	2692.39557769
810	57.7925065666	122.666624993	46.1772245916	2639.27848678
811	58.1607176204	120.26392175	46.2774229125	2563.58663223
812	58.2011020588	119.459781433	46.2087831179	2519.76503223
813	56.2879882811	123.059382348	45.0095591199	2466.40570579
814	55.9245283367	124.189065874	44.0115207268	2451.25605703
815	55.2712506605	122.544343837	42.017021867	2451.84059917
816	53.0667354468	123.237540323	41.3108998418	2462.02561074
817	53.7667323766	123.541218691	40.8083303111	2466.55819504
818	54.4603944926	123.541218691	47.0190482797	2473.11285041
819	54.4603944926	124.047349303	64.6358066031	2475.2691438
820	54.6504389073	120.162695628	81.5385532697	2473.08664132
821	58.6960093922	115.916867148	90.9674519541	2473.08664132
822	67.9915568368	112.457363187	95.2349536681	2452.14557769
823	86.5620635781	111.996581877	104.28830589	2376.35126942
824	109.374520028	112.997505776	106.191285024	2289.79217273
825	126.756457329	112.712453015	106.154203755	2237.55427769
826	138.707875465	110.781868408	106.506870286	2236.64331322
827	163.568060487	110.173701864	109.299799861	2245.67750744
828	172.082050272	110.943830204	116.195337849	2205.21702479
829	173.593695225	110.254682762	122.633277207	2097.07752149
830	169.716789164	107.021115507	124.100748678	2060.83590827
831	164.724164016	106.165957224	123.978459389	2062.42036694
832	164.942715093	104.533382322	125.783607091	2054.65373967
833	170.882394913	103.198817123	130.270440562	2053.77692645
834	171.40739261	102.60603695	143.472161062	2049.14506529
835	171.664744422	101.514414446	143.339615251	2041.13540827
836	169.700952133	99.6065044898	144.099386771	2007.33759422
837	167.441799151	100.43979793	144.099386771	1938.22183884
838	173.950820359	104.190833123	146.115976599	1801.95918678
839	173.147090853	104.190833123	151.241081264	1538.64915785
840	185.062875662	100.056758282	159.866815455	1223.61826777
841	198.676390581	102.43192802	163.464487449	1001.22221818
842	214.699510317	98.0589595297	164.375739895	910.669809091
843	274.29743883	99.2898691787	170.24562578	896.691627273
844	337.012095753	99.2898691787	174.963625456	895.833875207
845	417.008124798	99.9433850253	174.790053562	827.702152066
846	497.210827128	106.73282351	176.397171512	723.399500826
847	581.358534785	106.672087837	181.85285174	617.359901653
848	651.875306786	106.250177358	189.174429833	551.2296
849	692.981913718	107.94753698	191.560254418	487.934645455
850	737.997100793	109.830342857	190.297913368	433.978069421
851	764.957276601	110.821549048	180.837456157	380.607623967
852	777.219100616	108.754106723	178.482401135	324.231075207
853	777.884256067	95.5380241763	176.727747075	288.141157025
854	774.164928495	95.5380241763	175.750221724	273.975540496
855	776.680641437	96.0927433273	175.213726777	276.148512397
856	774.609157318	102.76475951	170.987251147	275.806205785
857	786.543154722	109.924280699	173.951385727	276.644896694
858	811.588633046	110.049801091	169.087427866	269.623242975
859	845.638257381	106.761976633	167.437705906	263.425984298
860	906.413669403	104.225654909	164.805724815	258.76791405
861	949.316196063	102.571215164	162.766255056	257.793412397
862	990.973931805	99.7814232293	162.176110615	257.814856198
863	1032.31809427	94.3783777175	162.511419956	258.879104132
864	1066.52608894	94.5727318726	163.002944003	262.805702479
865	1096.03444361	95.0918194285	165.111053557	265.143871074
866	1131.10001371	94.2949673926	168.699257993	262.806496694
867	1141.16999214	93.4519562449	170.659831437	260.740743802
868	1142.3419327	93.6106788049	168.160396157	254.479153719
869	1141.89849573	97.0159255641	155.271105068	250.515227273
870	1142.31659344	97.6054665012	143.377485483	253.367252893
871	1141.14465288	102.845740408	138.170328649	253.910495868
872	1148.99982203	108.919307755	137.602275176	240.491441322
873	1182.66539827	113.66154914	130.494506099	239.869571074
874	1229.80591538	113.66154914	129.544594458	240.612161983
875	1298.11500475	118.63701551	131.416804029	231.489015702
876	1373.4866197	119.162581538	131.677950834	214.060764463
877	1454.45821008	117.338081907	128.560757402	197.692790083
878	1526.55472629	113.45504785	121.232867604	165.07041405
879	1588.69291514	111.348734694	113.165719328	176.125885124
880	1641.90772687	117.257101009	111.658010735	198.791983471
881	1688.02517156	117.257101009	111.298243536	228.816482645
882	1719.00003562	116.612493061	111.792923435	259.743209917
883	1713.25040022	116.612493061	108.801175145	287.318350413
884	1717.60558473	118.040996101	93.8558460703	294.845124793
885	1724.19458296	117.397197962	92.7576093563	296.738533058
886	1722.86664761	130.376006478	92.4159883095	291.515776033
887	1704.69840154	152.14367185	92.7260508301	279.782839669
888	1715.16747325	156.634062642	90.6431880967	278.903643802
889	1724.32761404	159.711336764	84.7417436855	289.768503306
890	1751.3099617	162.914131278	74.9712239544	340.210678512
891	1788.30289891	162.204738612	70.2185098991	404.637389256
892	1830.77782565	162.707629988	72.7076886581	475.922145455
893	1885.7948919	161.893771964	70.5088483407	526.374645455
894	1922.08149737	159.685422877	68.0283481764	569.836466116
895	1928.65069931	158.124111164	68.3747030021	618.872086777
896	1917.57110993	149.195967164	65.0492232971	626.130416529
897	1881.24095262	148.882571089	62.5616224644	623.538099174
898	1843.19406075	150.139394625	58.7493524918	616.714999174
899	1811.31648572	146.777067742	61.2558884403	618.106463636
900	1777.41018655	143.06409357	65.0492232971	628.33595124
901	1765.95288388	140.343135399	72.4268177743	639.366007438
902	1770.15999211	139.828906697	75.9108790738	650.315847934
903	1779.99083132	140.684064979	77.3097107504	655.754631405
904	1781.84772363	148.050087458	77.2205579137	660.930529752
905	1788.62597443	154.820090527	77.2205579137	673.892116529
906	1789.37981728	157.91275102	77.6536986867	715.420023967
907	1765.19904103	157.91275102	74.6075119391	773.625649587
908	1722.12626626	159.28618705	74.6327587602	871.731042149
909	1671.0478705	159.28618705	74.5854209708	977.698367769
910	1588.90117217	159.28618705	75.6962810952	1089.98049587
911	1524.47373996	157.993731918	76.7061539357	1180.30178843
912	1459.32017973	157.385565375	76.6943194883	1312.34557107
913	1386.6598651	158.908006256	75.8540737266	1402.12997438
914	1318.6580142	158.774387775	75.3657055327	1437.60834711
915	1260.2130218	154.757735236	75.3657055327	1441.87804628
916	1187.57487902	152.648992653	72.1112325118	1443.50459835
917	1156.72829494	151.694227866	70.6445500037	1444.21303802
918	1150.75377365	158.848890201	68.0875204132	1489.47137273
919	1166.33741567	158.30226914	68.1104003447	1652.92
920	1212.4801996	161.705896281	66.6082144945	1897.71608595
921	1247.06828311	165.969540558	63.6977294099	2082.04700496
922	1277.92912054	168.508291709	58.2223251032	2176.67373636
923	1278.03602053	168.508291709	55.9288092071	2217.50273471
924	1252.61758004	170.27772433	61.1446446352	2224.2186157
925	1197.27664642	167.906603638	67.1163067674	2228.03084711
926	1127.55014245	165.282822544	77.1456064138	2234.29799669
927	1020.46249021	166.921875918	84.684149375	2235.5155281
928	924.657933255	166.143649489	86.2817997671	2254.38607355
929	834.552333188	172.489312653	87.2593251181	2271.59432727
930	756.235029811	163.212140983	87.3508448442	2280.60072397
931	680.850745228	160.472557205	86.5658265034	2267.82021818
932	615.506348738	159.211684624	81.2284907491	2259.92333967
933	564.827838092	157.345884735	78.5018340799	2235.63545455
934	505.280588094	153.417501375	77.3728278029	2220.08155041
935	433.479432596	158.725799236	73.9858089716	2208.8902686
936	377.922323457	160.038499592	73.5384668619	2210.40245372
937	363.222387969	152.648992653	72.7613381526	2237.87831736
938	363.239016856	155.386956813	71.8871669751	2266.89892893
939	363.320577584	156.053429603	68.2681929759	2270.85173636
940	360.917307588	161.807122403	67.4161127668	2238.96242066
941	353.562588728	163.513389923	69.7135734787	2195.90564959
942	342.203475676	161.217581466	73.2355050097	2147.02092975
943	308.050118765	154.417615464	78.3471973012	2141.04763967
944	278.909183294	150.054364682	79.7357724568	2136.37130248
945	254.738701124	147.243517714	85.9969840673	2104.05708182
946	235.196592307	151.797883415	88.7654557838	2095.71464876
947	224.27537326	155.026591817	91.6057231475	2096.49218512
948	216.603913716	152.474073913	95.74541283	2125.44290579
949	215.780387916	151.872385842	101.177424163	2150.70926364
950	210.553374657	152.474073913	130.810091361	2167.09471074
951	200.386790315	158.545211833	139.094204505	2163.89323058
952	184.235390614	157.750789224	149.495894762	2153.75904876
953	166.60877114	160.375380127	157.874683485	2147.34735207
954	160.905063141	159.600392934	162.920891834	2139.61567025
955	141.107978068	158.126540591	176.885539706	2121.35111074
956	120.473113867	156.48424798	181.673757103	2071.31954463
957	102.64061294	155.782143595	192.361840985	1991.26824463
958	89.1656720724	155.425827644	203.275568331	1857.0364
959	119.301173311	157.932996245	209.801871562	1704.57255868
960	145.855921026	159.500786429	216.14750223	1532.95304876
961	180.244457894	162.204738612	218.902561573	1377.99140165
962	206.53472713	167.083837714	218.985402704	1158.77856529
963	211.503596731	170.545771102	215.722251088	985.144132231
964	208.285511304	171.923256176	201.28106947	885.794999174
965	223.30218749	172.298197734	180.869014683	844.568099174
966	232.326129792	172.298197734	164.748130505	839.053071074
967	239.775870854	171.789637695	163.867647622	827.19782562
968	244.365443478	172.788132166	169.093739571	823.111590083
969	251.273557958	172.788132166	185.125470913	750.263819008
970	236.526111367	171.24544606	207.924139249	608.451193389
971	230.226139013	167.427196721	222.112852657	507.443739669
972	236.206203265	164.505405923	212.645294778	468.732912397
973	256.936881526	163.147356264	215.409821678	460.677190909
974	295.44700664	161.602240731	220.701397569	461.505557025
975	346.989427516	164.566141597	237.485010799	460.588238843
976	393.388771408	164.566141597	268.692448458	460.450839669
977	440.764468487	162.852585796	298.467917987	460.556470248
978	480.502755631	171.611479719	320.09892085	459.501752892
979	521.326671502	169.107550354	336.650578913	452.175120661
980	564.023316723	170.757131246	337.900296553	442.171984297
981	604.186036413	171.595283539	324.342753671	436.818181818
982	629.212510288	173.214901499	309.952854658	421.894090083
983	655.039546277	175.405434788	311.305926471	417.30035124
984	680.239435695	175.994975726	305.708232875	418.780767768
985	691.452056181	169.257365015	290.200373069	419.266033058
986	697.117755299	160.760039392	274.716971122	415.6325
987	691.70544873	150.507857711	261.147593791	395.426879339
988	697.513681164	146.361635735	235.776905565	372.811610744
989	703.282321012	142.964487066	220.515991228	365.250685124
990	700.300999247	148.76271936	210.823578849	367.633329752
991	700.300999247	148.084909244	211.202281164	353.930740496
992	702.569654449	147.829819415	214.913563852	324.456632231
993	703.085149925	150.220375523	213.651222802	254.834961983
994	706.826649341	151.272317388	205.068092621	187.104317355
995	716.170499742	149.406517499	201.482255075	134.568591736
996	726.701335877	142.663238126	198.60175059	114.466219008
997	731.65199289	142.202456816	198.60175059	115.978404132
998	732.194411321	142.202456816	195.527950132	120.165504959
999	728.336509701	141.680939833	192.030476459	116.213491736
1000	721.665158888	142.870549224	193.67546464	112.159819008
1001	702.812752931	138.862804584	194.166988687	112.155847934
1002	680.552217132	139.079833391	194.578038491	108.648595041
1003	673.862653726	135.174124682	193.454554956	107.556549587
1004	665.551377979	131.034381179	192.861254663	101.433947107
1005	660.638729857	129.479547938	199.355999367	99.7089123967
1006	652.952225129	125.262062772	211.170722637	98.4580239669
1007	647.436977837	122.418013636	225.486459114	96.0174016529
1008	649.810157467	121.958042136	232.909024491	91.2044595041
1009	643.854640614	121.958042136	235.604122634	82.2616
1010	639.348212428	121.958042136	236.20294567	68.6233421488
1011	631.14462852	117.781857228	239.169447139	63.099577686
1012	626.925642512	117.781857228	245.683126959	53.2830818182
1013	629.225179934	117.781857228	246.494970047	41.7510818182
1014	634.273234709	117.781857228	237.096051963	31.610546281
1015	607.290095197	119.492173793	224.908938083	31.610546281
1016	588.618231432	122.83506526	212.518271709	29.7425528925
1017	572.747147238	124.224697469	209.943095966	29.7036363636
1018	549.916478187	115.507913613	214.630326079	32.8558752066
1019	536.499342499	113.457477277	216.504113576	44.9597099174
1020	549.94181745	111.734203768	217.094258017	50.6423173554
1021	572.274411754	108.936313744	215.801147403	60.678016529
1022	585.574353385	119.045159236	215.801147403	70.3078719009
1023	590.338133388	118.186761718	215.831916966	81.4777099174
1024	582.708641984	118.721235644	216.208252392	93.543422314
1025	551.478009802	117.179359347	213.891067601	107.841672727
1026	520.180070229	119.369082828	203.296870335	115.64086281
1027	485.009183846	117.235236167	192.503854353	120.977986777
1028	453.073011784	111.821663138	182.25048917	143.944298347
1029	417.154617373	106.972526968	172.906009543	183.111004959
1030	374.724034335	107.94753698	168.282685445	213.40553719
1031	330.652734515	107.94753698	168.115425256	215.439521488
1032	292.529824897	115.534637309	160.573726443	215.636486777
1033	256.287563122	114.588780421	137.361641413	216.039153719
1034	220.834777523	114.911894204	123.905874777	215.267176859
1035	196.085451736	114.627651252	121.677842823	225.925540496
1036	195.097220783	113.693941499	122.959118989	246.861838843
1037	223.821642244	117.941389597	124.814760334	319.345065289
1038	268.698255272	124.685478779	124.360317556	383.129256198
1039	339.565817586	125.196468245	124.215148335	418.015144628
1040	463.462106476	111.05801327	124.24907375	448.40101157
1041	569.943992151	108.786499082	121.623404366	472.87553719
1042	623.833461552	109.405193143	116.069103743	493.458409917
1043	645.312439689	111.657271915	120.191436236	488.099842149
1044	654.947691526	121.571763252	119.815100811	498.801887604
1045	657.570304452	125.847554664	121.523206045	574.805868595
1046	659.251405671	128.51749487	119.082943001	751.724380166
1047	659.770860404	129.880403383	111.676945851	975.181500825
1048	659.302876032	130.088524291	108.798808255	1171.88390496
1049	652.423268215	130.418926354	116.347607737	1323.72508182
1050	642.635980839	127.774900036	121.187896703	1438.87909091
1051	634.238393249	127.659097352	129.801007484	1534.55100909
1052	631.26419815	130.29502558	136.403051178	1642.23304463
1053	618.502715692	134.133520144	142.190884895	1766.35691653
1054	603.819409084	136.984047752	142.20982001	1905.48033058
1055	592.834841906	134.97005282	140.691065934	2067.66218512
1056	591.196500687	133.084817515	130.996286666	2213.71194711
1057	618.832917871	134.529516735	118.004430366	2334.94090578
1058	632.451975755	134.529516735	112.032768234	2426.29150083
1059	645.508818903	134.075213897	109.764499158	2478.94794711
1060	660.009207756	135.387104444	115.994152243	2521.39079008
1061	668.751250843	135.53287006	109.461537306	2542.51134628
1062	672.073068843	132.565729959	95.9032054609	2551.3747843
1063	670.797395709	131.173668323	87.1717502069	2551.25326942
1064	670.844114961	131.173668323	100.016070396	2552.1650281
1065	671.687437051	129.780796878	112.286025407	2551.02532975
1066	672.75406133	128.578230544	120.428125183	2549.84592066
1067	674.50009439	130.480471837	130.564723819	2548.13994711
1068	689.658512028	130.379245714	145.428789689	2538.58792479
1069	703.151665481	133.696223295	162.785979134	2521.36934628
1070	713.42990092	139.125992503	170.120180637	2512.27717438
1071	717.123889238	142.43001314	168.586436261	2500.20510826
1072	716.864161871	132.032065842	168.036528941	2493.25969917
1073	735.678558943	136.209870367	165.383245845	2468.87730248
1074	834.539663557	138.075670256	155.785509045	2430.06640413
1075	928.193551204	137.63594398	152.557071809	2382.43892645
1076	1078.70872779	136.919263033	157.815511247	2351.74966942
1077	1270.92202458	143.608285205	173.354140616	2334.60177603
1078	1446.58324467	141.959514122	193.318853294	2289.70878016
1079	1682.84646128	144.926654224	206.668109903	2263.86264545
1080	1812.06478562	143.932208797	220.874969464	2267.63913719
1081	1896.36136139	142.247806119	241.123708877	2324.00059587
1082	1954.05330278	138.902485225	271.04750348	2398.7203314
1083	2007.18259452	138.512967105	304.714139298	2464.86254628
1084	2064.56650559	139.764121979	342.211980204	2496.80189752
1085	2093.97271139	139.498504634	376.591838716	2470.79374297
1086	2088.88031292	136.680369385	396.000332367	2409.58836777
1087	2053.03714443	136.680369385	428.739147514	2249.27132975
1088	1975.62571942	146.242593816	457.066080688	2091.05737273
1089	1858.02069253	149.021858233	472.48557662	1976.79764959
1090	1691.68748579	149.591153946	483.562619338	1859.27688016
1091	1612.46667959	150.560495295	487.12478799	1757.56892892
1092	1616.74347076	149.821949505	487.670750495	1669.59533554
1093	1693.18804481	145.623899755	486.219058286	1671.42520661
1094	1801.87523753	134.137569189	486.245094071	1705.9139876
1095	1944.85198567	131.593959184	486.966995359	1729.47357769
1096	2063.09049396	128.989613505	488.696402598	1734.93142231
1097	2105.38250294	127.140819605	491.448306088	1687.01167355
1098	2131.38057891	126.764258429	492.648319049	1628.10555041
1099	2149.99147008	125.666967262	491.524835515	1588.58938926
1100	2166.03121869	126.250029727	488.885753756	1568.81264463
1101	2185.80850747	125.844315429	485.418260683	1562.45892562
1102	2198.393407	125.844315429	483.55551867	1538.97875702
1103	2199.21297354	127.428301793	491.941408061	1504.58925289
1104	2197.7535908	129.913605551	497.552514031	1452.59041653
1105	2197.38537975	133.625769913	497.552514031	1374.05844959
1106	2196.66083541	135.245387873	498.217609972	1300.2758876
1107	2187.50307017	137.405148421	500.440119184	1239.97909421
1108	2186.87354805	137.405148421	500.440119184	1194.84942231
1109	2183.27458194	138.063523122	499.196713249	1165.44361653
1110	2179.36679366	142.462405499	492.862128065	1152.9649124
1111	2181.04156006	153.320324297	489.473531307	1163.0554124
1112	2181.04156006	153.320324297	483.761438054	1176.42601983
1113	2186.13554224	155.970019278	479.219377161	1219.45658182
1114	2192.5780479	158.593800372	465.964796131	1310.71187107
1115	2202.51657895	170.974160052	445.023347066	1408.50513719
1116	2239.63304502	175.255620127	430.102475848	1488.86776942
1117	2339.57027614	175.63461073	413.135823166	1534.77338925
1118	2443.95217101	176.130213825	389.455094021	1567.82464132
1119	2556.25575059	174.82480175	363.267039965	1574.61041322
1120	2644.32233244	172.247179768	348.576545989	1575.86844959
1121	2707.05678563	168.443506991	349.517779035	1571.88149091
1122	2734.0454681	166.396309891	359.928147886	1564.84871818
1123	2741.8095743	163.993606648	362.493856071	1567.9358314
1124	2659.57973154	163.351428127	366.316382565	1594.16477768
1125	2590.9388563	163.601659102	383.041612521	1654.85470744
1126	2504.14873944	162.027390446	401.926234637	1762.01653223
1127	2429.68696211	159.289426286	425.254297251	1911.12243306
1128	2370.33609136	160.041738828	445.705011232	2085.29057851
1129	2230.66611601	157.779942348	446.928693088	2211.0155876
1130	2161.92071634	158.211570534	442.368486044	2289.58170578
1131	2108.38758023	163.480997564	428.865381619	2301.49254628
1132	2045.64520851	158.211570534	401.345557754	2242.41487273
1133	1985.96413559	158.211570534	366.552282548	2175.72067851
1134	1908.01741882	156.099588715	325.337636212	2133.51927686
1135	1871.21610973	158.179178175	285.008206536	2102.81413554
1136	1844.86882717	156.782257685	260.670271082	2089.07183554
1137	1842.2501735	149.591153946	219.647342792	2094.6114843
1138	1850.02299007	129.949237146	178.533683739	2103.3677033
1139	1884.59444469	126.755350531	149.622128867	2099.58644628
1140	1903.5394973	127.515761162	123.868004547	2090.51333554
1141	1863.32609911	125.922057091	109.262718592	2058.06886364
1142	1803.9776039	130.622998217	102.162050183	1993.5786157
1143	1720.87197311	133.927018854	100.691422859	1914.20160413
1144	1628.37102158	136.433377646	99.3273055611	1853.33932975
1145	1524.9765658	138.403642893	102.155738477	1832.18144545
1146	1471.03958528	141.571615621	110.29704929	1760.69178182
1147	1471.03958528	146.352727837	117.101856516	1711.90554463
1148	1481.24497036	152.312112118	120.371319837	1685.21595372
1149	1489.01778693	154.512363115	120.739765631	1679.44995372
1150	1484.57074762	156.358727589	129.465698143	1679.86373967
1151	1475.67033419	155.923860167	140.060684372	1680.89304215
1152	1471.89399329	156.799263673	140.799153886	1683.2717157
1153	1472.06899252	148.862325864	140.33761044	1685.13017851
1154	1471.82193479	142.749887686	145.144762953	1689.04406942
1155	1471.56854223	137.06502865	148.041835664	1699.35297851
1156	1471.35949338	136.233354828	149.93534724	1709.93589173
1157	1465.32875061	129.197734413	163.726423217	1716.87415289
1158	1461.39483122	129.165342054	165.859779593	1718.35059835
1159	1470.2912854	129.51760896	165.761159198	1716.08867438
1160	1475.53651125	128.679456666	165.683051845	1699.78582562
1161	1479.02382626	126.917312326	165.12683282	1670.94867768
1162	1485.48533637	128.464857286	172.62513866	1643.41245372
1163	1490.6260378	128.97746637	176.949445722	1572.18726363
1164	1491.59605616	129.488455837	187.212278462	1436.02071157
1165	1481.63376956	121.620351791	209.139142509	1276.15717025
1166	1450.2043826	118.945552731	218.732934493	1138.45063554
1167	1361.57400233	117.332413244	218.214585699	1037.60679008
1168	1246.9289172	117.765661048	216.176693865	981.431177686
1169	1118.96567783	134.49388514	216.176693865	977.427540496
1170	1021.73341223	136.476297522	216.971968727	974.949590083
1171	970.458637242	139.581914958	227.581156293	965.523847934
1172	941.610686915	141.425850005	245.364385843	955.917024793
1173	916.172450127	140.650862811	249.445692252	959.625214049
1174	920.895053836	137.797905776	250.688309223	962.001504958
1175	927.455545413	140.116388885	253.13172812	953.292938843
1176	893.287935172	141.878533224	253.512797324	915.208747107
1177	800.764811787	143.98484638	241.814051638	841.407918182
1178	701.112647282	144.602730632	227.344467347	740.135990909
1179	611.848785621	147.667857619	228.799315407	629.034860331
1180	553.220083631	147.324498612	227.228489763	541.709346281
1181	512.616302533	147.324498612	227.202453978	508.886033884
1182	496.852118322	151.37354351	229.295573233	513.308222314
1183	478.412267113	155.243620624	230.879022288	520.011395868
1184	462.137338534	156.306090005	235.070783539	522.101769421
1185	449.446330873	152.93728465	240.346580167	521.027990909
1186	444.790242704	152.348553522	244.433409319	521.027990909
1187	451.422000929	156.099588715	243.903226077	521.784083471
1188	482.776953819	157.083506625	242.161195428	523.474172727
1189	475.519632723	161.164943882	241.252309871	523.474172727
1190	455.885669112	162.221744601	242.527274332	526.265838016
1191	443.623845089	176.280028486	244.532029713	519.566635537
1192	445.495782574	177.996823523	249.1577207	512.376608264
1193	466.578042993	176.376395755	252.013767327	512.376608264
1194	531.319840339	174.984334119	250.574698529	510.830271901
1195	632.613513472	172.94361549	245.727308895	493.802304959
1196	709.807179256	171.274599184	235.070783539	488.604168595
1197	719.080554851	168.05560849	228.11765124	486.380366942
1198	706.065679836	164.391222857	229.194585949	481.898612397
1199	717.341648456	165.046358321	236.743385431	478.118149587
1200	749.357797554	166.270789499	230.942139341	519.61428843
1201	766.845842985	167.47578526	232.482984386	651.066380992
1202	779.122712182	170.646187415	242.606170648	865.03025124
1203	777.697379063	175.466170462	255.703748011	1034.74761653
1204	784.348933581	176.263832307	272.764287309	1073.35281322
1205	780.90912967	176.978893636	276.507128523	1041.86775289
1206	792.418694543	176.263832307	293.163718685	1017.91026116
1207	870.61642831	174.611821988	283.601485227	998.007236364
1208	1038.68458219	173.34851998	284.80702093	984.925723141
1209	1244.77824792	173.846552503	286.965624127	986.338631405
1210	1591.9585117	172.282001554	291.226025172	986.338631405
1211	2092.01208654	168.949637603	291.241015472	978.861098347
1212	2773.08138283	168.330133734	287.596794652	981.777455372
1213	3546.76407357	166.71456482	278.343045789	992.212644628
1214	4158.34283771	164.021949962	259.319566158	1026.38691653
1215	4701.8959954	164.021949962	238.479104377	1097.63752149
1216	5029.40191112	164.021949962	228.885312393	1159.1796438
1217	5176.95318667	164.058391366	233.612779628	1195.73894298
1218	5191.7410177	171.193618286	237.3051272	1165.60881322
1219	5148.08544004	158.810829179	240.283463117	1112.23757355
1220	5088.36002339	158.810829179	243.954508684	1064.11768264
1221	5026.32952637	163.681830191	242.597492055	1034.64675124
1222	5105.77205107	170.433207654	235.31299523	1026.66886281
1223	5302.34132421	187.665942739	236.78756737	1010.76868099
1224	5577.65787621	199.455951673	238.516185646	1004.01150083
1225	6013.94046393	195.905749107	228.875055872	1000.63132231
1226	6563.99868355	192.796082625	215.241772527	1000.09205041
1227	7258.37029703	188.670105874	209.078392347	1000.80922645
1228	7994.29749738	183.947299905	208.782531164	998.658492562
1229	8783.34923839	179.683655628	209.786092299	1003.41107438
1230	9681.5917898	181.517872966	206.900854035	1009.89504463
1231	10475.8824218	176.000644388	211.954163053	1023.3847843
1232	11149.4592171	169.623398674	204.096090014	1054.63475702
1233	11646.4728731	162.497079654	188.641090739	1093.7458686
1234	11981.7215151	158.823786122	167.812463406	1139.77856281
1235	12284.1890792	156.662405956	144.018123566	1177.07489339
1236	12564.8569651	160.342177959	122.617497943	1222.15452975
1237	12832.5115598	163.601659102	109.133328634	1254.11373636
1238	13087.6176801	166.665976281	98.7119142989	1253.13526364
1239	13340.0417987	165.299018723	81.8951646164	1249.82735868
1240	13597.1425935	168.67430255	78.315638775	1256.70923058
1241	13810.7525158	161.407886576	77.101424477	1328.03528595
1242	13934.7723336	160.36566242	75.9771519789	1540.83166033
1243	14005.8940803	159.031097221	74.0047440874	1739.42270744
1244	13995.786093	157.041396558	68.0086240974	1966.9533562
1245	13928.3551672	158.58003362	62.4772034066	2239.65497603
1246	13897.1316616	156.634062642	55.5430062234	2524.13877355
1247	13961.6137316	154.178721815	56.2601737327	2695.32781901
1248	14119.9706158	150.102953221	66.4654121631	2739.89518678
1249	14207.7996422	144.01723874	77.7097150708	2742.60266529
1250	14226.5791978	142.08017566	76.8773589406	2729.55768595
1251	14236.3854896	138.020603246	78.8047959321	2629.0767967
1252	14286.7599291	138.020603246	80.5973202238	2416.7172405
1253	14439.2769069	140.039457032	94.8365272739	2216.73393471
1254	14648.0446559	139.262040411	96.676389355	2169.66479008
1255	14798.5241992	142.205696052	97.5797521693	2221.08226116
1256	14805.3753004	144.703956754	95.5915650147	2273.17322645
1257	14730.1177121	145.125057424	102.325365556	2323.26594711
1258	14569.0621971	144.276377613	110.345176043	2349.37020165
1259	14429.2211818	140.547207262	122.501520359	2356.0034843
1260	14168.2577342	132.767372395	127.862525008	2351.0221686
1261	13691.1963662	131.141275964	120.335816495	2356.77625537
1262	12960.4122428	133.323711164	120.790259273	2381.22774876
1263	12155.3524273	131.290280816	120.731087036	2383.35942149
1264	11433.2335374	130.852174158	119.897941943	2381.69871818
1265	10620.8229622	131.325912411	119.52476237	2355.45150496
1266	9884.81895227	131.325912411	118.367353419	2345.06317438
1267	9289.87857668	131.623112307	116.536958896	2349.94283058
1268	8899.05223747	129.035772617	113.759808585	2409.40966942
1269	8685.18813074	131.321863367	116.884102685	2446.4550281
1270	8562.51525277	134.50927151	116.562205717	2470.75562066
1271	8542.6556114	133.75533935	117.110535111	2476.36198347
1272	8604.81834765	130.885376327	117.59022471	2467.78446281
1273	8716.06718073	121.053485505	117.792199278	2452.8405157
1274	8816.49615179	113.312521469	117.883719004	2449.55246612
1275	8849.17191337	112.527816568	117.732238078	2453.52115785
1276	8793.86898866	110.943830204	117.808767504	2457.74638099
1277	8568.48819037	109.353365368	117.808767504	2449.77881736
1278	8256.30856486	113.084965146	119.21233296	2440.05762727
1279	7842.51931734	113.084965146	119.641528917	2443.93339587
1280	7278.76127095	113.908540878	122.368185586	2471.59669422
1281	6750.45996942	118.087155213	115.680933871	2502.7267405
1282	6282.60625328	127.35136994	116.122753239	2499.47443058
1283	5930.32329694	131.56480606	121.629716072	2417.78387107
1284	5687.82662355	132.565729959	126.552846169	2336.65958678
1285	5483.11790648	132.565729959	130.747763272	2229.54303223
1286	5386.46765187	129.796993058	129.547750311	2099.60947851
1287	5379.46768262	125.53334878	126.78322341	2029.05142893
1288	5338.68415119	121.403322985	126.442391327	2092.58226529
1289	5290.46354832	120.830788036	127.358377551	2181.38184215
1290	5147.44879128	119.85172898	135.134398423	2276.6995405
1291	4980.64918388	120.344902648	139.962852941	2334.67404959
1292	4851.6921706	120.344902648	145.582637505	2317.24976942
1293	4686.75262292	120.985461551	148.325862401	2294.9482157
1294	4423.69947864	124.325923592	146.451285941	2190.92433388
1295	4115.15524442	125.183511301	143.812993145	1980.37479339
1296	3707.08237456	125.183511301	143.578671088	1735.20066116
1297	3272.62896437	127.940910877	143.781434619	1580.63770992
1298	2821.9220056	131.886300225	141.173911386	1545.48258264
1299	2534.08390221	131.452242612	137.091027051	1544.1292405
1300	2375.70088685	127.331124715	136.64841872	1508.68740165
1301	2362.44924816	127.353799367	137.14073173	1465.54564959
1302	2371.45735342	131.266796356	137.607797919	1434.96837686
1303	2370.81120241	128.649493734	130.38720711	1432.97092645
1304	2348.98776877	129.475498893	128.522098207	1423.53565372
1305	2337.35705057	126.386077636	128.676734986	1404.46099504
1306	2337.78385866	125.057990909	126.676713384	1376.95018595
1307	2338.15523712	123.464286838	118.061235714	1353.58359008
1308	2330.80685307	123.476433972	108.688353414	1368.46082314
1309	2294.48936538	125.93825327	87.5820110492	1425.49180496
1310	2221.63900635	130.347663164	75.6150178901	1489.73743471
1311	2141.99376763	133.360152568	71.0256192082	1547.86840413
1312	2057.04153862	138.853086877	71.4453476075	1576.93269752
1313	1918.44214686	137.829488327	70.0196911836	1612.59294545
1314	1811.95392639	140.117198694	67.6338665981	1618.39150826
1315	1777.78631615	137.45373696	68.7313143489	1604.03130909
1316	1783.93187741	137.72340335	67.1407646252	1557.26793719
1317	1775.885872	138.176896379	67.8516204293	1506.23168926
1318	1783.23108863	136.686847856	67.3971776511	1419.27866198
1319	1827.43621139	132.261241783	70.1869513728	1368.23288347
1320	1905.69016665	126.654124408	69.6622908736	1344.1292562
1321	1950.82571519	124.193114919	68.2303227445	1345.77248678
1322	1953.40398441	124.193114919	66.7533837153	1370.23033388
1323	1953.3089622	121.717528869	63.9131163517	1398.86733967
1324	1954.54029164	125.02559855	60.9087446514	1408.79105454
1325	1968.98366717	125.02559855	57.9382983668	1412.35231405
1326	1986.17318449	124.548621061	53.8861835946	1405.22423554
1327	2006.47309541	124.548621061	52.7153622702	1396.01134297
1328	2026.89415964	123.107970887	55.4333403447	1390.76873058
1329	2041.717624	121.293998772	52.8770997173	1419.88464793
1330	2068.51388649	118.475863523	52.8794666068	1493.46071405
1331	2039.11005624	114.627651252	52.8676321595	1581.60665207
1332	2002.22956198	106.432384379	54.0629113417	1617.7847281
1333	1998.89111509	105.72542114	56.7296068109	1682.73800331
1334	1964.95551741	105.72542114	57.6739957093	1618.47092976
1335	1965.56286769	112.644429061	59.6053775166	1556.26404959
1336	1952.3389438	116.567143758	62.8811525428	1523.86008265
1337	1861.04477428	123.563893342	63.960454141	1581.26911075
1338	1754.37997086	126.61282415	65.3490292966	1705.7479967
1339	1631.5542655	126.16823902	69.5778718159	1911.08828182
1340	1589.24641948	131.614204408	68.157738134	2226.28278017
1341	1625.89648488	130.217283918	66.948257615	2564.58019504
1342	1822.67163947	130.661869048	65.749033617	2750.61708761
1343	2146.31411064	132.275008535	67.3182813354	2797.02544546
1344	2576.78767404	129.366174681	72.0394368643	2809.03397438
1345	2919.05766523	132.643471621	74.0394584663	2812.46101157
1346	3067.17115552	133.929448281	76.1104867523	2811.78751736
1347	3079.97777354	131.412561972	77.5424548815	2813.03681736
1348	3082.42221983	127.756274429	77.9093227493	2826.45190083
1349	3144.7567879	128.132025796	82.2896461946	2836.90059174
1350	3232.10120098	127.904469473	83.551198282	2839.65254628
1351	3296.49141614	127.791096215	83.551198282	2839.59139174
1352	3385.29362827	121.39117585	84.2052487388	2838.46440083
1353	3454.78653598	128.37496849	86.9634639342	2842.54984215
1354	3548.15773256	136.472248477	96.0333843822	2842.54984215
1355	3669.74498179	136.06491456	98.5896250096	2831.76043306
1356	3783.40817077	135.493999229	102.584934434	2835.40746777
1357	3911.13702202	137.194598086	104.698566731	2851.16469091
1358	3984.36746988	137.194598086	102.865805318	2855.18341819
1359	4090.43363338	134.315727164	102.120235135	2821.00040992
1360	4253.13144883	130.564691971	106.529750217	2784.69605372
1361	4453.63464135	128.815504575	110.140045622	2744.08308182
1362	4644.68629165	122.401817456	116.274234164	2706.65967686
1363	4858.52426727	124.792373564	122.861287559	2675.46847604
1364	4962.64247553	122.997027056	131.046780308	2670.5761124
1365	5031.4456804	123.952601652	134.51900716	2678.58179835
1366	5030.58335386	125.495287758	139.480007489	2695.02919422
1367	4976.15463343	125.560072477	139.669358647	2706.66523637
1368	4889.50704989	125.792487654	142.142758143	2712.18344133
1369	4764.20839158	127.059028898	145.649699373	2724.33572314
1370	4632.57016834	130.804395428	155.590635146	2712.49874463
1371	4602.36023302	132.048262021	162.750475792	2702.4598686
1372	4666.39886602	131.467628983	164.104336569	2679.70084711
1373	4756.59394532	132.048262021	165.320128793	2651.66426777
1374	4803.29023361	130.301504052	162.101159115	2626.69415207
1375	4867.49990658	130.96959646	164.97929671	2618.96247025
1376	4906.20561908	130.96959646	166.931980522	2624.03909174
1377	4915.32775099	130.343614119	175.15692143	2641.95578513
1378	4897.9703611	131.512978286	182.960556011	2640.82879422
1379	4874.66774842	132.929334191	189.726704042	2551.83145786
1380	4811.61101157	133.291318805	199.4688211	2324.84881736
1381	4783.45672336	133.091295987	194.586717087	1988.09773885
1382	4755.67856472	134.901219056	213.954184655	1657.19605289
1383	4755.67856472	132.281487007	232.034064351	1363.29842645
1384	4757.31532225	132.18430993	245.257875818	1144.74081735
1385	4760.57220841	128.355533074	266.088870042	1039.8663314
1386	4760.57220841	133.339907344	280.126102524	1021.69469504
1387	4794.5521498	134.412904242	306.038808438	1023.16240413
1388	4830.88468267	137.13629184	329.146750331	1000.22547851
1389	4841.87954391	139.28714449	350.852704695	927.697776032
1390	4788.95217437	138.063523122	366.821318985	781.48837686
1391	4748.18052072	141.004749335	372.350372786	583.35797438
1392	4585.41064679	139.521179285	380.939814672	463.444235537
1393	4276.15770524	140.501857959	390.417629072	433.072664463
1394	3884.88872092	145.623089946	402.532158341	430.226198347
1395	3504.82760597	137.055310942	408.465161278	440.077639669
1396	3386.95889246	134.127851481	421.480686472	468.498619008
1397	3419.23556077	133.08076847	445.303428985	529.761177686
1398	3477.77795093	131.714620722	474.589741358	555.000532231
1399	3465.47653432	135.420306612	504.403870082	573.43028843
1400	3429.08936369	134.732778788	533.23179486	594.461098347
1401	3407.01808046	135.014592313	566.782453094	604.318099174
1402	3354.01786054	137.43754078	628.700281622	617.737153719
1403	3317.0518463	138.484623791	697.525482586	600.216773554
1404	3239.07662287	153.320324297	734.774011135	584.670017356
1405	3118.79038604	160.099235265	746.852248099	576.778698347
1406	2999.77190382	165.23018496	752.484656074	577.095590083
1407	2916.11197683	168.524487889	767.346355054	572.715495041
1408	2923.87212376	168.609517832	749.042409822	568.295689256
1409	2861.61357345	172.605925146	723.972316558	568.569693389
1410	2684.23878622	170.485035429	707.766224359	563.937038017
1411	2430.82643674	167.805377515	684.527314582	584.692255372
1412	2167.13664367	167.151861669	669.87784669	642.707269422
1413	1870.18036764	164.938653727	673.324037758	682.174189256
1414	1733.37610372	162.774844134	658.674569867	695.771147934
1415	1616.30874414	160.261197061	644.563963811	697.994949587
1416	1584.84689127	164.394462093	623.761372262	692.734070248
1417	1601.03629985	165.456931474	603.181268322	688.1721
1418	1618.73576969	167.03200994	581.342768148	688.1721
1419	1629.85970278	169.720575752	558.782366686	681.055934711
1420	1632.64702086	166.189808601	547.825246367	681.297376033
1421	1633.43174593	166.189808601	525.720865609	682.865950413
1422	1636.65933358	172.654513685	490.136260358	687.924304959
1423	1626.24489964	177.591919033	449.842334025	687.924304959
1424	1629.85574352	179.243929352	417.696819173	694.223223141
1425	1676.50531257	178.278637048	393.695770987	698.721656199
1426	1755.32069067	178.278637048	363.791700463	706.391389256
1427	1815.29158135	178.278637048	334.145620891	715.928321488
1428	1851.56789273	175.968252029	302.00010604	739.017736364
1429	1824.81359838	174.500878158	277.971444143	765.435705785
1430	1815.10232877	172.221265881	261.718803117	781.921223967
1431	1812.07666331	171.541026338	229.616681239	772.581257025
1432	1815.8941805	168.929392379	216.57748715	740.024800827
1433	1858.01990064	167.517895327	205.840487552	710.823108265
1434	1904.22999197	167.423147677	205.484665169	681.407771901
1435	1980.46551714	167.423147677	230.100315654	668.748780992
1436	2072.62122133	163.176509388	230.348839048	667.617024793
1437	2112.38801514	172.712819931	224.025299348	667.379554546
1438	2104.50433933	170.727978122	394.283548539	668.688420661
1439	2095.5318674	171.809882919	813.791038157	668.649504132
1440	2105.92967245	168.667824078	1222.1520563	662.673831405
1441	2109.05669492	167.89688593	1541.87385276	664.554532232
1442	2085.75724965	167.89688593	1860.13527842	667.125405785
1443	2009.09333268	163.601659102	2151.48359289	660.548512397
1444	1922.79416389	157.993731918	2358.99983818	652.677048761
1445	1976.76598587	160.391576307	2467.28424246	654.080426446
1446	2164.53936997	161.025656738	2538.27199144	633.282321488
1447	2475.77906749	162.046016052	2598.08802211	574.363490909
1448	2788.03391892	170.099566354	2608.70667724	525.055454546
1449	2961.0851957	169.204727432	2613.93276919	486.929963637
1450	3034.80025682	171.281887465	2602.60720308	478.64471405
1451	3025.2568598	171.125594332	2579.14028295	515.50978595
1452	3008.94867344	169.917359334	2531.42300227	557.66671157
1453	2992.73155004	165.282012735	2481.13133482	638.676628926
1454	2970.85664603	146.757632326	2463.81280457	758.25997438
1455	2969.28877961	141.389408601	2465.98008636	906.755123967
1456	2969.87474989	138.821504327	2504.21718574	1067.77504215
1457	2935.36981081	136.724908878	2555.17079329	1194.91534215
1458	2870.4949824	136.032522201	2664.18735537	1271.27513141
1459	2836.88800318	139.241795187	2727.6791654	1313.68620579
1460	2838.33234073	141.331102354	2784.40877221	1349.19952397
1461	2869.09182113	142.863260944	2866.89013645	1319.95017851
1462	2865.10088841	144.065017469	2979.36235716	1206.96834711
1463	2811.67227672	144.622975856	3088.79075802	1113.25178595
1464	2691.44780433	144.388941061	3250.50374726	1046.36539174
1465	2583.25789447	143.598567497	3440.68804993	996.794470248
1466	2490.04823563	136.392077388	3645.54943421	960.857835537
1467	2382.41341386	135.789579507	3843.8726808	940.214602479
1468	2294.46956902	134.772459429	4069.00568442	900.897789256
1469	2217.67974764	140.339896163	4249.38396402	879.720843802
1470	2164.73337364	141.412893061	4402.25346524	851.92967686
1471	2113.23371277	140.045125695	4546.2139945	815.59911157
1472	2027.53635126	132.939051899	4671.33723943	769.876955372
1473	1997.1292449	127.321407007	4770.92411387	755.330909917
1474	2030.21360198	124.629601959	4889.80113748	761.442393388
1475	2072.29577026	129.371843344	5018.37057348	765.508773554
1476	2075.89948747	131.730816901	5158.4430923	767.469690083
1477	2073.93965445	135.015402122	5304.06123315	767.55228843
1478	2091.28358286	139.407806028	5448.59928343	766.420532231
1479	2095.29985483	144.742017776	5597.70621936	766.516632231
1480	2095.46851924	146.210201456	5710.14056984	776.981207438
1481	2093.27904922	148.114872176	5851.19061401	792.467603306
1482	2079.42243582	148.710081776	6044.62860074	799.914161983
1483	2042.20540455	152.441681554	6298.05619005	827.493273554
1484	2031.75296174	152.830389865	6541.28090781	870.609610744
1485	2022.79791054	151.453714599	6833.22646738	972.968023967
1486	2022.72506018	150.232522658	7121.41892921	1134.80916033
1487	2054.36112045	132.019108898	7384.21308912	1333.71630496
1488	2069.79035138	129.002570449	7355.1098162	1560.23194711
1489	2043.67112212	125.540637061	6913.01273348	1831.87567273
1490	1990.18074599	122.038213224	6345.86420148	2117.41577603
1491	1852.09447415	126.965091056	5872.90366904	2292.93726363
1492	1693.49845065	128.734523677	5353.50634313	2373.18473471
1493	1615.28329616	130.159787481	4811.5241579	2417.14611653
1494	1675.02059057	133.314803265	4352.55194223	2446.91329008
1495	1775.65544306	136.443905162	4018.59646146	2511.98172644
1496	1858.86322272	146.647498305	3800.97280917	2625.27409587
1497	1967.90991616	147.825770371	3549.74169329	2703.79653223
1498	2011.54094641	144.639172036	3406.60405261	2732.15953388
1499	1899.19619057	144.639172036	3307.70357611	2732.7154843
1500	1776.75690888	144.639172036	3192.91495957	2718.50539173
1501	1779.07624258	144.211592895	3105.85208628	2688.34111074
1502	1820.60094724	142.870549224	3097.43858318	2658.96469091
1503	1818.72188309	140.233811187	3104.42485193	2598.15404049
1504	1824.20862372	137.874837629	3073.80755871	2494.5693595
1505	1812.85030252	137.874837629	3073.34680423	2387.8713562
1506	1807.24399228	132.484749061	3101.36367488	2236.46223223
1507	1800.31370595	128.030799673	3142.14439148	2093.28355702
1508	1807.4142404	129.893360327	3209.36405242	1985.29018925
1509	1850.16156411	129.026054909	3199.60536714	1912.83158347
1510	1939.21637693	134.299530985	3145.68762501	1839.05934628
1511	2057.14289563	137.221321783	3082.8230407	1798.4209595
1512	2242.58823569	140.229762142	3087.11894509	1798.4209595
1513	2480.25778095	141.055767301	3101.69898422	1790.10394132
1514	2767.14882967	142.999308852	3116.74845644	1769.76568678
1515	2978.78466566	143.968650201	3129.7923843	1741.43445372
1516	3184.8126077	144.784937652	3150.80326213	1727.08060826
1517	3388.7492693	144.972813336	3152.50426669	1685.65436033
1518	3480.60406982	141.554609633	3158.44752615	1664.64578843
1519	3465.55888698	124.662804127	3132.84961654	1649.05137934
1520	3429.24139929	123.897534642	3071.64579966	1632.82636363
1521	3392.42266945	123.897534642	2994.23273474	1621.13869752
1522	3388.03660275	123.897534642	2910.89218962	1614.37595785
1523	3446.47526033	123.04966464	2770.94984972	1609.40973223
1524	3649.34767322	121.17657647	2650.18720416	1607.37654215
1525	3793.90099815	124.027104078	2538.72564525	1603.91694215
1526	3853.61691256	125.280688379	2427.19465758	1590.75203636
1527	3899.61953875	126.689756003	2294.40347973	1553.05859835
1528	3959.04009246	128.092345156	2185.98021794	1512.14064793
1529	3987.17616809	133.718897946	2175.67951496	1490.45619917
1530	3954.00153992	130.759046126	2146.69695341	1483.75540826
1531	3908.74562993	132.100089796	2108.14426876	1480.35696281
1532	3896.0245319	132.760893923	2054.81982693	1474.47977273
1533	3940.75781975	133.739143171	2055.55198474	1476.65512727
1534	4009.27516614	134.73925726	2052.90106854	1476.03563967
1535	4105.92937999	129.149145874	2097.08695012	1453.67134297
1536	4179.04580121	129.149145874	2102.42901965	1404.02973636
1537	4280.06074254	130.807634664	2085.20122017	1341.58776859
1538	4322.82627886	131.593959184	2070.93439941	1242.08932314
1539	4303.48925965	127.756274429	1997.95136261	1089.09176942
1540	4325.98814282	129.589681959	1823.78616787	895.950624793
1541	4432.48824107	122.612367791	1681.6031726	776.574569421
1542	4544.12033038	123.188951784	1547.60567009	717.458773553
1543	4706.86486507	124.244942694	1427.14283053	688.079176859
1544	4964.43601982	124.244942694	1308.9877082	677.710701653
1545	5274.77854933	123.677266599	1199.49540133	630.765454545
1546	5437.39322034	119.022484584	1194.25431908	543.134961983
1547	5402.55807909	119.275954795	1265.37382491	503.154979339
1548	5231.84038934	119.697055464	1374.55054652	508.225247107
1549	5235.94614055	120.195087987	1481.76827261	543.742536363
1550	5289.7477144	120.19265856	1499.661957	590.447930578
1551	5281.66370011	120.425883546	1479.60256874	625.28854876
1552	5270.0709908	122.310309042	1464.00003336	637.767252892
1553	5277.94595623	123.952601652	1431.72276166	649.436652066
1554	5279.40929823	125.912339383	1387.76725732	650.779669421
1555	5279.65635597	126.93026927	1343.57585299	626.82932562
1556	5275.67730103	139.504983105	1293.97926208	607.813438843
1557	5276.68216088	142.303682939	1245.29076776	598.104161984
1558	5332.27015224	141.149705143	1200.64413169	596.601507438
1559	5373.18909033	141.149705143	1176.04504943	601.955309917
1560	5334.45487116	142.031587122	1157.12176812	607.809467769
1561	5216.32326287	138.630389407	1088.17033305	614.221164463
1562	5088.23649464	138.630389407	1042.06963789	640.998119008
1563	5070.95591437	138.04084847	1005.21480195	673.335371901
1564	4973.16539326	137.33469504	965.387941809	712.827706612
1565	4883.79621528	137.33469504	938.926117537	777.845313223
1566	4689.25408256	138.512967105	950.792123413	828.734631405
1567	4361.04737807	138.885479236	1015.2377899	856.897490909
1568	4108.69373436	139.646699677	1115.62861779	856.897490909
1569	4018.87003351	141.140797244	1286.32631946	849.52717686
1570	4017.85883885	141.959514122	1555.20733012	843.272734711
1571	4018.60713873	139.06444702	1926.63303808	837.496409918
1572	3994.94027426	148.535972846	2327.05393101	835.907980166
1573	3896.03403408	162.726255595	2747.1981139	833.894645455
1574	3689.49376398	164.715956258	3233.22150932	832.51588843
1575	3524.95647696	160.015015131	3706.89289756	823.220397521
1576	3486.93175697	158.709603056	4216.09603052	821.040277686
1577	3524.45365114	155.393435285	4785.23827242	819.093657025
1578	3577.6660873	154.592534204	5365.06702027	820.313571075
1579	3624.36000004	147.807144764	5963.91766983	828.226333885
1580	3650.13239826	147.236229433	6472.16142359	863.626079339
1581	3657.54413045	144.991438942	6958.10276685	869.777273554
1582	3610.02114896	145.805296967	7412.55816845	864.700652067
1583	3529.58722591	143.980797336	7982.2944996	853.542727273
1584	3424.45465558	142.247806119	8744.23330118	846.99919091
1585	3259.34406794	153.390777678	9322.54723978	845.290040496
1586	3124.11242156	158.920153391	9486.88747633	845.290040496
1587	2942.55586536	161.298562364	9353.02015274	836.045379339
1588	2830.4177828	182.76092975	9198.96641782	828.680624794
1589	2846.12416182	190.447636584	9187.63375104	822.250661157
1590	2951.42222915	193.881226658	9232.54547872	833.44909091
1591	2997.7613923	192.815518041	9278.95544745	846.077107439
1592	3012.68621369	190.406336327	9342.63424174	893.174843802
1593	2953.32504885	186.042275736	9356.41269431	926.133966943
1594	2820.64633245	183.52296	9371.45901066	937.577809091
1595	2652.3073653	180.627083089	9356.43715216	935.760645455
1596	2488.90400998	177.173247791	9178.48493427	929.06382562
1597	2346.76028985	174.537319562	8770.49630674	898.909075207
1598	2288.98678772	177.834861727	8297.22886763	876.582106612
1599	2235.1828383	176.675215269	7833.4289864	837.423342149
1600	2191.52884435	177.053396062	7482.62519742	772.905296695
1601	2155.65796105	177.432386664	7206.75555113	709.167170248
1602	2117.99432541	179.930647366	7021.42810565	664.59980248
1603	2155.43307514	180.506421551	6957.8061167	614.881157025
1604	2260.9932454	179.272272666	6817.50637649	581.717920662
1605	2387.65547237	180.011628265	6702.98679639	557.428447108
1606	2434.7856954	175.083940624	6593.88265939	568.200383471
1607	2419.13553783	179.703900852	6490.10639059	577.121004959
1608	2348.06288593	179.146752274	6326.3042269	588.691921488
1609	2268.19988797	179.146752274	5981.25671311	599.015920661
1610	2252.35018378	173.06346722	5552.63512111	614.424483471
1611	2402.49794115	177.429147429	5178.94666681	619.84976529
1612	2887.11119907	174.773783785	4800.86053188	591.551095042
1613	3347.35442824	173.966404232	4398.96269991	564.941719835
1614	3669.9358181	177.987105816	3932.42906135	548.961322314
1615	3850.93332696	176.788588526	3513.53380714	516.199164463
1616	3962.10930965	174.048194939	3148.50264556	496.721044628
1617	3925.77994418	172.992204029	2872.85469791	515.563792562
1618	3888.77116994	174.100022714	2638.86163805	604.715206612
1619	3885.33215787	176.460615889	2468.84323366	719.6929
1620	3887.55567752	179.129746286	2368.08948271	814.204470248
1621	3943.16504886	180.655426403	2318.98047103	861.24978843
1622	4096.76844721	175.946387187	2289.28784263	881.327540496
1623	4246.06417214	169.027379265	2280.5966245	882.089986777
1624	4268.95502192	170.731217358	2309.82849841	881.819953719
1625	4282.83776642	169.953800738	2304.526666	890.909742975
1626	4793.6526062	167.083837714	2300.09900476	926.073606612
1627	6023.23917867	172.631839033	2316.33586653	969.120847107
1628	7637.70211648	168.505862282	2351.60015274	1034.15989752
1629	9107.7526789	164.744299572	2406.94986299	1090.61666198
1630	10124.5401852	161.752055393	2436.95018702	1150.31620578
1631	10605.3976904	162.152910838	2455.25334328	1203.32766612
1632	10789.7787817	161.229728601	2465.60769575	1212.81456281
1633	10812.7424819	158.561408013	2479.65518475	1217.53458182
1634	10780.4088002	158.561408013	2454.95669314	1233.56183802
1635	10752.4762305	152.648992653	2445.11043294	1286.48831736
1636	10725.679968	146.701755507	2430.21480855	1353.30720331
1637	10700.3153734	143.25520849	1919.28621316	1405.87231488
1638	10678.4539309	125.63700433	1406.33945002	1432.21483388
1639	10647.1084802	122.913616731	1276.24968202	1468.45644711
1640	10609.4836453	122.002581629	1177.18352326	1467.59869504
1641	10656.8704283	122.427731344	1084.05510122	1458.09909091
1642	10847.3147284	123.81979298	1019.14789129	1419.3382281
1643	11212.8271515	124.869305417	971.940280819	1396.69357355
1644	11609.3888728	125.634574903	948.684013851	1393.99086033
1645	11912.5865241	128.51749487	923.610764735	1404.00432149
1646	12059.0157458	128.51749487	914.046164388	1405.40769917
1647	12084.0699345	129.161293009	860.90160616	1401.64947438
1648	12079.0456353	125.922057091	833.792832101	1383.60252975
1649	12091.0564423	127.059028898	805.516392569	1378.71016612
1650	12104.8797979	128.630868127	769.930209391	1402.82252975
1651	12105.9250422	127.978971899	757.322578149	1423.45226116
1652	12108.1168878	124.62069406	765.057572936	1439.91157025
1653	12088.649213	121.731295621	779.258909755	1444.67765372
1654	12012.9996581	121.160380291	799.346700684	1448.10866198
1655	11918.6544839	117.457933636	828.22906392	1453.19799091
1656	11888.6369686	113.078486674	858.777717343	1462.53795785
1657	11928.9010453	108.268221336	868.396756148	1512.0906124
1658	11949.170074	108.392122109	881.480132174	1599.48204628
1659	11947.4145387	106.072019383	877.039847529	1681.3441562
1660	11911.4581354	109.324212245	839.394470512	1716.49213554
1661	11779.526927	112.874414811	808.908934142	1758.43621157
1662	11278.5152117	112.874414811	795.183342107	1768.02159091
1663	10549.6513287	110.943830204	798.32341547	1758.60140826
1664	9803.66998692	106.003995429	853.787525378	1728.77466859
1665	9145.83124483	110.896051474	937.001047429	1682.6363438
1666	8567.71613474	115.70874624	1038.56664147	1616.72286281
1667	8298.91018767	119.04192	1229.43813105	1518.69768595
1668	8155.08774192	116.916981238	1386.85916072	1356.75409587
1669	8028.96159859	112.71650206	1560.53440934	1152.34542479
1670	7859.4799894	106.464776738	1693.92046541	956.651673553
1671	7661.39432021	103.885535138	1793.61621676	820.871904132
1672	7351.08346475	98.7027576686	1850.22984599	754.300813223
1673	6900.41451485	90.5860422662	1856.78060708	741.253451239
1674	6641.26757515	86.4066181225	1856.90368533	731.008079339
1675	6665.83635873	88.5777159968	1864.5534721	732.523441322
1676	6608.18084253	93.2292587756	1879.6802627	731.83406281
1677	6062.91174215	93.2292587756	1890.27682685	727.285594215
1678	5169.78534475	95.8813831837	1892.41412804	707.296794215
1679	4299.3819246	108.453667592	1916.77099861	684.664052892
1680	3710.57285693	120.885045238	1960.76358422	634.815950413
1681	3501.7267146	117.704925375	2013.4339756	607.952426446
1682	3531.91922916	118.01832145	2063.79270492	613.268106611
1683	3649.90117748	119.806379677	2086.41306758	622.766916529
1684	3732.71065571	118.89939362	2088.36654035	636.56322314
1685	3753.5704058	113.353821727	2081.69191205	632.493666115
1686	3749.8170286	117.522718354	2097.14296651	620.599504132
1687	3728.90897555	125.488809287	2253.37029492	626.229693388
1688	3729.97718354	125.488809287	2532.9662142	636.544161983
1689	3740.18177676	121.47863522	2722.41599218	640.737616529
1690	3800.3664674	120.269590413	2832.7722137	652.670695041
1691	3888.81234622	115.771101532	2908.48190717	657.45107438
1692	3888.02682928	117.163972976	2920.84022606	657.690133058
1693	3748.47483988	120.389442142	2816.8359469	653.594366942
1694	3534.86095833	121.990434495	2691.77187421	653.594366942
1695	3240.56530412	123.130645538	2647.48342742	661.048073553
1696	3061.21643053	129.835863889	2504.98642482	685.991980165
1697	3008.99222532	127.564349701	2354.75916121	707.645454545
1698	3005.34337255	128.523973342	2201.33028512	708.567538016
1699	2992.50666418	130.495858207	2087.28171602	694.728343801
1700	2964.46798632	131.416611017	2036.04250381	643.553108264
1701	2949.05300872	131.995624438	2065.05110115	604.992387603
1702	2951.15220765	132.355989434	2199.55038423	568.225798347
1703	2955.59924696	134.914985809	2384.18748695	545.352409917
1704	3032.65275499	133.994232999	2613.23216991	523.486880165
1705	3198.67001286	132.552773016	2927.38151959	523.390780165
1706	3570.6376113	134.834004911	3286.99723807	521.891302479
1707	4483.41380937	131.023853662	3625.13106772	497.73128595
1708	5966.33037869	131.290280816	3882.80012295	439.362846281
1709	7430.75325095	133.456519837	4154.68313841	378.698331405
1710	8507.84185012	136.294090501	4512.33670552	346.014800827
1711	9192.78805248	137.703158126	4806.85349602	304.235127273
1712	9371.01170474	137.427823073	5152.40594623	295.571831405
1713	9368.29406961	137.427823073	5476.27216615	295.693346281
1714	9373.92175985	139.62807407	5668.1764085	299.406300827
1715	9601.19350007	140.833069832	5709.55594814	297.007771901
1716	10457.8187002	142.031587122	5633.81942992	295.623455372
1717	11895.3106952	149.546614452	5431.97109594	292.732513223
1718	13215.2142921	149.247794939	5258.83076434	287.493077686
1719	13959.523243	150.33374878	5148.55659498	285.54883967
1720	14349.8174579	149.730441091	5148.55659498	300.709607438
1721	14278.7147156	148.437985959	5204.87199614	311.014545455
1722	13898.1769059	148.437985959	5298.59845225	308.469880992
1723	13526.4714104	148.963551987	5378.83837216	310.85570248
1724	13208.8794783	149.442958903	5468.76833757	313.112066942
1725	12961.025928	151.673982642	5573.49215112	313.448019835
1726	12717.613874	157.56372335	5696.96409616	314.779918182
1727	12603.3346244	163.561978462	5805.13173389	322.45123967
1728	12546.4860051	169.107550354	5892.13464598	329.806463637
1729	12491.5568343	167.083027905	5973.23137989	331.496552893
1730	12443.4874752	162.600735203	6066.10102201	330.124149587
1731	12473.7900571	164.084305254	6174.61185871	329.125821488
1732	12701.9993498	166.261071791	6312.55812183	326.990971901
1733	13125.6107261	168.637861146	6727.40993986	323.821260331
1734	13550.53816	171.356389891	7455.55113773	315.687705785
1735	13755.6594318	169.445240699	8413.89758336	306.980728099
1736	13810.3407529	161.314758544	9376.71745009	294.682310744
1737	13820.9832401	146.99328674	10165.5733077	273.306017356
1738	13816.6755667	135.339325714	10720.0337342	254.657852066
1739	13816.4863142	126.768307474	10994.7073123	233.0425
1740	13819.2823426	111.964999327	11241.5415365	219.299405785
1741	13802.051649	111.449151007	11504.1589687	212.773342149
1742	13795.9227166	116.648124656	11743.4830526	210.944265289
1743	13744.2567669	123.010793809	12053.3720013	215.426019835
1744	13629.7447129	138.801259102	12294.0412674	212.735219835
1745	13596.8551513	140.927007673	12486.5253976	200.304168595
1746	13701.0311647	144.056109571	12598.7128026	178.447375207
1747	13773.8815238	149.409756735	12650.4127693	164.723342149
1748	13776.5421456	152.915419807	12677.5333778	161.528215703
1749	13776.3703137	158.681259742	12714.426084	153.046000827
1750	13806.4012906	163.50043298	12719.3610486	152.664777686
1751	13825.5957765	163.50043298	12609.2730745	151.019164463
1752	13827.3750673	160.362423184	12370.1249294	147.504763636
1753	13822.7664902	154.356879791	12069.2554075	145.94174876
1754	13745.7232763	145.027880346	11714.5249489	144.15
1755	13566.618293	138.743762664	11285.1427964	141.583891736
1756	13149.8857327	129.728159295	10742.0931441	139.705573554
1757	12103.8693953	123.871620754	10144.3746566	137.654116529
1758	10363.4236394	124.005239236	9601.30685809	141.707789256
1759	8535.0245363	131.449003376	8994.89320772	149.029656198
1760	7069.54454198	137.972014707	8214.19838502	151.146238843
1761	6044.81317914	137.73959953	7480.02477484	150.821404959
1762	5653.03661787	142.404099252	6612.91639553	154.729736364
1763	5510.66167705	142.885935595	5723.25234853	157.2196
1764	5519.68245196	144.558191138	4971.27578473	160.689524794
1765	5683.56408573	147.398191229	4425.4647613	165.914664463
1766	5447.50358318	148.127019311	4069.79070276	168.380701653
1767	4627.49914995	146.647498305	3786.99869373	169.307550413
1768	3753.15943483	146.879913482	3654.1814801	171.950697521
1769	3262.83217477	141.412083252	3661.55907457	172.802095868
1770	2978.25254126	134.772459429	3710.65230699	161.166053719
1771	2873.09542355	128.950742674	3764.71206248	153.522529752
1772	2858.12625846	125.459656163	3841.1744268	146.787587603
1773	2925.51600799	120.134352314	3918.27585128	139.385504959
1774	3027.50651063	115.119205303	4004.69808649	136.395285951
1775	3232.77348314	118.887246485	4092.7219169	136.510447108
1776	3487.47338351	123.512875376	4262.51862265	134.223108265
1777	3760.57987735	133.177945548	4456.99804075	125.327901653
1778	3927.31217735	140.211136535	4661.8254996	112.082780165
1779	3919.28992748	144.456965015	4874.70669437	104.839540496
1780	3889.99141352	148.341618691	5112.98698003	101.179798347
1781	3885.71541419	151.289323376	5329.68281165	105.729855372
1782	3750.38716189	153.530874632	5568.94693437	113.62117438
1783	3433.90382225	160.636948428	5698.26194055	113.843554545
1784	3145.18834714	161.023227311	5621.69069931	119.028189256
1785	3230.00754508	155.827492898	5295.95937049	133.679071074
1786	3592.9171516	149.880255752	4932.15267973	145.996549587
1787	3956.3097877	144.158955311	4553.09769804	157.57302562
1788	4237.69667507	137.784139024	4263.10245539	174.670883471
1789	4460.97273146	133.071860571	4233.24808954	181.973689256
1790	4697.118754	133.071860571	4219.74498512	183.069705785
1791	4867.21563201	132.436970331	4087.55894201	183.069705785
1792	4920.40906375	135.779861799	3911.44343035	183.641540496
1793	4929.30947717	144.46101406	3635.64952452	184.115686777
1794	4942.10500925	149.183820029	3361.82250384	184.508823141
1795	4913.0638471	153.589180878	3074.7543145	185.906641322
1796	4752.30527654	155.00067793	2876.87525416	189.681544628
1797	4631.93985453	155.00067793	2766.5947731	188.749930579
1798	4647.29940251	155.224995017	2679.55241285	198.506860331
1799	4733.42753133	154.838716134	2555.31280665	219.982430579
1800	4801.38978966	155.224995017	2441.32340979	248.430413223
1801	4859.85141095	154.00056384	2384.1843311	279.68197438
1802	4891.98396225	149.244555703	2363.93559169	316.7456
1803	4906.01636673	143.774296046	2369.14669334	357.870046281
1804	4906.01636673	137.46993314	2390.0881424	388.224938843
1805	4910.30503569	131.76320926	2414.9562611	405.962139669
1806	4883.42008578	127.727121306	2443.13171334	410.431186777
1807	4838.86734012	125.290406087	2488.69670253	410.578116529
1808	4786.80388081	125.216713469	2556.07967884	421.731276033
1809	4735.75557541	128.21624593	2655.11427907	434.197272727
1810	4657.59268312	133.152841469	2778.00554723	443.98517686
1811	4559.98587162	137.343602939	2945.87481598	445.71338843
1812	4514.44568684	139.857250011	3149.32316724	441.83841405
1813	4579.68714262	143.343477669	3399.72823869	439.748040496
1814	4623.71409871	149.621116878	3683.24372693	434.27748843
1815	4474.57674412	150.158830041	4046.89893677	428.16123967
1816	4269.79438486	146.45314415	4413.96167848	423.335590083
1817	4106.0552844	146.45314415	4716.07776211	423.180718182
1818	4046.30215296	144.375984117	5053.01315672	421.236480165
1819	4059.04463098	149.854341864	5437.01651533	422.900360331
1820	4149.30305842	147.543956846	5794.95410917	423.316528926
1821	4303.25883076	147.543956846	6128.84331703	423.316528926
1822	4390.71964604	137.748507429	6428.79448575	422.847147934
1823	4432.93563726	134.655846935	6683.64220874	419.517004959
1824	4450.2890679	135.202467997	6943.34994477	418.154132231
1825	4426.60082346	136.125650233	7237.14641191	418.154132231
1826	4438.0605017	136.728957923	7509.50911697	419.358161984
1827	4317.72992115	135.115818436	7699.59006547	418.383660331
1828	4223.76008464	133.291318805	7810.72262674	417.10656281
1829	4264.82155603	135.115818436	7864.81788558	416.155887603
1830	4361.39975212	141.959514122	7929.00792799	420.750420661
1831	4484.75124702	146.96089438	7990.22515724	428.209686777
1832	4641.18868271	147.547196082	7964.48523426	433.415765289
1833	4765.85861074	145.815014674	7884.50330529	437.301858678
1834	4878.54782211	145.746180911	7759.23568011	433.60637686
1835	4818.40905884	145.746180911	7568.14880358	413.627107438
1836	4451.77537364	149.412995971	7310.08211092	391.078552893
1837	3912.63837303	154.378744633	7070.13553507	358.553071075
1838	3473.5557976	160.624801293	6747.59871807	326.238850413
1839	3366.44359795	165.09494686	6421.23306286	308.025120661
1840	3602.03928349	163.066375367	6061.46586346	300.341091736
1841	4142.99675118	163.096338299	5704.81585749	303.930942975
1842	4825.44624504	163.096338299	5348.87355147	311.688833884
1843	5402.45909749	157.123187265	4941.13739215	319.217990909
1844	5728.6513312	152.325069061	4539.38157356	320.723822314
1845	5953.31946291	151.684510158	4127.73215698	325.091209917
1846	6197.42755459	161.313948735	3702.82815937	324.926013223
1847	6466.10997278	161.313948735	3234.36156107	326.124483471
1848	6728.81470228	162.791850122	2804.06105547	323.972955372
1849	6834.7098258	163.65915554	2388.72481406	311.809554546
1850	6932.26595877	163.65915554	2040.92460782	294.275672727
1851	7001.92436348	163.65915554	1720.98821338	274.604558678
1852	7015.66457468	164.262463229	1466.44581914	247.833957851
1853	7012.04977154	164.262463229	1239.56841798	214.615920661
1854	7014.22578009	170.65023646	1045.1592176	189.709342149
1855	7006.77603903	175.304208666	872.337627115	173.898112397
1856	7020.71579686	176.286506958	697.829233401	169.016073554
1857	7043.14816447	173.383341766	570.73594747	168.7516
1858	7041.98176688	173.45217553	501.193578996	151.523490909
1859	7036.57262772	170.241282926	469.938803549	131.592668595
1860	7045.59973742	164.695711033	469.938803549	115.816384298
1861	7050.3753952	161.884054256	510.743978007	111.032033884
1862	7071.15675197	158.35733615	547.515972809	109.030612397
1863	7080.59958384	156.085821962	595.370533071	106.362050413
1864	7059.45397529	150.479514397	654.463873499	106.126168595
1865	6980.03441432	150.479514397	747.255408271	106.12378595
1866	6944.86352794	150.479514397	851.587896098	106.206384298
1867	7046.83423431	150.479514397	940.005419129	105.887904132
1868	7230.65548648	150.479514397	1026.27065067	103.058116529
1869	7510.22349043	146.404555611	1093.75855908	102.726928926
1870	7584.98933883	150.077039334	1139.04583323	107.080020661
1871	7493.60648195	153.232864927	1194.56595953	107.730482645
1872	7383.82811754	150.064892199	1232.24131714	107.933801653
1873	7252.76715421	150.064892199	1274.72777209	113.394823141
1874	7116.82204943	150.064892199	1309.51789144	115.057114876
1875	6925.02922591	149.940991425	1327.53228719	119.021835537
1876	6619.25013791	148.053326694	1341.01961236	116.296090083
1877	6444.50825766	149.880255752	1353.54519143	115.438338017
1878	6331.90694186	147.803095719	1363.01274931	114.814879339
1879	6205.78079853	145.05622366	1371.73000323	115.431984298
1880	6017.09836861	135.423545848	1361.15395211	114.128677686
1881	5755.4072093	127.746556722	1340.36082812	108.295963636
1882	5411.64220201	126.107503347	1325.64824318	105.043653719
1883	5077.17036662	127.578116454	1308.99165301	107.533517355
1884	4631.79732108	127.545724095	1285.39849878	106.914029752
1885	4055.72281294	130.078806583	1278.91637749	109.350680992
1886	3620.46408955	133.054854583	1256.13664427	112.857933884
1887	3517.97867955	133.962650449	1204.64890867	115.181012397
1888	3555.17670636	133.135835481	1143.91452487	116.403309091
1889	3557.82465853	130.59708433	1033.60564114	116.273852066
1890	3325.55950133	134.367554939	899.793544964	116.063385124
1891	2995.23934456	134.581344509	796.134042711	113.992866942
1892	2667.58693622	133.220865424	721.150984309	108.973428926
1893	2498.37138923	135.380625972	649.824770139	104.208139669
1894	2495.44232967	130.560642926	602.63846167	103.636304959
1895	2561.29271944	126.881680731	584.392110748	101.186152066
1896	2633.76298962	113.412937783	563.891692087	103.498905785
1897	2610.96399465	112.758612127	549.860771311	101.059077686
1898	2546.09154179	109.784993554	538.101275462	97.2921165289
1899	2547.86212226	108.776781375	535.390398055	96.6758057851
1900	2490.72289338	107.885991497	548.052467755	96.3454123967
1901	2433.13943567	108.676365061	570.200241487	97.8981024794
1902	2433.49418524	110.736519105	601.660147355	97.7710280992
1903	2454.75302861	107.636570331	651.607826871	97.7710280992
1904	2453.17328441	103.662837669	692.101360882	97.2667016529
1905	2453.15665552	105.211192438	730.994088649	99.2736826446
1906	2465.84924687	106.915030531	770.050920752	101.789755372
1907	2474.42896036	108.514403265	785.58955012	117.086333884
1908	2514.11023419	109.34364766	784.563898017	119.282338017
1909	2580.26865427	110.073285551	783.124829219	117.78921405
1910	2734.88879024	110.073285551	785.220315363	120.324347934
1911	3114.70443119	112.738366903	794.157690001	125.108698347
1912	3754.2925747	118.854854126	811.729477424	130.603871074
1913	4750.59487678	122.767851115	828.273245854	141.151838843
1914	5860.90323961	122.171021897	852.970948508	141.36151157
1915	6782.60914958	120.567600118	864.675216936	146.612066116
1916	7356.4047085	121.261606413	867.326922105	171.582976033
1917	7622.602296	121.592008477	885.292402144	206.026486777
1918	7632.92883439	121.953993091	882.888431406	225.557024793
1919	7502.5773702	121.953993091	887.61589864	253.691292562
1920	7428.92803276	120.499576163	907.036226739	279.909914049
1921	7416.24573547	121.592008477	909.186151341	317.200685124
1922	7535.91432797	123.982564584	929.415166676	332.189108264
1923	7754.30703475	126.249219918	941.003457519	326.985412397
1924	7954.3287814	125.792487654	931.068044489	324.158007438
1925	8163.68170885	124.953525551	914.831182726	315.129372727
1926	8372.55239857	122.281155918	919.556283071	311.641180992
1927	8514.12360991	113.73281233	988.038285062	311.641180992
1928	8553.36382232	120.107628617	1052.02004121	311.668978512
1929	8540.27926437	120.107628617	1109.01473964	315.760773554
1930	8512.01015766	120.107628617	1151.17614177	326.045061983
1931	8500.86167717	119.62903151	1200.97628517	351.88563719
1932	8500.62649721	118.892915148	1238.33763545	386.386331405
1933	8498.35942571	113.943362664	1262.70081773	420.702767768
1934	8500.04448619	114.005717956	1269.41331626	439.916414049
1935	8510.97204004	113.376496379	1279.65800285	448.572561983
1936	8506.71742069	110.033604911	1276.49583852	452.0544
1937	8498.40297754	106.830810397	1274.28279687	452.722334711
1938	8490.98174314	105.619336163	1273.04017989	453.656331405
1939	8474.3568161	107.623613388	1275.91200578	456.05803719
1940	8468.80989474	107.623613388	1281.8197619	456.15254876
1941	8407.27113764	107.549920771	1327.79422296	456.642579339
1942	8302.42600951	104.530952895	1388.96963716	456.911818182
1943	8118.61505143	103.619917793	1472.20525018	457.643290082
1944	7927.72177149	107.361235278	1579.7219933	461.181517355
1945	7703.95793443	111.841908362	1717.49389556	464.536280992
1946	7445.43418206	112.878463856	1843.4605421	466.125504959
1947	7312.50999164	112.489755546	2002.17468239	468.666198347
1948	7356.14418928	112.094568764	2189.49978258	469.674057025
1949	7618.76102326	113.078486674	2379.51366921	468.87348843
1950	8089.49470413	113.45504785	2607.78280138	465.740310744
1951	8699.01702934	113.101161326	2894.84467901	459.063346281
1952	9331.10237768	110.85961007	3194.21595981	452.925653719
1953	9947.56132403	110.376963918	3496.45117687	451.22206281
1954	10491.8960394	109.861925407	3843.03953571	451.067190909
1955	10700.0041759	105.50272367	4270.89425552	450.824955372
1956	10768.1137186	101.530610625	4653.14690488	450.533478512
1957	10853.6147009	100.099678158	5082.20400455	441.106942149
1958	11005.9471772	101.326538762	5643.29882224	442.505554545
1959	11118.4027923	100.676262152	6211.07221306	443.509442149
1960	11022.9474419	101.245557864	6747.2918114	443.509442149
1961	10556.4129508	98.803983791	7348.87306244	441.882095868
1962	9734.63001856	95.6878388375	7943.01596884	438.425672727
1963	8427.95430474	91.6671372538	8524.64355269	429.908512397
1964	7018.95471875	89.8086256457	9133.59293065	429.21357438
1965	6102.24697693	90.1317394286	9803.95677865	422.141885124
1966	5726.56401016	87.4796150204	10514.1182951	396.205209917
1967	5482.31892812	87.0836184294	11221.0284945	354.068139669
1968	5359.01573617	86.7313515233	11757.0098259	327.66843719
1969	5280.56540169	93.6981381747	12355.1070157	288.81147438
1970	5246.7493736	92.1797463379	12877.6491487	245.224961983
1971	5253.84832435	86.9127487347	13295.9140214	187.187709917
1972	5247.44620312	86.3126802808	13662.9830748	157.293461983
1973	5185.11163504	84.7027800294	13992.625294	159.554591736
1974	5147.42345202	87.0836184294	14180.6068115	164.228546281
1975	5113.46172322	87.4601796049	14255.0849335	164.228546281
1976	5073.84063014	89.9219989028	13964.6644397	160.035091736
1977	5051.41301362	93.092401058	13353.1351522	152.429690083
1978	5089.29520032	90.592520738	12681.1657642	154.386635537
1979	5181.3083712	91.2654720001	11933.3588707	161.38446281
1980	5297.66623162	91.6128800523	11190.9342838	174.305544628
1981	5430.51994725	92.1765071021	10365.5754679	182.497871074
1982	5468.91525386	93.0381438564	9537.22016985	207.370298347
1983	5434.20047407	93.6212063217	8740.65535326	200.412976033
1984	5486.11427339	93.3879813355	7986.82314812	195.336354545
1985	5727.03278631	90.4467551217	7138.32167589	191.138928926
1986	6060.11175449	91.265472	6410.67594687	189.499669421
1987	6402.95187893	94.0382579462	5705.93934103	189.95713719
1988	6778.31493756	96.2223127641	5037.7861678	189.896776859
1989	7109.50533936	98.6347337143	4470.47116458	190.862542149
1990	7308.57686397	97.1090535968	3902.9218393	192.032420661
1991	7383.7204256	97.0345511707	3523.92366295	194.026694215
1992	7401.88867165	99.2631454825	3193.40727258	200.657594215
1993	7406.50675095	97.9059056327	2922.14280423	216.19243719
1994	7409.09056314	97.1843658319	2727.98922792	221.053032231
1995	7454.1192117	95.8174082744	2612.39034622	222.923408264
1996	7525.2837184	100.384730919	2485.41145994	223.685854545
1997	7593.14620341	104.628129972	2409.73016915	222.796333884
1998	7574.62320779	106.651842612	2366.99124599	226.554558678
1999	7399.50915724	107.258389538	2257.92497923	231.434214876
