	VL	GM	SM	BF
0	1565.77931613	23.9734174379	666.258683091	746.98852327
1	1579.53261566	24.139782298	640.733190154	736.05046683
2	1534.78514846	24.5327891412	624.530880532	741.234910303
3	1413.29528652	24.9016851352	635.573249312	739.270203888
4	1253.32382595	25.7986087283	640.246763199	709.365387704
5	1146.60390846	22.7839488735	642.528677887	680.305196823
6	1070.09820138	23.0989973041	634.842019248	672.124873751
7	1062.54008182	23.1978517862	624.884573334	674.303911774
8	1062.1842561	23.336087322	625.103147538	675.637530674
9	1042.56062642	23.7122165708	624.518958303	664.932857542
10	952.694775464	24.6935281364	624.55313536	653.791582984
11	849.553765791	24.4451863888	633.210263464	656.365943753
12	757.162187616	25.4168536148	635.49933149	665.00350759
13	674.694016943	29.7399288905	630.947424343	672.890910797
14	664.631615018	29.7399288905	636.511131351	673.90938285
15	707.258424466	30.1618687528	647.918320347	669.845020489
16	838.8781999	30.2197347911	628.854675692	667.066647781
17	989.875386318	27.7242618908	623.980868353	649.691498688
18	1093.23084453	24.0505721557	602.950055863	617.151197535
19	1159.38901256	24.9113294749	567.982157319	594.512222892
20	1194.21545502	26.8635045716	543.799902216	568.28359071
21	1197.22726559	33.569535451	529.350160301	562.501400195
22	1199.70533758	33.8202882835	522.451958427	569.303650405
23	1197.75465014	34.2984867942	505.578824702	562.521245715
24	1211.41581622	31.9066905457	504.470057377	542.338352545
25	1243.02711914	29.0688435856	512.020007787	514.075157721
26	1292.56870253	30.9422565746	509.781807939	495.106810335
27	1357.5458151	31.7427367706	508.701653964	436.918953807
28	1426.83016625	31.6245936092	508.657144308	334.417640232
29	1468.86207957	31.9396420397	509.161852015	277.427659252
30	1504.69881292	31.5852125553	510.160934831	265.613224678
31	1523.09611466	32.0875219153	511.629753481	263.548496846
32	1536.12584894	32.263531115	519.355358069	264.624917815
33	1550.13648672	31.1222842492	518.140880311	260.13586134
34	1565.33532824	30.8425983975	520.054795522	253.467766841
35	1531.13793481	30.8425983975	523.67915323	255.530907032
36	1465.18309577	30.9872634932	515.784252985	268.836137019
37	1376.75643278	31.5562795362	500.502339465	293.812913841
38	1295.01818138	31.5723534357	502.505273988	338.508198679
39	1230.44296126	27.9492964841	520.813844121	360.824088267
40	1197.03982168	28.7851392591	476.711133484	365.555260078
41	1181.96408951	29.2737858045	402.514331642	368.038331458
42	1176.57904846	29.9971112828	359.384474916	370.286431889
43	1176.19542385	36.8895993967	358.337703183	368.336014248
44	1171.28614086	36.4748927891	357.139121731	364.154166413
45	1163.39443468	35.8447959279	321.112529224	362.429987693
46	1138.56605958	35.7170084268	265.814845272	364.3867559
47	1105.25267068	35.6711978131	224.695076407	368.432066562
48	1081.27255868	35.475899934	201.307636591	369.96890358
49	1054.26157402	33.9995122632	186.530430778	370.39994826
50	1030.28146202	35.9002508813	188.034221301	355.622974559
51	1017.80770544	36.1148374399	195.175636653	345.741493568
52	1014.55523595	36.3720198322	206.728276848	333.237228742
53	1013.70617859	36.6517056838	217.923250163	323.660574929
54	1012.71812682	36.7489527759	226.318884038	320.684540849
55	1011.35836424	35.1343295692	226.51917749	322.149140176
56	1010.2027249	35.8576550476	221.728825756	322.060232249
57	1002.34834865	37.8709109623	220.640723629	323.736781723
58	1001.6025443	37.6330172495	237.761839723	329.852376963
59	1001.39524404	37.7125830521	265.767156355	340.504657925
60	1003.42932813	37.549432972	264.744229081	346.547221654
61	1003.61994905	37.1435670091	265.242578266	345.547007479
62	1002.66287318	33.8106439438	267.821753871	339.74020852
63	1002.34517164	32.3117528137	269.588628254	334.833602318
64	989.234423468	31.5860162503	269.872377311	334.126308009
65	938.884289659	33.0318635121	269.016361247	335.154305911
66	788.614639761	34.2663389951	268.966287884	329.28400129
67	601.822815444	33.8805654067	266.705038393	334.227123247
68	452.426050518	33.8202882835	266.186818826	340.917444727
69	349.806071365	33.9191427655	265.678137043	344.646020901
70	282.834587404	28.7111993213	264.355564405	345.331882049
71	258.072929625	26.2880589688	263.583798762	350.552047457
72	223.820732687	26.2173338109	258.732246251	357.536876444
73	224.885827089	26.6995507964	257.122745295	355.543592481
74	223.140851398	26.9438740691	255.965494237	349.42720342
75	215.059318555	26.8602897916	253.801212211	343.318752567
76	190.306397568	26.4616570836	253.717756606	312.81618934
77	153.151997091	22.7799303987	253.148668861	287.283737977
78	109.38543338	22.2912838533	251.94134444	275.154950377
79	88.848411786	22.3981752851	266.667682075	270.63334725
80	71.5376492987	24.2113111508	268.205649655	266.175249786
81	65.5608891373	32.2675495899	268.310565273	258.706983947
82	65.5608891373	32.2675495899	267.742272343	250.800529042
83	64.4934119736	32.3085380336	269.207116916	244.551571912
84	57.4690309946	32.3085380336	270.679114828	288.783265419
85	85.7794149403	30.8329540578	268.571264687	303.464980627
86	153.516559605	30.8626907719	295.134786389	308.799456226
87	217.781226472	32.830136073	313.573706228	296.985021652
88	264.709714729	35.8094333489	321.855681517	265.234572169
89	281.607465218	36.040897502	309.708519488	245.563693398
90	287.453173495	36.339872033	323.807747862	234.970948995
91	288.333206752	36.507040588	355.814164648	232.74904465
92	292.197251694	34.2285653312	384.522892809	237.238101125
93	306.658231396	28.9940999527	385.927331421	245.932820058
94	318.524383796	29.7214439059	383.180449789	253.78450133
95	326.959359598	30.0814992552	383.895783547	253.78450133
96	344.332073885	30.0814992552	391.545880683	254.10202964
97	348.848995485	30.0429218963	440.646389844	251.553071135
98	353.116521378	30.1417763784	484.245982403	250.51078446
99	353.859942974	30.3997624656	508.065801735	249.838418264
100	353.859942974	28.383291771	509.317635812	249.31052745
101	353.662173768	28.6565480628	517.873027559	249.605828778
102	348.509849094	29.685277632	515.278750463	249.755860904
103	344.814185967	37.5526477517	508.100773608	248.624666302
104	344.011195333	38.9221439907	506.218651008	247.354553064
105	344.468685546	40.1654601185	513.073138042	251.172037164
106	345.078672497	40.1654601185	518.063783228	252.59377017
107	344.893611352	37.3525277027	516.757901712	257.877441239
108	344.865812467	38.1755113581	492.423042075	263.311144434
109	345.18271975	38.1755113581	455.998247109	261.063044004
110	342.866675547	39.481515694	452.667176242	263.311144434
111	342.514821095	39.481515694	461.085064945	271.281105002
112	347.171531371	39.4300792155	463.076077238	271.15647514
113	347.267636086	39.5225041378	463.304984041	274.54212074
114	347.4773191	39.7901345648	463.476664143	292.145890216
115	347.343884454	38.9984950134	470.002892463	303.176823686
116	347.187416447	38.612721425	508.602302054	313.387740297
117	346.949934549	44.933782411	531.124188022	315.080166187
118	345.825271108	44.8373390138	531.325276289	309.292418926
119	345.830830885	44.8373390138	532.720177118	304.891476557
120	346.393162605	44.8373390138	540.709660381	314.292695979
121	346.231929075	45.067999472	531.855418086	310.930865003
122	346.154886453	46.1770985388	535.279482341	307.228484915
123	346.231929075	46.6946781033	537.076559705	301.03668288
124	346.231929075	46.4286550662	547.227145733	299.74354884
125	345.984121877	52.2273143178	571.174135511	296.399975742
126	345.433703964	52.3719794135	594.680797619	296.409501591
127	346.263699229	52.2152588932	592.137388701	293.84387285
128	344.988921813	52.4009124326	596.210817047	290.466165459
129	340.642764789	52.5303073238	573.138124085	279.701955768
130	336.194943274	51.3368202845	575.830958276	272.998139335
131	331.645457266	54.6713507398	578.97206829	272.271793327
132	322.724398113	55.4557570363	581.728487705	272.474217624
133	320.450449363	57.4232023375	582.924684712	273.785609542
134	322.87689485	58.0018627202	583.096364814	238.194655157
135	298.265351047	58.7050958242	583.096364814	232.116369493
136	232.713198702	59.1591834856	597.352171798	215.884322314
137	161.125511411	56.2787406918	608.326981279	204.647789263
138	106.112313296	50.8136148552	639.731722893	194.105849389
139	81.9638194831	50.0099198793	662.431647486	182.661335296
140	70.2724029283	47.9653198604	634.211730726	179.775796783
141	74.3135664766	46.3732001131	570.582792938	180.595019822
142	72.9125026992	45.8274912244	507.347288716	177.542778947
143	63.8135306848	44.5737270619	486.948354379	173.260115873
144	53.037094556	41.5518339523	475.61746765	170.671466331
145	43.1248066073	39.0595758318	474.342583929	168.706759916
146	28.6280854825	38.0348647375	469.754910094	166.445164532
147	25.5876817751	37.9191326609	432.557554669	166.445164532
148	22.4900917912	37.4875484588	413.656847148	168.862348788
149	23.6886208388	37.4328972005	455.632632077	171.068376717
150	24.1524650826	37.4328972005	538.017621005	173.938832635
151	25.181023808	37.6932943727	617.011927919	180.261615097
152	25.0737995393	37.7808971251	700.232267713	179.882962588
153	24.8005762177	34.0413044019	705.819024364	177.876183672
154	24.8005762177	34.2221357715	708.133526479	173.469684558
155	25.2898365844	34.8007961542	706.094825269	164.641603734
156	24.9594269861	34.8803619568	704.425713166	162.177584053
157	26.8108326919	34.8803619568	701.821898286	154.63311142
158	28.1833033309	34.8007961542	696.048360043	138.570148066
159	29.5851613621	32.7304778961	697.892331508	127.653524787
160	29.9306617834	29.1942200019	694.458729469	112.126390455
161	29.817083484	35.443752135	687.820432193	97.1835082117
162	26.7536464152	35.443752135	686.346049836	98.4980754128
163	26.8966121068	34.0356785371	685.556798256	97.5955011932
164	34.3189142606	32.1767320577	686.819759747	85.6564367578
165	35.9201300062	31.2034574418	686.720407836	82.268409696
166	35.9201300062	28.389721331	671.138848953	76.3782595557
167	35.3887741858	26.181167537	645.460751481	72.1781538424
168	35.1060198181	26.217333811	644.468822003	71.2565279242
169	35.0273886877	33.5012213781	644.185072945	70.8088130079
170	33.7947067249	32.1068105948	639.413796778	62.8904507909
171	41.1423490176	33.3284269583	639.413796778	64.909930839
172	41.1709421559	35.7330823264	637.502266014	69.4505856642
173	41.1709421559	36.9088880762	630.963320649	76.2734752135
174	41.1971525327	35.5466250919	612.961549217	76.9085318324
175	41.1971525327	36.0859044208	575.113240072	78.3532856404
176	40.129675369	36.8542368178	537.693336368	78.9923113632
177	37.7556506351	36.246643416	535.352605348	79.480511139
178	37.7556506351	36.6010729004	540.54115954	75.8702142605
179	38.74687943	38.3876868319	538.701162151	75.0009805134
180	38.7309943532	40.2297557168	535.299352724	75.3367667007
181	38.6809563611	37.2922505797	535.60694624	76.0988346433
182	38.8104197374	39.1431601093	560.663498158	80.083814927
183	38.5181343235	43.5771452917	607.417712591	86.332772057
184	33.9591172702	43.8206648694	650.400528489	93.4493752926
185	33.0917920747	44.9876299745	677.818476624	97.7360074702
186	37.0447934465	45.9946597794	638.713564511	99.139482598
187	38.4291778932	47.0362484683	594.036202422	100.278615408
188	38.4132928164	45.4288585164	520.384643866	101.917855306
189	38.2322029404	45.7053295881	454.360927618	101.76782318
190	38.2838294401	45.8716944481	420.508154921	100.881919196
191	34.9670253957	45.174890904	399.970922724	99.3863608586
192	34.9503460651	44.9434267509	390.127930212	98.2948572949
193	35.1504980333	44.907260477	386.923234975	95.513309304
194	35.1504980333	44.5697085871	388.89040281	91.9593737005
195	35.1703543793	43.8785309077	401.382514673	91.7307533177
196	35.1703543793	44.2586786314	405.521912687	91.7307533177
197	34.8677436655	46.0203780187	419.09338371	90.5622491389
198	34.578635267	44.9337824112	434.510415829	87.4798430749
199	33.2323750047	44.2201012725	441.739260863	85.0785352347
200	38.4863641698	44.0874916015	439.581337359	84.0211659642
201	41.3496492704	45.2809786408	437.183379639	78.505699229
202	41.4449597314	46.0525258178	422.578648743	78.4294924347
203	42.1240467664	46.7662069564	421.237000539	77.7348992578
204	42.3051366423	48.5431765483	418.013229735	77.0006150422
205	41.844469414	44.3350296542	418.013229735	76.3028465822
206	42.4139494187	45.8917868226	412.966947479	75.1748272628
207	40.6348208125	45.6410339901	414.11863483	73.9055078458
208	41.9691672672	43.2299490622	428.910942133	74.8961961713
209	45.3010621346	42.968748195	427.279981165	74.8326905094
210	45.3010621346	42.4358984259	422.794838501	84.5609640903
211	45.8514800471	44.203223678	412.405013071	83.1130349992
212	45.7490213015	41.6924805731	399.331891233	80.1409700227
213	45.962675585	39.490356339	387.174396606	82.1604500709
214	38.9788015519	38.0919270808	390.203437664	87.7402162887
215	37.8096598965	39.7676311057	405.93124256	90.8329420227
216	46.5400981282	41.229552267	429.117594108	93.1278778793
217	46.4964141669	42.8240830993	429.668401102	95.2711939681
218	46.5941073895	44.7143736828	419.920786424	95.275163072
219	46.7029201658	43.9331821661	410.757360982	95.9919832306
220	46.5941073895	40.6356216797	392.897066671	97.1549306639
221	38.7762668223	44.0497179376	376.50400138	94.9957381597
222	40.4346688444	44.0497179376	358.548329235	87.9720119546
223	40.6824760432	44.5279164483	354.284145221	81.7127351545
224	40.8159106886	44.8212651145	358.353599489	81.7508385517
225	40.5418931131	44.8469833538	337.816367293	80.8816048045
226	40.4306975752	37.1057933452	334.935161878	79.7067500595
227	40.3330043527	31.9870600433	331.218605596	78.9764349478
228	40.3330043527	31.4373326798	329.006634653	79.5408415179
229	40.7102749276	31.3609816571	307.672997539	90.1978854039
230	40.9842925031	31.5217206523	280.014220372	95.6045986931
231	40.9842925031	31.2323904609	260.843275653	109.170201894
232	41.2448077633	31.328833858	260.843275653	125.376846808
233	41.7976084374	32.2281685361	281.928135583	131.218573881
234	41.5879254231	31.2227461212	280.192258996	132.670472076
235	41.5879254231	38.5323519275	291.752052528	128.758523304
236	36.9836359008	38.5942364407	315.749115668	133.158671852
237	39.6404150024	38.5773588462	313.625369222	134.632003208
238	39.6459747793	37.716601527	296.807077752	133.80325432
239	39.7293714327	37.3718163823	278.105868868	134.458156458
240	39.6459747793	37.0511420869	286.42281603	139.957746778
241	39.8087968169	33.5791797907	282.37879585	151.560231206
242	50.4581523309	35.3175720237	279.257556219	160.304960848
243	104.304591552	34.4214521255	278.67893069	160.946368033
244	203.427471038	33.1926025073	278.423794983	160.904295532
245	430.505438731	32.498210048	311.5548754	161.809251214
246	564.457143445	32.3921223112	383.2798017	191.413209325
247	651.685277393	33.4465701197	391.749353397	202.901383561
248	696.265951293	29.7214439061	391.084093002	210.295824067
249	710.721371218	27.8633011216	395.023197563	211.093613945
250	697.755177247	27.4389501743	392.085560263	212.486769403
251	693.988031274	27.1239017438	384.073822172	213.189300787
252	695.610691873	26.7598279196	381.99140612	213.810862453
253	728.692952902	26.7598279196	378.221597215	225.092643288
254	775.0614922	27.0845206899	395.599438646	224.559195728
255	832.553556556	26.7220542558	377.954539278	248.484953845
256	890.311695949	29.25530082	379.60696026	274.773916406
257	941.330591492	29.4441691393	380.954966986	281.71429143
258	974.172193607	34.4335075501	377.216155877	280.453704041
259	995.927600594	38.115234235	379.591063954	278.536626873
260	1015.87052031	39.3006843245	383.737615305	266.060145774
261	1026.78277385	39.4646380996	384.66595956	265.429058259
262	1033.75632258	38.9221439908	386.637101472	266.822213716
263	1038.18587626	39.0402871523	387.094915077	267.377888258
264	1040.06031533	37.8733220472	393.790439053	266.123651435
265	1042.03641889	37.3718163822	405.80804619	277.177605708
266	1037.23912568	36.7899412196	404.510112827	296.908814858
267	1040.13576944	36.7899412196	400.733150584	309.273367228
268	1044.06653171	37.5325553774	408.261640981	319.096899301
269	1044.06653171	39.7957604297	411.399571733	319.849441395
270	1043.90688668	43.7764616457	410.894864026	325.648302146
271	1051.1353909	45.3798331227	410.894864026	328.277436548
272	1100.97005397	46.9365902911	410.824920281	329.871428662
273	1187.51195259	52.4724412856	403.786036101	327.959908239
274	1279.4039451	54.1055494767	390.569052696	326.677093869
275	1308.46092766	66.9068030539	403.932282113	322.549225846
276	1327.80895125	79.24432463	408.726607924	321.160833313
277	1331.58324551	94.5820395512	419.325469774	321.897498991
278	1330.35612332	107.634045961	422.177267023	326.749331559
279	1332.51967079	114.064409463	423.039641609	320.668664433
280	1353.90495549	140.104126685	431.763534198	319.932792576
281	1395.78675483	142.759534885	449.98944354	313.817197336
282	1421.19334673	145.099894655	452.965231974	302.750541931
283	1461.7479479	147.382388387	433.810183561	299.033079248
284	1480.71870092	148.381381242	513.294891507	297.870131814
285	1492.105124	147.490887209	605.725550845	295.777620255
286	1496.84761369	147.79950608	675.771032445	291.891073748
287	1499.59970325	148.005251993	671.510822507	299.003707879
288	1500.82205992	148.475413554	677.958364114	333.757181349
289	1504.17460538	148.95763054	687.009720601	422.488085963
290	1503.70043584	148.603201056	683.712826791	542.706685384
291	1507.93936859	143.719950382	684.084800345	743.833085695
292	1503.39623662	142.984569479	678.715823082	799.294961686
293	1457.45659439	142.073983071	702.979149344	838.624811916
294	1361.38364966	141.901188651	713.887989156	869.202788116
295	1121.50548705	141.646417344	696.217655699	906.988656941
296	963.236112456	145.224467377	640.644170842	941.916770981
297	851.590232642	145.227682156	635.970656956	943.555217057
298	779.620509253	145.214823037	638.018101135	999.817264389
299	744.747205811	141.068560656	631.265350458	1129.80065315
300	735.876184649	140.386223621	626.254834889	1166.42516218
301	737.964278	138.175258742	645.254099506	1160.34767034
302	741.416899451	138.737041531	648.878457214	1159.34031177
303	729.284672014	135.805162258	645.266021735	1186.45167266
304	705.475324591	131.995648072	628.063834482	1301.15480534
305	674.302449799	127.325376567	620.052096391	1449.00551207
306	632.484190761	118.075651089	606.546595037	1607.40450924
307	593.352098218	113.67783218	605.967969508	1758.09471288
308	568.626181862	97.8426300687	607.305643635	1762.20273538
309	545.097206045	90.6921558676	596.897537454	1770.33463539
310	527.483832844	82.0098390423	584.462652292	1769.67735179
311	518.429339045	75.2708566688	611.70971514	1851.87352379
312	519.994813367	71.8672084456	676.706530037	1947.28681168
313	516.029898188	70.2341002545	705.326238886	1965.27875951
314	514.37864445	66.4945075313	685.265101046	1956.29270836
315	511.881510371	61.7109150344	666.253119385	1918.19566179
316	509.501131606	59.0948878876	646.674434424	1885.34418289
317	505.543364711	58.2526155528	646.124422245	1998.2254969
318	500.078898278	62.4470996323	644.51651092	2613.73507308
319	499.367246836	61.9335385427	636.472980217	3413.90561908
320	499.128176429	61.9335385427	635.216377249	3899.27066088
321	492.837686	61.6466194362	634.87381186	4079.13060267
322	441.366860021	61.4022961635	634.454149388	4163.82492865
323	350.76235299	61.7527071731	636.459468357	4253.2948804
324	244.853368677	61.1483285511	637.019813134	4345.55034925
325	205.120820229	67.6236989725	630.49596926	4405.46794124
326	172.715263474	65.70126059	625.510887781	4407.92799182
327	159.247895329	61.4312291827	621.96283234	4410.41185702
328	159.811021303	56.776227882	618.941739435	4419.68368366
329	160.344759884	57.3235441606	618.891666072	4425.55398828
330	148.528645476	46.5540314827	612.698465357	4442.84340473
331	119.849727748	47.9878233198	595.122714919	4468.51556855
332	102.554850338	50.5725063626	609.543843483	4499.45552702
333	70.6893861952	52.6171063814	668.980925449	4532.81266975
334	54.2602454727	57.5413454991	671.170641564	4580.5808348
335	45.9078720698	60.5029614855	577.700363831	4592.60563188
336	41.0279764643	64.7971037421	451.885077999	4600.42952943
337	37.6643114433	70.619873843	440.096377665	4626.50177892
338	36.1989131047	77.2865236686	441.94034913	4603.81835031
339	32.6152397695	83.356028127	439.485959525	4548.98121127
340	32.5842638696	85.3724988217	445.077485068	4468.86484969
341	29.610577485	87.802872429	445.573449807	4278.05970708
342	27.9926824088	91.013633858	461.041350104	4202.72532184
343	28.6535016053	94.2002844377	495.758881833	4179.15202015
344	26.3128355328	93.787988915	550.031254065	4303.94064576
345	25.0992156622	92.6571900839	569.615502733	4595.18713704
346	24.1842352362	94.8560995381	593.342328676	4861.4377998
347	23.576631047	95.9901131492	591.739981058	5025.46101715
348	23.5893391085	94.7082196626	592.793111313	5081.4563407
349	23.5488321626	95.0771156566	597.59300083	5034.83127756
350	23.8474716072	92.7914071449	599.917835544	5033.34445125
351	24.1778812054	91.4315552456	560.603092196	5026.88910072
352	24.4828746808	81.6465689133	549.316715122	5003.75081281
353	24.3327607046	80.3285091527	560.901942743	4924.76008909
354	29.5589509852	79.2443246302	556.51456236	4724.82124465
355	60.3037229568	78.5242139317	550.660747772	4427.87273876
356	142.460546123	75.4066811199	553.548311709	4088.17380892
357	223.410897704	73.1113282686	550.727512256	3759.67489638
358	327.06102409	68.4941006316	535.865261208	3675.83789683
359	381.671535507	69.0566871148	539.203485412	3624.98256279
360	421.237290648	64.6982492602	547.793849033	3592.77249108
361	425.10133559	63.5730762938	542.178479031	3588.79703664
362	427.166395579	63.8326697711	506.520680817	3668.00447344
363	425.145019551	61.628134452	496.142777617	3736.62631021
364	429.23383833	58.6665184656	510.03296957	3691.8095708
365	464.518565263	55.375387539	502.564885135	3662.45804769
366	479.952505921	50.3024648507	503.480512345	3689.11058017
367	520.179874513	42.0364620229	498.27049814	3684.63104954
368	555.456658907	42.1787160337	486.109029436	3331.35540301
369	577.721182607	37.7937562448	477.257966401	2801.55941869
370	588.252988552	33.9553090396	467.593012513	2479.75717819
371	593.028836905	37.3115392592	457.06727367	2371.50463311
372	603.756823549	33.8202882836	453.919010318	2391.61449477
373	605.777405323	31.7427367708	432.952577867	2473.57410818
374	609.084678321	27.3907284759	426.955696527	2473.57410818
375	609.986950686	28.1494165332	435.575468313	2509.15950582
376	610.327685584	26.7799202942	430.96553965	2515.38702979
377	609.088649591	25.316391743	406.70698228	2495.91619386
378	609.872578133	25.6346549534	383.359283229	2453.93498224
379	610.736726313	26.5894445849	367.97086446	2424.29768366
380	610.829654012	29.897453106	363.170974943	2374.87360847
381	610.736726313	30.4029772458	351.804321525	2329.20033644
382	610.483359337	30.4029772458	360.731686827	2269.9495539
383	611.646146962	29.5156979924	385.48223486	2282.09263027
384	611.238694741	29.8564646622	356.046250711	2397.77454397
385	611.7470172	31.4445659347	355.746605348	2688.77018788
386	611.423755886	39.2203148271	426.478807355	3084.58827732
387	615.321159489	39.5064302386	496.794526152	3475.55056508
388	617.27502394	40.7023283628	513.946640042	3931.2671948
389	617.27502394	43.5771452918	514.739070883	4290.85609795
390	616.519688537	46.8755094732	493.851325145	4356.98454368
391	616.32191933	50.9068434726	482.551436212	4351.41112803
392	612.687413749	51.8672589689	478.0845743	4673.79841443
393	612.086957844	51.8391296447	447.639969553	5066.28245662
394	611.20136481	55.0860573476	413.959671772	5182.94235751
395	610.174394593	61.6787672355	411.937661683	4962.89523906
396	611.699361969	68.7770012632	404.879701935	4642.05828462
397	611.519066347	79.2837056839	405.375666674	4457.91964887
398	611.519066347	89.0622624564	412.099009186	4413.23150842
399	611.257756833	102.500042455	412.449522727	4448.47715077
400	611.257756833	116.538986295	412.588615403	4500.18981124
401	609.418264935	130.057939485	415.498434168	4575.50355714
402	609.418264935	138.911443341	409.909293071	4666.02770288
403	610.990887542	146.494305439	379.727772183	4730.88286009
404	608.474691371	152.682756754	373.662536729	4730.67090994
405	583.319877939	156.579873692	378.252595011	4885.98670723
406	507.389210641	158.135827165	377.219335138	5103.4745475
407	425.739915679	162.221008728	377.915593329	5201.60984682
408	311.87489063	168.313820341	378.657155992	5251.06170574
409	243.696935083	171.360627995	380.25950361	5316.19311257
410	197.645303068	172.958373607	378.160396438	5387.44646521
411	173.484895447	174.077117014	377.290073698	5381.01334166
412	164.906953953	175.849264436	378.265312055	5238.06130293
413	165.335056774	176.659388971	389.964993078	5117.73791916
414	165.954574771	175.369458535	380.971658107	5088.25144653
415	145.415170416	183.503655387	362.595528675	5093.91694539
416	137.282011073	180.812080912	356.633619209	5101.15659084
417	113.737944434	183.596884004	356.163883374	5109.84416539
418	86.1574797691	185.672828127	359.466340891	5116.09550398
419	65.4179234457	182.960357583	365.892422485	5117.54740218
420	55.3785548823	178.400995984	374.958880462	5110.95551447
421	50.8965804517	181.095785239	385.425802975	5110.95551447
422	41.1931812635	182.863914186	401.404769501	5035.92278113
423	37.997898057	180.208505985	405.296185146	4889.8796043
424	34.8081746274	178.822132152	402.45392568	4829.6024115
425	34.1282933386	178.88964253	404.990976076	4755.9739471
426	33.7113100715	177.103028598	404.160394101	4755.00945486
427	32.345987717	165.504102705	410.700929096	4775.48368025
428	31.7510915894	165.307197436	410.773257288	4838.47732775
429	31.0783585852	151.355052653	412.182464791	4935.88310577
430	31.0044929778	130.185726986	412.74757846	5019.04615148
431	32.8058606916	114.17371198	413.463707034	5025.36178956
432	44.0524950949	101.29449999	399.795268546	5041.82245712
433	43.4147092597	93.1675363934	329.291973341	4992.74290015
434	43.458393221	86.8995192759	307.037940125	4852.64544091
435	44.1835469788	66.8200039965	305.149459003	4608.65668793
436	43.3066907372	66.6464058817	249.467879268	4320.82124452
437	37.6190389743	62.3667301347	191.955045111	4062.37780906
438	36.8406702092	59.2524121028	170.304276698	3648.24468674
439	37.203644215	57.1499460457	169.74393192	3229.74237488
440	37.203644215	55.5546115184	179.250717566	3100.75999412
441	37.0320853851	54.5781221226	199.559042961	3100.9886145
442	36.6953217561	37.3686016024	210.931260085	2801.13631222
443	36.3522040963	26.9438740692	211.453453728	2399.28836019
444	36.9836359007	26.9438740692	210.273153027	2135.91450391
445	36.4848444879	26.7180357809	203.405948949	2030.88645881
446	33.804237771	26.5026455274	197.428937992	2110.68132298
447	36.1036026437	26.4905901027	201.943488821	2221.46298104
448	35.7445999071	26.4905901027	201.136751305	2236.02165403
449	35.0178576417	26.0043546423	201.565156745	2157.32623164
450	35.2847269326	25.1267197285	210.517956136	2068.57706915
451	35.4944099469	26.0911536997	258.194951117	1941.5022397
452	35.2203923714	28.5311716467	277.779199785	1784.92267975
453	34.086197885	29.4666725987	279.587404563	1673.5456561
454	34.2490199226	29.4964093128	279.670860168	1669.43366449
455	35.4308696396	29.4964093128	273.662056599	1563.45303447
456	35.5952801849	29.524538637	273.833736701	1385.94835892
457	35.8375276067	29.656344613	272.231389083	1303.61247446
458	35.7612792378	29.3549589971	271.818085134	1271.51115619
459	35.5198260699	29.3549589971	270.158510815	1199.97440954
460	30.4802854421	31.9267829201	271.531951631	1127.3533037
461	30.4683716345	31.7459515506	277.756944957	1112.03494423
462	32.7431146381	33.2729720049	286.184371444	1107.13310096
463	32.8217457684	34.3788562918	277.435044766	1098.77575585
464	32.8217457684	35.1383480441	273.260674879	1092.16719791
465	33.060021921	33.4529996795	264.998569973	1085.86426097
466	33.1402415591	33.2858311245	263.847677437	1072.78923901
467	30.2165931665	34.4696738241	265.566862903	1058.89658165
468	29.1657953335	34.0839002356	269.417742967	1043.04556844
469	31.1156885157	33.7680481101	272.259207618	1029.82368963
470	31.3134577224	32.3278267132	275.374883542	1024.50588427
471	31.1037747081	32.701544877	279.953019595	1022.9174489
472	31.0902723928	32.9522977095	273.36002679	1023.07700688
473	30.8877376631	33.9488794797	269.137173171	1019.17379013
474	30.4326302116	34.2767870299	267.534825553	1009.97817029
475	30.4326302116	35.0700339711	258.454855716	993.689761838
476	34.6525008743	35.3858860967	278.364183836	971.268294087
477	41.0001775799	35.6872717127	292.670859	912.335039852
478	41.070071918	35.7845188048	295.417740631	830.336529219
479	41.2821376938	35.0322603072	291.926911891	709.057385244
480	41.2821376938	34.8200848336	289.56790012	592.49909341
481	38.4609480469	34.337867848	289.56790012	567.408006397
482	29.0545997956	40.2980697897	284.551026029	564.123969857
483	28.4890910601	40.5873999811	293.127877789	565.441712341
484	28.1451791464	44.3036855499	303.00663699	549.02311728
485	27.3985805349	44.7208032425	306.910769679	553.788423384
486	27.7194590871	46.4704472051	312.74709833	536.734771704
487	27.7194590871	45.9038422471	308.18883266	455.117295042
488	27.2143136436	47.3577264586	305.709008965	416.914670311
489	26.8783442684	51.6976793288	308.436815029	416.883711301
490	28.9140168655	69.5710518992	314.839052165	409.690901271
491	31.8662583964	78.2798906588	316.432656815	396.024482833
492	31.7892157737	85.5485080214	313.554630661	383.438454467
493	42.2828975348	89.972848864	315.958946904	358.22035613
494	41.4989689927	91.8952872466	324.678865416	337.015815625
495	41.4799069005	92.8018551794	325.79796534	335.771104652
496	42.0708317589	92.9425018002	324.923668524	249.65980859
497	39.8906049625	92.7592593457	313.269291973	139.068667512
498	41.8126992603	92.7592593457	307.069732736	79.722626475
499	43.8714052188	95.3672495427	307.55298043	79.8393181287
500	50.467683377	96.1773740785	304.465123041	77.0172852785
501	51.7067193705	95.96118013	268.219161515	75.5630056212
502	53.4731399152	90.5965161654	253.149463676	73.3339568888
503	54.1013947043	90.7082297671	259.446785194	69.8276505317
504	54.4667514716	90.4389919501	260.865530481	64.2867815318
505	53.5994262761	90.2396755961	269.947884764	62.3149307301
506	55.0386142379	90.6640265434	290.778403801	60.1049336963
507	60.5864773245	92.6571900838	320.577618536	64.4391951203
508	61.6412464267	95.8012448297	346.956743091	64.4391951203
509	61.9589479635	98.0515907624	357.28934182	70.9961547105
510	62.7015753058	93.8788064472	366.235782689	79.7988332693
511	62.5625808835	94.9035175416	357.250395871	86.2692663951
512	62.5625808835	96.7037942878	344.982421919	92.3816863521
513	63.0605780425	90.3385300781	335.888940222	96.7992989573
514	62.9843296736	85.6449514184	327.483768563	99.7523122352
515	70.3113213665	79.4243523045	326.987803824	98.9227695268
516	69.0913474651	76.4763991327	328.096571149	95.4172569904
517	68.2907395923	68.1541376566	327.979733302	87.8727843578
518	68.3860500533	63.9548314072	328.573460322	79.9980822834
519	63.012922812	57.9150636628	325.461758474	75.9091114784
520	61.4665105815	53.3653464039	319.375857822	72.2702370521
521	60.3823540871	52.2152588933	309.609167577	69.170366931
522	59.1528491396	52.5102149495	302.017091957	67.7478401047
523	59.3593551386	52.8839331133	305.975272086	66.8309771112
524	58.1266731757	52.4298454518	308.63392922	66.1379715758
525	56.1823397704	53.2560438871	303.349997193	66.5412325288
526	47.7950191985	53.2560438871	273.623905465	66.3634166755
527	48.9609838386	51.7426862474	241.197826208	65.541018354
528	47.6083695457	53.0671755678	231.160898765	62.2387239357
529	44.9547674594	52.3655498538	231.501079708	60.6479071054
530	49.084887438	51.9034252426	231.8802066	60.6550514923
531	48.7870422472	51.2307325477	229.324080638	60.7185571542
532	48.7870422472	50.3916749928	229.146042013	62.2800026159
533	47.4082175774	49.3958969176	224.186394623	62.2998481353
534	46.8800387725	49.2865944008	222.221611234	62.4141583267
535	41.2225686556	51.8134114053	222.221611234	56.3803266263
536	40.8119394193	52.8228522951	218.749858061	53.4844684441
537	36.8089000554	55.3713690639	218.42795787	52.2564277073
538	32.7717077764	55.9886068054	217.203942328	51.7285368928
539	33.2601738892	56.1630086152	209.692143053	50.9505925346
540	34.0012127238	48.6042573663	186.534404855	49.1128974437
541	34.8081746273	47.0491075878	159.754693395	48.0460023239
542	31.4333900525	46.3378375341	150.236780335	46.9219521085
543	29.2476034792	49.1933657837	147.92227822	45.9812744917
544	27.7679085715	50.7935224808	149.835398615	45.9812744917
545	26.493131155	61.0816218681	154.134554502	45.9812744917
546	33.3594556195	62.9325313977	141.601112244	50.3766601153
547	33.2641451584	64.2063879346	143.93230548	50.4203202579
548	33.3141831505	62.4824622112	143.953765493	51.1411095203
549	33.3499245734	61.8242360259	162.559596542	51.1411095203
550	32.7717077764	65.0840228484	181.272727656	50.4203202579
551	32.8153917377	75.4999097369	195.064362513	48.3246334155
552	32.9805965368	78.5860984446	200.757624413	46.2646685079
553	33.6167938643	83.1213491939	205.844442249	43.7681021748
554	35.9669909829	85.3331177678	211.163346148	41.4342691003
555	36.177468251	86.864156697	213.57958462	40.4848594551
556	36.3482328271	86.3457734375	207.161451179	41.3112268804
557	36.3482328271	84.4683419736	194.907783902	41.5993838213
558	36.479284711	81.546107041	184.114192306	40.0212681233
559	36.3458500655	83.1695708925	180.451683465	38.5804834192
560	35.9074219447	80.208758601	175.772605871	34.401017046
561	35.9002736602	80.208758601	175.641461349	31.5218291001
562	36.6278101795	71.6807512111	178.035444993	28.3743297326
563	36.5428250184	75.8688057308	180.185420344	27.9020063723
564	36.0281485287	75.8688057308	180.531164993	23.8590771722
565	34.407870691	80.7584859646	185.09340474	23.4526409361
566	32.7431146381	82.0540422659	187.742524091	23.3867538119
567	31.4278302756	80.2095622961	189.677899314	23.3867538119
568	31.008464247	85.3917875011	189.4847592	23.3295987162
569	31.3603186991	90.6857263078	186.801462791	22.2460333602
570	31.0148182778	90.6857263078	186.152893517	22.4849734131
571	30.3794152041	91.9427052502	185.449481988	22.4651278937
572	29.0895469646	93.2639797907	187.372934982	22.4055913357
573	29.7019166769	94.9356653406	188.991973722	22.5476852542
574	27.770291333	106.892235498	192.055986653	21.699884668
575	29.0665136032	106.557094693	192.463726895	21.5355637678
576	31.4016198988	107.634849656	192.304763837	21.2497882893
577	31.2967783917	107.98767175	191.344626971	19.1279053614
578	33.6096455797	107.342304685	193.576468296	18.8008512027
579	34.4102534525	106.184983919	196.100801647	18.6746336997
580	31.8940572809	106.184983919	200.316501929	18.6746336997
581	32.7995066608	106.860087699	200.392804196	18.2864553414
582	32.7995066608	106.766055387	200.392804196	15.8676834441
583	32.5652017775	106.277408841	200.280735241	15.889116605
584	37.1520177152	106.609334867	197.693611482	15.889116605
585	38.6174160538	105.753399717	197.909006425	15.496175322
586	38.1154476256	106.609334867	204.525843688	15.496175322
587	38.1154476256	106.245261042	209.325733205	15.0897390859
588	37.253682207	108.760022622	216.825610252	14.5753432246
589	35.1854452023	121.37080049	218.59327945	12.8035352579
590	34.0925519157	121.284805128	218.59327945	12.7805144555
591	32.889257345	120.86688374	218.92710187	12.2446854333
592	32.6438329078	120.281793798	217.51233066	11.7810941015
593	34.8073803736	117.52351264	210.645126581	12.3804287856
594	35.8692977603	116.751965463	195.436336068	12.5423682234
595	36.2378315431	108.129925761	177.467152063	13.5147986711
596	28.7909075201	113.468871486	175.085090648	10.9745721955
597	28.5899612981	112.476308191	171.095117908	8.23112760179
598	28.5899612981	112.112234367	175.295716699	8.59310987457
599	33.9495862241	114.318377076	172.474917246	8.68757454663
600	33.6040858029	112.517296635	161.725835307	17.0584146046
601	33.2188726895	103.13737257	141.48030032	17.0226926698
602	32.7232582921	100.109049901	132.514783884	17.2290860709
603	30.9790768549	95.0964043358	154.900756438	17.6228211747
604	27.1833377438	92.6571900838	174.347502062	17.7569768854
605	26.2103767873	90.4711397492	185.787278485	18.0070304291
606	25.2286790386	90.4711397492	198.43437933	17.8577921237
607	24.4121860889	90.4711397492	207.764715982	17.8577921237
608	23.335972133	90.5410612121	206.97069551	19.9796750516
609	22.4329055146	87.0530250164	206.442143345	19.2930200824
610	22.0008314245	86.9766739937	208.212991804	19.3604948481
611	20.0350531655	84.4884343481	235.603121404	19.1437817769
612	19.8634943356	90.0009781882	267.090523808	18.9127799318
613	19.6347492291	88.6989923272	301.464695333	16.6511845477
614	19.2407993234	86.7186879064	334.900190005	16.6392772361
615	20.892053061	80.8517145818	348.660827066	18.7095618137
616	20.1748418417	78.2188098406	346.810497078	18.7095618137
617	19.614892883	78.2188098406	367.927149619	19.4081240945
618	18.5069087734	72.7994946177	431.957469128	19.4081240945
619	19.062092209	66.7741933829	473.601816082	19.389072396
620	18.6339893881	63.6534457912	488.246287742	19.0905957851
621	21.4615330658	60.2321162786	491.584511947	18.8643568646
622	21.2772661744	58.6769665001	488.691384303	19.1509261639
623	22.8395634817	56.4997568102	484.774534569	20.086840856
624	23.00873955	42.3137367894	475.084146592	23.5161465981
625	23.00873955	42.193986238	473.52630863	24.2821836446
626	22.6592678596	39.6229660099	480.844172976	24.4846079419
627	23.2120685336	41.6989101328	493.640699094	23.6558590542
628	23.2120685336	40.7184022621	493.106583221	23.8154170297
629	23.5861620932	40.320573249	505.992128652	24.4465045447
630	28.2754367766	40.4491644452	513.753499928	30.0294460457
631	29.963226191	40.320573249	510.688692182	30.1207354347
632	30.9925791702	39.9283701008	510.958134564	30.1818596343
633	30.988607901	40.7963606748	513.132749189	30.0889826037
634	29.5653050161	42.4479538504	511.40402594	30.1937669459
635	29.4040714862	49.6715642944	508.84074664	29.2451511214
636	30.0831585211	49.8941878027	494.648524878	29.0927375328
637	37.1305728615	49.8323032896	494.060361565	29.0927375328
638	39.6999840405	48.7039155433	495.443340165	29.8802077403
639	39.7095150866	39.4043609765	500.673224752	36.1037626055
640	41.1868272328	41.4103836365	500.927565644	36.1037626055
641	41.7110347685	43.3963139221	512.573199227	35.2527867362
642	42.6514313175	43.3866695824	532.618440761	35.1067237138
643	42.6514313175	45.7953434253	547.154022727	32.3910628472
644	42.8706453779	45.5895975115	537.136170851	32.2838970428
645	46.1469424763	45.5244982184	539.221766164	32.2838970428
646	48.9109458466	40.2779774154	533.862326685	32.2838970428
647	47.2072713554	40.2040374776	529.226963932	33.1785330547
648	45.348717365	40.7666239607	530.208560811	33.4960613641
649	43.3662597753	40.2852106702	527.665151893	33.7127744353
650	43.3662597753	39.7194094071	533.496711653	30.1620141149
651	43.3662597753	39.220314827	538.611348024	29.7881245305
652	42.8110763397	40.8477971533	533.572219105	29.7436705672
653	42.8428464934	40.8477971533	517.047214476	29.8127329745
654	42.3782079958	40.7642128758	499.33793507	29.7238250478
655	42.1748790122	39.9605178998	487.902132723	29.6579379236
656	41.7976084373	40.0368689226	500.753501096	28.9077772925
657	38.8739600447	40.0408873974	500.256741542	27.117711448
658	38.0098118646	42.2743557356	497.704589656	27.4217448043
659	36.1893820586	45.8017729851	495.351936407	27.2828261689
660	36.1893820586	46.0517221227	495.218407438	27.5328797126
661	37.40935596	46.7943362805	488.830476978	27.2605991873
662	36.9558370162	42.062180262	472.089282591	32.0616272262
663	36.5801549489	40.0690167216	423.410820348	31.3686216908
664	35.0750439182	40.0690167216	386.887468287	30.9621854547
665	34.9916472648	41.7407022716	359.120596241	31.4797565992
666	34.9916472648	41.3332289188	369.548572805	32.5466517189
667	34.7732274582	44.5118425487	360.735660904	35.6973263695
668	35.9796990443	45.4891356395	321.478144256	36.7539018192
669	35.9796990443	45.4891356395	303.616260315	39.1163124415
670	36.1298130204	45.6699670091	311.713838457	40.6404483268
671	35.9796990443	47.543379998	370.327491786	40.9619457402
672	36.1933533278	49.3275828447	424.211994157	36.9039339454
673	36.2505396044	55.3432397398	462.774047429	36.9126659739
674	36.8533782705	57.3323848053	468.719265775	36.4054144995
675	37.6801965201	57.979359261	459.721956728	36.6022820514
676	40.0311878925	58.3072668112	441.892660213	36.3736616686
677	40.5863713281	55.8768932039	439.850779742	38.43759568
678	42.0827455665	55.8768932039	475.443403102	38.7511548856
679	44.6243578611	55.8961818833	581.817507017	39.8307511377
680	45.6823039786	56.6355812612	591.075515478	39.1067865922
681	54.1967051653	57.9665001413	589.829245109	39.5989554718
682	63.6642109624	62.1971504948	588.869903057	42.7583621509
683	80.334010599	60.4378621924	583.18458931	49.2081559366
684	88.1621764662	58.1746571401	590.662211529	58.6982832854
685	110.500565774	49.4401001413	595.663189314	61.6798741112
686	134.359156935	49.3316013196	595.599604091	72.860045887
687	144.922733034	49.4601925157	595.148943823	83.1479631133
688	157.31309297	48.9779755301	596.605045429	88.6824815471
689	174.704869349	49.884543463	596.283145238	95.9729315321
690	185.185048794	49.6972825336	596.516026117	101.212942459
691	187.875980811	49.5084142143	598.766943009	108.607382965
692	219.391973263	49.1612179847	606.842266323	125.027565668
693	228.86345033	48.5632689225	609.194919572	125.059318499
694	236.068921185	47.8753060231	610.577103356	130.527155988
695	236.628075889	47.3609412385	609.325269279	132.876865478
696	247.648347948	47.3609412385	636.249637121	132.876865478
697	254.637781758	48.9619016306	670.719981297	136.001344043
698	259.40330481	46.1007475162	706.921433167	146.987029729
699	257.576520973	42.4551871052	723.043466445	162.714206896
700	256.8688408	40.5391782825	720.678096152	190.758307187
701	259.740862693	39.622162315	776.39464776	191.072660213
702	260.321462251	34.9808238288	891.9417149	194.585317137
703	253.733126631	35.3473087379	1210.32564324	195.709367352
704	248.112192191	35.10861133	1469.01020058	196.102308635
705	241.790725863	35.543410312	1536.03141001	196.584951665
706	236.529588413	35.4984033933	1515.98616848	197.519278716
707	232.183431389	36.1735071731	1647.67196002	196.311877319
708	230.632253636	37.7929525497	1892.29623493	193.530329328
709	226.162987267	28.9659706287	2094.46863055	191.216341773
710	223.468083981	29.5960674898	2216.27566289	188.549103974
711	203.850014082	31.2669493449	2206.20376357	186.091434859
712	200.90571509	31.4895728532	2181.11700867	175.275626818
713	196.997986187	37.6257839947	2196.01502641	172.278159577
714	191.097474395	38.2912434348	2201.38082441	168.210621933
715	185.243029325	39.0242132528	2207.94997276	163.952567303
716	178.660253482	37.5293405975	2197.84230676	158.132273391
717	171.752627818	38.3756314072	2198.15784842	146.256714617
718	153.453019297	39.1688783485	2217.00689295	136.454615704
719	143.798863847	42.5226974832	2216.02768052	123.372449355
720	136.587038962	42.2068453577	2204.0577623	108.067584839
721	131.338609573	42.4551871052	2141.53759184	98.0368655436
722	124.392859725	42.4543834103	2089.42314311	91.0710882549
723	119.980779632	41.2295522669	2055.44319996	87.3869660445
724	115.926113769	41.9729701196	2058.44124323	81.6714564744
725	112.812638708	42.5001940239	2056.66483106	72.5361670114
726	91.2089342043	42.8015796399	2059.05166137	63.25878363
727	78.2943667327	42.3458845885	2056.07269367	62.4586122901
728	77.4310128064	52.5327184089	2039.49284679	59.3650927353
729	87.28849724	52.5327184089	1949.87583356	56.8701140438
730	85.2043751584	52.9160809124	1945.51388727	55.1260898041
731	89.3289353601	47.682419229	1955.61201549	57.6956876483
732	96.0920068251	48.7432965972	1958.77140626	57.2344777789
733	102.475424954	51.1158041663	1967.72420565	57.3265609886
734	108.594356553	54.1376972759	1950.87491638	57.1622400885
735	109.578437063	70.0307654256	1933.00985318	56.6986487567
736	113.136694275	69.4721974173	1922.26077124	55.9556325125
737	113.31143012	70.3104512772	1918.52196013	55.1110072094
738	110.659416542	70.615855368	1911.69052274	55.2253174008
739	111.536272784	70.5644188896	1908.23705032	54.4568988919
740	115.310567041	71.1117351682	1916.65652865	54.4886517228
741	119.860053048	72.3936286549	1925.04977808	55.1110072094
742	105.735042721	73.1362428127	1919.04097451	51.8364965181
743	102.731968945	73.9849447073	1909.54372665	50.3766601154
744	101.334082183	73.6988292958	1900.64179544	50.6624355939
745	104.981295825	72.7858318032	1900.43593828	51.0625212638
746	98.8814263184	71.4074949194	1883.34979406	54.6148692258
747	93.2938505397	70.5612041097	1855.35719447	59.5373518431
748	88.1621764663	70.5644188896	1816.45575507	57.3146536769
749	88.0636889899	70.918848374	1796.36520906	50.4203202579
750	87.7849058914	75.6124270336	1794.39168271	33.5500411767
751	84.1440462794	76.701433726	1740.90379316	33.4206483906
752	81.2847324481	76.701433726	1623.19482844	32.4640943584
753	85.061409467	76.0295447261	1274.84874823	32.6585804479
754	83.0789518772	76.701433726	964.197577812	32.6458793155
755	80.369752022	76.2103760957	899.095052482	32.6768383257
756	78.2538597869	75.4195402394	950.758840942	32.6260337962
757	75.3437137096	74.1400578376	912.804821364	32.8673553114
758	69.1803038954	74.1400578376	748.442583751	33.1372543744
759	66.6347203317	75.1044918088	574.213509168	33.6492687734
760	64.9929976402	75.1044918088	447.34191382	34.3851406306
761	69.2303418875	73.4906722971	450.851818127	34.8677836609
762	68.7037515902	73.4906722971	453.86814214	34.2620984107
763	68.1755727853	67.3207059666	445.017079106	33.9191678365
764	64.2583128364	71.2073748704	427.264084859	34.1850977956
765	64.7761663414	71.6486034122	416.178001238	33.257915132
766	62.7269914289	74.9855449524	421.523134042	29.1975218749
767	61.3330759361	75.4958912621	435.23210811	29.3745439074
768	62.3687829461	76.0046301819	422.921214132	29.8032071252
769	62.3044483849	73.1563351871	417.708020665	29.6920722169
770	61.8159822721	73.2969818079	416.105673047	29.6920722169
771	61.9049387024	72.7351990197	421.964256526	29.5150501843
772	60.8112511619	72.625092808	414.357079416	29.7714542942
773	61.1329239679	80.4249525497	405.622854229	26.2762614279
774	61.6372751576	80.2376916203	419.150610411	26.002393261
775	61.5745291041	81.2768692242	481.034928645	27.7646753785
776	62.8326271899	82.8006748987	549.774528728	28.0290176961
777	63.239285157	82.3112246583	576.168754773	27.7837270771
778	64.0335389991	74.9694710529	620.513089257	27.5265291464
779	62.8453352514	75.567420115	625.913859131	27.9424912318
780	59.9153328281	75.6510043925	629.411046393	26.1516315665
781	61.3926449742	76.2553830144	623.552462914	22.7199443621
782	61.6730165805	75.0401962107	617.631883842	22.7199443621
783	63.5728717706	73.1691943067	604.253552934	21.9261235884
784	64.1955667828	70.584511264	614.218152185	22.3254154376
785	65.9230688892	54.1079605618	649.443570883	22.0848877432
786	66.5020799401	54.8119973607	692.761798832	22.0848877432
787	69.227959126	58.046869639	736.844639086	21.5831930142
788	70.5646883421	58.7050958243	774.754943823	21.5831930142
789	70.9467244401	58.6126709021	819.868659504	19.9280767012
790	70.1516763442	58.0597287586	865.414754702	20.0241290148
791	71.0253555704	56.0850502026	961.090644856	22.0880630263
792	71.0253555704	54.0886718823	1124.73039537	21.9165977392
793	72.58606437	53.5461777736	1242.50374013	21.7197301873
794	73.2786537203	53.6868243944	1352.26375717	21.6117705621
795	69.7521666616	66.5973804883	1431.61811541	21.6943279226
796	76.7479545023	68.4595417476	1416.6382317	18.1753204331
797	78.997281383	68.5101745311	1390.08742704	15.8676834441
798	79.4253842039	68.5238373457	1395.99846833	17.8808129261
799	79.5016325727	68.0376018852	1434.74094467	18.3372598709
800	80.2482311842	62.5242543501	1514.62306026	18.3539301072
801	81.3665405938	65.1322445471	1628.08453209	18.3563115695
802	79.9940699548	70.8055273824	1721.87909446	18.58255049
803	73.6781634029	71.1623679518	1736.61179062	18.4991993087
804	73.6781634029	72.1083169385	1730.24055128	18.7889438911
805	86.7396678352	71.9757072675	1684.17305725	21.7062352342
806	94.0785733357	72.8919195401	1635.94922935	21.4776148514
807	101.200647537	74.1521132624	1597.26397971	23.2938767815
808	107.529262151	73.1716053917	1518.67343896	25.0847364468
809	111.036687117	81.7357790556	1467.09310611	25.9706404302
810	119.220678705	80.5270218118	1455.24717907	25.5681732979
811	118.839436861	79.9202321049	1455.22730869	24.722754174
812	113.452013051	79.2732576493	1444.65706019	24.3702977505
813	115.262911811	78.1842509568	1449.36872521	23.9225828342
814	115.663215747	72.2650374589	1444.6316261	23.6153741948
815	114.919794151	69.9415552833	1431.33595598	23.9138508057
816	117.092872663	67.4750154021	1428.02952439	24.4496798279
817	122.41357915	65.775200528	1437.68176123	24.9902717747
818	113.962718271	63.1189886324	1447.80452873	25.7547211797
819	129.295788692	60.1195989821	1433.34524903	25.80631953
820	129.581720075	60.1195989821	1389.78301279	27.3939610773
821	129.974875727	60.1195989821	1386.71423096	28.1361835006
822	129.364888776	59.8953680838	1364.68513047	28.8006114881
823	128.348243858	54.2823623717	1358.01821985	29.5055243351
824	126.706521167	56.7641724574	1367.97646058	30.1524882656
825	120.904496851	56.8541862947	1365.46404945	29.660319386
826	119.396208805	55.8897523236	1357.32514092	30.038971895
827	118.7441264	56.1790825149	1357.06841558	30.6803790801
828	116.358982113	55.7796461119	1355.57018876	30.6613273815
829	114.967449381	55.6156923368	1357.64306703	30.6613273815
830	113.518730373	55.3657431992	1360.64428955	30.6613273815
831	112.034269943	62.128836422	1358.66996838	30.6422756829
832	110.421140389	64.7979074372	1347.52983732	30.3565002044
833	109.686455586	64.971505552	1342.23954677	30.2159939275
834	108.622949691	65.0960782733	1353.65706837	30.0262707626
835	107.383119444	65.138674107	1364.32905322	31.3789413609
836	106.621430009	63.6534457914	1387.94539984	31.8671411366
837	106.144877704	60.5986011878	1381.95805629	32.248175108
838	105.902630282	58.7701951175	1384.93066546	31.7655320776
839	103.891579554	58.1360797814	1372.48783214	32.1687930306
840	92.9126086956	57.047073089	1345.87741634	32.3283510061
841	99.6860054605	57.047073089	1275.06175873	31.9600181672
842	99.6860054605	57.1877197098	1139.07840093	31.8925434014
843	99.6860054605	57.1274425866	1048.50522492	31.8322130226
844	99.6860054605	56.00869918	961.463413225	31.6107370268
845	98.4787396207	51.6173098313	880.258724999	31.6932943872
846	98.9807080488	51.4075454426	863.134429644	31.6932943872
847	84.3497580246	51.4075454426	862.597929325	31.1344445626
848	98.341333706	51.3569126591	846.179429945	26.707306108
849	95.3930634444	50.9775686304	811.12887061	26.707306108
850	96.6162143611	50.9992683948	774.866217963	28.2354110973
851	97.8330112471	46.30970821	712.889701156	28.59739337
852	97.8330112471	42.9173117165	658.612560032	29.2515016875
853	101.442894959	44.4089695919	707.31884081	29.8444858054
854	98.8242400419	43.5088312188	770.665619172	29.8444858054
855	96.6297166764	42.9374040909	802.601297398	24.9291475751
856	96.1595184019	41.9922587991	804.127342748	25.7197930656
857	97.169809289	41.0213952682	722.150094063	23.0398541339
858	96.9982504591	40.6870581582	655.424555917	19.0167704531
859	98.1030575534	30.0710512206	602.477140768	16.1471083564
860	97.9068768544	30.628011839	570.932511664	13.6386347117
861	92.1882491917	30.9776191535	564.080409076	13.3171372984
862	92.5313668514	31.0676329908	565.301245356	13.5076542841
863	104.965410749	31.4534065793	579.185078787	15.0857699821
864	103.621533248	31.0194112922	593.110242613	18.0364017977
865	101.512789297	31.0226260721	615.619411536	18.0324326938
866	98.6908053964	29.0141923272	611.347279369	18.0364017977
867	93.7092452991	28.3993656706	554.724638334	18.1118147712
868	91.2407043581	28.852649637	476.355851051	18.2650221805
869	74.5653449444	31.463854614	448.276616597	19.3890723959
870	78.6954649231	31.2637345649	446.70606159	21.0592713037
871	75.3024125099	31.3834851164	440.505707538	26.3739013831
872	71.7123851439	31.5377945518	400.456554864	26.3715199208
873	67.9635070094	31.364196437	386.726120784	26.3715199208
874	65.6379317599	27.2002527665	413.157703148	27.0883400794
875	64.2082748443	27.1046130643	438.277840289	29.8675066079
876	62.9056985433	28.3029222735	445.087817667	34.83603083
877	63.2988541951	28.3029222735	430.711198758	36.2371244955
878	63.0963194654	28.387310246	420.1743325	36.8047063486
879	63.4577049636	28.6316335187	398.008523781	40.6404483268
880	63.1757448496	29.422469375	379.782614438	43.6355341057
881	62.1908700855	25.3332693373	406.087821172	48.0864871835
882	62.1908700855	28.0658322556	423.162837979	51.2204915978
883	61.4156783357	28.5480492411	421.748861584	53.344755988
884	57.3578354567	28.5480492411	412.521850919	53.5638505215
885	58.9844673252	28.6244002639	406.103717477	54.1139683176
886	56.4682711536	28.6244002639	406.866740153	54.5585079509
887	54.5366458097	28.3873102459	390.353657753	55.2824724964
888	51.9291104463	28.3832917711	385.882821765	55.2824724964
889	51.0260438279	28.6316335186	372.409907837	54.3767229937
890	45.3717507264	32.0706443208	343.567650708	53.6654595805
891	43.528287559	33.6233830143	327.353418856	52.8017825788
892	44.0620261409	35.1182556696	314.706318012	52.5699869129
893	44.1295377175	36.8904030916	311.934002291	53.2725182976
894	44.1295377175	37.3919087566	313.08092075	54.8601598449
895	44.1414515251	29.4642615138	353.215913475	57.7179146299
896	43.7633866963	29.8371759826	357.572296062	58.0989486013
897	44.1954607864	30.8425983975	365.993364026	59.660394063
898	36.6119251025	30.9872634932	391.030045562	63.6969726969
899	36.0440336055	30.4351250447	388.041540083	64.338379882
900	36.6158963718	29.8845939862	401.40159024	67.9200992126
901	36.6476665254	27.9653703836	400.780839501	67.7041799622
902	36.971722093	26.4704977283	399.89064638	67.494611278
903	36.9335979086	26.313777208	402.942737081	68.1447504916
904	37.429212306	28.7272732208	450.285909642	69.6728554808
905	37.429212306	29.1934163069	506.866425467	72.2376904004
906	37.6825792816	28.4580354039	546.585729797	73.6514851983
907	37.6825792816	27.6671995476	551.026362804	74.718380318
908	37.9565968571	26.8184976529	553.671508079	74.4770588028
909	38.2234661481	26.5227379018	566.111956949	73.238698396
910	38.600736723	26.4970196626	566.131827331	73.4038131169
911	39.0328108131	26.8080496183	565.565918847	72.9846757484
912	37.6388953203	30.9012681308	573.291523435	72.03209082
913	26.6075037083	34.1056	583.242610826	67.1921655632
914	26.9482386065	34.3627823923	587.959839554	66.1895699261
915	27.6154118338	34.272768555	578.40377536	65.7632881707
916	26.9696834603	33.9231612405	579.738270226	67.8113457666
917	26.8306890379	33.6748194929	599.54586199	67.0849997588
918	26.4685092859	33.6748194929	619.157929193	65.8902994944
919	26.2929791868	31.1029955698	626.175353361	62.8110687135
920	18.1089875985	32.8108473937	655.570801929	58.0481440717
921	18.2591015746	32.7553924404	698.026655292	55.6857334494
922	23.5099137243	32.6854709775	723.628450496	55.5674541541
923	26.3763758402	32.1188660194	739.487399915	54.5553326677
924	26.5280783241	31.8231062683	715.102466914	53.4249318861
925	26.6146519928	31.6245936092	695.193933609	49.0430412157
926	26.6146519928	31.5016282779	664.870140785	40.1077945877
927	25.9117373426	31.3031156188	648.251347953	36.0624839253
928	25.9117373426	31.1423766236	637.776477287	34.8685774818
929	28.6638269053	31.1423766236	630.450664788	36.3855689802
930	28.891777758	31.1423766236	624.916365946	35.8211624101
931	28.9592893345	31.1423766236	603.821173418	35.3917053716
932	28.851270812	29.5285571119	592.297146574	35.0400427689
933	28.851270812	27.8890193609	598.734355582	35.6623982554
934	28.419196722	34.9800201339	610.596178923	35.8013168908
935	23.8943325839	36.6557241588	631.719189986	35.9037197706
936	24.3804159352	37.6482874541	673.466862928	33.1729763093
937	26.1317456569	36.8767402772	706.034419306	33.598464244
938	26.7631774613	37.2922505797	738.164827277	35.4234582026
939	26.805272915	38.017987143	768.863772916	33.7064238692
940	27.398580535	39.5104487134	797.617010734	32.8872008308
941	28.7527833356	43.0981430861	774.941725415	30.4795424244
942	27.3421885122	46.5829645019	756.32158769	29.526957496
943	28.1237342928	55.6832027147	753.231345855	29.6484120744
944	27.659890049	68.5583962297	767.652474419	23.9964081662
945	27.2595861126	79.4661444435	784.463612551	23.6844366021
946	27.9267593399	89.8530983128	802.128382302	24.5489074246
947	27.9267593399	87.9242303705	814.947163248	24.8854874326
948	27.6432107183	89.9334678104	834.012397534	24.0241918932
949	25.5503518445	90.2260127817	843.677351422	24.0400683087
950	25.7981590433	89.6087750401	772.334731274	23.2303711196
951	25.8362832277	88.908756716	746.828313904	22.6207167654
952	25.8362832277	87.7835837497	744.141043419	22.4849734132
953	25.8926752505	85.5581523613	758.540711971	22.4976745455
954	26.7671487305	85.5581523613	770.908037834	23.309753197
955	26.976037491	85.7293393912	768.606252764	23.309753197
956	27.5931727263	83.5810627204	763.559970507	23.0596996533
957	27.9291421014	82.5684070507	764.460496227	22.545303792
958	28.0657537623	83.5553444812	716.835164239	22.5953145007
959	28.0657537623	81.5951324348	639.922478562	24.5679591232
960	28.9553180654	80.1894699219	613.223043446	25.1514173918
961	31.2848645841	76.8533320766	586.491020904	25.2760472532
962	31.1951138999	76.5832905647	514.24549059	35.1892810744
963	31.2054391999	76.4121035348	426.597234833	36.0593086423
964	30.8813836323	75.9620343483	344.155019205	36.1672682675
965	28.7519890818	75.6445748328	292.727290885	35.8838742513
966	28.2921161073	74.9236604393	276.644203555	34.7693498851
967	28.0443089085	74.9236604393	273.115223682	34.2620984108
968	27.7393154332	74.5194018664	269.541734152	34.5224716245
969	28.434287545	75.0651107551	261.402030799	39.6981830686
970	28.4628806833	69.285740183	261.434618226	39.5521200462
971	28.8512708121	69.6932135358	261.147689908	44.6770269608
972	21.1501855597	69.117767933	260.878247525	45.1914228221
973	20.1232153419	67.6261100576	258.391270493	45.8320361864
974	20.1494257187	67.1374635122	255.771559307	43.8220819876
975	19.7324424516	64.7746002828	255.771559307	41.688291748
976	21.9412623863	63.9138429636	243.786539597	40.9738530517
977	22.0874050933	62.5186284853	229.880451338	42.3812972834
978	21.2510557976	62.0364114997	213.887972952	41.6763844364
979	20.4155007558	60.7304071638	196.08172608	49.1065468776
980	21.4996572501	61.2423608634	167.760867779	59.7945497738
981	22.3947813301	65.1386741069	130.441905616	59.1594931549
982	23.431282594	65.8459256858	76.7704137413	58.8094181937
983	21.6521539878	65.1193854275	68.4025984014	57.7496674609
984	24.829169356	63.2797276275	64.7210139927	63.7438081226
985	24.2255364361	54.6424177208	67.063334643	65.8275876534
986	24.6091610418	54.7316278631	75.3683595753	70.2729839857
987	20.6950781082	55.4742420209	72.1890984279	79.3034891065
988	21.5727286036	58.9944260156	77.9046151556	105.622616856
989	21.1343004828	62.6206977472	85.2590410049	167.138170067
990	21.6235608495	62.5467578094	87.160239171	223.266855508
991	25.8481970354	62.1449103214	91.9799990704	248.053909165
992	25.5598828907	61.7366332736	100.405041111	249.589952362
993	25.6194519288	58.1103615421	111.843227904	249.120804285
994	25.0992156623	51.5136331793	109.220337457	254.772014372
995	23.8665336995	45.839546649	107.900944081	285.957263465
996	23.90386363	42.5604711471	106.585524782	370.155451461
997	23.8276152612	41.4513720803	106.851787903	491.871196861
998	26.785416569	40.9080742765	104.515030959	560.186618819
999	27.4184368811	40.358346913	101.438300984	562.343429861
1000	26.2929791869	41.1298940899	101.26026236	587.650436125
1001	27.7520234947	42.8401569987	97.9411137218	610.734744222
1002	28.6479418286	45.4899393345	115.330877383	630.008712606
1003	31.6279822439	55.6164960317	120.036978696	642.525678564
1004	32.8098319609	62.125621642	117.057216186	642.12162379
1005	33.2824129969	63.830258686	115.505736746	643.948205391
1006	41.0597466181	63.9066097087	117.057216186	648.627778851
1007	46.5631314896	63.8206143463	120.443129308	653.279568585
1008	48.0690367741	60.1814834952	120.891405129	653.07952575
1009	50.2254359552	60.2803379772	120.891405129	650.314647995
1010	53.3269972084	58.6094561222	119.861324518	651.25373797
1011	57.1513294578	62.3900372891	118.805809817	653.92097577
1012	58.4737621048	61.290582562	119.849402288	650.059831527
1013	71.2771340384	61.489898916	123.511116315	656.489779793
1014	67.7188768261	62.0364114997	124.89806899	660.379501584
1015	70.9713463093	60.6154787822	119.957497167	660.205654835
1016	71.8013415742	60.6154787822	123.326719168	660.161200871
1017	75.6328221082	59.0040703554	123.145501283	660.201685731
1018	77.3357023456	58.7509064379	123.27585099	660.291387478
1019	79.6040913184	66.3249278914	125.536305666	657.859120628
1020	80.6334442977	65.4055008389	130.754268024	662.681581828
1021	80.159274754	62.4181666132	129.603375489	671.140535991
1022	83.8446125811	61.0398297295	134.018574407	683.943277429
1023	82.542830534	59.5738900933	136.107348981	704.297635885
1024	79.7240236486	59.5738900933	146.663290805	707.694394976
1025	78.3134288251	58.9116454331	167.411149053	707.821406299
1026	78.4754566089	65.6819719106	219.487446648	706.894223636
1027	76.4397840117	65.2889650674	253.645428415	706.551293062
1028	74.819506174	66.1931219153	253.804391472	706.396498011
1029	73.8346314099	66.0002351211	245.677405164	700.978671231
1030	72.7608002154	65.0100829107	273.451430548	697.918492148
1031	71.661552898	60.4579545669	308.169757093	701.146961235
1032	71.3430571074	59.8559870299	302.84131541	704.615164195
1033	69.9014863841	60.5383240645	301.174587753	708.095274466
1034	70.3907467508	60.486887586	301.572790212	701.122352791
1035	69.2398729337	60.955441757	304.275162187	698.150287814
1036	68.7514068208	61.6667118108	321.144321835	691.532204025
1037	67.991305894	62.1224068621	321.617236931	676.1773288
1038	67.6553365188	59.416365878	323.715549288	635.235228579
1039	66.4226545559	55.8439417099	322.443844829	558.977629781
1040	66.9206517149	55.8439417099	320.946412829	496.773040139
1041	69.1866579262	57.6699366953	321.98682604	468.466185172
1042	72.5352321243	57.7253916486	320.250949453	463.989036009
1043	70.5297411731	57.6602923556	314.070465783	461.333705521
1044	70.5297411731	58.1875162598	315.272226496	461.079682873
1045	73.2492663283	58.9301304176	349.201301461	447.39818184
1046	74.5994978597	57.3484587049	429.197075637	388.515732135
1047	79.9368836782	57.3066665661	567.91459802	291.809310208
1048	87.7650495454	59.5537977189	582.838844661	237.289699475
1049	85.3791110039	63.6815751155	584.765476916	236.724499084
1050	85.8588403245	63.1230071072	599.053076512	201.70985858
1051	87.7658437992	61.3187118862	621.155300009	170.398391985
1052	93.2366642632	58.7251881987	617.457024479	140.037128856
1053	97.1062689816	48.0802482421	612.425048898	120.521838957
1054	102.112450948	40.6516955792	612.36066886	115.011928967
1055	104.642149435	38.5259223678	617.165327269	115.291353879
1056	108.752413067	38.2269478367	611.824168541	114.710277073
1057	114.518695961	38.2269478367	603.579549571	114.48165669
1058	115.803004423	38.552444302	603.456353202	113.269492369
1059	117.963374874	38.8634742577	600.149921608	112.405021546
1060	124.351558525	38.4166198511	598.4649132	113.040871986
1061	130.544355731	31.865702102	608.193452311	112.856705567
1062	134.452084634	31.865702102	611.27972007	112.211329278
1063	125.711321103	30.8819794514	611.579365433	110.094209274
1064	127.160040111	31.6945150721	612.020487917	109.325790765
1065	124.479433394	32.0875219154	613.62045109	109.232913735
1066	118.551122717	32.3085380337	638.535525886	110.707038912
1067	110.436231213	32.6268012442	664.071351422	114.646771411
1068	103.964650908	28.9531115091	664.5641369	114.243510458
1069	97.1602782429	22.4463969837	668.806066086	114.488801077
1070	89.0549177849	22.2470806297	667.731475818	114.354645366
1071	89.2812801298	26.7799202941	667.457264544	112.44947551
1072	77.1069572391	26.9430703742	656.790843395	107.026885805
1073	75.2031307797	26.7799202941	648.550198501	97.779667613
1074	71.0888958779	26.615162824	646.153830411	99.8658286061
1075	68.1160037472	26.8635045716	638.053073007	103.632508177
1076	68.3256867615	22.5484662457	598.814631926	104.463638527
1077	66.9746609761	22.3628127062	571.918082619	106.214013333
1078	64.2424277594	21.8251407673	576.746585487	113.587020678
1079	58.3808344052	21.8034410029	561.464671967	130.412051975
1080	56.8018577673	21.7801338486	517.106825623	151.588808754
1081	55.8868773412	21.0093903667	461.025453798	174.393691939
1082	54.0092612586	20.9732240928	457.047403288	189.425482108
1083	52.599460689	20.6139724385	452.443833146	183.709178717
1084	50.5788789149	20.4532334433	448.018301629	178.791459024
1085	44.4980715002	20.0409379207	450.545814241	179.686095036
1086	44.9738295516	21.4393671788	440.347539296	187.925954667
1087	44.2597953476	20.9161617495	440.108299894	200.288125574
1088	43.0930364537	20.4942218871	432.761822198	208.263642887
1089	42.3091079116	20.4339447639	430.659535764	233.729413305
1090	41.4131895777	20.6195983034	430.234309586	245.008018857
1091	40.8246474808	18.7775294184	423.66516124	274.300005404
1092	41.4004815163	19.0065824866	417.894802257	301.124796986
1093	38.8390128757	19.6431089076	413.638566396	314.705482782
1094	38.2361742096	19.896272825	413.479603339	314.147426778
1095	49.3303118752	18.7871737582	393.850845015	305.034364297
1096	51.3000614035	17.6177975682	329.311843723	300.638978673
1097	61.746087934	17.6941485909	198.943061113	325.177566427
1098	74.3270687919	15.9332528985	184.655461517	332.369582637
1099	89.4242458214	10.7896050523	176.948932495	340.410193253
1100	97.9322929773	10.7896050523	156.945021356	364.301023256
1101	111.561688907	11.5804409087	130.24558624	388.975354363
1102	119.415270897	14.4737428222	116.850564211	417.070259183
1103	126.63900959	14.4737428222	115.60111458	437.493680047
1104	126.934472019	15.1705463663	112.863770732	438.995588951
1105	127.353838048	15.3706664153	111.281293496	439.545706747
1106	128.907398563	15.3192299369	110.301286247	437.77310496
1107	130.356911825	15.2509158639	112.473516426	439.809255244
1108	131.424388988	15.3055671223	113.181696847	444.892089657
1109	132.790505597	20.3206237723	113.532210388	440.456219174
1110	134.963584109	20.3535752663	112.943252261	431.676561418
1111	146.698684625	20.3849193704	95.4604952114	430.839080502
1112	146.721717986	20.3535752663	89.7354407003	427.024771685
1113	150.031373746	20.3342865869	83.7735312336	430.032558596
1114	156.979506356	18.7871737582	82.3277622269	425.472852072
1115	172.038559201	18.7871737582	84.0191291573	417.648954527
1116	179.139188549	19.6230165332	66.5769076875	419.725589671
1117	184.957097942	22.4078196249	50.1973542561	427.358176409
1118	180.823006694	22.6842906966	50.9349428423	442.892455129
1119	177.137668867	22.6842906966	48.4241213512	452.814420978
1120	169.919489951	22.5749881799	48.7611230328	470.609501261
1121	166.73373779	19.6551643322	50.3086283963	470.484871399
1122	181.665710021	19.6334645678	50.9349428423	560.040555798
1123	213.041913797	19.6334645678	54.0323380152	687.011394719
1124	229.340002635	20.1928362711	51.9936368044	702.531384665
1125	241.646965918	21.4586558583	46.7550092488	720.312969994
1126	246.861242391	24.2145259308	46.1191570193	788.013180852
1127	258.641615376	24.1309416533	47.9146447523	859.657093314
1128	266.336346597	24.1912187765	51.6383543712	902.190010365
1129	271.475963209	24.3712464511	52.8997262314	923.516005449
1130	272.60698068	24.5255558865	59.5642524116	927.500191912
1131	272.686406064	24.9860731078	60.6157930361	926.253099477
1132	270.522858599	29.3477257423	60.9114643228	923.19847714
1133	268.378373225	31.4960024131	61.9033938008	966.140211889
1134	274.732403961	31.4598361391	72.7860047083	1020.92972169
1135	278.86252394	31.3127599585	84.7273095779	1056.43970635
1136	285.598590774	30.226164351	92.7557387904	1093.55241516
1137	285.362697383	30.1554391932	94.586198396	1141.11815592
1138	288.924925865	30.3869033462	96.9205708934	1202.63529677
1139	286.426997532	30.3121597135	95.9667925492	1242.36443885
1140	285.239588038	36.4105971911	94.2499915296	1260.67947174
1141	284.530319357	36.4564078047	94.7904659247	1244.14656649
1142	299.135853258	36.4564078047	94.0393654786	1222.92932485
1143	291.615063628	35.9283802055	94.0393654786	1200.01013147
1144	290.030527213	35.1447776039	93.8009208926	1212.08493926
1145	290.573002587	35.1447776039	95.1997957974	1216.21280728
1146	291.360902398	35.1447776039	99.0538551233	1215.42216179
1147	290.91056047	35.2050547271	98.4307199384	1202.62338946
1148	288.635023212	37.5454144971	97.8417618109	1201.97483789
1149	284.597830933	37.7125830521	97.8131484606	1221.50679802
1150	281.706746948	37.9151141861	97.3052614923	1233.04498297
1151	278.017437852	37.6040842304	96.6566922182	1209.35737108
1152	283.727328722	35.2532764257	96.2688223582	1230.45474578
1153	294.290110568	35.3955304364	99.3209130597	1297.26190827
1154	313.329963669	34.5460248468	98.1596879256	1363.10457852
1155	337.491165544	36.5882137807	97.6104705624	1404.61902352
1156	362.517309853	37.1218672448	96.7457115303	1419.19992349
1157	386.38543206	37.5518440569	88.8158394134	1420.78359593
1158	424.611280969	38.4777006692	89.3404175028	1409.30891665
1159	456.398113982	32.3053232538	90.4253403693	1396.65144441
1160	484.752181889	32.2675495899	92.5872379495	1393.63175019
1161	510.150036995	32.2281685361	92.5872379495	1393.63889458
1162	529.536184772	32.1003810349	92.5872379495	1393.17530324
1163	545.611882535	36.8904030917	98.4180028939	1392.90857946
1164	547.768281716	36.8904030917	111.726390057	1391.89248887
1165	548.512497566	37.2440288811	128.258548023	1385.95074038
1166	558.589990314	37.0374792723	143.455416308	1392.77124847
1167	574.913495275	33.0326672071	153.777682438	1367.94053467
1168	602.918091492	33.1411660288	148.770346131	1319.58494225
1169	639.333835895	33.1122330097	163.24631695	1277.04805609
1170	678.697056307	35.1544219436	196.558615253	1221.49092161
1171	719.034826182	35.4943849184	207.386383905	1212.51677776
1172	742.945838097	36.8060151192	207.851350848	1173.12104041
1173	763.678246135	36.6356317843	207.402280211	1118.47838745
1174	793.479444543	36.4845371288	206.961157727	1131.77012249
1175	824.321115483	36.2056549722	210.050604747	1095.41313105
1176	856.192933656	32.0907366952	212.747413015	979.492277302
1177	866.268043643	32.7915587143	215.189085576	848.40706531
1178	871.340942932	34.6239832595	213.85618034	751.34818696
1179	874.317806332	35.0161864077	213.726625449	681.847590587
1180	877.460668785	35.3055165991	200.849822986	633.364986837
1181	878.107985666	35.2018399472	196.526822641	599.910204153
1182	877.050039548	29.1934163069	197.228644539	607.162550741
1183	877.790284129	28.1646867377	251.257803294	601.637558157
1184	875.195456827	28.4419615044	259.447580009	590.399437464
1185	872.929450616	32.8711245169	251.022537969	663.018955657
1186	865.098107733	33.0808889057	245.776757075	732.856132038
1187	860.078423452	32.9965009332	242.358256527	732.856132038
1188	858.124559	33.0551706664	241.154111367	709.291562373
1189	858.52565719	33.1130367047	241.878982909	677.513329163
1190	859.243662664	24.1912187766	242.33918096	676.379753098
1191	857.48359615	25.0302763315	242.489401049	699.772857476
1192	838.242796826	27.988677538	244.485182234	797.431864331
1193	839.288829136	27.8271348478	257.301578735	986.341362936
1194	835.383482995	27.7443542653	301.51238425	1158.40360326
1195	838.573206425	27.486368178	351.845651921	1258.96878797
1196	838.040262097	26.9728070884	363.519898854	1304.40629523
1197	844.828749684	26.9728070884	368.113931212	1304.23879905
1198	859.939429029	26.2977033086	417.55541613	1322.86739114
1199	873.778507973	26.3684284664	496.492496343	1375.28575829
1200	891.741352865	27.5836152701	549.901699173	1409.19063735
1201	916.617383197	31.0877253653	564.430922617	1431.5930534
1202	925.95780838	31.1584505232	565.670834465	1399.50284863
1203	911.267289317	31.2122980866	562.67835491	1332.86000704
1204	889.517442107	31.26453826	562.857188349	1273.92357752
1205	857.743317156	29.8974531059	563.479528719	1237.18237684
1206	818.322910468	30.0782844755	570.439726186	1217.72106675
1207	775.11947273	30.4833467434	581.29928745	1202.14709699
1208	705.872451512	37.1379411444	595.873020549	1192.57679375
1209	640.181304745	37.384675502	602.549468959	1193.27138692
1210	574.618032846	37.384675502	601.898515239	1193.81197887
1211	505.939697379	37.4594191348	608.132251534	1197.469905
1212	437.847521247	37.4594191348	618.051546314	1213.29551594
1213	379.962301239	32.3889075314	618.051546314	1232.61631975
1214	351.559783848	32.3157712886	610.259177241	1247.74019313
1215	317.641967777	33.7238448865	588.084625554	1254.30350328
1216	317.529977986	36.5849990009	559.053997202	1239.10977368
1217	317.734101223	36.8293222736	536.214979934	1239.63131392
1218	315.159924521	36.7457379961	552.695474907	1249.57630058
1219	310.747050175	36.816463154	551.513584575	1250.49078211
1220	302.659163301	35.0611933265	532.228186455	1255.10129316
1221	287.600110456	35.0411009521	596.05503325	1254.36462748
1222	268.874781876	33.4538033746	670.557044163	1259.18708868
1223	243.896292798	33.6876786126	674.356261234	1252.55471612
1224	227.950852665	34.4471703648	677.710381744	1244.31406267
1225	214.127658798	34.2374059761	677.535522381	1239.88533657
1226	216.224488941	34.4913735885	676.708914483	1238.65888348
1227	205.413899897	33.9159279857	672.048912456	1238.71286329
1228	199.48558922	32.7103855218	674.878454877	1238.91925669
1229	196.435654467	34.4335075502	674.420641272	1237.7578969
1230	196.092536807	39.1367305496	674.274395259	1236.40443248
1231	202.007345169	39.4485642003	674.397591629	1229.40293326
1232	209.203284978	39.3400653785	672.9454641	1229.40293326
1233	208.603623327	39.8222823641	625.599907093	1246.63598843
1234	211.469291189	39.7837050053	612.723104631	1262.23932956
1235	209.556727937	35.2146990669	612.027641255	1186.79698469
1236	201.616572278	35.209073202	612.110302044	1077.81888743
1237	201.668198778	35.1246852296	612.549040083	1035.46696151
1238	200.251249924	35.2307729664	612.587191217	1015.13879914
1239	191.920321375	34.6593458385	611.70971514	1006.86956814
1240	187.583695397	34.3949301914	611.251901535	1003.37437528
1241	198.119472612	34.1923990575	610.927616898	985.134755361
1242	197.15365994	29.4063954756	608.351620553	908.318306738
1243	187.234223707	30.0429218966	591.906097453	742.610601704
1244	183.886443763	31.7789030447	543.513768713	553.293079221
1245	162.225552983	31.766043925	480.310057103	436.065596475
1246	160.801455844	31.4252772552	458.452636715	378.739035487
1247	161.059588342	42.3740139128	457.423350918	377.005330917
1248	160.404328923	43.7410990669	419.933503468	363.446078283
1249	158.96911223	43.0981430861	351.566671755	296.667493342
1250	161.945181376	44.5247016685	302.43993369	233.665907643
1251	151.010688733	44.1622352343	289.90172254	209.930666511
1252	143.061796282	44.9779856349	288.721421839	206.432298362
1253	142.902945513	46.4085626921	287.803410183	205.098679462
1254	148.564386899	46.0324334434	286.887782972	203.214942766
1255	178.392589937	45.8017729852	284.280788831	198.47821421
1256	224.62769459	46.5540314828	276.137906218	198.192438732
1257	277.048448165	47.3376340843	263.79998852	197.220008284
1258	343.178023053	44.9458378358	247.242396464	196.61035393
1259	380.180721046	43.0627805072	240.928383826	194.27096411
1260	398.811533418	42.6770069187	240.396652399	194.5686469
1261	404.275999852	44.3165446697	235.860641557	192.679353459
1262	404.307770005	43.4509651806	226.990502955	180.486266376
1263	401.698646134	45.107380526	221.96091182	164.593974488
1264	404.59608415	44.7859025357	216.110276494	151.722170643
1265	398.039518684	40.9088779716	216.149222443	142.570210944
1266	398.51209972	42.5484157226	216.742949462	139.363968839
1267	393.969761997	40.9080742766	213.566867576	137.746955924
1268	389.363089714	42.1304943351	189.455351034	125.39907379
1269	384.93433029	41.3227808842	176.493503336	122.870754626
1270	403.767677393	41.12989409	174.421419883	113.856919741
1271	416.577403357	43.2902261854	109.659870311	112.30658777
1272	450.052820038	44.2546601565	35.7317160355	113.031346137
1273	454.622162391	42.1208499953	32.0183390153	109.030489438
1274	482.071575172	37.8990402866	29.6179968491	108.153317483
1275	606.127671267	38.0115575832	25.5739766696	107.950893185
1276	750.808951135	37.6458763691	22.0291004902	109.411523409
1277	877.514678047	36.5970544255	22.2460850635	115.551727093
1278	939.657098649	37.1917887077	17.883343954	126.780321936
1279	940.762699997	37.7061534923	18.5223754447	130.304886171
1280	940.583992882	38.0316499576	18.5223754447	127.754340025
1281	945.260559504	34.2824128947	19.565173101	126.875580429
1282	945.146981205	33.4337110001	23.0146714459	127.484440962
1283	991.626716041	33.1130367047	23.8929423379	116.949645475
1284	1292.12074337	36.5849990008	23.9946786946	98.3742393722
1285	1745.02652321	35.7813040249	23.9589120067	72.8957678217
1286	2287.93079439	35.009756848	24.3245270386	65.3512951891
1287	2523.77653025	34.3177754737	24.910305905	63.6048894871
1288	2604.78803938	33.3734338769	25.0565519178	63.826365483
1289	2594.25226216	30.2703675747	25.1964394083	65.8585466635
1290	2569.19275919	30.09355468	26.0548399181	67.4620646262
1291	2594.39522785	31.6085197097	26.8202470393	68.0312341209
1292	2722.30583785	30.8819794514	28.4615406067	64.7567234297
1293	2939.63275112	30.4511989443	29.5869990528	59.628641232
1294	3233.6456671	31.2830232444	27.0237197528	59.5564035416
1295	3474.20609376	31.0226260722	27.0745879311	59.0039042832
1296	3684.79455744	28.1847791121	30.2697453842	59.4063714154
1297	3873.35439081	25.4803455179	30.3627387728	59.8136014722
1298	4029.12583707	26.1755416722	30.3373046836	60.512163753
1299	4198.67679324	27.2098971062	30.2824624288	59.7874053867
1300	4292.70374007	27.8890193609	29.8882340466	59.2261740998
1301	4363.24618931	28.5705527005	28.6928318551	59.1396476354
1302	4353.88114226	28.7433471203	28.5092295239	62.5760977645
1303	4390.87351495	29.3348666226	29.9971237409	62.5530769621
1304	4467.61749818	27.0973798096	37.6742445966	62.3697043633
1305	4567.63947302	23.8898331605	38.7273748516	61.5719144858
1306	4640.53053086	25.1267197285	39.7002287627	61.1241995695
1307	4665.52649353	24.8213156376	39.5786220239	60.2517905393
1308	4642.01975682	25.3131769629	39.1049121129	55.329307922
1309	4629.04562031	25.5808073899	36.0059273095	54.8720671564
1310	4644.81632459	24.9949137524	35.866039819	56.4319249766
1311	4702.09711743	25.8187011028	37.6591431061	57.4924695302
1312	4805.79489905	23.2267848053	39.5309331067	59.5119495783
1313	4948.10294843	23.8898331605	39.6461813233	60.9527342824
1314	5070.10033857	30.2422382505	39.1843936416	61.1630967874
1315	5136.19258353	30.3796700913	39.2010847626	61.7346477444
1316	5154.73999925	30.6858778772	38.6987615013	61.7346477444
1317	5166.69193106	31.3441040625	37.8022098578	63.703323263
1318	5175.97437571	31.5980716749	40.0785608393	63.703323263
1319	5174.95217102	30.1297209538	40.1572475527	63.703323263
1320	5159.48010617	29.254497125	41.047440674	64.6368564928
1321	5159.48010617	29.1974347817	41.6483210308	65.5695959019
1322	5143.82933422	29.1974347817	41.3693408652	62.1561665752
1323	5204.85344541	29.5767788104	40.7390523427	61.918814164
1324	5242.05073559	29.9304045998	41.6173232346	59.3492163197
1325	5153.19517552	29.9304045998	41.8867656169	59.2198235336
1326	5012.08803794	25.9079112451	41.8867656169	62.1212384612
1327	4884.52213412	24.3551725515	43.5749532861	56.6756279541
1328	4826.55669448	25.6378697331	43.3301501778	45.7431282597
1329	4842.41397243	26.1811675369	41.5887098843	39.8498028363
1330	4850.74648949	26.1200867187	41.9948604959	39.745812315
1331	4878.58985217	26.0525763407	43.6226422034	39.8148747223
1332	4889.49098616	26.0565948156	40.2526253871	39.4719441481
1333	4800.79507111	25.8982669053	41.0037258332	74.2222423346
1334	4371.00446083	24.7224611555	43.0638870567	83.5925027466
1335	3710.07406872	27.0692504853	42.602099375	85.4436927907
1336	2873.52223832	31.9999191628	41.025185846	84.4276022005
1337	2377.78632005	31.7371109057	38.1996175012	87.031334338
1338	2099.70613615	30.8651018568	42.5416934133	94.8330049012
1339	2013.72259797	30.6858778772	47.6126149433	102.66087155
1340	2000.83980065	30.7043628616	51.5803328553	102.596572067
1341	1999.01698808	26.1401790931	56.1370088948	107.436497324
1342	1966.47799668	25.1950338014	55.8405427928	107.601612045
1343	1899.32224583	29.2577119049	69.931028198	109.093995099
1344	1783.41837117	30.8104505984	100.074397952	114.396717867
1345	1696.62469407	32.1349399188	106.056972616	117.863333186
1346	1610.75949972	31.9581270241	104.582590259	118.917527173
1347	1538.51417025	32.0071524176	105.440990768	118.755587735
1348	1474.82136614	32.0545704212	106.425766909	118.21658343
1349	1403.63795406	28.0039477424	113.586257828	117.930807952
1350	1355.73491634	28.2129084361	115.610652364	119.36603591
1351	1330.06463216	28.2129084361	115.992163701	125.102978641
1352	1327.58656018	28.1646867376	116.014418529	128.141724563
1353	1262.22820577	28.2297860306	113.181696847	129.313404025
1354	1122.24573163	28.2297860306	101.67674557	129.730159931
1355	931.456427728	28.2932779337	101.75940636	130.107224798
1356	744.091946391	28.048954661	102.948450029	134.12078263
1357	612.227540774	27.345721557	107.748339546	137.27145728
1358	549.811102598	30.0292590818	106.687261138	139.07739954
1359	535.016536282	35.4783110188	105.86065324	140.953991849
1360	535.609843902	37.5614883965	105.491064132	140.316553768
1361	541.443638372	37.8066153642	105.00225273	144.35154476
1362	518.187885877	37.4915669336	101.04089334	149.40977073
1363	470.115672088	37.4722782542	106.89947682	148.197606409
1364	432.916793396	32.4379329248	114.517781344	147.670509415
1365	428.420522396	31.9516974643	114.593288796	147.035452796
1366	436.31222857	34.2446392307	113.904183943	146.413097309
1367	438.742645327	33.7752813648	114.116399624	145.625627102
1368	439.922112282	33.6941081722	113.582283752	145.853453664
1369	438.047673215	33.6073091148	113.582283752	145.403357285
1370	437.652929056	33.3445008577	115.804587294	143.860169701
1371	437.879291401	33.3533415024	117.016680606	142.7099234
1372	437.09774562	33.6113275897	117.247971855	144.081645697
1373	429.074987562	37.612924875	116.988067256	145.186644214
1374	474.214021912	38.7774788952	116.886330899	146.726656515
1375	555.885555982	38.7380978414	117.096162135	146.911616755
1376	688.291642719	38.7348830615	116.79333751	145.764545737
1377	815.683604951	39.352120803	117.315531154	148.305566034
1378	885.831310026	37.8387631633	125.918611819	147.175165252
1379	888.690623858	38.1787261381	125.772365806	146.853667839
1380	875.208164889	41.0881019511	125.600685704	149.261326245
1381	844.117892496	42.193986238	124.602397704	151.611035735
1382	833.735406273	42.3740139127	123.2607495	151.191898367
1383	842.420572036	42.4551871052	122.898313729	117.946684367
1384	853.957109092	42.4543834102	119.966240136	106.102878424
1385	884.481872749	39.5908182109	120.306421078	100.25956371
1386	944.529845968	33.3605747573	124.10563815	100.298460928
1387	1019.98078395	33.2729720049	122.798961818	97.0596721711
1388	1108.24224214	34.3025052691	117.314736339	90.0319768622
1389	1204.9823601	35.1825512678	110.876732515	82.8661567386
1390	1282.74854803	35.2733688001	105.304282539	83.271799154
1391	1334.90243232	35.3698121972	98.5642489067	78.3945643208
1392	1353.51656536	35.3625789424	99.3709864229	78.3945643208
1393	1358.08590771	28.9040861156	88.6219044836	77.2586067937
1394	1366.69561936	28.2096936563	61.9073678773	73.7149908602
1395	1379.1495196	27.6921140918	56.8777767421	70.0697658677
1396	1395.31655656	29.9585339241	57.2910806913	69.0338297581
1397	1399.40855235	33.3822745217	56.2419245127	68.8790347073
1398	1394.68512475	34.3949301914	55.3636536207	68.7099508825
1399	1402.05182914	34.0967593553	47.390066663	69.2211714607
1400	1412.04354247	35.0411009521	46.1024658983	68.0947397829
1401	1498.07711864	34.7397153361	45.8044101658	70.1967771914
1402	1673.404683	34.5661172213	52.5698778874	65.3004906596
1403	1842.48544089	37.3629757376	52.8424995308	64.8361055071
1404	1961.93724747	39.4003425017	52.7288409448	65.6489779793
1405	1992.436595	39.3135434443	52.7288409448	66.3602413925
1406	2006.28838201	39.2918436799	51.2655860017	63.6676013283
1407	2048.28614241	38.821682119	46.5356402296	60.263697851
1408	2062.39209065	37.9030587615	46.5729965481	60.7717431461
1409	2059.06813832	29.2544971251	48.722971899	58.3331257295
1410	2066.77875462	28.5986820247	48.6140822047	56.9558466872
1411	2087.88763898	34.3467084928	48.9097534915	50.2933089342
1412	2141.24799485	35.9741908191	48.4551191474	44.6921095554
1413	2281.17645972	36.4202415308	42.3962422158	44.5301701176
1414	2418.54742722	36.6613500236	33.9417920096	46.2805449235
1415	2585.74818627	36.0256272976	34.3209189014	44.7564090381
1416	2753.81229925	35.343290263	38.4221657815	43.7395246271
1417	2903.73565447	35.0611933265	39.0222513231	42.3177916215
1418	3045.23356494	34.8032072392	41.4647186996	40.9841727218
1419	3149.16009166	34.8032072392	43.2069538084	41.1992981515
1420	3192.6216619	34.6947084174	41.9861175277	40.9103473899
1421	3192.60259981	34.475299689	43.9342097958	41.4818983469
1422	3203.86114802	33.6233830145	48.2452879117	43.3592844765
1423	3211.90296817	32.3286304082	51.6860432884	43.3235625417
1424	3161.51471018	34.4785144689	55.7554975571	42.6511963464
1425	3060.52692267	35.3537382977	63.2076856865	42.628175544
1426	2887.46933579	36.8220890188	68.9812239302	41.5970023591
1427	2696.03509777	37.3107355642	76.7759774483	37.4492888168
1428	2544.56771307	39.8833631823	71.612857345	36.7610462061
1429	2464.6840444	41.3902912622	74.2357477916	35.3250244266
1430	2438.65793451	42.9984849091	79.8662192836	31.1685788559
1431	2438.65793451	42.2743557358	96.8275775049	26.7485847883
1432	2457.90111659	43.5289235932	97.5945742567	26.7485847883
1433	2476.29365281	48.6147054011	102.502558653	31.3567143792
1434	2496.81637784	49.5148437742	107.16415031	41.1365863103
1435	2519.32632597	50.8385293996	113.518698529	47.9697955297
1436	2585.31531793	51.395490018	111.074641522	48.8485551262
1437	2592.70267292	50.9831944953	119.123735932	59.0094610287
1438	2604.51719882	51.8833328684	121.785572327	59.1150391916
1439	2615.33175913	49.2054212085	119.432124263	58.6982832854
1440	2623.50065989	48.5881834669	124.503045793	58.2037329434
1441	2630.08343574	46.8562207937	125.218379551	58.7498816357
1442	2668.29657659	48.4338740316	122.440500124	59.8231273216
1443	2747.11832787	49.0607561128	123.038201219	59.6445176476
1444	2781.58497335	50.157799755	120.176071371	58.6284270573
1445	2773.21750912	51.7579564522	116.8187716	58.5053848374
1446	2770.30100901	45.3283966444	114.21495672	58.0481440718
1447	2809.69202831	45.9359900463	111.833690121	57.945741192
1448	2904.44730592	46.7557589218	110.25359733	58.4125078069
1449	3001.48526907	51.5658733529	105.733482794	58.2196093589
1450	3070.04605497	54.8634338393	100.265153621	58.6959018231
1451	3057.33402222	55.3143067208	96.9960783457	55.4277416981
1452	2955.47334974	56.4547498917	77.1837176905	59.6357856191
1453	2794.49398104	57.6249297767	70.0232267713	61.814029822
1454	2696.70544801	49.8523956642	65.3338165789	63.0420705588
1455	2704.8068372	49.9424095015	59.4966931123	61.9251647302
1456	2763.30839819	53.0438684137	55.1514379391	60.1914601606
1457	2794.58214322	52.5423627487	51.6033824986	60.2541720018
1458	2877.32433146	52.7738269018	48.8016586125	57.0757136242
1459	2921.34187939	52.7738269018	49.3707463578	57.8703282186
1460	2931.30182257	51.8455592045	47.4417296567	58.7276546541
1461	2899.50387	53.0631570931	45.9752954524	59.1396476356
1462	2926.46322816	54.6319696862	46.7041410705	60.0136443074
1463	2964.33086859	54.84093038	48.6426955551	61.3155103761
1464	3164.70522786	54.8891520785	47.4194748286	62.0736092149
1465	3362.70317964	53.4465195967	47.0085553253	65.1131489572
1466	3399.18802412	53.1314711661	47.8478802682	67.6335299135
1467	3281.61542214	51.3762013386	47.8478802682	68.5511867278
1468	3018.28850335	48.3221604299	47.6801742427	72.0193896877
1469	2772.04519045	44.0617733623	48.0068433256	71.3994156635
1470	2655.06669034	43.3641661232	47.7596557714	73.4474732595
1471	2719.39886878	47.2580682817	48.2580049562	76.2417223827
1472	2868.08318801	47.2580682817	48.3438450072	76.6235501748
1473	3063.1797305	48.0681928175	48.8183497335	78.1119641254
1474	3303.7790756	50.693864304	48.8882934787	78.4802969643
1475	3490.62570343	51.8897624282	48.0418151982	82.0818618143
1476	3627.40812884	53.8186303705	47.902722523	80.8458828697
1477	3716.81013555	46.4736619852	47.0061708795	80.1671661083
1478	3729.4101785	46.9968674145	47.2565376948	80.0171339821
1479	3701.80747473	47.2058281083	48.273901262	78.4493379542
1480	3691.63228876	47.9002205675	47.2152072999	76.6902311198
1481	3684.47129612	50.0131346593	38.9531023931	79.4741605729
1482	3683.22193483	49.755952267	38.8831586479	99.0283476898
1483	3687.88261637	50.9735501556	37.7449831571	97.3454476497
1484	3703.84394158	39.056361052	36.1640955516	92.0744777128
1485	3735.05811757	39.4365087756	34.3328411307	87.7243398733
1486	3751.43960307	38.4519824301	32.3489821747	98.2154752176
1487	3760.51315896	36.7288604016	27.2748813835	116.486054144
1488	3740.31290099	38.5805736262	25.0366815357	149.254975679
1489	3709.24486771	38.7380978415	25.0366815357	190.199457362
1490	3680.47381653	40.3655801679	19.7622872922	214.017255854
1491	3658.00278683	35.2854242248	17.2800791513	210.984860499
1492	3630.45488658	36.7618118956	19.86720291	208.457335156
1493	3580.83070078	37.2110773872	19.3934929991	210.04180142
1494	3560.08717319	37.7736638703	19.3648796487	214.280804351
1495	3557.62260352	46.4535696107	21.5744661462	214.862674978
1496	3543.66200373	46.5307243284	21.0626051015	215.884322314
1497	3503.45369724	49.9970607597	21.3296630378	215.125429654
1498	3399.9179434	50.5371437836	21.3519178659	212.029528637
1499	3299.19146541	52.0505014233	26.6263121094	213.296466592
1500	3225.3258581	54.269503252	33.8146215636	214.649931011
1501	3184.99047099	54.0573277783	35.5791115004	213.60208759
1502	3146.99257293	54.5781221228	46.7995189049	211.651669949
1503	3144.00697274	53.2279145631	50.410364753	210.490310157
1504	3137.08346199	55.5642558583	54.1714306904	210.020368259
1505	3096.96728894	56.2586483175	58.9951646662	210.651455774
1506	3024.19219216	57.8788973891	66.4465579804	210.442680911
1507	2946.89540825	57.68038473	72.5221260331	211.867589199
1508	2828.30933836	58.850564615	72.8281299186	212.334355814
1509	2764.53472612	57.8861306439	90.1765631846	211.950940381
1510	2724.75452244	61.1523470262	91.9513857202	212.112085998
1511	2724.16439183	61.4030998587	97.8767336836	213.586211174
1512	2665.92970014	61.9359496278	103.615300055	213.586211174
1513	2563.28271635	61.6434046565	109.194903368	212.525666621
1514	2209.56971034	61.0358112547	110.340232197	213.617170184
1515	1738.00611349	55.908237308	114.301591586	216.795628562
1516	1354.70794612	56.7408653031	115.350747765	220.032035856
1517	1116.19987139	55.2749256669	129.554891756	217.974452411
1518	1043.67814158	58.5419457442	131.081731922	216.017684204
1519	1037.77207001	60.2417606184	133.663291974	216.015302742
1520	1053.28861307	60.3775850693	139.455110969	215.621567638
1521	1046.45247025	63.2057876897	142.279089683	215.350874754
1522	1000.13158618	52.0440718635	141.338028384	222.651644409
1523	920.03505748	53.2246997832	139.44318874	221.933236609
1524	798.571405924	55.8801079838	145.781840653	226.238920485
1525	707.29019462	55.9765513809	141.559781849	225.273634424
1526	649.779068172	61.4738250165	139.31840274	227.052586778
1527	620.589445223	61.4055109435	138.046698281	226.906523756
1528	616.88425105	61.5501760392	136.673257465	226.912874322
1529	637.785835157	61.891746404	126.436036571	227.351063389
1530	637.785835157	61.1459174663	121.845978289	226.779512432
1531	642.65063994	62.4061111886	117.433163817	224.975951634
1532	640.915989549	63.659875351	111.595245535	206.298936472
1533	654.306315072	63.5369100197	104.455419813	208.077095005
1534	667.351934427	59.7949062116	100.785757634	209.163041824
1535	664.384602073	59.01130361	98.3989273271	208.993957999
1536	657.740668684	53.9769582806	93.6491111729	202.506854637
1537	658.773198679	43.1069837307	88.7212563945	184.623660248
1538	657.909050499	44.3711959279	87.035453171	156.846283737
1539	642.074805904	44.2868079554	86.2223571326	119.264426851
1540	638.571352207	44.7859025355	82.7116580106	92.8103495699
1541	628.718633296	53.2335404279	78.2861264934	92.3023042748
1542	626.663104353	53.462593496	60.8033694439	91.8577646416
1543	627.175398081	53.9512400414	53.6571851999	89.4802714246
1544	628.357247798	53.3364133848	50.4906410971	88.7618636244
1545	628.219841884	55.1784822697	51.3935512629	87.6187617104
1546	634.012335154	55.301447601	50.1178727275	87.2853569854
1547	638.551495861	60.117187897	49.6990050714	88.2133334698
1548	649.302515867	60.650037666	49.6990050714	91.0901399535
1549	674.388229214	60.2899823168	51.4849550209	90.9123241002
1550	707.617427203	62.090259063	52.4768844989	90.2645663489
1551	763.888723404	60.3904441889	52.7924261678	90.4765164954
1552	810.953029068	59.5345090395	52.1629324606	91.1655529269
1553	860.787692133	56.4041171081	52.3536881294	91.1655529269
1554	897.932561564	56.8887451786	52.3536881294	91.2171512772
1555	910.692249536	59.9106382882	53.4910688049	91.5346795867
1556	905.29132341	58.7412620982	53.832044563	93.0207120749
1557	903.423238374	57.210223169	54.372518958	91.737103884
1558	877.24463174	57.1427127911	54.7754903085	91.2766878353
1559	858.489915768	54.2566441324	49.5177871859	91.4195755745
1560	818.459522129	54.972736356	50.0964127148	91.4195755745
1561	792.382579987	55.0016693751	49.3969752623	89.2643521741
1562	771.566775295	53.5389445188	48.273901262	87.6703600606
1563	658.745399795	50.6938643039	47.2724340006	86.8638381546
1564	636.614310741	49.1387145254	47.7056083319	80.6966445643
1565	654.068038919	47.7684145914	47.6444075548	71.5232517042
1566	654.068038919	46.5339391084	49.0687165488	60.397059741
1567	685.937474331	42.8570345933	40.4560981005	57.3368806586
1568	743.428744433	43.4670390801	40.1508890304	56.3422232293
1569	794.568366561	42.1811271185	39.232877374	56.3422232293
1570	820.464218827	40.059372382	36.276164507	61.3337682539
1571	828.975442998	39.2371924216	33.8281334235	71.0318766454
1572	825.865144952	38.1956037327	33.3893953852	70.079291717
1573	837.401682008	36.4081861062	34.1325476784	71.1549188652
1574	831.714030245	35.6036874352	24.5128982616	68.1899982758
1575	828.000893534	33.1122330098	24.5128982616	77.7476003903
1576	820.14651729	33.1773323028	27.2025531923	87.14643835
1577	814.189613475	32.3157712886	27.2748813835	105.518626335
1578	818.419015183	35.8480107079	27.0364367974	116.790881321
1579	812.759956559	35.3336459233	26.5118587081	117.044110147
1580	820.14651729	34.5460248469	26.2575178163	119.334283079
1581	814.578003603	33.8001959092	26.3091808099	139.732301678
1582	806.926956343	33.7101820719	25.7488360327	141.777183991
1583	801.139228596	33.0447226318	28.5338687978	152.686662883
1584	793.476267528	28.6469037233	33.0611366717	174.292082879
1585	793.415109982	29.3678181167	33.278121245	203.376882204
1586	792.932203646	30.6408709587	32.4769474358	219.685136178
1587	794.197450017	30.2864414742	32.1232546332	224.413926526
1588	800.051895086	29.7367141107	23.6703940576	222.587344926
1589	806.803052744	29.0334810067	23.0051336625	218.176876708
1590	815.89011095	15.3706664153	22.7762268599	216.243923124
1591	823.993882901	15.3706664153	22.6530304904	216.942485405
1592	820.435625688	17.4731324724	22.6911816242	216.725772334
1593	817.490532442	17.4731324724	23.0027492166	216.192324774
1594	815.460419622	18.5364209256	22.6530304904	211.671515468
1595	814.939389101	17.8653356207	22.7865594586	211.311914658
1596	813.005380996	18.2125318503	21.34953342	214.461795487
1597	809.675074636	18.4761438024	21.6356669232	216.668617238
1598	802.224973598	18.0156265812	22.1824998406	222.193609823
1599	782.899189113	17.8613171458	22.6721060573	230.258828883
1600	752.742959239	18.0903702139	23.0496433185	242.690062198
1601	698.883811956	18.0059822415	22.7921231656	251.644360524
1602	650.592384107	17.8267582618	22.6872075477	261.834637795
1603	591.869226295	17.8267582618	21.8009885029	279.076424999
1604	535.943430516	17.3831186351	19.4928449099	292.329262814
1605	489.47402098	17.2480978791	21.9019300443	293.990729694
1606	450.263297306	17.420892299	22.5735489617	293.990729694
1607	396.907706959	21.7970114431	23.5654784397	338.952738312
1608	393.331181909	22.0284755962	24.500181217	515.269064164
1609	357.208517173	22.0927711942	24.7990317649	872.924219902
1610	351.454148087	22.0927711942	20.7359360185	1306.99097567
1611	352.407252697	21.8805957206	20.7637545536	1690.04442706
1612	344.484570623	21.9440876237	20.2805068592	1867.58164926
1613	319.627602383	21.4136489395	20.1159800948	1888.60202335
1614	282.91639555	21.398378735	20.5888951905	1881.05755071
1615	236.846495696	28.3230146479	20.5888951905	1907.65372191
1616	225.126486003	28.9338228297	20.5888951905	1982.47529893
1617	208.28592179	28.9338228297	20.3472713433	2060.61266532
1618	171.972636132	28.9659706287	20.534847751	2129.50360734
1619	143.47480828	28.9659706287	20.5070292159	2192.29562436
1620	128.847035271	28.9659706287	21.1619570123	2209.25163608
1621	120.35249043	28.9724001885	21.5363150124	2207.60683944
1622	120.221438546	29.2745894995	22.4900933566	2215.1640132
1623	110.004157122	29.2745894995	22.4900933566	2240.13364564
1624	111.097050409	29.6089266095	22.4463785159	2260.23715673
1625	109.699163647	29.6089266095	22.2746984139	2240.29002833
1626	107.908121233	29.9368341597	21.4568334837	2215.20132278
1627	104.127472945	30.0975731549	21.6189758022	2188.6400797
1628	100.988581761	27.7724835894	24.0836980068	2177.16143131
1629	98.4366441669	28.2587190499	24.0320350131	2191.85743529
1630	86.5140997441	28.4861647281	23.9247349494	2222.23854394
1631	86.1137958077	36.8703107174	23.7848474589	2249.06571698
1632	85.4013501114	37.7061534924	23.7848474589	2286.33798377
1633	85.1988153816	38.1562226789	22.3986895986	2307.79257782
1634	84.6269526154	38.5805736262	15.098311189	2314.72501463
1635	84.2195003944	37.11784877	16.4852638645	2300.90618261
1636	84.0129943955	34.1570364785	16.5194409218	2293.22834808
1637	83.683379051	36.8421813932	16.5194409218	2289.6521855
1638	80.4229670295	37.2665323406	16.3445815587	2289.6521855
1639	77.3094919687	39.0282317279	16.4280371639	2292.06936975
1640	78.4476577244	39.0282317279	16.3962445524	2296.54254981
1641	74.6797174977	37.8709109625	16.3962445524	2294.54609057
1642	72.194497226	34.94546125	16.3962445524	2294.8914026
1643	72.7862163384	35.3055165992	18.9929060945	2296.69893251
1644	72.194497226	33.8323437083	20.8241605154	2305.40158965
1645	72.7735082769	43.4067619569	20.8472101587	2309.22145521
1646	73.0427603293	41.8114274296	20.9680220823	2307.1995937
1647	72.7504749154	41.3131365445	20.9680220823	2304.30373552
1648	72.7504749154	41.7125729476	19.3847500309	2296.68940666
1649	72.8997946377	41.1081943256	20.3917809994	2295.49470639
1650	73.4438585195	40.2080559526	30.4922936646	2279.82468432
1651	72.2048225259	38.086301216	30.9469280087	2268.28332409
1652	71.3049329229	38.1144305402	30.9469280087	2251.70120195
1653	68.2136969697	38.353127948	31.2362407731	2222.53940201
1654	60.7008498778	38.1923889529	31.0526384418	2196.10517025
1655	58.3943367205	38.1755113584	27.9369625174	2186.0839768
1656	55.7852128495	38.1441672543	27.7104401606	2188.90124673
1657	56.0274602713	36.580980526	28.0768500079	2163.52994098
1658	56.0274602713	36.5592807617	28.2986034729	2018.38536927
1659	55.7439116497	36.282005995	29.1927706706	1679.80731436
1660	55.410325036	36.4363154304	29.2523818171	1236.90692103
1661	55.7891841187	36.1534147988	29.3199411165	818.734044793
1662	55.4397124282	36.1630591385	31.0168717539	591.340115081
1663	57.6318530322	36.5970544255	33.1247218946	535.2328628
1664	56.6302989374	36.1863662928	36.3556460357	527.338315207
1665	54.4858135639	33.2215355265	36.9978567874	516.162112535
1666	54.4858135639	30.560501461	39.4228382276	471.847067847
1667	63.892956069	30.6400672636	41.5688395021	417.006753521
1668	90.0715627026	30.628011839	44.6376213246	369.047277661
1669	119.881497902	30.8016099538	49.504275326	325.330773837
1670	130.667465077	30.962348949	53.1135315435	316.528889099
1671	135.420280068	30.6979333019	61.4424009345	316.563023392
1672	135.798344896	28.355162447	67.9320677516	305.482079213
1673	135.436959398	28.4508021491	95.400884065	281.457887319
1674	138.756146204	28.7111993213	103.752008284	268.883766265
1675	150.498395005	27.8882156659	118.249439116	277.183162454
1676	165.938689694	28.7369175605	121.339680951	282.734351124
1677	170.549333247	29.6531298331	119.765946683	279.622573691
1678	186.987210762	30.2703675746	119.572806569	273.843558459
1679	203.992979774	31.0073558676	121.575741091	262.357765685
1680	215.739199844	27.7475690451	122.961104136	255.103037635
1681	224.808784466	32.1477990384	122.338763767	250.215483132
1682	227.868250266	27.9396521443	123.48329778	260.312883372
1683	230.203356561	27.6438923932	124.995831271	318.421357823
1684	230.909448227	27.9083080402	126.090291921	444.936543621
1685	231.366144186	28.0939615797	124.328981245	606.263945625
1686	232.180254374	28.5311716466	130.187564724	785.902411415
1687	233.717929812	29.1066172494	129.554891756	947.761673336
1688	237.879819944	29.6635778678	129.440438355	962.012343864
1689	240.300705655	41.6185406352	127.443862354	952.049099334
1690	239.023545477	38.4977930436	125.508487131	1008.42307539
1691	243.187818371	37.5012112734	124.32818643	1100.96987647
1692	242.994814687	37.545414497	122.329225983	1190.98200781
1693	243.807336368	38.2470402111	122.500906085	1281.52917435
1694	244.709608732	38.2108739371	116.409441727	1308.792155
1695	246.289379624	34.6593458384	114.084607013	1296.27439522
1696	246.873156198	33.6113275897	111.074641522	1288.39969315
1697	245.685746704	44.1429465548	108.47956961	1291.66070889
1698	244.827952555	44.0392699029	106.851787903	1295.66156559
1699	244.468155564	44.30368555	106.851787903	1292.34339475
1700	244.420500334	46.5540314827	103.720215672	1297.59610681
1701	244.233056427	46.2325534923	103.402289558	1314.52036571
1702	244.233056427	47.3577264587	102.054282831	1375.21193295
1703	244.09723902	46.0846736167	101.403329111	1461.17319689
1704	238.05455579	46.376414893	103.008061175	1529.77201286
1705	237.768624406	46.4736619851	101.880218283	1571.82546217
1706	237.768624406	45.9914449995	101.880218283	1584.07649817
1707	243.519022223	46.1650431143	96.5772106896	1585.71732571
1708	244.853368677	45.3292003393	97.1176850846	1583.7645266
1709	244.758058216	43.7820875106	91.416475032	1589.83328642
1710	244.007488336	43.5795563767	91.0135036816	1594.81848088
1711	244.011459605	42.6159261005	90.2314054393	1595.20189631
1712	243.287100101	41.7117692525	93.1690427395	1595.5035482
1713	243.060737756	42.1529977943	95.9946110843	1592.97999196
1714	245.85651128	42.0887021963	98.8154105373	1589.32841641
1715	252.907102636	40.8084160996	101.218931965	1594.95739951
1716	243.279951816	37.684453728	113.586257828	1625.24007438
1717	211.967288348	38.7131832972	113.440011815	1638.12934229
1718	169.532688329	37.6932943727	119.620495486	1638.80805905
1719	119.837813941	37.6932943727	126.47498252	1654.34233777
1720	95.3303173907	42.9374040909	137.054768803	1661.11839189
1721	78.745502915	41.8853673674	145.78899399	1662.18131791
1722	72.2302386488	40.9080742766	146.278600207	1663.57923629
1723	69.7227792695	40.2498480913	121.492285486	1691.47330445
1724	69.7680517385	39.3818575172	112.362242286	1822.66330079
1725	66.5592662166	36.1630591385	94.3930582813	1924.44064982
1726	61.5459359657	35.8158629089	89.8936089425	1930.13075712
1727	61.0908285142	36.9731836743	89.019312127	2115.67842475
1728	53.7741621214	36.9731836743	89.1854285219	2256.05848418
1729	45.0341928436	36.6396502592	83.3610220999	2270.13372032
1730	43.7006406428	35.4630408144	83.0391219087	2281.31468591
1731	39.3759284729	34.3250087284	86.4727239479	2338.12685104
1732	37.7818610119	33.5333691771	84.5015820365	2485.77037055
1733	47.2811369627	31.7949769441	92.7422269305	2767.62119915
1734	84.0328507416	31.5402056367	100.405041111	2901.97377745
1735	137.635454033	37.8934144217	114.571828784	2891.92400646
1736	178.02723317	37.5196962579	126.83741829	2729.42254353
1737	220.742999049	37.1596409087	142.713853645	2554.50254842
1738	221.059906332	36.8092298991	144.955232754	2590.01570837
1739	218.184707424	33.0286487322	150.319441125	2684.26049208
1740	219.566709109	32.0200115374	148.888773609	2754.8787881
1741	226.533903811	32.0200115374	147.517717239	2799.80269332
1742	244.446710711	33.3533415025	148.585948984	2813.13888232
1743	262.688338701	37.2343845414	151.591145584	2775.37920958
1744	285.944091196	36.9772021491	158.552932681	2747.65898816
1745	296.279716442	35.5434103119	166.215746862	2753.66027321
1746	305.906073008	29.6917071919	176.611135999	2755.59084533
1747	306.340529859	26.3740543312	190.279574487	2747.98921761
1748	305.508946087	25.1725303421	206.830013205	2760.77290734
1749	304.901341897	24.9145442548	219.026453781	2768.35548337
1750	304.555841476	25.3364841172	219.133753845	2781.79328143
1751	304.593171407	25.2553109246	212.238731232	2801.18394147
1752	308.253093111	25.2561146196	200.293452286	2806.2866214
1753	308.20543788	25.0117913469	191.680833837	2800.23135654
1754	309.45400492	25.4682900933	190.152404041	2782.59980334
1755	309.45400492	25.6732323121	185.38351232	2797.00288745
1756	309.909112371	25.7383316052	180.843527401	2814.09146725
1757	304.933112051	26.0397172212	175.025479501	2821.38271105
1758	305.852063746	29.8170836082	172.414511284	2822.9663835
1759	309.797916834	30.2679564897	167.38809941	2826.463164
1760	319.72211859	30.6408709586	164.734211167	2827.77138064
1761	349.412121459	31.7210370063	156.260685394	2827.77138064
1762	366.301135156	31.7210370063	159.681570389	2831.0792318
1763	386.087586869	31.7660439249	156.925150974	2829.43840426
1764	403.573085202	31.662367273	155.8346644	2828.60648009
1765	417.403427353	32.0264410971	160.337293	2826.55445339
1766	422.19674929	32.0264410971	165.658581346	2809.55081242
1767	421.565317485	34.4817292487	162.546879498	2827.28873761
1768	420.481160991	36.745737996	169.515025118	2875.48953498
1769	425.879704355	35.5233179376	177.549018037	2925.32877843
1770	432.868343911	31.5402056367	184.559288867	2964.65148428
1771	450.866930226	31.9516974644	191.252428398	2974.34244828
1772	477.013766705	32.2289722311	218.002731692	2969.28660377
1773	500.936692428	32.2611200302	222.23750754	2924.75325837
1774	526.205878412	33.6619603732	229.383691784	2754.06670945
1775	546.955760035	33.7077709869	235.409186474	2607.082855
1776	579.341460445	34.2663389952	237.386686908	2606.67641877
1777	604.110266509	33.9962974833	237.013918538	2499.92895787
1778	607.007704524	34.9776090489	236.619690156	2453.93815753
1779	607.007704524	35.9163247808	235.590404359	2483.26269073
1780	607.48028556	37.3951235366	232.423065441	2461.18177209
1781	613.263247784	39.0989568856	235.409186474	2365.3326766
1782	620.335283994	43.6856441135	239.474666666	2133.01626427
1783	613.345850184	44.7658101612	238.213294806	1686.78102986
1784	581.790939293	45.9914449995	237.875498309	1320.47402151
1785	524.50617519	37.6458763691	242.351898005	1085.98571555
1786	477.306052119	39.221118522	239.497716309	1016.04613629
1787	422.432642681	40.8992336318	228.840038128	1017.2884658
1788	412.494938609	43.5602676972	227.145491937	986.798603702
1789	411.979467865	45.5928122914	229.470326651	941.388880167
1790	414.426563953	48.2988532755	233.386381569	875.739902188
1791	410.51883505	49.6434349703	238.202962207	808.982750408
1792	399.427080146	51.1800997643	237.243620156	765.401989936
1793	386.360015937	44.0111405788	233.755175862	751.74906645
1794	368.060407416	41.6707808088	224.21739242	752.326967973
1795	360.24494961	43.2138751626	208.894148505	732.036908999
1796	355.746295849	43.3223739844	189.035688563	707.936510312
1797	361.779448033	44.0071221039	164.533917715	708.338977444
1798	371.73065442	45.1877500236	134.272915299	700.070540266
1799	397.420000687	44.5898009615	104.171670755	700.658761459
1800	404.183072152	46.3257821096	86.4925943301	717.475060728
1801	413.972250755	46.2679160713	73.7119645176	738.800261991
1802	418.76318993	45.5695051372	67.9567070255	754.209117027
1803	428.59922951	43.4067619568	63.7513393428	770.695980675
1804	435.851561342	44.0071221039	62.3333888711	815.431750373
1805	440.770375386	45.6892556886	61.7380722212	824.983001921
1806	442.148405801	45.5542349326	59.3925723098	817.714778918
1807	451.740609452	46.5532277878	57.2712103092	816.114436238
1808	452.14965018	35.5201031577	64.1487469863	825.622027644
1809	452.795378554	36.4073824112	77.4022918945	826.792913285
1810	448.359470846	37.0631975116	77.3005555377	830.940626828
1811	422.623263603	38.787123235	77.1614628625	849.470785146
1812	407.385503643	37.5976546706	77.6343779582	865.779832941
1813	387.306766516	44.740895617	72.662808339	868.669340557
1814	370.313705566	44.3036855501	73.380526543	872.066893468
1815	349.250093675	45.3283966444	82.7633210042	875.346167084
1816	341.072456118	43.0531361675	83.2720027878	878.203921869
1817	341.827791521	46.042881478	83.6344385586	856.644543478
1818	342.402831303	47.0330336884	87.2905888781	801.69944481
1819	339.149567566	49.4786775003	87.525854203	720.951201895
1820	333.428557142	53.1893372043	87.6013616552	675.036608349
1821	317.073282027	52.7392680178	87.5282386489	693.990666961
1822	314.683372216	52.5102149497	81.2309171311	749.808174659
1823	330.194355497	51.8134114055	82.2164880868	808.916069463
1824	406.816817893	53.703701989	81.8659745453	810.904590501
1825	490.051443523	49.4280447168	82.8745951443	842.600266351
1826	523.527654457	48.3028717504	82.6011786857	939.642474465
1827	519.004378827	55.307073466	80.8199976278	962.479110481
1828	527.880959765	54.6512583656	76.1560215246	921.363163511
1829	521.249734438	53.7639791121	68.8341831022	892.988833778
1830	512.326292523	53.1893372043	70.787044262	897.580293133
1831	520.582561211	52.900007013	98.2940117091	898.437619568
1832	541.932104485	53.2978360261	117.438727523	897.744614033
1833	604.243701154	51.963702366	123.772610544	893.398445297
1834	729.588871236	55.8576045245	123.98244178	880.983088398
1835	876.900719826	56.0979093223	123.336256952	855.179944151
1836	935.66994436	55.6960618343	126.474187704	817.632221558
1837	939.392612118	55.5586299934	127.00273987	800.968335878
1838	920.619628308	55.6486438307	126.462265475	797.066706775
1839	910.656508113	54.9928287303	124.872634901	800.032421186
1840	898.689485475	54.6263438213	124.459330952	824.005808549
1841	908.963953176	56.0368285041	123.880705423	843.209126884
1842	983.801727188	55.3135030257	124.05159071	843.209126884
1843	1157.56540573	53.6418174757	123.772610544	836.245731058
1844	1289.51956204	52.5102149495	123.772610544	851.788741806
1845	1411.4081394	51.7169680083	117.096162135	871.758891008
1846	1506.2873206	48.4378925063	118.603131919	888.556138578
1847	1617.41852393	36.3463015929	120.803180633	896.299860225
1848	1734.21831692	35.9605280045	122.233848149	907.654672571
1849	1843.24395331	35.9605280045	122.907056697	939.506731113
1850	1942.51932954	36.1373408992	123.387919945	965.779023437
1851	1997.25374455	34.7590040154	123.638286761	971.173035594
1852	2113.64926234	32.8711245169	124.185119678	956.931890915
1853	2224.48579749	28.6187743991	124.198631538	923.046063551
1854	2310.57100016	27.3971580356	126.229384596	869.968031343
1855	2380.15955053	26.8787747761	126.233358672	831.466930001
1856	2432.06006784	26.8787747761	125.402776698	818.349835537
1857	2460.55154166	25.9826548779	123.037406404	809.776571182
1858	2477.81464892	25.0463502309	114.18634337	787.550383341
1859	2498.98071955	24.4291124894	96.1058852244	772.72181129
1860	2524.71454404	23.8287523423	94.3795464214	757.804331312
1861	2542.67738893	23.5008447921	94.5520213386	721.030583973
1862	2549.26016477	17.6499453671	94.7745696189	678.974753207
1863	2551.50949165	16.8205321519	95.0797786891	659.554721801
1864	2548.2117497	17.3348969365	94.1260003448	659.585680811
1865	2548.59299154	17.2794419832	88.0846093496	659.518999866
1866	2548.85986083	17.2223796399	99.9877630854	659.681733125
1867	2549.32370508	17.2794419832	140.682305772	659.60552633
1868	2549.40869024	16.9226014138	209.001448568	659.046676506
1869	2549.63425833	16.8526799509	320.469523657	655.041850703
1870	2551.01943703	16.4283290036	476.583963038	629.579255568
1871	2551.80733684	16.415469884	503.595760562	572.510686331
1872	2534.88019896	19.6776677914	548.759549606	489.80726285
1873	2497.264337	19.7717001036	737.00757622	398.256706848
1874	2400.051638	19.6390904326	927.966717777	385.181684886
1875	2274.12745687	19.5852428692	989.850241196	377.744378057
1876	2169.28594972	19.6390904326	1031.6893179	319.239787041
1877	2104.83701597	16.6397007823	1039.97129318	281.686507703
1878	2058.71866663	19.3401159015	1036.69029568	267.536652413
1879	2044.94074523	23.9991356771	1036.06159679	265.850577089
1880	2021.55155809	23.9991356771	1035.67929064	262.97773971
1881	1951.79939143	23.9991356771	1015.77711585	266.584067484
1882	1843.97466685	23.9991356771	1004.1227393	266.470551114
1883	1679.80636897	23.9854728625	1004.95173165	252.908123196
1884	1440.55804965	21.2368360448	1006.3482221	219.986788072
1885	1129.67438782	23.635865548	1002.92097859	178.642220719
1886	934.109235561	24.7224611555	997.114852917	149.019210909
1887	837.452514254	24.7538052596	995.032436866	149.019210909
1888	776.720688476	25.175745122	993.732913872	150.203591504
1889	718.498704839	25.175745122	993.599384904	150.051177915
1890	713.167673051	25.175745122	994.572238815	146.778254865
1891	765.660703726	23.4590526533	994.362407579	145.292222377
1892	825.055800287	22.5163184465	992.74336884	146.856843122
1893	818.320527707	23.7218609105	992.264095222	148.542918445
1894	817.925783547	25.3517543217	992.016112852	143.256072093
1895	804.201077157	25.3654171363	992.016112852	132.602997311
1896	794.588222907	25.3654171363	990.578291998	123.102550292
1897	766.948189204	25.2561146196	985.411992634	117.994313613
1898	720.646367228	25.0439391459	990.121273208	114.027591208
1899	670.309735735	22.6392837778	989.886007883	99.9968090336
1900	623.537715485	23.468696993	989.59987438	83.7290399196
1901	603.315218413	29.0045479875	989.516418775	72.2376904005
1902	535.51850471	29.0262477518	989.657101081	65.1218809857
1903	468.292065266	29.1130468092	989.485420979	58.1203817623
1904	416.128649936	28.6284187387	988.862285794	50.8688289952
1905	373.655925733	28.7047697615	989.227106011	42.1113982204
1906	345.520277633	27.4992272975	1000.26629553	36.2807846381
1907	333.206166066	27.5860263549	1001.24550796	35.6592229723
1908	331.93774268	31.9267829201	1001.24550796	36.4713016237
1909	323.014300765	33.1926025072	1003.38197145	38.2335837412
1910	303.221495021	33.199835762	1005.31734668	41.116740791
1911	289.99478579	33.199835762	1004.56704105	43.2957788146
1912	284.902030155	32.9426533697	1012.91260156	44.0570529365
1913	285.057703908	33.0390967668	1020.02540356	45.6573956162
1914	286.277677809	32.8076326138	1037.25064046	48.2079417618
1915	285.995717695	33.6073091148	1047.66589998	46.9021065892
1916	285.43020896	33.6073091148	1043.03610093	44.3618801136
1917	286.690689807	33.6941081722	1006.95466617	43.2640259837
1918	286.745493322	33.6949118672	935.701065333	46.1598841659
1919	290.153636558	33.7720665849	824.223452461	53.6027477395
1920	291.351371352	33.6820527476	641.327711989	56.0604168546
1921	292.383901347	33.6073091148	599.945654079	55.6666817509
1922	293.410077311	30.6055083796	572.476837766	60.1843157736
1923	294.909628564	35.94204302	411.415468039	82.612134091
1924	284.677256317	37.513266698	232.194158638	111.134908308
1925	298.058845048	37.513266698	171.855756137	149.952744139
1926	297.925410402	37.7061534923	127.300795603	182.595448171
1927	299.700567739	37.3083244792	115.426255217	203.971453964
1928	299.917399038	34.3828747667	115.884068822	211.95014656
1929	299.402722549	30.1514207183	117.995098224	212.550275065
1930	288.777988904	31.3609816571	120.294498849	208.728028039
1931	276.337590976	31.4445659346	120.878688085	195.69666622
1932	270.964463735	31.4437622396	119.779458543	186.221621465
1933	267.966155481	31.5241317372	117.496749039	185.142025213
1934	254.177908783	31.5241317372	115.086074274	184.595876521
1935	237.123690287	28.5512640211	121.416778034	183.607569658
1936	229.224835828	27.2452596852	121.785572327	182.995533841
1937	229.162089774	27.5956706947	121.734704149	182.658953833
1938	229.206567989	32.1477990386	124.566631016	182.563695341
1939	233.78782415	32.1068105948	126.764295284	178.2326092
1940	233.78782415	32.1068105948	125.688910201	190.22803491
1941	220.894701532	32.0642147611	124.348056812	226.319096383
1942	194.817759391	31.9460715996	124.348056812	249.278774619
1943	173.535727693	30.527549967	124.964833475	260.729639279
1944	155.140808712	28.4741093034	130.477672304	262.735624374
1945	146.334122111	28.6669960977	132.754023286	260.154119218
1946	141.380360898	33.2729720049	134.171973757	260.154119218
1947	139.80138426	33.205461627	142.221068167	263.786643078
1948	140.494767864	33.1291106042	145.232623289	275.932894735
1949	136.936510652	33.0511521916	146.2054772	275.113671697
1950	134.725307956	30.7622289	146.322315047	278.492172909
1951	134.725307956	26.4415647092	150.19544994	276.786252067
1952	130.229036956	26.4327240645	151.30183282	279.901204783
1953	130.054301111	27.551467471	153.021018285	292.67298721
1954	118.938718591	27.551467471	155.624833165	306.379890508
1955	110.334566721	27.5313750966	156.352883967	321.811766347
1956	97.4581234335	27.4895829579	164.629295549	327.946413286
1957	81.7295145996	27.4710979734	195.034954348	325.072782085
1958	65.3742394844	23.6254175135	202.757379675	334.77406576
1959	53.4922020075	22.4463969837	201.426064069	368.015310656
1960	53.8377024288	24.7538052597	200.980172693	418.426105065
1961	48.9744861539	25.57759261	201.089062388	472.409886775
1962	48.8537595699	25.5703593553	189.687437098	526.76676425
1963	49.4192683055	25.377472561	180.601903554	549.02311728
1964	49.4025889748	24.8992740503	156.422827713	553.125583038
1965	49.250886491	24.676650542	142.431694218	572.367798591
1966	48.938744731	24.6163734188	140.117192103	595.147279511
1967	48.8950607697	24.4837637478	137.696979555	624.086809635
1968	49.8028929112	31.0780810255	142.936401925	640.092617894
1969	49.1516047607	31.0780810255	138.680166064	637.486504294
1970	53.7940184674	31.0073558676	138.730239427	626.690541772
1971	53.2436005549	31.3352634178	136.041379312	631.948016756
1972	52.9775255178	31.363392742	136.041379312	632.357628275
1973	52.6788860732	27.9372410594	138.36223995	627.978912888
1974	52.8186747494	25.3292508624	140.224492167	641.673908875
1975	44.5449324769	25.1628860024	140.682305772	675.458921001
1976	58.2791699135	30.2993005938	141.114685288	716.046183336
1977	106.744539355	30.2993005938	139.974125351	732.286962543
1978	196.41976939	30.460843284	140.698996893	736.237808534
1979	247.263929088	30.8144690734	142.650268422	737.920708574
1980	280.956177067	28.2611301347	142.271936346	742.531219627
1981	290.715968278	28.5311716466	145.145988423	750.882214166
1982	289.505525423	28.9940999528	148.134493901	756.178586367
1983	292.111472279	30.0614068809	155.250475165	763.932627684
1984	301.883177297	30.2036608916	167.225957092	767.069807382
1985	349.717114934	29.9979149778	187.818031543	770.308596138
1986	365.909568012	29.656344613	219.900750597	776.845710209
1987	392.21525526	29.7439473654	254.484753358	794.240704821
1988	415.525017017	26.846626977	281.292283353	802.10905633
1989	419.998254655	26.91494105	287.751747189	822.684890782
1990	418.737773808	27.0652320105	287.485484068	820.195468836
1991	419.462133312	33.0808889056	293.913950108	795.729118772
1992	419.938685617	33.4144223206	295.529014771	782.072226182
1993	425.00840789	33.0768704307	299.096145778	771.898619147
1994	434.056547659	33.1636694881	312.862346546	762.941145538
1995	464.22230858	32.5464317465	333.285920157	762.941145538
1996	488.5685716	30.3322520878	361.822968216	761.46543272
1997	504.163745788	30.8144690733	353.906607959	758.143292782
1998	507.747419123	30.5693421057	345.744649779	750.179682781
