	Time	Channel 1	Channel 2	Channel 3	Channel 4
0	0.0	-0.81935483871	4.92258064516	-0.830769230769	-1.68275862069
1	0.0005	0.629032258065	0.577419354839	0.607692307692	-1.68275862069
2	0.001	-0.81935483871	-2.31935483871	3.48461538462	1.22068965517
3	0.0015	-0.81935483871	3.47419354839	2.04615384615	-10.3931034483
4	0.002	-0.81935483871	-2.31935483871	-3.70769230769	-3.13448275862
5	0.0025	-8.06129032258	-3.76774193548	3.48461538462	-0.231034482759
6	0.003	-6.61290322581	0.577419354839	4.92307692308	-0.231034482759
7	0.0035	-0.81935483871	2.02580645161	6.36153846154	-1.68275862069
8	0.004	-2.26774193548	-0.870967741935	9.23846153846	11.3827586207
9	0.0045	-0.81935483871	-2.31935483871	3.48461538462	-1.68275862069
10	0.005	-0.81935483871	-2.31935483871	2.04615384615	14.2862068966
11	0.0055	0.629032258065	-2.31935483871	-0.830769230769	-0.231034482759
12	0.006	0.629032258065	-2.31935483871	2.04615384615	-1.68275862069
13	0.0065	0.629032258065	-0.870967741935	0.607692307692	-1.68275862069
14	0.007	2.07741935484	15.0612903226	4.92307692308	-0.231034482759
15	0.0075	-8.06129032258	-3.76774193548	4.92307692308	-4.58620689655
16	0.008	20.9064516129	-2.31935483871	4.92307692308	-3.13448275862
17	0.0085	-3.71612903226	-2.31935483871	4.92307692308	-8.94137931034
18	0.009	0.629032258065	-2.31935483871	-5.14615384615	-7.48965517241
19	0.0095	-5.16451612903	0.577419354839	2.04615384615	-1.68275862069
20	0.01	-2.26774193548	0.577419354839	4.92307692308	-0.231034482759
21	0.0105	2.07741935484	3.47419354839	4.92307692308	-3.13448275862
22	0.011	4.97419354839	-5.21612903226	2.04615384615	-6.03793103448
23	0.0115	-8.06129032258	-2.31935483871	2.04615384615	-4.58620689655
24	0.012	2.07741935484	-0.870967741935	-2.26923076923	-11.8448275862
25	0.0125	0.629032258065	2.02580645161	-6.58461538462	-3.13448275862
26	0.013	2.07741935484	2.02580645161	-8.02307692308	-3.13448275862
27	0.0135	0.629032258065	17.9580645161	-0.830769230769	-3.13448275862
28	0.014	7.87096774194	-9.56129032258	3.48461538462	-1.68275862069
29	0.0145	19.4580645161	-2.31935483871	3.48461538462	-10.3931034483
30	0.015	0.629032258065	2.02580645161	2.04615384615	-7.48965517241
31	0.0155	0.629032258065	-0.870967741935	0.607692307692	1.22068965517
32	0.016	-0.81935483871	-0.870967741935	4.92307692308	1.22068965517
33	0.0165	0.629032258065	-5.21612903226	0.607692307692	-1.68275862069
34	0.017	-2.26774193548	0.577419354839	-0.830769230769	-1.68275862069
35	0.0175	-5.16451612903	-5.21612903226	3.48461538462	-0.231034482759
36	0.018	15.1129032258	-5.21612903226	2.04615384615	-1.68275862069
37	0.0185	0.629032258065	-2.31935483871	-0.830769230769	-1.68275862069
38	0.019	0.629032258065	-5.21612903226	2.04615384615	-1.68275862069
39	0.0195	0.629032258065	-5.21612903226	20.7461538462	-3.13448275862
40	0.02	-2.26774193548	-13.9064516129	0.607692307692	-1.68275862069
41	0.0205	3.52580645161	0.577419354839	0.607692307692	1.22068965517
42	0.021	-10.9580645161	-3.76774193548	0.607692307692	-1.68275862069
43	0.0215	4.97419354839	-2.31935483871	0.607692307692	-1.68275862069
44	0.022	2.07741935484	-2.31935483871	2.04615384615	14.2862068966
45	0.0225	0.629032258065	-2.31935483871	14.9923076923	-0.231034482759
46	0.023	-0.81935483871	-2.31935483871	3.48461538462	1.22068965517
47	0.0235	0.629032258065	-8.11290322581	4.92307692308	-1.68275862069
48	0.024	-5.16451612903	0.577419354839	3.48461538462	-3.13448275862
49	0.0245	-2.26774193548	-2.31935483871	0.607692307692	1.22068965517
50	0.025	2.07741935484	-2.31935483871	2.04615384615	-1.68275862069
51	0.0255	3.52580645161	-0.870967741935	3.48461538462	-1.68275862069
52	0.026	2.07741935484	-2.31935483871	-3.70769230769	-1.68275862069
53	0.0265	-0.81935483871	-6.66451612903	-6.58461538462	-1.68275862069
54	0.027	3.52580645161	-6.66451612903	-0.830769230769	-0.231034482759
55	0.0275	-5.16451612903	-9.56129032258	-0.830769230769	-1.68275862069
56	0.028	9.31935483871	-5.21612903226	-0.830769230769	-0.231034482759
57	0.0285	-0.81935483871	-2.31935483871	-0.830769230769	14.2862068966
58	0.029	3.52580645161	-0.870967741935	17.8692307692	-0.231034482759
59	0.0295	0.629032258065	-0.870967741935	20.7461538462	-4.58620689655
60	0.03	2.07741935484	17.9580645161	3.48461538462	-0.231034482759
61	0.0305	-3.71612903226	-0.870967741935	3.48461538462	-1.68275862069
62	0.031	19.4580645161	0.577419354839	3.48461538462	-3.13448275862
63	0.0315	-2.26774193548	0.577419354839	3.48461538462	-11.8448275862
64	0.032	-0.81935483871	0.577419354839	3.48461538462	7.0275862069
65	0.0325	0.629032258065	3.47419354839	-0.830769230769	-1.68275862069
66	0.033	-2.26774193548	-6.66451612903	-3.70769230769	-0.231034482759
67	0.0335	0.629032258065	2.02580645161	2.04615384615	-0.231034482759
68	0.034	-3.71612903226	0.577419354839	-0.830769230769	-0.231034482759
69	0.0345	-12.4064516129	0.577419354839	-0.830769230769	-3.13448275862
70	0.035	-3.71612903226	-0.870967741935	-2.26923076923	-13.2965517241
71	0.0355	-0.81935483871	-2.31935483871	-9.46153846154	-1.68275862069
72	0.036	-0.81935483871	0.577419354839	-0.830769230769	-1.68275862069
73	0.0365	-0.81935483871	9.26774193548	0.607692307692	-0.231034482759
74	0.037	-2.26774193548	-6.66451612903	0.607692307692	-0.231034482759
75	0.0375	12.2161290323	-0.870967741935	0.607692307692	2.6724137931
76	0.038	-8.06129032258	0.577419354839	0.607692307692	-0.231034482759
77	0.0385	0.629032258065	-2.31935483871	3.48461538462	-13.2965517241
78	0.039	-2.26774193548	0.577419354839	-9.46153846154	-3.13448275862
79	0.0395	-2.26774193548	2.02580645161	-2.26923076923	-0.231034482759
80	0.04	6.42258064516	-11.0096774194	-0.830769230769	-1.68275862069
81	0.0405	0.629032258065	-2.31935483871	-0.830769230769	-1.68275862069
82	0.041	-5.16451612903	-3.76774193548	-0.830769230769	-1.68275862069
83	0.0415	0.629032258065	-2.31935483871	-2.26923076923	-4.58620689655
84	0.042	0.629032258065	-0.870967741935	-2.26923076923	7.0275862069
85	0.0425	2.07741935484	-0.870967741935	-6.58461538462	-1.68275862069
86	0.043	-0.81935483871	0.577419354839	-0.830769230769	-1.68275862069
87	0.0435	2.07741935484	7.81935483871	-0.830769230769	-0.231034482759
88	0.044	2.07741935484	-3.76774193548	2.04615384615	-3.13448275862
89	0.0445	15.1129032258	-5.21612903226	2.04615384615	-3.13448275862
90	0.045	-0.81935483871	-3.76774193548	-0.830769230769	-10.3931034483
91	0.0455	2.07741935484	-0.870967741935	-0.830769230769	8.47931034483
92	0.046	-0.81935483871	-3.76774193548	14.9923076923	-1.68275862069
93	0.0465	-0.81935483871	-12.4580645161	0.607692307692	-3.13448275862
94	0.047	-0.81935483871	9.26774193548	2.04615384615	-1.68275862069
95	0.0475	-8.06129032258	-0.870967741935	2.04615384615	-3.13448275862
96	0.048	7.87096774194	-0.870967741935	3.48461538462	-3.13448275862
97	0.0485	-0.81935483871	-2.31935483871	-0.830769230769	-1.68275862069
98	0.049	0.629032258065	-2.31935483871	2.04615384615	-10.3931034483
99	0.0495	-0.81935483871	-2.31935483871	-6.58461538462	-1.68275862069
100	0.05	0.629032258065	17.9580645161	-0.830769230769	-0.231034482759
101	0.0505	-2.26774193548	-12.4580645161	0.607692307692	-1.68275862069
102	0.051	18.0096774194	-5.21612903226	-0.830769230769	-3.13448275862
103	0.0515	-8.06129032258	-5.21612903226	2.04615384615	11.3827586207
104	0.052	-2.26774193548	-3.76774193548	12.1153846154	-4.58620689655
105	0.0525	-2.26774193548	-5.21612903226	-0.830769230769	-1.68275862069
106	0.053	-0.81935483871	-11.0096774194	2.04615384615	-1.68275862069
107	0.0535	2.07741935484	17.9580645161	0.607692307692	-1.68275862069
108	0.054	-12.4064516129	-0.870967741935	0.607692307692	-3.13448275862
109	0.0545	16.5612903226	-0.870967741935	0.607692307692	-1.68275862069
110	0.055	0.629032258065	-0.870967741935	2.04615384615	5.57586206897
111	0.0555	0.629032258065	2.02580645161	13.5538461538	1.22068965517
112	0.056	0.629032258065	0.577419354839	-0.830769230769	2.6724137931
113	0.0565	0.629032258065	-5.21612903226	-2.26923076923	1.22068965517
114	0.057	0.629032258065	-5.21612903226	-0.830769230769	-0.231034482759
115	0.0575	-0.81935483871	-2.31935483871	-0.830769230769	-1.68275862069
116	0.058	0.629032258065	-0.870967741935	0.607692307692	-10.3931034483
117	0.0585	0.629032258065	-0.870967741935	-0.830769230769	18.6413793103
118	0.059	0.629032258065	0.577419354839	20.7461538462	-1.68275862069
119	0.0595	0.629032258065	2.02580645161	-0.830769230769	-1.68275862069
120	0.06	-0.81935483871	-6.66451612903	2.04615384615	-0.231034482759
121	0.0605	2.07741935484	0.577419354839	0.607692307692	-1.68275862069
122	0.061	12.2161290323	-3.76774193548	0.607692307692	1.22068965517
123	0.0615	-2.26774193548	-0.870967741935	-0.830769230769	-4.58620689655
124	0.062	-3.71612903226	-0.870967741935	4.92307692308	-3.13448275862
125	0.0625	-3.71612903226	0.577419354839	-3.70769230769	-1.68275862069
126	0.063	-2.26774193548	0.577419354839	-9.46153846154	-1.68275862069
127	0.0635	-3.71612903226	0.577419354839	0.607692307692	-1.68275862069
128	0.064	-10.9580645161	-2.31935483871	2.04615384615	-3.13448275862
129	0.0645	22.3548387097	0.577419354839	-0.830769230769	-3.13448275862
130	0.065	2.07741935484	-3.76774193548	-12.3384615385	-1.68275862069
131	0.0655	2.07741935484	-0.870967741935	-6.58461538462	-7.48965517241
132	0.066	-0.81935483871	2.02580645161	-5.14615384615	-0.231034482759
133	0.0665	0.629032258065	-3.76774193548	-2.26923076923	-0.231034482759
134	0.067	0.629032258065	-0.870967741935	0.607692307692	-1.68275862069
135	0.0675	-8.06129032258	0.577419354839	-0.830769230769	-1.68275862069
136	0.068	-0.81935483871	-0.870967741935	-2.26923076923	-13.2965517241
137	0.0685	-0.81935483871	0.577419354839	-9.46153846154	-3.13448275862
138	0.069	-3.71612903226	-2.31935483871	-3.70769230769	-6.03793103448
139	0.0695	-0.81935483871	2.02580645161	0.607692307692	-1.68275862069
140	0.07	-0.81935483871	6.37096774194	-0.830769230769	-1.68275862069
141	0.0705	-0.81935483871	-2.31935483871	0.607692307692	-0.231034482759
142	0.071	-6.61290322581	-0.870967741935	3.48461538462	-13.2965517241
143	0.0715	0.629032258065	-3.76774193548	0.607692307692	-10.3931034483
144	0.072	0.629032258065	-2.31935483871	-10.9	-4.58620689655
145	0.0725	0.629032258065	0.577419354839	-8.02307692308	-4.58620689655
146	0.073	0.629032258065	6.37096774194	-0.830769230769	-1.68275862069
147	0.0735	0.629032258065	-8.11290322581	3.48461538462	-1.68275862069
148	0.074	-2.26774193548	-2.31935483871	-0.830769230769	-0.231034482759
149	0.0745	15.1129032258	-2.31935483871	-0.830769230769	-11.8448275862
150	0.075	0.629032258065	0.577419354839	-8.02307692308	-1.68275862069
151	0.0755	0.629032258065	0.577419354839	-9.46153846154	1.22068965517
152	0.076	0.629032258065	2.02580645161	-0.830769230769	-1.68275862069
153	0.0765	0.629032258065	-13.9064516129	-0.830769230769	-0.231034482759
154	0.077	3.52580645161	-0.870967741935	0.607692307692	-1.68275862069
155	0.0775	19.4580645161	-0.870967741935	3.48461538462	1.22068965517
156	0.078	-0.81935483871	-3.76774193548	6.36153846154	-3.13448275862
157	0.0785	-2.26774193548	-0.870967741935	6.36153846154	-4.58620689655
158	0.079	-0.81935483871	-5.21612903226	-2.26923076923	-3.13448275862
159	0.0795	0.629032258065	0.577419354839	0.607692307692	-3.13448275862
160	0.08	-5.16451612903	-5.21612903226	0.607692307692	1.22068965517
161	0.0805	-12.4064516129	-3.76774193548	0.607692307692	1.22068965517
162	0.081	-0.81935483871	-3.76774193548	0.607692307692	-1.68275862069
163	0.0815	0.629032258065	0.577419354839	0.607692307692	-1.68275862069
164	0.082	-2.26774193548	0.577419354839	3.48461538462	-8.94137931034
165	0.0825	-0.81935483871	-9.56129032258	0.607692307692	-3.13448275862
166	0.083	-0.81935483871	-0.870967741935	0.607692307692	-0.231034482759
167	0.0835	2.07741935484	-0.870967741935	-0.830769230769	-1.68275862069
168	0.084	3.52580645161	0.577419354839	-0.830769230769	-6.03793103448
169	0.0845	-6.61290322581	2.02580645161	-2.26923076923	-1.68275862069
170	0.085	-2.26774193548	-0.870967741935	-0.830769230769	-3.13448275862
171	0.0855	2.07741935484	-0.870967741935	-6.58461538462	-1.68275862069
172	0.086	2.07741935484	-0.870967741935	-10.9	-3.13448275862
173	0.0865	0.629032258065	-11.0096774194	-0.830769230769	-1.68275862069
174	0.087	0.629032258065	-8.11290322581	-0.830769230769	2.6724137931
175	0.0875	18.0096774194	0.577419354839	2.04615384615	-11.8448275862
176	0.088	-0.81935483871	0.577419354839	-2.26923076923	18.6413793103
177	0.0885	-0.81935483871	0.577419354839	16.4307692308	-1.68275862069
178	0.089	0.629032258065	0.577419354839	-0.830769230769	-1.68275862069
179	0.0895	0.629032258065	-12.4580645161	0.607692307692	-1.68275862069
180	0.09	2.07741935484	-2.31935483871	0.607692307692	-1.68275862069
181	0.0905	-12.4064516129	-2.31935483871	2.04615384615	-1.68275862069
182	0.091	-2.26774193548	-3.76774193548	-0.830769230769	-4.58620689655
183	0.0915	0.629032258065	-2.31935483871	-2.26923076923	14.2862068966
184	0.092	-0.81935483871	2.02580645161	-0.830769230769	-8.94137931034
185	0.0925	0.629032258065	2.02580645161	-10.9	-1.68275862069
186	0.093	-0.81935483871	15.0612903226	-2.26923076923	-0.231034482759
187	0.0935	-13.8548387097	-2.31935483871	0.607692307692	-3.13448275862
188	0.094	15.1129032258	-2.31935483871	2.04615384615	-3.13448275862
189	0.0945	-5.16451612903	-6.66451612903	3.48461538462	-4.58620689655
190	0.095	-2.26774193548	-0.870967741935	12.1153846154	-3.13448275862
191	0.0955	0.629032258065	-3.76774193548	2.04615384615	-1.68275862069
192	0.096	0.629032258065	-9.56129032258	0.607692307692	-3.13448275862
193	0.0965	0.629032258065	16.5096774194	0.607692307692	-1.68275862069
194	0.097	-12.4064516129	-0.870967741935	-0.830769230769	1.22068965517
195	0.0975	12.2161290323	-0.870967741935	0.607692307692	-1.68275862069
196	0.098	-3.71612903226	0.577419354839	0.607692307692	1.22068965517
197	0.0985	0.629032258065	0.577419354839	-9.46153846154	-4.58620689655
198	0.099	0.629032258065	4.92258064516	-3.70769230769	-4.58620689655
199	0.0995	-0.81935483871	2.02580645161	-2.26923076923	-1.68275862069
200	0.1	2.07741935484	-0.870967741935	0.607692307692	-1.68275862069
201	0.1005	-9.50967741935	0.577419354839	3.48461538462	2.6724137931
202	0.101	-9.50967741935	-0.870967741935	-2.26923076923	12.8344827586
203	0.1015	0.629032258065	-0.870967741935	3.48461538462	14.2862068966
204	0.102	-0.81935483871	-5.21612903226	-5.14615384615	-4.58620689655
205	0.1025	0.629032258065	-8.11290322581	0.607692307692	-1.68275862069
206	0.103	0.629032258065	2.02580645161	-0.830769230769	-1.68275862069
207	0.1035	9.31935483871	2.02580645161	-0.830769230769	-1.68275862069
208	0.104	18.0096774194	0.577419354839	4.92307692308	-1.68275862069
209	0.1045	2.07741935484	-3.76774193548	2.04615384615	-11.8448275862
210	0.105	3.52580645161	-3.76774193548	0.607692307692	8.47931034483
211	0.1055	0.629032258065	0.577419354839	-2.26923076923	-3.13448275862
212	0.106	3.52580645161	-6.66451612903	-3.70769230769	-1.68275862069
213	0.1065	3.52580645161	-3.76774193548	2.04615384615	-0.231034482759
214	0.107	-0.81935483871	-3.76774193548	3.48461538462	-1.68275862069
215	0.1075	-8.06129032258	-2.31935483871	3.48461538462	15.7379310345
216	0.108	0.629032258065	-0.870967741935	4.92307692308	-1.68275862069
217	0.1085	-0.81935483871	0.577419354839	4.92307692308	-4.58620689655
218	0.109	0.629032258065	-11.0096774194	0.607692307692	-4.58620689655
219	0.1095	0.629032258065	4.92258064516	0.607692307692	-1.68275862069
220	0.11	0.629032258065	15.0612903226	0.607692307692	-1.68275862069
221	0.1105	-10.9580645161	-2.31935483871	3.48461538462	-1.68275862069
222	0.111	0.629032258065	0.577419354839	3.48461538462	-1.68275862069
223	0.1115	0.629032258065	0.577419354839	3.48461538462	11.3827586207
224	0.112	-2.26774193548	-0.870967741935	17.8692307692	-3.13448275862
225	0.1125	-0.81935483871	-11.0096774194	0.607692307692	-1.68275862069
226	0.113	0.629032258065	-8.11290322581	0.607692307692	-1.68275862069
227	0.1135	3.52580645161	-0.870967741935	-0.830769230769	-4.58620689655
228	0.114	10.7677419355	-0.870967741935	3.48461538462	-6.03793103448
229	0.1145	-6.61290322581	0.577419354839	0.607692307692	15.7379310345
230	0.115	0.629032258065	0.577419354839	19.3076923077	-3.13448275862
231	0.1155	-0.81935483871	-2.31935483871	16.4307692308	-4.58620689655
232	0.116	0.629032258065	-11.0096774194	-3.70769230769	-3.13448275862
233	0.1165	2.07741935484	-3.76774193548	-2.26923076923	-0.231034482759
234	0.117	-13.8548387097	-2.31935483871	0.607692307692	1.22068965517
235	0.1175	-2.26774193548	-0.870967741935	2.04615384615	2.6724137931
236	0.118	2.07741935484	-0.870967741935	4.92307692308	-0.231034482759
237	0.1185	2.07741935484	-2.31935483871	-3.70769230769	1.22068965517
238	0.119	0.629032258065	-5.21612903226	0.607692307692	-1.68275862069
239	0.1195	-0.81935483871	13.6129032258	3.48461538462	-1.68275862069
240	0.12	-9.50967741935	0.577419354839	0.607692307692	-1.68275862069
241	0.1205	16.5612903226	3.47419354839	0.607692307692	-10.3931034483
242	0.121	-3.71612903226	0.577419354839	-0.830769230769	-11.8448275862
243	0.1215	0.629032258065	0.577419354839	-0.830769230769	12.8344827586
244	0.122	0.629032258065	0.577419354839	-2.26923076923	-1.68275862069
245	0.1225	-0.81935483871	-9.56129032258	-2.26923076923	1.22068965517
246	0.123	3.52580645161	-6.66451612903	0.607692307692	-1.68275862069
247	0.1235	3.52580645161	-2.31935483871	-0.830769230769	-0.231034482759
248	0.124	12.2161290323	-0.870967741935	2.04615384615	-3.13448275862
249	0.1245	-3.71612903226	0.577419354839	-8.02307692308	-1.68275862069
250	0.125	2.07741935484	-2.31935483871	-10.9	-1.68275862069
251	0.1255	0.629032258065	-0.870967741935	-0.830769230769	-1.68275862069
252	0.126	-0.81935483871	17.9580645161	-2.26923076923	-3.13448275862
253	0.1265	-2.26774193548	-6.66451612903	0.607692307692	-0.231034482759
254	0.127	19.4580645161	0.577419354839	-2.26923076923	-11.8448275862
255	0.1275	-0.81935483871	-2.31935483871	-0.830769230769	-0.231034482759
256	0.128	2.07741935484	-2.31935483871	0.607692307692	-3.13448275862
257	0.1285	2.07741935484	-0.870967741935	9.23846153846	-1.68275862069
258	0.129	-0.81935483871	-9.56129032258	2.04615384615	-3.13448275862
259	0.1295	-2.26774193548	6.37096774194	2.04615384615	-1.68275862069
260	0.13	-6.61290322581	2.02580645161	2.04615384615	-1.68275862069
261	0.1305	3.52580645161	0.577419354839	3.48461538462	-1.68275862069
262	0.131	-2.26774193548	-2.31935483871	-0.830769230769	1.22068965517
263	0.1315	-0.81935483871	0.577419354839	2.04615384615	-10.3931034483
264	0.132	-0.81935483871	-3.76774193548	-6.58461538462	-1.68275862069
265	0.1325	0.629032258065	16.5096774194	-0.830769230769	-3.13448275862
266	0.133	0.629032258065	13.6129032258	-0.830769230769	-0.231034482759
267	0.1335	-15.3032258065	-2.31935483871	-2.26923076923	-0.231034482759
268	0.134	-2.26774193548	-3.76774193548	2.04615384615	1.22068965517
269	0.1345	-0.81935483871	-0.870967741935	0.607692307692	-1.68275862069
270	0.135	3.52580645161	-0.870967741935	13.5538461538	-1.68275862069
271	0.1355	-0.81935483871	-2.31935483871	16.4307692308	-1.68275862069
272	0.136	0.629032258065	-6.66451612903	6.36153846154	-1.68275862069
273	0.1365	2.07741935484	-0.870967741935	3.48461538462	-1.68275862069
274	0.137	-9.50967741935	-2.31935483871	2.04615384615	1.22068965517
275	0.1375	-3.71612903226	-0.870967741935	3.48461538462	1.22068965517
276	0.138	0.629032258065	-2.31935483871	10.6769230769	-3.13448275862
277	0.1385	0.629032258065	0.577419354839	4.92307692308	-1.68275862069
278	0.139	2.07741935484	-11.0096774194	2.04615384615	-3.13448275862
279	0.1395	2.07741935484	7.81935483871	2.04615384615	-4.58620689655
280	0.14	-6.61290322581	-6.66451612903	2.04615384615	-0.231034482759
281	0.1405	20.9064516129	-0.870967741935	2.04615384615	-1.68275862069
282	0.141	0.629032258065	-3.76774193548	2.04615384615	1.22068965517
283	0.1415	-0.81935483871	-3.76774193548	3.48461538462	-7.48965517241
284	0.142	0.629032258065	-5.21612903226	-5.14615384615	-1.68275862069
285	0.1425	3.52580645161	15.0612903226	2.04615384615	-1.68275862069
286	0.143	-3.71612903226	-3.76774193548	2.04615384615	1.22068965517
287	0.1435	-6.61290322581	-3.76774193548	-0.830769230769	-1.68275862069
288	0.144	12.2161290323	-5.21612903226	0.607692307692	-3.13448275862
289	0.1445	-0.81935483871	-0.870967741935	-8.02307692308	-3.13448275862
290	0.145	-0.81935483871	2.02580645161	16.4307692308	-4.58620689655
291	0.1455	2.07741935484	-5.21612903226	9.23846153846	-0.231034482759
292	0.146	3.52580645161	-2.31935483871	-0.830769230769	-0.231034482759
293	0.1465	3.52580645161	-2.31935483871	-0.830769230769	-1.68275862069
294	0.147	-3.71612903226	-0.870967741935	-2.26923076923	-0.231034482759
295	0.1475	-0.81935483871	-0.870967741935	-2.26923076923	15.7379310345
296	0.148	-0.81935483871	2.02580645161	-3.70769230769	14.2862068966
297	0.1485	-0.81935483871	2.02580645161	14.9923076923	-3.13448275862
298	0.149	0.629032258065	0.577419354839	-2.26923076923	-0.231034482759
299	0.1495	2.07741935484	3.47419354839	2.04615384615	-0.231034482759
300	0.15	2.07741935484	-8.11290322581	0.607692307692	-1.68275862069
301	0.1505	16.5612903226	-0.870967741935	-2.26923076923	-13.2965517241
302	0.151	-3.71612903226	2.02580645161	0.607692307692	-7.48965517241
303	0.1515	0.629032258065	0.577419354839	-0.830769230769	2.6724137931
304	0.152	-3.71612903226	2.02580645161	7.8	-3.13448275862
305	0.1525	-2.26774193548	-3.76774193548	2.04615384615	-3.13448275862
306	0.153	2.07741935484	-8.11290322581	2.04615384615	-0.231034482759
307	0.1535	2.07741935484	2.02580645161	0.607692307692	-1.68275862069
308	0.154	13.664516129	0.577419354839	0.607692307692	-4.58620689655
309	0.1545	-5.16451612903	0.577419354839	3.48461538462	14.2862068966
310	0.155	-2.26774193548	-0.870967741935	19.3076923077	-3.13448275862
311	0.1555	2.07741935484	-6.66451612903	0.607692307692	-3.13448275862
312	0.156	0.629032258065	-8.11290322581	-2.26923076923	1.22068965517
313	0.1565	0.629032258065	0.577419354839	2.04615384615	-1.68275862069
314	0.157	0.629032258065	-3.76774193548	-0.830769230769	-0.231034482759
315	0.1575	18.0096774194	-5.21612903226	-0.830769230769	-1.68275862069
316	0.158	0.629032258065	-2.31935483871	-2.26923076923	-8.94137931034
317	0.1585	2.07741935484	0.577419354839	-0.830769230769	-1.68275862069
318	0.159	-0.81935483871	-0.870967741935	9.23846153846	-0.231034482759
319	0.1595	-0.81935483871	-2.31935483871	2.04615384615	-1.68275862069
320	0.16	-0.81935483871	15.0612903226	3.48461538462	1.22068965517
321	0.1605	-10.9580645161	-0.870967741935	3.48461538462	-1.68275862069
322	0.161	-12.4064516129	-2.31935483871	0.607692307692	2.6724137931
323	0.1615	0.629032258065	-0.870967741935	16.4307692308	-3.13448275862
324	0.162	3.52580645161	-0.870967741935	-2.26923076923	-3.13448275862
325	0.1625	-0.81935483871	-5.21612903226	0.607692307692	-1.68275862069
326	0.163	2.07741935484	7.81935483871	0.607692307692	-3.13448275862
327	0.1635	-0.81935483871	-0.870967741935	2.04615384615	1.22068965517
328	0.164	-10.9580645161	2.02580645161	-0.830769230769	2.6724137931
329	0.1645	3.52580645161	0.577419354839	3.48461538462	4.12413793103
330	0.165	2.07741935484	-3.76774193548	7.8	-1.68275862069
331	0.1655	2.07741935484	-0.870967741935	-5.14615384615	-1.68275862069
332	0.166	4.97419354839	-9.56129032258	2.04615384615	-0.231034482759
333	0.1665	2.07741935484	-6.66451612903	0.607692307692	-3.13448275862
334	0.167	15.1129032258	-5.21612903226	0.607692307692	-0.231034482759
335	0.1675	4.97419354839	-2.31935483871	2.04615384615	-1.68275862069
336	0.168	-0.81935483871	-2.31935483871	-2.26923076923	-7.48965517241
337	0.1685	-0.81935483871	-2.31935483871	17.8692307692	-1.68275862069
338	0.169	-2.26774193548	-12.4580645161	0.607692307692	-0.231034482759
339	0.1695	-0.81935483871	3.47419354839	-0.830769230769	-0.231034482759
340	0.17	0.629032258065	-9.56129032258	-0.830769230769	-0.231034482759
341	0.1705	20.9064516129	-2.31935483871	-0.830769230769	-1.68275862069
342	0.171	-2.26774193548	-2.31935483871	0.607692307692	4.12413793103
343	0.1715	-0.81935483871	-5.21612903226	0.607692307692	-1.68275862069
344	0.172	-0.81935483871	-3.76774193548	3.48461538462	-0.231034482759
345	0.1725	0.629032258065	-3.76774193548	0.607692307692	-3.13448275862
346	0.173	2.07741935484	-6.66451612903	2.04615384615	1.22068965517
347	0.1735	4.97419354839	-5.21612903226	2.04615384615	-1.68275862069
348	0.174	10.7677419355	-0.870967741935	3.48461538462	-13.2965517241
349	0.1745	0.629032258065	0.577419354839	0.607692307692	-4.58620689655
350	0.175	-2.26774193548	0.577419354839	-3.70769230769	-0.231034482759
351	0.1755	2.07741935484	-0.870967741935	-2.26923076923	-1.68275862069
352	0.176	0.629032258065	3.47419354839	0.607692307692	-1.68275862069
353	0.1765	0.629032258065	-5.21612903226	2.04615384615	-0.231034482759
354	0.177	-5.16451612903	-2.31935483871	2.04615384615	-1.68275862069
355	0.1775	-5.16451612903	-2.31935483871	-0.830769230769	11.3827586207
356	0.178	0.629032258065	-0.870967741935	2.04615384615	-3.13448275862
357	0.1785	2.07741935484	-0.870967741935	2.04615384615	-8.94137931034
358	0.179	0.629032258065	-5.21612903226	-8.02307692308	-1.68275862069
359	0.1795	2.07741935484	15.0612903226	3.48461538462	-0.231034482759
360	0.18	-2.26774193548	-2.31935483871	-2.26923076923	-0.231034482759
361	0.1805	-9.50967741935	0.577419354839	0.607692307692	1.22068965517
362	0.181	0.629032258065	0.577419354839	4.92307692308	-7.48965517241
363	0.1815	3.52580645161	-0.870967741935	14.9923076923	-3.13448275862
364	0.182	3.52580645161	-0.870967741935	-5.14615384615	-1.68275862069
365	0.1825	0.629032258065	-9.56129032258	-3.70769230769	-1.68275862069
366	0.183	4.97419354839	-6.66451612903	-0.830769230769	1.22068965517
367	0.1835	-5.16451612903	-3.76774193548	0.607692307692	-1.68275862069
368	0.184	10.7677419355	-0.870967741935	0.607692307692	-3.13448275862
369	0.1845	-0.81935483871	-5.21612903226	2.04615384615	-4.58620689655
370	0.185	0.629032258065	-5.21612903226	0.607692307692	-1.68275862069
371	0.1855	-2.26774193548	-5.21612903226	17.8692307692	-1.68275862069
372	0.186	0.629032258065	-11.0096774194	-0.830769230769	-1.68275862069
373	0.1865	4.97419354839	-3.76774193548	0.607692307692	-1.68275862069
374	0.187	18.0096774194	-0.870967741935	0.607692307692	-8.94137931034
375	0.1875	-8.06129032258	-0.870967741935	2.04615384615	8.47931034483
376	0.188	-2.26774193548	-3.76774193548	2.04615384615	-1.68275862069
377	0.1885	-0.81935483871	-2.31935483871	17.8692307692	-0.231034482759
378	0.189	0.629032258065	-11.0096774194	0.607692307692	-1.68275862069
379	0.1895	2.07741935484	-8.11290322581	3.48461538462	-1.68275862069
380	0.19	3.52580645161	-5.21612903226	-0.830769230769	-3.13448275862
381	0.1905	-3.71612903226	0.577419354839	0.607692307692	-1.68275862069
382	0.191	-2.26774193548	-2.31935483871	2.04615384615	-8.94137931034
383	0.1915	0.629032258065	-0.870967741935	-5.14615384615	-3.13448275862
384	0.192	0.629032258065	-2.31935483871	-5.14615384615	-0.231034482759
385	0.1925	2.07741935484	17.9580645161	-0.830769230769	-1.68275862069
386	0.193	-3.71612903226	-5.21612903226	0.607692307692	-1.68275862069
387	0.1935	-13.8548387097	-0.870967741935	0.607692307692	-1.68275862069
388	0.194	-6.61290322581	-3.76774193548	3.48461538462	7.0275862069
389	0.1945	-0.81935483871	-5.21612903226	-2.26923076923	-0.231034482759
390	0.195	-0.81935483871	-3.76774193548	4.92307692308	-1.68275862069
391	0.1955	-2.26774193548	-3.76774193548	-0.830769230769	-1.68275862069
392	0.196	3.52580645161	-3.76774193548	2.04615384615	-0.231034482759
393	0.1965	3.52580645161	-6.66451612903	0.607692307692	-1.68275862069
394	0.197	7.87096774194	-0.870967741935	3.48461538462	-7.48965517241
395	0.1975	0.629032258065	-2.31935483871	0.607692307692	-13.2965517241
396	0.198	2.07741935484	-0.870967741935	-10.9	-6.03793103448
397	0.1985	0.629032258065	-0.870967741935	-6.58461538462	-6.03793103448
398	0.199	-2.26774193548	-6.66451612903	-3.70769230769	-1.68275862069
399	0.1995	-0.81935483871	-2.31935483871	-0.830769230769	-1.68275862069
400	0.2	-6.61290322581	0.577419354839	0.607692307692	-3.13448275862
401	0.2005	-9.50967741935	0.577419354839	-0.830769230769	-3.13448275862
402	0.201	-2.26774193548	0.577419354839	-3.70769230769	-11.8448275862
403	0.2015	0.629032258065	-2.31935483871	-0.830769230769	-1.68275862069
404	0.202	-5.16451612903	2.02580645161	4.92307692308	-1.68275862069
405	0.2025	-0.81935483871	0.577419354839	2.04615384615	-0.231034482759
406	0.203	-0.81935483871	13.6129032258	0.607692307692	-1.68275862069
407	0.2035	-6.61290322581	-0.870967741935	4.92307692308	1.22068965517
408	0.204	-9.50967741935	-2.31935483871	7.8	15.7379310345
409	0.2045	0.629032258065	-0.870967741935	6.36153846154	15.7379310345
410	0.205	2.07741935484	-5.21612903226	0.607692307692	-1.68275862069
411	0.2055	0.629032258065	-11.0096774194	0.607692307692	-4.58620689655
412	0.206	0.629032258065	-0.870967741935	-0.830769230769	-3.13448275862
413	0.2065	0.629032258065	-6.66451612903	-0.830769230769	-1.68275862069
414	0.207	12.2161290323	-0.870967741935	-0.830769230769	-8.94137931034
415	0.2075	0.629032258065	0.577419354839	-3.70769230769	-13.2965517241
416	0.208	0.629032258065	0.577419354839	-3.70769230769	-7.48965517241
417	0.2085	-0.81935483871	-2.31935483871	-10.9	1.22068965517
418	0.209	-0.81935483871	17.9580645161	3.48461538462	-1.68275862069
419	0.2095	-3.71612903226	-8.11290322581	3.48461538462	-1.68275862069
420	0.21	2.07741935484	-0.870967741935	2.04615384615	-1.68275862069
421	0.2105	-5.16451612903	-2.31935483871	3.48461538462	-7.48965517241
422	0.211	-2.26774193548	-2.31935483871	4.92307692308	-8.94137931034
423	0.2115	0.629032258065	-2.31935483871	-8.02307692308	-8.94137931034
424	0.212	-0.81935483871	0.577419354839	3.48461538462	-1.68275862069
425	0.2125	0.629032258065	2.02580645161	0.607692307692	-1.68275862069
426	0.213	-0.81935483871	-5.21612903226	-2.26923076923	-1.68275862069
427	0.2135	-9.50967741935	-0.870967741935	-0.830769230769	-1.68275862069
428	0.214	-3.71612903226	-0.870967741935	0.607692307692	-3.13448275862
429	0.2145	0.629032258065	-0.870967741935	-0.830769230769	-10.3931034483
430	0.215	0.629032258065	0.577419354839	-8.02307692308	-1.68275862069
431	0.2155	0.629032258065	0.577419354839	0.607692307692	-3.13448275862
432	0.216	0.629032258065	-13.9064516129	2.04615384615	-1.68275862069
433	0.2165	0.629032258065	-0.870967741935	0.607692307692	-1.68275862069
434	0.217	9.31935483871	-0.870967741935	0.607692307692	-6.03793103448
435	0.2175	-6.61290322581	0.577419354839	-0.830769230769	14.2862068966
436	0.218	-0.81935483871	0.577419354839	-8.02307692308	-1.68275862069
437	0.2185	-0.81935483871	-2.31935483871	-6.58461538462	-1.68275862069
438	0.219	-2.26774193548	15.0612903226	0.607692307692	-1.68275862069
439	0.2195	-5.16451612903	-5.21612903226	0.607692307692	-0.231034482759
440	0.22	-9.50967741935	-2.31935483871	2.04615384615	-1.68275862069
441	0.2205	4.97419354839	0.577419354839	2.04615384615	-6.03793103448
442	0.221	0.629032258065	0.577419354839	0.607692307692	-11.8448275862
443	0.2215	0.629032258065	3.47419354839	-6.58461538462	-3.13448275862
444	0.222	-0.81935483871	2.02580645161	-0.830769230769	-1.68275862069
445	0.2225	-3.71612903226	-11.0096774194	4.92307692308	4.12413793103
446	0.223	2.07741935484	-0.870967741935	2.04615384615	-1.68275862069
447	0.2235	-13.8548387097	-0.870967741935	3.48461538462	-0.231034482759
448	0.224	-9.50967741935	-0.870967741935	2.04615384615	11.3827586207
449	0.2245	-0.81935483871	-5.21612903226	4.92307692308	-4.58620689655
450	0.225	0.629032258065	-2.31935483871	-2.26923076923	1.22068965517
451	0.2255	2.07741935484	-5.21612903226	-2.26923076923	-0.231034482759
452	0.226	2.07741935484	-0.870967741935	4.92307692308	-1.68275862069
453	0.2265	2.07741935484	-6.66451612903	0.607692307692	-0.231034482759
454	0.227	-5.16451612903	-5.21612903226	2.04615384615	1.22068965517
455	0.2275	0.629032258065	-6.66451612903	3.48461538462	-6.03793103448
456	0.228	0.629032258065	-5.21612903226	-5.14615384615	8.47931034483
457	0.2285	0.629032258065	-2.31935483871	16.4307692308	-3.13448275862
458	0.229	0.629032258065	-5.21612903226	0.607692307692	-1.68275862069
459	0.2295	0.629032258065	10.7161290323	0.607692307692	-1.68275862069
460	0.23	-5.16451612903	-0.870967741935	2.04615384615	-1.68275862069
461	0.2305	-12.4064516129	-2.31935483871	0.607692307692	15.7379310345
462	0.231	0.629032258065	-0.870967741935	-8.02307692308	1.22068965517
463	0.2315	2.07741935484	0.577419354839	19.3076923077	-1.68275862069
464	0.232	0.629032258065	-11.0096774194	2.04615384615	-0.231034482759
465	0.2325	0.629032258065	-11.0096774194	0.607692307692	-3.13448275862
466	0.233	3.52580645161	0.577419354839	0.607692307692	-0.231034482759
467	0.2335	-5.16451612903	-2.31935483871	3.48461538462	11.3827586207
468	0.234	0.629032258065	-0.870967741935	2.04615384615	7.0275862069
469	0.2345	-0.81935483871	-0.870967741935	2.04615384615	4.12413793103
470	0.235	3.52580645161	-12.4580645161	-0.830769230769	-1.68275862069
471	0.2355	-0.81935483871	6.37096774194	-0.830769230769	-1.68275862069
472	0.236	-5.16451612903	-3.76774193548	2.04615384615	-1.68275862069
473	0.2365	-10.9580645161	0.577419354839	0.607692307692	-1.68275862069
474	0.237	-2.26774193548	-2.31935483871	4.92307692308	5.57586206897
475	0.2375	-3.71612903226	-0.870967741935	3.48461538462	8.47931034483
476	0.238	-2.26774193548	-0.870967741935	9.23846153846	-1.68275862069
477	0.2385	-0.81935483871	0.577419354839	7.8	1.22068965517
478	0.239	-0.81935483871	0.577419354839	0.607692307692	-1.68275862069
479	0.2395	2.07741935484	0.577419354839	0.607692307692	-1.68275862069
480	0.24	-3.71612903226	0.577419354839	0.607692307692	1.22068965517
481	0.2405	0.629032258065	-2.31935483871	4.92307692308	-3.13448275862
482	0.241	0.629032258065	-0.870967741935	4.92307692308	-4.58620689655
483	0.2415	0.629032258065	3.47419354839	-5.14615384615	-3.13448275862
484	0.242	0.629032258065	17.9580645161	2.04615384615	-1.68275862069
485	0.2425	-3.71612903226	-11.0096774194	2.04615384615	-1.68275862069
486	0.243	20.9064516129	-3.76774193548	0.607692307692	-13.2965517241
487	0.2435	-0.81935483871	-6.66451612903	2.04615384615	2.6724137931
488	0.244	-0.81935483871	-5.21612903226	4.92307692308	-0.231034482759
489	0.2445	-3.71612903226	-6.66451612903	2.04615384615	-1.68275862069
490	0.245	-2.26774193548	-8.11290322581	4.92307692308	-1.68275862069
491	0.2455	0.629032258065	9.26774193548	0.607692307692	-0.231034482759
492	0.246	-3.71612903226	-0.870967741935	0.607692307692	-3.13448275862
493	0.2465	-9.50967741935	-2.31935483871	2.04615384615	1.22068965517
494	0.247	0.629032258065	-2.31935483871	2.04615384615	-8.94137931034
495	0.2475	2.07741935484	-0.870967741935	-0.830769230769	-3.13448275862
496	0.248	0.629032258065	-3.76774193548	4.92307692308	1.22068965517
497	0.2485	0.629032258065	-0.870967741935	2.04615384615	-1.68275862069
498	0.249	3.52580645161	-0.870967741935	0.607692307692	-3.13448275862
499	0.2495	7.87096774194	0.577419354839	-2.26923076923	-0.231034482759
500	0.25	-2.26774193548	4.92258064516	3.48461538462	-6.03793103448
501	0.2505	0.629032258065	-0.870967741935	-6.58461538462	-1.68275862069
502	0.251	-2.26774193548	0.577419354839	3.48461538462	-1.68275862069
503	0.2515	0.629032258065	4.92258064516	0.607692307692	-1.68275862069
504	0.252	0.629032258065	-0.870967741935	0.607692307692	-0.231034482759
505	0.2525	-9.50967741935	-0.870967741935	3.48461538462	-0.231034482759
506	0.253	10.7677419355	-3.76774193548	3.48461538462	-1.68275862069
507	0.2535	2.07741935484	-2.31935483871	2.04615384615	11.3827586207
508	0.254	0.629032258065	-2.31935483871	16.4307692308	-1.68275862069
509	0.2545	0.629032258065	-2.31935483871	3.48461538462	-1.68275862069
510	0.255	-2.26774193548	-8.11290322581	0.607692307692	-3.13448275862
511	0.2555	-0.81935483871	2.02580645161	0.607692307692	-0.231034482759
512	0.256	-8.06129032258	-0.870967741935	-0.830769230769	-1.68275862069
513	0.2565	0.629032258065	0.577419354839	0.607692307692	-8.94137931034
514	0.257	-0.81935483871	-2.31935483871	2.04615384615	-8.94137931034
515	0.2575	-0.81935483871	-2.31935483871	-2.26923076923	-1.68275862069
516	0.258	-2.26774193548	0.577419354839	3.48461538462	-1.68275862069
517	0.2585	-3.71612903226	-0.870967741935	4.92307692308	1.22068965517
518	0.259	0.629032258065	4.92258064516	4.92307692308	-0.231034482759
519	0.2595	-5.16451612903	-0.870967741935	4.92307692308	-4.58620689655
520	0.26	-2.26774193548	-3.76774193548	4.92307692308	-6.03793103448
521	0.2605	-2.26774193548	-3.76774193548	13.5538461538	-1.68275862069
522	0.261	-2.26774193548	-5.21612903226	-6.58461538462	-1.68275862069
523	0.2615	-0.81935483871	10.7161290323	2.04615384615	-0.231034482759
524	0.262	-2.26774193548	0.577419354839	0.607692307692	-1.68275862069
525	0.2625	-9.50967741935	4.92258064516	0.607692307692	1.22068965517
526	0.263	-8.06129032258	0.577419354839	0.607692307692	1.22068965517
527	0.2635	-2.26774193548	-0.870967741935	19.3076923077	-1.68275862069
528	0.264	-2.26774193548	-3.76774193548	-9.46153846154	-0.231034482759
529	0.2645	0.629032258065	3.47419354839	-3.70769230769	-0.231034482759
530	0.265	-3.71612903226	-2.31935483871	-0.830769230769	-0.231034482759
531	0.2655	-12.4064516129	0.577419354839	-2.26923076923	1.22068965517
532	0.266	0.629032258065	3.47419354839	-2.26923076923	-1.68275862069
533	0.2665	0.629032258065	2.02580645161	-3.70769230769	-1.68275862069
534	0.267	-0.81935483871	2.02580645161	-3.70769230769	-8.94137931034
535	0.2675	0.629032258065	4.92258064516	-6.58461538462	-1.68275862069
536	0.268	2.07741935484	-5.21612903226	2.04615384615	-0.231034482759
537	0.2685	0.629032258065	-2.31935483871	3.48461538462	-0.231034482759
538	0.269	-0.81935483871	-2.31935483871	2.04615384615	-1.68275862069
539	0.2695	0.629032258065	-0.870967741935	0.607692307692	-7.48965517241
540	0.27	-0.81935483871	0.577419354839	2.04615384615	12.8344827586
541	0.2705	-2.26774193548	-0.870967741935	12.1153846154	-3.13448275862
542	0.271	-2.26774193548	0.577419354839	0.607692307692	-1.68275862069
543	0.2715	-0.81935483871	-6.66451612903	2.04615384615	-0.231034482759
544	0.272	-5.16451612903	0.577419354839	2.04615384615	-1.68275862069
545	0.2725	-5.16451612903	0.577419354839	0.607692307692	-1.68275862069
546	0.273	-0.81935483871	-0.870967741935	-0.830769230769	-7.48965517241
547	0.2735	-2.26774193548	-0.870967741935	2.04615384615	-0.231034482759
548	0.274	-2.26774193548	-2.31935483871	12.1153846154	-4.58620689655
549	0.2745	0.629032258065	-2.31935483871	2.04615384615	-0.231034482759
550	0.275	-2.26774193548	-0.870967741935	2.04615384615	-1.68275862069
551	0.2755	-8.06129032258	-0.870967741935	-0.830769230769	-0.231034482759
552	0.276	-8.06129032258	0.577419354839	4.92307692308	2.6724137931
553	0.2765	0.629032258065	0.577419354839	4.92307692308	-11.8448275862
554	0.277	0.629032258065	0.577419354839	-9.46153846154	-1.68275862069
555	0.2775	2.07741935484	-0.870967741935	2.04615384615	-3.13448275862
556	0.278	0.629032258065	-11.0096774194	4.92307692308	-1.68275862069
557	0.2785	-3.71612903226	-5.21612903226	0.607692307692	-1.68275862069
558	0.279	4.97419354839	-2.31935483871	2.04615384615	-4.58620689655
559	0.2795	-6.61290322581	-2.31935483871	2.04615384615	-3.13448275862
560	0.28	-0.81935483871	-3.76774193548	4.92307692308	-1.68275862069
561	0.2805	-0.81935483871	-2.31935483871	9.23846153846	-1.68275862069
562	0.281	-3.71612903226	-3.76774193548	4.92307692308	-0.231034482759
563	0.2815	0.629032258065	4.92258064516	0.607692307692	-1.68275862069
564	0.282	4.97419354839	-3.76774193548	2.04615384615	-0.231034482759
565	0.2825	9.31935483871	-2.31935483871	3.48461538462	-6.03793103448
566	0.283	-2.26774193548	0.577419354839	0.607692307692	-0.231034482759
567	0.2835	-0.81935483871	0.577419354839	-0.830769230769	-1.68275862069
568	0.284	-0.81935483871	-6.66451612903	0.607692307692	-1.68275862069
569	0.2845	-0.81935483871	15.0612903226	2.04615384615	-1.68275862069
570	0.285	-12.4064516129	3.47419354839	3.48461538462	-0.231034482759
571	0.2855	12.2161290323	-0.870967741935	3.48461538462	-7.48965517241
572	0.286	-5.16451612903	0.577419354839	4.92307692308	-1.68275862069
573	0.2865	-0.81935483871	0.577419354839	4.92307692308	-1.68275862069
574	0.287	-0.81935483871	-2.31935483871	0.607692307692	-1.68275862069
575	0.2875	-2.26774193548	10.7161290323	-0.830769230769	-1.68275862069
576	0.288	-2.26774193548	-2.31935483871	3.48461538462	2.6724137931
577	0.2885	-15.3032258065	0.577419354839	3.48461538462	4.12413793103
578	0.289	-10.9580645161	-2.31935483871	0.607692307692	5.57586206897
579	0.2895	-0.81935483871	-0.870967741935	-8.02307692308	8.47931034483
580	0.29	0.629032258065	0.577419354839	-6.58461538462	1.22068965517
581	0.2905	2.07741935484	0.577419354839	-0.830769230769	7.0275862069
582	0.291	0.629032258065	-6.66451612903	-0.830769230769	4.12413793103
583	0.2915	-2.26774193548	-2.31935483871	-0.830769230769	7.0275862069
584	0.292	-3.71612903226	-0.870967741935	-0.830769230769	4.12413793103
585	0.2925	0.629032258065	0.577419354839	-0.830769230769	-4.58620689655
586	0.293	-2.26774193548	0.577419354839	-2.26923076923	25.9
587	0.2935	-3.71612903226	2.02580645161	20.7461538462	4.12413793103
588	0.294	-3.71612903226	-11.0096774194	3.48461538462	7.0275862069
589	0.2945	-3.71612903226	-12.4580645161	2.04615384615	4.12413793103
590	0.295	2.07741935484	-0.870967741935	0.607692307692	4.12413793103
591	0.2955	10.7677419355	-2.31935483871	2.04615384615	-0.231034482759
592	0.296	-0.81935483871	-2.31935483871	-6.58461538462	-0.231034482759
593	0.2965	0.629032258065	-3.76774193548	-3.70769230769	2.6724137931
594	0.297	-2.26774193548	3.47419354839	-3.70769230769	4.12413793103
595	0.2975	-2.26774193548	-11.0096774194	-5.14615384615	7.0275862069
596	0.298	3.52580645161	0.577419354839	-2.26923076923	-1.68275862069
597	0.2985	12.2161290323	-3.76774193548	0.607692307692	1.22068965517
598	0.299	-0.81935483871	0.577419354839	2.04615384615	-0.231034482759
599	0.2995	-2.26774193548	2.02580645161	0.607692307692	2.6724137931
600	0.3	-0.81935483871	-0.870967741935	7.8	-3.13448275862
601	0.3005	-2.26774193548	-0.870967741935	16.4307692308	-3.13448275862
602	0.301	-2.26774193548	9.26774193548	2.04615384615	-1.68275862069
603	0.3015	-0.81935483871	16.5096774194	3.48461538462	2.6724137931
604	0.302	-10.9580645161	0.577419354839	3.48461538462	21.5448275862
605	0.3025	-2.26774193548	0.577419354839	4.92307692308	-1.68275862069
606	0.303	-2.26774193548	0.577419354839	-0.830769230769	-0.231034482759
607	0.3035	-3.71612903226	-0.870967741935	-8.02307692308	11.3827586207
608	0.304	-2.26774193548	4.92258064516	2.04615384615	5.57586206897
609	0.3045	-5.16451612903	-0.870967741935	2.04615384615	5.57586206897
610	0.305	-16.7516129032	-0.870967741935	3.48461538462	-6.03793103448
611	0.3055	-3.71612903226	0.577419354839	-0.830769230769	-1.68275862069
612	0.306	0.629032258065	-0.870967741935	-12.3384615385	2.6724137931
613	0.3065	2.07741935484	2.02580645161	-9.46153846154	-0.231034482759
614	0.307	-0.81935483871	-13.9064516129	-2.26923076923	7.0275862069
615	0.3075	0.629032258065	-3.76774193548	-0.830769230769	-0.231034482759
616	0.308	0.629032258065	-2.31935483871	-0.830769230769	5.57586206897
617	0.3085	-3.71612903226	-0.870967741935	0.607692307692	1.22068965517
618	0.309	-6.61290322581	-3.76774193548	0.607692307692	-1.68275862069
619	0.3095	0.629032258065	0.577419354839	6.36153846154	9.93103448276
620	0.31	-0.81935483871	0.577419354839	6.36153846154	1.22068965517
621	0.3105	0.629032258065	6.37096774194	2.04615384615	7.0275862069
622	0.311	-2.26774193548	2.02580645161	-0.830769230769	8.47931034483
623	0.3115	13.664516129	-0.870967741935	0.607692307692	7.0275862069
624	0.312	-0.81935483871	-0.870967741935	0.607692307692	12.8344827586
625	0.3125	2.07741935484	-0.870967741935	2.04615384615	14.2862068966
626	0.313	0.629032258065	0.577419354839	13.5538461538	4.12413793103
627	0.3135	-2.26774193548	0.577419354839	17.8692307692	8.47931034483
628	0.314	2.07741935484	13.6129032258	0.607692307692	7.0275862069
629	0.3145	2.07741935484	0.577419354839	-0.830769230769	9.93103448276
630	0.315	9.31935483871	0.577419354839	-0.830769230769	2.6724137931
631	0.3155	0.629032258065	-3.76774193548	-0.830769230769	-0.231034482759
632	0.316	2.07741935484	-0.870967741935	-2.26923076923	-1.68275862069
633	0.3165	0.629032258065	-6.66451612903	0.607692307692	1.22068965517
634	0.317	2.07741935484	7.81935483871	-0.830769230769	1.22068965517
635	0.3175	0.629032258065	-8.11290322581	-0.830769230769	-0.231034482759
636	0.318	3.52580645161	2.02580645161	-0.830769230769	5.57586206897
637	0.3185	-5.16451612903	-2.31935483871	-0.830769230769	15.7379310345
638	0.319	-3.71612903226	-0.870967741935	3.48461538462	-4.58620689655
639	0.3195	-2.26774193548	-0.870967741935	-2.26923076923	4.12413793103
640	0.32	-0.81935483871	0.577419354839	0.607692307692	-1.68275862069
641	0.3205	-0.81935483871	-11.0096774194	0.607692307692	4.12413793103
642	0.321	2.07741935484	-2.31935483871	2.04615384615	1.22068965517
643	0.3215	19.4580645161	-0.870967741935	0.607692307692	2.6724137931
644	0.322	-0.81935483871	-0.870967741935	4.92307692308	-1.68275862069
645	0.3225	0.629032258065	-2.31935483871	-8.02307692308	5.57586206897
646	0.323	-2.26774193548	-0.870967741935	4.92307692308	4.12413793103
647	0.3235	-2.26774193548	-2.31935483871	13.5538461538	-0.231034482759
648	0.324	-0.81935483871	6.37096774194	2.04615384615	-0.231034482759
649	0.3245	-2.26774193548	0.577419354839	0.607692307692	7.0275862069
650	0.325	16.5612903226	-0.870967741935	-0.830769230769	4.12413793103
651	0.3255	-2.26774193548	-2.31935483871	-0.830769230769	-3.13448275862
652	0.326	-2.26774193548	0.577419354839	-9.46153846154	-3.13448275862
653	0.3265	0.629032258065	4.92258064516	-3.70769230769	1.22068965517
654	0.327	0.629032258065	-6.66451612903	-3.70769230769	9.93103448276
655	0.3275	0.629032258065	0.577419354839	0.607692307692	7.0275862069
656	0.328	-10.9580645161	-2.31935483871	0.607692307692	5.57586206897
657	0.3285	0.629032258065	-0.870967741935	2.04615384615	14.2862068966
658	0.329	-0.81935483871	0.577419354839	-8.02307692308	2.6724137931
659	0.3295	-2.26774193548	2.02580645161	-5.14615384615	1.22068965517
660	0.33	-3.71612903226	2.02580645161	-6.58461538462	2.6724137931
661	0.3305	-2.26774193548	-0.870967741935	-2.26923076923	2.6724137931
662	0.331	-2.26774193548	0.577419354839	-0.830769230769	-0.231034482759
663	0.3315	-9.50967741935	0.577419354839	0.607692307692	-0.231034482759
664	0.332	-6.61290322581	2.02580645161	6.36153846154	24.4482758621
665	0.3325	-0.81935483871	2.02580645161	4.92307692308	4.12413793103
666	0.333	0.629032258065	3.47419354839	4.92307692308	4.12413793103
667	0.3335	-2.26774193548	-9.56129032258	3.48461538462	-0.231034482759
668	0.334	0.629032258065	6.37096774194	-0.830769230769	-1.68275862069
669	0.3345	-6.61290322581	-3.76774193548	-0.830769230769	11.3827586207
670	0.335	6.42258064516	-0.870967741935	-2.26923076923	7.0275862069
671	0.3355	-9.50967741935	0.577419354839	0.607692307692	8.47931034483
672	0.336	-0.81935483871	-2.31935483871	3.48461538462	-7.48965517241
673	0.3365	0.629032258065	-8.11290322581	-8.02307692308	-1.68275862069
674	0.337	-0.81935483871	-16.8032258065	2.04615384615	2.6724137931
675	0.3375	0.629032258065	4.92258064516	4.92307692308	-1.68275862069
676	0.338	-9.50967741935	-3.76774193548	0.607692307692	1.22068965517
677	0.3385	7.87096774194	-0.870967741935	2.04615384615	-0.231034482759
678	0.339	-2.26774193548	-0.870967741935	3.48461538462	1.22068965517
679	0.3395	-2.26774193548	0.577419354839	19.3076923077	5.57586206897
680	0.34	-0.81935483871	0.577419354839	0.607692307692	5.57586206897
681	0.3405	0.629032258065	-0.870967741935	2.04615384615	4.12413793103
682	0.341	0.629032258065	-9.56129032258	0.607692307692	7.0275862069
683	0.3415	3.52580645161	-3.76774193548	2.04615384615	-1.68275862069
684	0.342	-8.06129032258	-0.870967741935	4.92307692308	12.8344827586
685	0.3425	-2.26774193548	0.577419354839	4.92307692308	-3.13448275862
686	0.343	-5.16451612903	0.577419354839	-0.830769230769	-0.231034482759
687	0.3435	-2.26774193548	2.02580645161	3.48461538462	8.47931034483
688	0.344	-0.81935483871	17.9580645161	3.48461538462	-0.231034482759
689	0.3445	-3.71612903226	-2.31935483871	3.48461538462	5.57586206897
690	0.345	-5.16451612903	-0.870967741935	2.04615384615	-1.68275862069
691	0.3455	-6.61290322581	-0.870967741935	2.04615384615	1.22068965517
692	0.346	2.07741935484	-0.870967741935	-0.830769230769	-10.3931034483
693	0.3465	2.07741935484	-2.31935483871	-8.02307692308	-4.58620689655
694	0.347	0.629032258065	3.47419354839	0.607692307692	8.47931034483
695	0.3475	2.07741935484	-8.11290322581	3.48461538462	4.12413793103
696	0.348	3.52580645161	-0.870967741935	2.04615384615	4.12413793103
697	0.3485	-5.16451612903	-2.31935483871	2.04615384615	4.12413793103
698	0.349	-10.9580645161	0.577419354839	2.04615384615	-4.58620689655
699	0.3495	-3.71612903226	-0.870967741935	0.607692307692	-4.58620689655
700	0.35	-0.81935483871	0.577419354839	-8.02307692308	-0.231034482759
701	0.3505	-0.81935483871	0.577419354839	-3.70769230769	2.6724137931
702	0.351	-0.81935483871	-2.31935483871	-3.70769230769	1.22068965517
703	0.3515	-0.81935483871	-0.870967741935	0.607692307692	-0.231034482759
704	0.352	-9.50967741935	-2.31935483871	0.607692307692	1.22068965517
705	0.3525	-0.81935483871	0.577419354839	0.607692307692	-6.03793103448
706	0.353	-0.81935483871	-2.31935483871	-10.9	4.12413793103
707	0.3535	0.629032258065	-0.870967741935	-0.830769230769	-6.03793103448
708	0.354	-0.81935483871	-3.76774193548	0.607692307692	-3.13448275862
709	0.3545	0.629032258065	-6.66451612903	3.48461538462	-6.03793103448
710	0.355	0.629032258065	-2.31935483871	0.607692307692	-3.13448275862
711	0.3555	-5.16451612903	2.02580645161	3.48461538462	-3.13448275862
712	0.356	0.629032258065	0.577419354839	3.48461538462	-16.2
713	0.3565	3.52580645161	-0.870967741935	12.1153846154	-4.58620689655
714	0.357	-0.81935483871	-2.31935483871	4.92307692308	-3.13448275862
715	0.3575	0.629032258065	-3.76774193548	3.48461538462	-3.13448275862
716	0.358	-3.71612903226	-2.31935483871	3.48461538462	-3.13448275862
717	0.3585	-15.3032258065	-0.870967741935	3.48461538462	-0.231034482759
718	0.359	-5.16451612903	-5.21612903226	3.48461538462	1.22068965517
719	0.3595	-0.81935483871	-0.870967741935	4.92307692308	-10.3931034483
720	0.36	-0.81935483871	-0.870967741935	3.48461538462	7.0275862069
721	0.3605	-3.71612903226	-8.11290322581	2.04615384615	-7.48965517241
722	0.361	-2.26774193548	15.0612903226	2.04615384615	-8.94137931034
723	0.3615	-8.06129032258	-11.0096774194	0.607692307692	-3.13448275862
724	0.362	19.4580645161	0.577419354839	2.04615384615	-16.2
725	0.3625	-0.81935483871	0.577419354839	0.607692307692	-0.231034482759
726	0.363	0.629032258065	-2.31935483871	3.48461538462	4.12413793103
727	0.3635	0.629032258065	-0.870967741935	-2.26923076923	-3.13448275862
728	0.364	-0.81935483871	-0.870967741935	-5.14615384615	-4.58620689655
729	0.3645	0.629032258065	9.26774193548	0.607692307692	-3.13448275862
730	0.365	0.629032258065	-12.4580645161	0.607692307692	-3.13448275862
731	0.3655	22.3548387097	-0.870967741935	-0.830769230769	-17.6517241379
732	0.366	-0.81935483871	0.577419354839	0.607692307692	-11.8448275862
733	0.3665	-0.81935483871	-0.870967741935	-6.58461538462	-7.48965517241
734	0.367	0.629032258065	3.47419354839	-3.70769230769	-6.03793103448
735	0.3675	2.07741935484	-2.31935483871	-2.26923076923	-3.13448275862
736	0.368	3.52580645161	7.81935483871	2.04615384615	-6.03793103448
737	0.3685	-0.81935483871	-2.31935483871	2.04615384615	-1.68275862069
738	0.369	-6.61290322581	-2.31935483871	3.48461538462	11.3827586207
739	0.3695	-2.26774193548	2.02580645161	3.48461538462	-1.68275862069
740	0.37	-0.81935483871	2.02580645161	20.7461538462	-3.13448275862
741	0.3705	0.629032258065	-2.31935483871	19.3076923077	-4.58620689655
742	0.371	2.07741935484	-3.76774193548	4.92307692308	-3.13448275862
743	0.3715	0.629032258065	0.577419354839	2.04615384615	-3.13448275862
744	0.372	7.87096774194	-0.870967741935	0.607692307692	-8.94137931034
745	0.3725	-3.71612903226	-2.31935483871	0.607692307692	8.47931034483
746	0.373	0.629032258065	0.577419354839	3.48461538462	14.2862068966
747	0.3735	-0.81935483871	-0.870967741935	0.607692307692	-6.03793103448
748	0.374	0.629032258065	-8.11290322581	2.04615384615	-3.13448275862
749	0.3745	0.629032258065	19.4064516129	0.607692307692	-6.03793103448
750	0.375	-10.9580645161	-0.870967741935	-0.830769230769	-1.68275862069
751	0.3755	19.4580645161	-2.31935483871	2.04615384615	-4.58620689655
752	0.376	0.629032258065	-2.31935483871	-2.26923076923	-16.2
753	0.3765	0.629032258065	-0.870967741935	-10.9	-7.48965517241
754	0.377	-2.26774193548	2.02580645161	0.607692307692	-3.13448275862
755	0.3775	0.629032258065	-11.0096774194	-0.830769230769	-4.58620689655
756	0.378	3.52580645161	0.577419354839	2.04615384615	-7.48965517241
757	0.3785	15.1129032258	0.577419354839	4.92307692308	-3.13448275862
758	0.379	-0.81935483871	-2.31935483871	0.607692307692	-4.58620689655
759	0.3795	-0.81935483871	-0.870967741935	3.48461538462	-3.13448275862
760	0.38	0.629032258065	2.02580645161	-5.14615384615	-3.13448275862
761	0.3805	0.629032258065	-3.76774193548	-0.830769230769	-1.68275862069
762	0.381	2.07741935484	-9.56129032258	2.04615384615	-3.13448275862
763	0.3815	4.97419354839	0.577419354839	2.04615384615	-6.03793103448
764	0.382	10.7677419355	-2.31935483871	0.607692307692	-1.68275862069
765	0.3825	0.629032258065	-2.31935483871	-3.70769230769	-10.3931034483
766	0.383	2.07741935484	-0.870967741935	3.48461538462	-10.3931034483
767	0.3835	0.629032258065	-5.21612903226	-0.830769230769	-6.03793103448
768	0.384	3.52580645161	0.577419354839	2.04615384615	-1.68275862069
769	0.3845	-2.26774193548	-12.4580645161	2.04615384615	-4.58620689655
770	0.385	-2.26774193548	-11.0096774194	2.04615384615	-6.03793103448
771	0.3855	22.3548387097	-6.66451612903	2.04615384615	-14.7482758621
772	0.386	0.629032258065	-6.66451612903	0.607692307692	7.0275862069
773	0.3865	0.629032258065	-2.31935483871	14.9923076923	-10.3931034483
774	0.387	0.629032258065	-2.31935483871	3.48461538462	-3.13448275862
775	0.3875	-0.81935483871	3.47419354839	4.92307692308	-4.58620689655
776	0.388	0.629032258065	0.577419354839	2.04615384615	-4.58620689655
777	0.3885	-3.71612903226	-3.76774193548	2.04615384615	-3.13448275862
778	0.389	-8.06129032258	-0.870967741935	3.48461538462	-1.68275862069
779	0.3895	2.07741935484	-0.870967741935	17.8692307692	-4.58620689655
780	0.39	0.629032258065	-2.31935483871	2.04615384615	-6.03793103448
781	0.3905	0.629032258065	-11.0096774194	3.48461538462	-1.68275862069
782	0.391	-0.81935483871	-5.21612903226	0.607692307692	-4.58620689655
783	0.3915	0.629032258065	0.577419354839	3.48461538462	-7.48965517241
784	0.392	-3.71612903226	-3.76774193548	-0.830769230769	2.6724137931
785	0.3925	0.629032258065	-2.31935483871	-0.830769230769	-3.13448275862
786	0.393	0.629032258065	-0.870967741935	13.5538461538	-4.58620689655
787	0.3935	0.629032258065	-3.76774193548	3.48461538462	-3.13448275862
788	0.394	0.629032258065	16.5096774194	3.48461538462	-3.13448275862
789	0.3945	-3.71612903226	-11.0096774194	2.04615384615	-3.13448275862
790	0.395	19.4580645161	-0.870967741935	2.04615384615	-14.7482758621
791	0.3955	-3.71612903226	-0.870967741935	3.48461538462	-10.3931034483
792	0.396	3.52580645161	2.02580645161	0.607692307692	2.6724137931
793	0.3965	0.629032258065	0.577419354839	-2.26923076923	-0.231034482759
794	0.397	-0.81935483871	2.02580645161	2.04615384615	-6.03793103448
795	0.3975	-2.26774193548	13.6129032258	0.607692307692	-1.68275862069
796	0.398	0.629032258065	13.6129032258	-2.26923076923	-4.58620689655
797	0.3985	-8.06129032258	-2.31935483871	0.607692307692	17.1896551724
798	0.399	-0.81935483871	-0.870967741935	2.04615384615	-4.58620689655
799	0.3995	-2.26774193548	2.02580645161	19.3076923077	-6.03793103448
800	0.4	-0.81935483871	-2.31935483871	17.8692307692	-4.58620689655
801	0.4005	0.629032258065	-6.66451612903	0.607692307692	-3.13448275862
802	0.401	7.87096774194	-0.870967741935	-0.830769230769	-6.03793103448
803	0.4015	19.4580645161	-2.31935483871	-0.830769230769	-6.03793103448
804	0.402	-0.81935483871	0.577419354839	3.48461538462	-8.94137931034
805	0.4025	-2.26774193548	-2.31935483871	-3.70769230769	-8.94137931034
806	0.403	-0.81935483871	-0.870967741935	-2.26923076923	-3.13448275862
807	0.4035	2.07741935484	-2.31935483871	-6.58461538462	-3.13448275862
808	0.404	2.07741935484	-2.31935483871	2.04615384615	-0.231034482759
809	0.4045	-9.50967741935	-0.870967741935	0.607692307692	-3.13448275862
810	0.405	-5.16451612903	-2.31935483871	2.04615384615	-4.58620689655
811	0.4055	0.629032258065	-0.870967741935	-5.14615384615	-3.13448275862
812	0.406	0.629032258065	-0.870967741935	7.8	-1.68275862069
813	0.4065	-0.81935483871	-3.76774193548	0.607692307692	-1.68275862069
814	0.407	0.629032258065	-9.56129032258	2.04615384615	-4.58620689655
815	0.4075	4.97419354839	-0.870967741935	-0.830769230769	-4.58620689655
816	0.408	19.4580645161	-0.870967741935	0.607692307692	-6.03793103448
817	0.4085	-8.06129032258	-0.870967741935	0.607692307692	-3.13448275862
818	0.409	0.629032258065	-3.76774193548	0.607692307692	8.47931034483
819	0.4095	-2.26774193548	-2.31935483871	-0.830769230769	-3.13448275862
820	0.41	3.52580645161	-5.21612903226	-0.830769230769	-4.58620689655
821	0.4105	3.52580645161	-8.11290322581	-0.830769230769	-3.13448275862
822	0.411	18.0096774194	-5.21612903226	2.04615384615	-1.68275862069
823	0.4115	3.52580645161	-3.76774193548	0.607692307692	-3.13448275862
824	0.412	0.629032258065	-0.870967741935	2.04615384615	-8.94137931034
825	0.4125	2.07741935484	-5.21612903226	0.607692307692	-3.13448275862
826	0.413	0.629032258065	2.02580645161	6.36153846154	-0.231034482759
827	0.4135	0.629032258065	6.37096774194	0.607692307692	-1.68275862069
828	0.414	-3.71612903226	0.577419354839	0.607692307692	-3.13448275862
829	0.4145	7.87096774194	2.02580645161	0.607692307692	-3.13448275862
830	0.415	-5.16451612903	0.577419354839	0.607692307692	-1.68275862069
831	0.4155	2.07741935484	-3.76774193548	0.607692307692	-8.94137931034
832	0.416	2.07741935484	-2.31935483871	-6.58461538462	-1.68275862069
833	0.4165	3.52580645161	-6.66451612903	-0.830769230769	-4.58620689655
834	0.417	0.629032258065	16.5096774194	-0.830769230769	-3.13448275862
835	0.4175	-10.9580645161	-0.870967741935	0.607692307692	-1.68275862069
836	0.418	-10.9580645161	-0.870967741935	-0.830769230769	-0.231034482759
837	0.4185	-0.81935483871	-2.31935483871	3.48461538462	-16.2
838	0.419	-0.81935483871	-3.76774193548	-8.02307692308	-3.13448275862
839	0.4195	-0.81935483871	-13.9064516129	-0.830769230769	-3.13448275862
840	0.42	4.97419354839	9.26774193548	-0.830769230769	-4.58620689655
841	0.4205	4.97419354839	-3.76774193548	2.04615384615	-3.13448275862
842	0.421	0.629032258065	0.577419354839	7.8	5.57586206897
843	0.4215	-0.81935483871	-0.870967741935	4.92307692308	-7.48965517241
844	0.422	0.629032258065	-2.31935483871	3.48461538462	-7.48965517241
845	0.4225	-0.81935483871	-0.870967741935	-0.830769230769	-6.03793103448
846	0.423	3.52580645161	-0.870967741935	-3.70769230769	-4.58620689655
847	0.4235	0.629032258065	0.577419354839	0.607692307692	-1.68275862069
848	0.424	6.42258064516	-2.31935483871	0.607692307692	-6.03793103448
849	0.4245	-5.16451612903	-0.870967741935	3.48461538462	11.3827586207
850	0.425	-2.26774193548	0.577419354839	0.607692307692	-3.13448275862
851	0.4255	0.629032258065	2.02580645161	-0.830769230769	-4.58620689655
852	0.426	0.629032258065	-3.76774193548	-0.830769230769	-3.13448275862
853	0.4265	0.629032258065	-9.56129032258	2.04615384615	-1.68275862069
854	0.427	-3.71612903226	-0.870967741935	3.48461538462	-3.13448275862
855	0.4275	-12.4064516129	-3.76774193548	-0.830769230769	18.6413793103
856	0.428	0.629032258065	-2.31935483871	-10.9	-4.58620689655
857	0.4285	0.629032258065	0.577419354839	-6.58461538462	-4.58620689655
858	0.429	-2.26774193548	0.577419354839	2.04615384615	-3.13448275862
859	0.4295	-0.81935483871	17.9580645161	2.04615384615	-1.68275862069
860	0.43	-12.4064516129	-2.31935483871	2.04615384615	-4.58620689655
861	0.4305	18.0096774194	-2.31935483871	4.92307692308	-11.8448275862
862	0.431	0.629032258065	-0.870967741935	-2.26923076923	-13.2965517241
863	0.4315	2.07741935484	0.577419354839	0.607692307692	14.2862068966
864	0.432	-0.81935483871	0.577419354839	0.607692307692	-4.58620689655
865	0.4325	2.07741935484	15.0612903226	-0.830769230769	-1.68275862069
866	0.433	-0.81935483871	-0.870967741935	0.607692307692	-3.13448275862
867	0.4335	-13.8548387097	-0.870967741935	0.607692307692	-1.68275862069
868	0.434	2.07741935484	-0.870967741935	7.8	-8.94137931034
869	0.4345	0.629032258065	-0.870967741935	20.7461538462	-0.231034482759
870	0.435	2.07741935484	-5.21612903226	0.607692307692	-3.13448275862
871	0.4355	0.629032258065	-15.3548387097	0.607692307692	-3.13448275862
872	0.436	4.97419354839	-9.56129032258	-0.830769230769	-4.58620689655
873	0.4365	18.0096774194	-5.21612903226	-0.830769230769	-13.2965517241
874	0.437	-0.81935483871	0.577419354839	-0.830769230769	-10.3931034483
875	0.4375	0.629032258065	-0.870967741935	-10.9	-3.13448275862
876	0.438	2.07741935484	-5.21612903226	-8.02307692308	-1.68275862069
877	0.4385	2.07741935484	-11.0096774194	2.04615384615	-1.68275862069
878	0.439	7.87096774194	17.9580645161	-0.830769230769	-3.13448275862
879	0.4395	-6.61290322581	-0.870967741935	-2.26923076923	-1.68275862069
880	0.44	-5.16451612903	-2.31935483871	-0.830769230769	-0.231034482759
881	0.4405	2.07741935484	-0.870967741935	-0.830769230769	-10.3931034483
882	0.441	3.52580645161	0.577419354839	-6.58461538462	-1.68275862069
883	0.4415	2.07741935484	-5.21612903226	-0.830769230769	-3.13448275862
884	0.442	2.07741935484	-11.0096774194	-3.70769230769	-4.58620689655
885	0.4425	3.52580645161	-3.76774193548	0.607692307692	-7.48965517241
886	0.443	19.4580645161	-5.21612903226	-3.70769230769	-4.58620689655
887	0.4435	2.07741935484	-5.21612903226	-3.70769230769	-1.68275862069
888	0.444	2.07741935484	-2.31935483871	4.92307692308	-1.68275862069
889	0.4445	3.52580645161	-5.21612903226	-2.26923076923	-3.13448275862
890	0.445	4.97419354839	7.81935483871	2.04615384615	-4.58620689655
891	0.4455	4.97419354839	-0.870967741935	3.48461538462	-3.13448275862
892	0.446	19.4580645161	-2.31935483871	0.607692307692	-8.94137931034
893	0.4465	0.629032258065	-0.870967741935	-0.830769230769	-10.3931034483
894	0.447	2.07741935484	0.577419354839	-10.9	-10.3931034483
895	0.4475	0.629032258065	0.577419354839	3.48461538462	-1.68275862069
896	0.448	2.07741935484	0.577419354839	0.607692307692	-0.231034482759
897	0.4485	-2.26774193548	-0.870967741935	2.04615384615	-1.68275862069
898	0.449	-0.81935483871	0.577419354839	2.04615384615	-7.48965517241
899	0.4495	-5.16451612903	-0.870967741935	3.48461538462	8.47931034483
900	0.45	0.629032258065	-0.870967741935	-0.830769230769	-3.13448275862
901	0.4505	2.07741935484	-0.870967741935	-5.14615384615	-1.68275862069
902	0.451	0.629032258065	16.5096774194	-0.830769230769	-3.13448275862
903	0.4515	-5.16451612903	-9.56129032258	3.48461538462	-1.68275862069
904	0.452	-16.7516129032	0.577419354839	0.607692307692	-3.13448275862
905	0.4525	18.0096774194	-2.31935483871	3.48461538462	-13.2965517241
906	0.453	-3.71612903226	-3.76774193548	-8.02307692308	-6.03793103448
907	0.4535	0.629032258065	0.577419354839	-6.58461538462	-1.68275862069
908	0.454	0.629032258065	0.577419354839	6.36153846154	-1.68275862069
909	0.4545	-3.71612903226	-2.31935483871	3.48461538462	-1.68275862069
910	0.455	-8.06129032258	-2.31935483871	4.92307692308	-1.68275862069
911	0.4555	13.664516129	-0.870967741935	3.48461538462	-8.94137931034
912	0.456	0.629032258065	0.577419354839	0.607692307692	-8.94137931034
913	0.4565	-2.26774193548	-0.870967741935	-9.46153846154	-1.68275862069
914	0.457	-2.26774193548	2.02580645161	-5.14615384615	-1.68275862069
915	0.4575	0.629032258065	15.0612903226	2.04615384615	-0.231034482759
916	0.458	-0.81935483871	-5.21612903226	4.92307692308	-1.68275862069
917	0.4585	-10.9580645161	-0.870967741935	-0.830769230769	-0.231034482759
918	0.459	-2.26774193548	0.577419354839	3.48461538462	-3.13448275862
919	0.4595	-3.71612903226	2.02580645161	4.92307692308	14.2862068966
920	0.46	-3.71612903226	0.577419354839	-2.26923076923	-3.13448275862
921	0.4605	-5.16451612903	19.4064516129	3.48461538462	-3.13448275862
922	0.461	-2.26774193548	0.577419354839	3.48461538462	1.22068965517
923	0.4615	-5.16451612903	-0.870967741935	6.36153846154	-0.231034482759
924	0.462	10.7677419355	2.02580645161	4.92307692308	-3.13448275862
925	0.4625	-0.81935483871	3.47419354839	2.04615384615	-1.68275862069
926	0.463	-2.26774193548	6.37096774194	-2.26923076923	-3.13448275862
927	0.4635	-0.81935483871	-0.870967741935	2.04615384615	-1.68275862069
928	0.464	-3.71612903226	-2.31935483871	-0.830769230769	-1.68275862069
929	0.4645	-12.4064516129	-3.76774193548	2.04615384615	1.22068965517
930	0.465	0.629032258065	2.02580645161	0.607692307692	-3.13448275862
931	0.4655	-5.16451612903	-3.76774193548	0.607692307692	-8.94137931034
932	0.466	-3.71612903226	-3.76774193548	-6.58461538462	-7.48965517241
933	0.4665	-5.16451612903	0.577419354839	0.607692307692	1.22068965517
934	0.467	-6.61290322581	-0.870967741935	3.48461538462	-1.68275862069
935	0.4675	-0.81935483871	0.577419354839	2.04615384615	-1.68275862069
936	0.468	7.87096774194	0.577419354839	0.607692307692	-3.13448275862
937	0.4685	-6.61290322581	-0.870967741935	-10.9	-1.68275862069
938	0.469	-8.06129032258	0.577419354839	-9.46153846154	-3.13448275862
939	0.4695	-5.16451612903	2.02580645161	-2.26923076923	-0.231034482759
940	0.47	-8.06129032258	-11.0096774194	-0.830769230769	-0.231034482759
941	0.4705	0.629032258065	-0.870967741935	2.04615384615	-0.231034482759
942	0.471	-13.8548387097	0.577419354839	6.36153846154	-0.231034482759
943	0.4715	-5.16451612903	-0.870967741935	6.36153846154	-1.68275862069
944	0.472	-3.71612903226	0.577419354839	14.9923076923	-4.58620689655
945	0.4725	-0.81935483871	-0.870967741935	4.92307692308	-0.231034482759
946	0.473	-2.26774193548	-8.11290322581	7.8	-0.231034482759
947	0.4735	2.07741935484	-2.31935483871	4.92307692308	-3.13448275862
948	0.474	-12.4064516129	-0.870967741935	4.92307692308	1.22068965517
949	0.4745	-2.26774193548	0.577419354839	4.92307692308	-8.94137931034
950	0.475	-0.81935483871	2.02580645161	4.92307692308	-1.68275862069
951	0.4755	-3.71612903226	-0.870967741935	10.6769230769	-3.13448275862
952	0.476	-2.26774193548	-0.870967741935	0.607692307692	-1.68275862069
953	0.4765	-3.71612903226	-3.76774193548	4.92307692308	-1.68275862069
954	0.477	-16.7516129032	0.577419354839	4.92307692308	-1.68275862069
955	0.4775	-3.71612903226	0.577419354839	4.92307692308	-13.2965517241
956	0.478	-2.26774193548	0.577419354839	-6.58461538462	-3.13448275862
957	0.4785	-0.81935483871	-0.870967741935	-5.14615384615	-3.13448275862
958	0.479	-2.26774193548	6.37096774194	-3.70769230769	-3.13448275862
959	0.4795	-5.16451612903	2.02580645161	4.92307692308	-1.68275862069
960	0.48	-12.4064516129	2.02580645161	3.48461538462	-4.58620689655
961	0.4805	18.0096774194	2.02580645161	4.92307692308	-13.2965517241
962	0.481	-2.26774193548	0.577419354839	-3.70769230769	-1.68275862069
963	0.4815	-0.81935483871	2.02580645161	14.9923076923	-7.48965517241
964	0.482	-0.81935483871	2.02580645161	9.23846153846	-1.68275862069
965	0.4825	-2.26774193548	4.92258064516	2.04615384615	-1.68275862069
966	0.483	0.629032258065	4.92258064516	3.48461538462	-4.58620689655
967	0.4835	10.7677419355	3.47419354839	0.607692307692	-11.8448275862
968	0.484	-2.26774193548	2.02580645161	0.607692307692	7.0275862069
969	0.4845	-2.26774193548	2.02580645161	12.1153846154	-7.48965517241
970	0.485	0.629032258065	0.577419354839	-2.26923076923	-3.13448275862
971	0.4855	0.629032258065	0.577419354839	2.04615384615	-3.13448275862
972	0.486	0.629032258065	0.577419354839	2.04615384615	-3.13448275862
973	0.4865	12.2161290323	-0.870967741935	-0.830769230769	-1.68275862069
974	0.487	-3.71612903226	2.02580645161	4.92307692308	-8.94137931034
975	0.4875	2.07741935484	-0.870967741935	0.607692307692	4.12413793103
976	0.488	-0.81935483871	-2.31935483871	12.1153846154	-6.03793103448
977	0.4885	-0.81935483871	0.577419354839	3.48461538462	-1.68275862069
978	0.489	-2.26774193548	-6.66451612903	0.607692307692	-4.58620689655
979	0.4895	-5.16451612903	-0.870967741935	0.607692307692	-4.58620689655
980	0.49	13.664516129	0.577419354839	0.607692307692	-0.231034482759
981	0.4905	-0.81935483871	-2.31935483871	-0.830769230769	-3.13448275862
982	0.491	0.629032258065	0.577419354839	0.607692307692	-10.3931034483
983	0.4915	-0.81935483871	-5.21612903226	-9.46153846154	-3.13448275862
984	0.492	2.07741935484	15.0612903226	0.607692307692	-1.68275862069
985	0.4925	-2.26774193548	-2.31935483871	0.607692307692	-0.231034482759
986	0.493	-12.4064516129	-0.870967741935	2.04615384615	-0.231034482759
987	0.4935	2.07741935484	-5.21612903226	0.607692307692	-8.94137931034
988	0.494	0.629032258065	-2.31935483871	17.8692307692	-3.13448275862
989	0.4945	-0.81935483871	-3.76774193548	-6.58461538462	-3.13448275862
990	0.495	0.629032258065	-3.76774193548	-8.02307692308	-3.13448275862
991	0.4955	-2.26774193548	-9.56129032258	0.607692307692	-4.58620689655
992	0.496	2.07741935484	2.02580645161	2.04615384615	-3.13448275862
993	0.4965	2.07741935484	-0.870967741935	-0.830769230769	11.3827586207
994	0.497	0.629032258065	-0.870967741935	-8.02307692308	-4.58620689655
995	0.4975	2.07741935484	-2.31935483871	-0.830769230769	-3.13448275862
996	0.498	3.52580645161	0.577419354839	-0.830769230769	-3.13448275862
997	0.4985	0.629032258065	-8.11290322581	0.607692307692	-3.13448275862
998	0.499	7.87096774194	-0.870967741935	0.607692307692	-0.231034482759
999	0.4995	15.1129032258	-2.31935483871	0.607692307692	-1.68275862069
1000	0.5	2.07741935484	-2.31935483871	-8.02307692308	-6.03793103448
1001	0.5005	0.629032258065	-3.76774193548	-5.14615384615	-10.3931034483
1002	0.501	0.629032258065	0.577419354839	-3.70769230769	-4.58620689655
1003	0.5015	2.07741935484	-15.3548387097	-3.70769230769	-4.58620689655
1004	0.502	4.97419354839	-0.870967741935	0.607692307692	-6.03793103448
1005	0.5025	19.4580645161	-3.76774193548	-0.830769230769	-1.68275862069
1006	0.503	-6.61290322581	-3.76774193548	-0.830769230769	14.2862068966
1007	0.5035	2.07741935484	-2.31935483871	16.4307692308	-1.68275862069
1008	0.504	4.97419354839	-6.66451612903	-0.830769230769	-3.13448275862
1009	0.5045	4.97419354839	-16.8032258065	-0.830769230769	-3.13448275862
1010	0.505	0.629032258065	-0.870967741935	-2.26923076923	-4.58620689655
1011	0.5055	10.7677419355	-0.870967741935	-0.830769230769	-1.68275862069
1012	0.506	9.31935483871	-2.31935483871	-2.26923076923	1.22068965517
1013	0.5065	0.629032258065	-3.76774193548	-0.830769230769	-6.03793103448
1014	0.507	2.07741935484	-3.76774193548	0.607692307692	-10.3931034483
1015	0.5075	3.52580645161	-5.21612903226	-5.14615384615	-3.13448275862
1016	0.508	0.629032258065	9.26774193548	-3.70769230769	-3.13448275862
1017	0.5085	-2.26774193548	-2.31935483871	-0.830769230769	-1.68275862069
1018	0.509	-8.06129032258	-2.31935483871	-3.70769230769	-1.68275862069
1019	0.5095	0.629032258065	-0.870967741935	-0.830769230769	-10.3931034483
1020	0.51	0.629032258065	-2.31935483871	3.48461538462	-8.94137931034
1021	0.5105	-0.81935483871	-0.870967741935	-8.02307692308	-1.68275862069
1022	0.511	0.629032258065	2.02580645161	-5.14615384615	-4.58620689655
1023	0.5115	-0.81935483871	-2.31935483871	-0.830769230769	1.22068965517
1024	0.512	-10.9580645161	-2.31935483871	0.607692307692	-3.13448275862
1025	0.5125	2.07741935484	-0.870967741935	-0.830769230769	-11.8448275862
1026	0.513	-0.81935483871	-0.870967741935	-3.70769230769	12.8344827586
1027	0.5135	-2.26774193548	0.577419354839	17.8692307692	-4.58620689655
1028	0.514	2.07741935484	-13.9064516129	-0.830769230769	-1.68275862069
1029	0.5145	3.52580645161	-13.9064516129	-0.830769230769	-1.68275862069
1030	0.515	4.97419354839	0.577419354839	-0.830769230769	-0.231034482759
1031	0.5155	16.5612903226	0.577419354839	-0.830769230769	-0.231034482759
1032	0.516	4.97419354839	-0.870967741935	3.48461538462	-0.231034482759
1033	0.5165	3.52580645161	0.577419354839	0.607692307692	14.2862068966
1034	0.517	3.52580645161	0.577419354839	-0.830769230769	-3.13448275862
1035	0.5175	-0.81935483871	-11.0096774194	-0.830769230769	-1.68275862069
1036	0.518	2.07741935484	-13.9064516129	2.04615384615	-1.68275862069
1037	0.5185	23.8032258065	-6.66451612903	2.04615384615	-0.231034482759
1038	0.519	-6.61290322581	-6.66451612903	0.607692307692	1.22068965517
1039	0.5195	0.629032258065	-3.76774193548	0.607692307692	-13.2965517241
1040	0.52	2.07741935484	-5.21612903226	-6.58461538462	-4.58620689655
1041	0.5205	0.629032258065	-0.870967741935	-8.02307692308	-3.13448275862
1042	0.521	2.07741935484	10.7161290323	0.607692307692	-1.68275862069
1043	0.5215	3.52580645161	-6.66451612903	0.607692307692	-1.68275862069
1044	0.522	19.4580645161	-0.870967741935	-0.830769230769	-11.8448275862
1045	0.5225	-0.81935483871	0.577419354839	-0.830769230769	-0.231034482759
1046	0.523	-3.71612903226	-3.76774193548	-8.02307692308	-1.68275862069
1047	0.5235	-2.26774193548	-2.31935483871	-3.70769230769	-0.231034482759
1048	0.524	-2.26774193548	-2.31935483871	-5.14615384615	-1.68275862069
1049	0.5245	2.07741935484	-6.66451612903	-6.58461538462	-1.68275862069
1050	0.525	4.97419354839	-0.870967741935	-6.58461538462	-0.231034482759
1051	0.5255	-6.61290322581	0.577419354839	-3.70769230769	12.8344827586
1052	0.526	0.629032258065	-2.31935483871	2.04615384615	5.57586206897
1053	0.5265	2.07741935484	-0.870967741935	2.04615384615	2.6724137931
1054	0.527	0.629032258065	-9.56129032258	0.607692307692	-1.68275862069
1055	0.5275	0.629032258065	2.02580645161	0.607692307692	-1.68275862069
1056	0.528	0.629032258065	-5.21612903226	-0.830769230769	-3.13448275862
1057	0.5285	12.2161290323	-2.31935483871	0.607692307692	-8.94137931034
1058	0.529	-2.26774193548	-3.76774193548	0.607692307692	1.22068965517
1059	0.5295	0.629032258065	0.577419354839	3.48461538462	15.7379310345
1060	0.53	0.629032258065	-5.21612903226	3.48461538462	-0.231034482759
1061	0.5305	0.629032258065	-2.31935483871	-0.830769230769	-1.68275862069
1062	0.531	3.52580645161	-5.21612903226	0.607692307692	-1.68275862069
1063	0.5315	-8.06129032258	-6.66451612903	3.48461538462	-0.231034482759
1064	0.532	2.07741935484	-2.31935483871	2.04615384615	-1.68275862069
1065	0.5325	-0.81935483871	-3.76774193548	0.607692307692	1.22068965517
1066	0.533	-0.81935483871	0.577419354839	-0.830769230769	-3.13448275862
1067	0.5335	0.629032258065	-0.870967741935	17.8692307692	-4.58620689655
1068	0.534	-0.81935483871	-11.0096774194	-0.830769230769	-1.68275862069
1069	0.5345	-2.26774193548	17.9580645161	0.607692307692	-1.68275862069
1070	0.535	-13.8548387097	0.577419354839	2.04615384615	1.22068965517
1071	0.5355	-0.81935483871	-3.76774193548	2.04615384615	-1.68275862069
1072	0.536	-0.81935483871	-5.21612903226	2.04615384615	8.47931034483
1073	0.5365	0.629032258065	-0.870967741935	16.4307692308	-1.68275862069
1074	0.537	2.07741935484	-3.76774193548	16.4307692308	-1.68275862069
1075	0.5375	4.97419354839	16.5096774194	0.607692307692	-1.68275862069
1076	0.538	2.07741935484	-3.76774193548	2.04615384615	-1.68275862069
1077	0.5385	20.9064516129	-2.31935483871	0.607692307692	-3.13448275862
1078	0.539	0.629032258065	-3.76774193548	-5.14615384615	-11.8448275862
1079	0.5395	0.629032258065	-0.870967741935	-2.26923076923	4.12413793103
1080	0.54	0.629032258065	-3.76774193548	-0.830769230769	-1.68275862069
1081	0.5405	3.52580645161	0.577419354839	-8.02307692308	-0.231034482759
1082	0.541	-2.26774193548	0.577419354839	2.04615384615	-0.231034482759
1083	0.5415	-12.4064516129	-2.31935483871	2.04615384615	2.6724137931
1084	0.542	-8.06129032258	0.577419354839	4.92307692308	12.8344827586
1085	0.5425	3.52580645161	-2.31935483871	0.607692307692	5.57586206897
1086	0.543	0.629032258065	-2.31935483871	9.23846153846	-1.68275862069
1087	0.5435	2.07741935484	-9.56129032258	2.04615384615	-1.68275862069
1088	0.544	0.629032258065	6.37096774194	2.04615384615	-1.68275862069
1089	0.5445	3.52580645161	-2.31935483871	0.607692307692	-1.68275862069
1090	0.545	-8.06129032258	-0.870967741935	-0.830769230769	-0.231034482759
1091	0.5455	0.629032258065	-0.870967741935	4.92307692308	-4.58620689655
1092	0.546	3.52580645161	-0.870967741935	17.8692307692	-3.13448275862
1093	0.5465	3.52580645161	-5.21612903226	2.04615384615	-1.68275862069
1094	0.547	3.52580645161	-0.870967741935	7.8	-1.68275862069
1095	0.5475	3.52580645161	-6.66451612903	0.607692307692	-1.68275862069
1096	0.548	-6.61290322581	-2.31935483871	0.607692307692	-3.13448275862
1097	0.5485	-6.61290322581	-2.31935483871	-3.70769230769	-0.231034482759
1098	0.549	2.07741935484	-0.870967741935	-0.830769230769	-13.2965517241
1099	0.5495	0.629032258065	-2.31935483871	-13.7769230769	-10.3931034483
1100	0.55	0.629032258065	0.577419354839	-13.7769230769	-4.58620689655
1101	0.5505	0.629032258065	15.0612903226	0.607692307692	-1.68275862069
1102	0.551	2.07741935484	-6.66451612903	3.48461538462	-1.68275862069
1103	0.5515	0.629032258065	-2.31935483871	-0.830769230769	-1.68275862069
1104	0.552	-10.9580645161	-3.76774193548	3.48461538462	2.6724137931
1105	0.5525	0.629032258065	-3.76774193548	-8.02307692308	-6.03793103448
1106	0.553	2.07741935484	-2.31935483871	7.8	-6.03793103448
1107	0.5535	-0.81935483871	-3.76774193548	-2.26923076923	-0.231034482759
1108	0.554	0.629032258065	10.7161290323	0.607692307692	-0.231034482759
1109	0.5545	3.52580645161	-0.870967741935	0.607692307692	1.22068965517
1110	0.555	-10.9580645161	-2.31935483871	0.607692307692	1.22068965517
1111	0.5555	-6.61290322581	-2.31935483871	-2.26923076923	8.47931034483
1112	0.556	3.52580645161	-0.870967741935	-6.58461538462	-6.03793103448
1113	0.5565	2.07741935484	0.577419354839	-2.26923076923	-1.68275862069
1114	0.557	0.629032258065	6.37096774194	0.607692307692	-4.58620689655
1115	0.5575	-0.81935483871	-5.21612903226	-0.830769230769	-0.231034482759
1116	0.558	-3.71612903226	-2.31935483871	2.04615384615	-1.68275862069
1117	0.5585	-6.61290322581	-5.21612903226	3.48461538462	14.2862068966
1118	0.559	0.629032258065	-0.870967741935	2.04615384615	15.7379310345
1119	0.5595	-0.81935483871	-0.870967741935	4.92307692308	-7.48965517241
1120	0.56	0.629032258065	-2.31935483871	2.04615384615	-1.68275862069
1121	0.5605	3.52580645161	-8.11290322581	2.04615384615	-1.68275862069
1122	0.561	3.52580645161	-9.56129032258	0.607692307692	-4.58620689655
1123	0.5615	-10.9580645161	-0.870967741935	0.607692307692	-1.68275862069
1124	0.562	-0.81935483871	0.577419354839	4.92307692308	-13.2965517241
1125	0.5625	0.629032258065	0.577419354839	-8.02307692308	-3.13448275862
1126	0.563	2.07741935484	2.02580645161	-6.58461538462	-4.58620689655
1127	0.5635	2.07741935484	-11.0096774194	0.607692307692	-3.13448275862
1128	0.564	3.52580645161	-9.56129032258	0.607692307692	-1.68275862069
1129	0.5645	4.97419354839	-0.870967741935	0.607692307692	-1.68275862069
1130	0.565	0.629032258065	0.577419354839	-0.830769230769	-1.68275862069
1131	0.5655	0.629032258065	0.577419354839	0.607692307692	-6.03793103448
1132	0.566	3.52580645161	0.577419354839	-0.830769230769	-1.68275862069
1133	0.5665	0.629032258065	-3.76774193548	2.04615384615	-3.13448275862
1134	0.567	3.52580645161	17.9580645161	2.04615384615	-1.68275862069
1135	0.5675	-0.81935483871	-2.31935483871	2.04615384615	-3.13448275862
1136	0.568	-12.4064516129	-3.76774193548	3.48461538462	1.22068965517
1137	0.5685	-5.16451612903	-5.21612903226	4.92307692308	-0.231034482759
1138	0.569	2.07741935484	-6.66451612903	-3.70769230769	7.0275862069
1139	0.5695	2.07741935484	-8.11290322581	0.607692307692	2.6724137931
1140	0.57	0.629032258065	-2.31935483871	17.8692307692	-1.68275862069
1141	0.5705	3.52580645161	-12.4580645161	4.92307692308	-3.13448275862
1142	0.571	3.52580645161	-3.76774193548	0.607692307692	-4.58620689655
1143	0.5715	23.8032258065	-5.21612903226	0.607692307692	-11.8448275862
1144	0.572	0.629032258065	-2.31935483871	3.48461538462	-8.94137931034
1145	0.5725	2.07741935484	0.577419354839	-0.830769230769	-1.68275862069
1146	0.573	0.629032258065	0.577419354839	-2.26923076923	-1.68275862069
1147	0.5735	0.629032258065	-9.56129032258	-5.14615384615	-1.68275862069
1148	0.574	4.97419354839	-2.31935483871	-0.830769230769	-4.58620689655
1149	0.5745	-2.26774193548	-0.870967741935	0.607692307692	-3.13448275862
1150	0.575	-5.16451612903	-0.870967741935	-0.830769230769	-1.68275862069
1151	0.5755	3.52580645161	-2.31935483871	0.607692307692	-10.3931034483
1152	0.576	0.629032258065	-0.870967741935	-8.02307692308	-1.68275862069
1153	0.5765	-0.81935483871	-12.4580645161	2.04615384615	-1.68275862069
1154	0.577	2.07741935484	-11.0096774194	3.48461538462	-1.68275862069
1155	0.5775	4.97419354839	-6.66451612903	0.607692307692	-3.13448275862
1156	0.578	-2.26774193548	-5.21612903226	4.92307692308	1.22068965517
1157	0.5785	-0.81935483871	-2.31935483871	0.607692307692	-1.68275862069
1158	0.579	3.52580645161	-0.870967741935	2.04615384615	18.6413793103
1159	0.5795	3.52580645161	-2.31935483871	3.48461538462	-3.13448275862
1160	0.58	2.07741935484	-13.9064516129	4.92307692308	-3.13448275862
1161	0.5805	7.87096774194	-11.0096774194	3.48461538462	-3.13448275862
1162	0.581	4.97419354839	0.577419354839	2.04615384615	-3.13448275862
1163	0.5815	-0.81935483871	-0.870967741935	0.607692307692	1.22068965517
1164	0.582	-0.81935483871	-3.76774193548	-3.70769230769	-7.48965517241
1165	0.5825	2.07741935484	0.577419354839	12.1153846154	-1.68275862069
1166	0.583	3.52580645161	-0.870967741935	0.607692307692	-3.13448275862
1167	0.5835	0.629032258065	-11.0096774194	0.607692307692	-1.68275862069
1168	0.584	3.52580645161	-2.31935483871	0.607692307692	-1.68275862069
1169	0.5845	22.3548387097	-0.870967741935	-0.830769230769	-8.94137931034
1170	0.585	0.629032258065	-2.31935483871	-0.830769230769	-7.48965517241
1171	0.5855	2.07741935484	-2.31935483871	-3.70769230769	-8.94137931034
1172	0.586	3.52580645161	-3.76774193548	-9.46153846154	-1.68275862069
1173	0.5865	0.629032258065	-15.3548387097	-0.830769230769	-1.68275862069
1174	0.587	2.07741935484	-13.9064516129	0.607692307692	-1.68275862069
1175	0.5875	4.97419354839	-3.76774193548	-2.26923076923	-1.68275862069
1176	0.588	-2.26774193548	-5.21612903226	-2.26923076923	1.22068965517
1177	0.5885	3.52580645161	-2.31935483871	-6.58461538462	-3.13448275862
1178	0.589	-0.81935483871	-0.870967741935	7.8	-1.68275862069
1179	0.5895	0.629032258065	0.577419354839	16.4307692308	-0.231034482759
1180	0.59	0.629032258065	-5.21612903226	9.23846153846	-0.231034482759
1181	0.5905	-3.71612903226	-0.870967741935	7.8	-1.68275862069
1182	0.591	-6.61290322581	-0.870967741935	2.04615384615	-1.68275862069
1183	0.5915	3.52580645161	-0.870967741935	0.607692307692	-8.94137931034
1184	0.592	2.07741935484	-0.870967741935	13.5538461538	-1.68275862069
1185	0.5925	0.629032258065	-5.21612903226	-2.26923076923	-1.68275862069
1186	0.593	2.07741935484	-11.0096774194	0.607692307692	-0.231034482759
1187	0.5935	0.629032258065	-11.0096774194	3.48461538462	-1.68275862069
1188	0.594	2.07741935484	-13.9064516129	2.04615384615	-0.231034482759
1189	0.5945	19.4580645161	-3.76774193548	-0.830769230769	-4.58620689655
1190	0.595	-2.26774193548	-0.870967741935	0.607692307692	11.3827586207
1191	0.5955	0.629032258065	0.577419354839	7.8	-7.48965517241
1192	0.596	-0.81935483871	-2.31935483871	-3.70769230769	-1.68275862069
1193	0.5965	2.07741935484	0.577419354839	0.607692307692	-1.68275862069
1194	0.597	2.07741935484	-6.66451612903	2.04615384615	-1.68275862069
1195	0.5975	3.52580645161	2.02580645161	-2.26923076923	-1.68275862069
1196	0.598	-0.81935483871	-2.31935483871	-0.830769230769	8.47931034483
1197	0.5985	2.07741935484	-0.870967741935	-8.02307692308	-6.03793103448
1198	0.599	-0.81935483871	0.577419354839	14.9923076923	-0.231034482759
1199	0.5995	0.629032258065	0.577419354839	19.3076923077	-4.58620689655
1200	0.6	0.629032258065	17.9580645161	-0.830769230769	-1.68275862069
1201	0.6005	-5.16451612903	13.6129032258	0.607692307692	-1.68275862069
1202	0.601	-12.4064516129	-3.76774193548	0.607692307692	-1.68275862069
1203	0.6015	-0.81935483871	-3.76774193548	0.607692307692	2.6724137931
1204	0.602	0.629032258065	-0.870967741935	-2.26923076923	-3.13448275862
1205	0.6025	0.629032258065	0.577419354839	14.9923076923	-0.231034482759
1206	0.603	0.629032258065	-6.66451612903	0.607692307692	-1.68275862069
1207	0.6035	2.07741935484	-8.11290322581	0.607692307692	-1.68275862069
1208	0.604	0.629032258065	0.577419354839	6.36153846154	-1.68275862069
1209	0.6045	20.9064516129	-2.31935483871	4.92307692308	-1.68275862069
1210	0.605	3.52580645161	-0.870967741935	2.04615384615	-13.2965517241
1211	0.6055	0.629032258065	-0.870967741935	-12.3384615385	-10.3931034483
1212	0.606	0.629032258065	-0.870967741935	-10.9	-1.68275862069
1213	0.6065	-2.26774193548	16.5096774194	-2.26923076923	-0.231034482759
1214	0.607	0.629032258065	-9.56129032258	-0.830769230769	-0.231034482759
1215	0.6075	22.3548387097	-0.870967741935	-2.26923076923	-1.68275862069
1216	0.608	0.629032258065	-2.31935483871	-0.830769230769	14.2862068966
1217	0.6085	-0.81935483871	-3.76774193548	-9.46153846154	-3.13448275862
1218	0.609	0.629032258065	-0.870967741935	-0.830769230769	-4.58620689655
1219	0.6095	0.629032258065	-8.11290322581	2.04615384615	-1.68275862069
1220	0.61	0.629032258065	6.37096774194	0.607692307692	-1.68275862069
1221	0.6105	-2.26774193548	-3.76774193548	0.607692307692	1.22068965517
1222	0.611	-12.4064516129	-2.31935483871	3.48461538462	14.2862068966
1223	0.6115	-2.26774193548	-5.21612903226	-0.830769230769	-3.13448275862
1224	0.612	2.07741935484	-0.870967741935	-0.830769230769	-1.68275862069
1225	0.6125	2.07741935484	-0.870967741935	13.5538461538	-1.68275862069
1226	0.613	7.87096774194	-11.0096774194	-0.830769230769	-3.13448275862
1227	0.6135	4.97419354839	-5.21612903226	-3.70769230769	-3.13448275862
1228	0.614	-6.61290322581	-5.21612903226	-3.70769230769	-0.231034482759
1229	0.6145	2.07741935484	-2.31935483871	0.607692307692	-1.68275862069
1230	0.615	3.52580645161	-2.31935483871	4.92307692308	-1.68275862069
1231	0.6155	3.52580645161	-3.76774193548	2.04615384615	-1.68275862069
1232	0.616	2.07741935484	-3.76774193548	3.48461538462	-0.231034482759
1233	0.6165	2.07741935484	-9.56129032258	4.92307692308	-3.13448275862
1234	0.617	2.07741935484	0.577419354839	2.04615384615	-1.68275862069
1235	0.6175	16.5612903226	-0.870967741935	0.607692307692	1.22068965517
1236	0.618	3.52580645161	-2.31935483871	0.607692307692	15.7379310345
1237	0.6185	0.629032258065	-0.870967741935	2.04615384615	-8.94137931034
1238	0.619	0.629032258065	-6.66451612903	-9.46153846154	-3.13448275862
1239	0.6195	0.629032258065	16.5096774194	-0.830769230769	-1.68275862069
1240	0.62	-0.81935483871	16.5096774194	-0.830769230769	-3.13448275862
1241	0.6205	-9.50967741935	0.577419354839	3.48461538462	1.22068965517
1242	0.621	2.07741935484	-0.870967741935	2.04615384615	-11.8448275862
1243	0.6215	0.629032258065	-0.870967741935	-8.02307692308	1.22068965517
1244	0.622	2.07741935484	-0.870967741935	-8.02307692308	-8.94137931034
1245	0.6225	0.629032258065	-6.66451612903	-6.58461538462	1.22068965517
1246	0.623	2.07741935484	2.02580645161	-0.830769230769	-4.58620689655
1247	0.6235	-3.71612903226	-0.870967741935	0.607692307692	-1.68275862069
1248	0.624	-10.9580645161	0.577419354839	4.92307692308	-11.8448275862
1249	0.6245	-2.26774193548	-0.870967741935	2.04615384615	-11.8448275862
1250	0.625	2.07741935484	-2.31935483871	-10.9	1.22068965517
1251	0.6255	0.629032258065	-0.870967741935	2.04615384615	-1.68275862069
1252	0.626	-2.26774193548	-2.31935483871	0.607692307692	-1.68275862069
1253	0.6265	-2.26774193548	-12.4580645161	0.607692307692	-3.13448275862
1254	0.627	-3.71612903226	-2.31935483871	2.04615384615	-3.13448275862
1255	0.6275	-9.50967741935	-2.31935483871	0.607692307692	14.2862068966
1256	0.628	-2.26774193548	-2.31935483871	-10.9	-7.48965517241
1257	0.6285	-0.81935483871	-0.870967741935	-2.26923076923	-4.58620689655
1258	0.629	0.629032258065	0.577419354839	-0.830769230769	-1.68275862069
1259	0.6295	0.629032258065	3.47419354839	-0.830769230769	-1.68275862069
1260	0.63	-5.16451612903	0.577419354839	0.607692307692	1.22068965517
1261	0.6305	12.2161290323	-0.870967741935	0.607692307692	-8.94137931034
1262	0.631	-0.81935483871	-2.31935483871	-0.830769230769	-11.8448275862
1263	0.6315	2.07741935484	0.577419354839	-10.9	-1.68275862069
1264	0.632	0.629032258065	-2.31935483871	0.607692307692	-1.68275862069
1265	0.6325	0.629032258065	-0.870967741935	2.04615384615	-1.68275862069
1266	0.633	-0.81935483871	-6.66451612903	-0.830769230769	-1.68275862069
1267	0.6335	3.52580645161	0.577419354839	2.04615384615	-1.68275862069
1268	0.634	15.1129032258	0.577419354839	2.04615384615	-7.48965517241
1269	0.6345	-0.81935483871	0.577419354839	-6.58461538462	-7.48965517241
1270	0.635	0.629032258065	-2.31935483871	10.6769230769	-3.13448275862
1271	0.6355	0.629032258065	-6.66451612903	-5.14615384615	-1.68275862069
1272	0.636	0.629032258065	-3.76774193548	-5.14615384615	-1.68275862069
1273	0.6365	-5.16451612903	-6.66451612903	2.04615384615	-3.13448275862
1274	0.637	-10.9580645161	-2.31935483871	0.607692307692	-3.13448275862
1275	0.6375	-3.71612903226	-5.21612903226	-0.830769230769	-1.68275862069
1276	0.638	3.52580645161	-8.11290322581	-5.14615384615	-1.68275862069
1277	0.6385	3.52580645161	-5.21612903226	-0.830769230769	-10.3931034483
1278	0.639	0.629032258065	-3.76774193548	-6.58461538462	-1.68275862069
1279	0.6395	3.52580645161	16.5096774194	0.607692307692	-0.231034482759
1280	0.64	-2.26774193548	-0.870967741935	3.48461538462	-1.68275862069
1281	0.6405	-9.50967741935	2.02580645161	0.607692307692	-1.68275862069
1282	0.641	-5.16451612903	0.577419354839	4.92307692308	5.57586206897
1283	0.6415	0.629032258065	-0.870967741935	0.607692307692	12.8344827586
1284	0.642	-2.26774193548	0.577419354839	0.607692307692	-11.8448275862
1285	0.6425	-0.81935483871	-12.4580645161	0.607692307692	-1.68275862069
1286	0.643	0.629032258065	16.5096774194	0.607692307692	-3.13448275862
1287	0.6435	2.07741935484	-3.76774193548	0.607692307692	1.22068965517
1288	0.644	-12.4064516129	-9.56129032258	0.607692307692	-0.231034482759
1289	0.6445	-2.26774193548	-5.21612903226	-0.830769230769	-8.94137931034
1290	0.645	0.629032258065	0.577419354839	-9.46153846154	-1.68275862069
1291	0.6455	-0.81935483871	-3.76774193548	-8.02307692308	-0.231034482759
1292	0.646	0.629032258065	-12.4580645161	0.607692307692	-1.68275862069
1293	0.6465	3.52580645161	-0.870967741935	0.607692307692	-1.68275862069
1294	0.647	7.87096774194	-2.31935483871	0.607692307692	-3.13448275862
1295	0.6475	12.2161290323	-2.31935483871	0.607692307692	-3.13448275862
1296	0.648	-0.81935483871	0.577419354839	0.607692307692	-11.8448275862
1297	0.6485	0.629032258065	2.02580645161	-8.02307692308	-1.68275862069
1298	0.649	2.07741935484	0.577419354839	2.04615384615	-3.13448275862
1299	0.6495	0.629032258065	16.5096774194	0.607692307692	-3.13448275862
1300	0.65	-2.26774193548	-2.31935483871	-0.830769230769	1.22068965517
1301	0.6505	0.629032258065	-3.76774193548	0.607692307692	-1.68275862069
1302	0.651	-5.16451612903	-2.31935483871	0.607692307692	-1.68275862069
1303	0.6515	0.629032258065	-0.870967741935	0.607692307692	-1.68275862069
1304	0.652	0.629032258065	-3.76774193548	0.607692307692	-1.68275862069
1305	0.6525	2.07741935484	-15.3548387097	-0.830769230769	-1.68275862069
1306	0.653	2.07741935484	-11.0096774194	-0.830769230769	-1.68275862069
1307	0.6535	4.97419354839	-0.870967741935	-0.830769230769	-1.68275862069
1308	0.654	-2.26774193548	2.02580645161	-0.830769230769	2.6724137931
1309	0.6545	0.629032258065	-0.870967741935	-2.26923076923	-7.48965517241
1310	0.655	2.07741935484	2.02580645161	14.9923076923	-1.68275862069
1311	0.6555	0.629032258065	0.577419354839	-6.58461538462	-1.68275862069
1312	0.656	0.629032258065	13.6129032258	-0.830769230769	-1.68275862069
1313	0.6565	-2.26774193548	-3.76774193548	0.607692307692	-3.13448275862
1314	0.657	-10.9580645161	-0.870967741935	0.607692307692	-0.231034482759
1315	0.6575	-2.26774193548	0.577419354839	0.607692307692	-11.8448275862
1316	0.658	-0.81935483871	0.577419354839	-0.830769230769	7.0275862069
1317	0.6585	-0.81935483871	0.577419354839	14.9923076923	-7.48965517241
1318	0.659	0.629032258065	-8.11290322581	2.04615384615	-0.231034482759
1319	0.6595	0.629032258065	-5.21612903226	0.607692307692	1.22068965517
1320	0.66	-0.81935483871	-2.31935483871	-0.830769230769	-0.231034482759
1321	0.6605	-9.50967741935	-2.31935483871	-0.830769230769	2.6724137931
1322	0.661	-0.81935483871	-2.31935483871	3.48461538462	-1.68275862069
1323	0.6615	-0.81935483871	-2.31935483871	19.3076923077	-1.68275862069
1324	0.662	0.629032258065	4.92258064516	0.607692307692	-0.231034482759
1325	0.6625	0.629032258065	-9.56129032258	-0.830769230769	-0.231034482759
1326	0.663	-0.81935483871	-3.76774193548	2.04615384615	-0.231034482759
1327	0.6635	7.87096774194	0.577419354839	0.607692307692	-3.13448275862
1328	0.664	-5.16451612903	0.577419354839	-0.830769230769	-1.68275862069
1329	0.6645	0.629032258065	0.577419354839	0.607692307692	-7.48965517241
1330	0.665	-0.81935483871	-0.870967741935	3.48461538462	-1.68275862069
1331	0.6655	-0.81935483871	-8.11290322581	3.48461538462	-1.68275862069
1332	0.666	0.629032258065	7.81935483871	4.92307692308	-1.68275862069
1333	0.6665	-9.50967741935	-0.870967741935	0.607692307692	2.6724137931
1334	0.667	-2.26774193548	0.577419354839	-2.26923076923	1.22068965517
1335	0.6675	-5.16451612903	-0.870967741935	-0.830769230769	-1.68275862069
1336	0.668	2.07741935484	-0.870967741935	17.8692307692	-1.68275862069
1337	0.6685	2.07741935484	-0.870967741935	17.8692307692	-1.68275862069
1338	0.669	0.629032258065	-13.9064516129	0.607692307692	-0.231034482759
1339	0.6695	-0.81935483871	6.37096774194	0.607692307692	1.22068965517
1340	0.67	-6.61290322581	-0.870967741935	2.04615384615	-1.68275862069
1341	0.6705	9.31935483871	-2.31935483871	3.48461538462	-3.13448275862
1342	0.671	-5.16451612903	-0.870967741935	0.607692307692	-1.68275862069
1343	0.6715	2.07741935484	-0.870967741935	-0.830769230769	-3.13448275862
1344	0.672	-0.81935483871	2.02580645161	17.8692307692	-1.68275862069
1345	0.6725	0.629032258065	-11.0096774194	3.48461538462	-3.13448275862
1346	0.673	0.629032258065	-2.31935483871	3.48461538462	4.12413793103
1347	0.6735	-9.50967741935	-2.31935483871	3.48461538462	-0.231034482759
1348	0.674	-6.61290322581	-0.870967741935	0.607692307692	1.22068965517
1349	0.6745	0.629032258065	-0.870967741935	19.3076923077	-3.13448275862
1350	0.675	-0.81935483871	-5.21612903226	-2.26923076923	-1.68275862069
1351	0.6755	0.629032258065	0.577419354839	3.48461538462	-1.68275862069
1352	0.676	0.629032258065	-9.56129032258	-0.830769230769	-1.68275862069
1353	0.6765	-8.06129032258	-2.31935483871	-0.830769230769	-1.68275862069
1354	0.677	-5.16451612903	-3.76774193548	2.04615384615	-0.231034482759
1355	0.6775	-2.26774193548	-2.31935483871	-0.830769230769	-10.3931034483
1356	0.678	0.629032258065	-2.31935483871	-8.02307692308	-11.8448275862
1357	0.6785	-0.81935483871	0.577419354839	-9.46153846154	-3.13448275862
1358	0.679	0.629032258065	17.9580645161	-0.830769230769	-1.68275862069
1359	0.6795	-0.81935483871	-5.21612903226	-2.26923076923	-1.68275862069
1360	0.68	16.5612903226	0.577419354839	-2.26923076923	-1.68275862069
1361	0.6805	2.07741935484	0.577419354839	-0.830769230769	-1.68275862069
1362	0.681	3.52580645161	0.577419354839	0.607692307692	-3.13448275862
1363	0.6815	-2.26774193548	0.577419354839	-2.26923076923	-10.3931034483
1364	0.682	-0.81935483871	-0.870967741935	-5.14615384615	-4.58620689655
1365	0.6825	2.07741935484	0.577419354839	2.04615384615	-1.68275862069
1366	0.683	-0.81935483871	-2.31935483871	2.04615384615	-3.13448275862
1367	0.6835	-12.4064516129	-3.76774193548	-0.830769230769	-1.68275862069
1368	0.684	-2.26774193548	-2.31935483871	0.607692307692	-8.94137931034
1369	0.6845	-0.81935483871	-0.870967741935	-0.830769230769	4.12413793103
1370	0.685	-2.26774193548	-5.21612903226	12.1153846154	-1.68275862069
1371	0.6855	0.629032258065	-11.0096774194	2.04615384615	-1.68275862069
1372	0.686	0.629032258065	0.577419354839	3.48461538462	-3.13448275862
1373	0.6865	-5.16451612903	-5.21612903226	0.607692307692	-3.13448275862
1374	0.687	0.629032258065	0.577419354839	3.48461538462	-0.231034482759
1375	0.6875	2.07741935484	-0.870967741935	-0.830769230769	-4.58620689655
1376	0.688	3.52580645161	-0.870967741935	2.04615384615	-1.68275862069
1377	0.6885	-0.81935483871	-0.870967741935	-6.58461538462	-1.68275862069
1378	0.689	-2.26774193548	-3.76774193548	-8.02307692308	-0.231034482759
1379	0.6895	-3.71612903226	-6.66451612903	-0.830769230769	1.22068965517
1380	0.69	0.629032258065	-2.31935483871	2.04615384615	-0.231034482759
1381	0.6905	-9.50967741935	-2.31935483871	0.607692307692	2.6724137931
1382	0.691	-0.81935483871	-2.31935483871	-0.830769230769	15.7379310345
1383	0.6915	0.629032258065	-2.31935483871	14.9923076923	-3.13448275862
1384	0.692	3.52580645161	-8.11290322581	0.607692307692	-0.231034482759
1385	0.6925	2.07741935484	-11.0096774194	-0.830769230769	-3.13448275862
1386	0.693	0.629032258065	-5.21612903226	-0.830769230769	-1.68275862069
1387	0.6935	-13.8548387097	-0.870967741935	-0.830769230769	1.22068965517
1388	0.694	-5.16451612903	0.577419354839	-0.830769230769	-11.8448275862
1389	0.6945	-5.16451612903	0.577419354839	-3.70769230769	-10.3931034483
1390	0.695	-3.71612903226	0.577419354839	-9.46153846154	-3.13448275862
1391	0.6955	-5.16451612903	0.577419354839	-8.02307692308	-1.68275862069
1392	0.696	-2.26774193548	-9.56129032258	4.92307692308	-0.231034482759
1393	0.6965	-2.26774193548	-2.31935483871	2.04615384615	-1.68275862069
1394	0.697	-9.50967741935	-0.870967741935	4.92307692308	-0.231034482759
1395	0.6975	-0.81935483871	-0.870967741935	4.92307692308	15.7379310345
1396	0.698	-0.81935483871	-3.76774193548	22.1846153846	-1.68275862069
1397	0.6985	0.629032258065	-11.0096774194	6.36153846154	-3.13448275862
1398	0.699	0.629032258065	-11.0096774194	12.1153846154	-3.13448275862
1399	0.6995	0.629032258065	0.577419354839	6.36153846154	-1.68275862069
1400	0.7	-10.9580645161	0.577419354839	0.607692307692	-3.13448275862
1401	0.7005	-3.71612903226	-0.870967741935	-0.830769230769	-10.3931034483
1402	0.701	0.629032258065	-0.870967741935	-0.830769230769	-1.68275862069
1403	0.7015	0.629032258065	-6.66451612903	-0.830769230769	-0.231034482759
1404	0.702	0.629032258065	4.92258064516	-0.830769230769	-1.68275862069
1405	0.7025	-2.26774193548	-8.11290322581	0.607692307692	-3.13448275862
1406	0.703	-2.26774193548	-3.76774193548	2.04615384615	12.8344827586
1407	0.7035	-3.71612903226	-2.31935483871	2.04615384615	-10.3931034483
1408	0.704	-0.81935483871	-0.870967741935	-12.3384615385	-1.68275862069
1409	0.7045	-0.81935483871	-2.31935483871	-12.3384615385	-3.13448275862
1410	0.705	0.629032258065	16.5096774194	-3.70769230769	-0.231034482759
1411	0.7055	-0.81935483871	-9.56129032258	-0.830769230769	-3.13448275862
1412	0.706	19.4580645161	-0.870967741935	-3.70769230769	-0.231034482759
1413	0.7065	-8.06129032258	0.577419354839	-3.70769230769	4.12413793103
1414	0.707	-2.26774193548	-2.31935483871	-0.830769230769	-4.58620689655
1415	0.7075	-0.81935483871	-0.870967741935	-0.830769230769	-1.68275862069
1416	0.708	-2.26774193548	-5.21612903226	-0.830769230769	-1.68275862069
1417	0.7085	0.629032258065	13.6129032258	-2.26923076923	-3.13448275862
1418	0.709	-10.9580645161	2.02580645161	-3.70769230769	-0.231034482759
1419	0.7095	4.97419354839	-0.870967741935	0.607692307692	-6.03793103448
1420	0.71	-6.61290322581	-3.76774193548	2.04615384615	8.47931034483
1421	0.7105	0.629032258065	-3.76774193548	3.48461538462	-7.48965517241
1422	0.711	-2.26774193548	-5.21612903226	-3.70769230769	-0.231034482759
1423	0.7115	-0.81935483871	-3.76774193548	-5.14615384615	-0.231034482759
1424	0.712	2.07741935484	-6.66451612903	0.607692307692	1.22068965517
1425	0.7125	3.52580645161	-5.21612903226	2.04615384615	-4.58620689655
1426	0.713	10.7677419355	-5.21612903226	2.04615384615	-1.68275862069
1427	0.7135	-0.81935483871	-3.76774193548	2.04615384615	-0.231034482759
1428	0.714	0.629032258065	-2.31935483871	-0.830769230769	-3.13448275862
1429	0.7145	-0.81935483871	-5.21612903226	2.04615384615	-3.13448275862
1430	0.715	-0.81935483871	7.81935483871	-0.830769230769	-1.68275862069
1431	0.7155	-10.9580645161	3.47419354839	0.607692307692	-1.68275862069
1432	0.716	-2.26774193548	3.47419354839	3.48461538462	-0.231034482759
1433	0.7165	-0.81935483871	-0.870967741935	3.48461538462	-7.48965517241
1434	0.717	0.629032258065	-2.31935483871	0.607692307692	-1.68275862069
1435	0.7175	-3.71612903226	3.47419354839	3.48461538462	-1.68275862069
1436	0.718	0.629032258065	10.7161290323	0.607692307692	1.22068965517
1437	0.7185	2.07741935484	-0.870967741935	2.04615384615	-3.13448275862
1438	0.719	16.5612903226	2.02580645161	2.04615384615	-11.8448275862
1439	0.7195	-0.81935483871	0.577419354839	4.92307692308	-0.231034482759
1440	0.72	-0.81935483871	0.577419354839	25.0615384615	-1.68275862069
1441	0.7205	-0.81935483871	-2.31935483871	22.1846153846	-0.231034482759
1442	0.721	2.07741935484	-6.66451612903	4.92307692308	1.22068965517
1443	0.7215	-0.81935483871	15.0612903226	2.04615384615	-1.68275862069
1444	0.722	-5.16451612903	-0.870967741935	4.92307692308	1.22068965517
1445	0.7225	12.2161290323	-3.76774193548	3.48461538462	-6.03793103448
1446	0.723	-0.81935483871	0.577419354839	2.04615384615	11.3827586207
1447	0.7235	-2.26774193548	-0.870967741935	14.9923076923	-4.58620689655
1448	0.724	-2.26774193548	2.02580645161	9.23846153846	-1.68275862069
1449	0.7245	-2.26774193548	-8.11290322581	0.607692307692	-3.13448275862
1450	0.725	-6.61290322581	-0.870967741935	0.607692307692	-1.68275862069
1451	0.7255	-2.26774193548	-2.31935483871	-2.26923076923	-0.231034482759
1452	0.726	0.629032258065	-2.31935483871	0.607692307692	4.12413793103
1453	0.7265	-0.81935483871	-3.76774193548	-8.02307692308	-7.48965517241
1454	0.727	-2.26774193548	0.577419354839	-2.26923076923	-0.231034482759
1455	0.7275	-0.81935483871	2.02580645161	0.607692307692	-1.68275862069
1456	0.728	3.52580645161	0.577419354839	2.04615384615	1.22068965517
1457	0.7285	3.52580645161	0.577419354839	0.607692307692	-6.03793103448
1458	0.729	-3.71612903226	-0.870967741935	-2.26923076923	-7.48965517241
1459	0.7295	0.629032258065	-2.31935483871	-2.26923076923	-4.58620689655
1460	0.73	0.629032258065	-2.31935483871	-2.26923076923	-1.68275862069
1461	0.7305	-5.16451612903	6.37096774194	-3.70769230769	-1.68275862069
1462	0.731	-6.61290322581	-6.66451612903	-6.58461538462	2.6724137931
1463	0.7315	16.5612903226	-0.870967741935	-0.830769230769	-7.48965517241
1464	0.732	-6.61290322581	0.577419354839	2.04615384615	2.6724137931
1465	0.7325	0.629032258065	0.577419354839	2.04615384615	-0.231034482759
1466	0.733	-0.81935483871	3.47419354839	-3.70769230769	-3.13448275862
1467	0.7335	-3.71612903226	2.02580645161	-3.70769230769	-1.68275862069
1468	0.734	-3.71612903226	-8.11290322581	6.36153846154	-1.68275862069
1469	0.7345	-16.7516129032	0.577419354839	2.04615384615	-4.58620689655
1470	0.735	15.1129032258	0.577419354839	3.48461538462	-1.68275862069
1471	0.7355	-2.26774193548	-2.31935483871	-6.58461538462	-4.58620689655
1472	0.736	-3.71612903226	-2.31935483871	7.8	-1.68275862069
1473	0.7365	-2.26774193548	-6.66451612903	3.48461538462	-0.231034482759
1474	0.737	-0.81935483871	7.81935483871	2.04615384615	-1.68275862069
1475	0.7375	-2.26774193548	-8.11290322581	4.92307692308	1.22068965517
1476	0.738	10.7677419355	-2.31935483871	3.48461538462	-6.03793103448
1477	0.7385	-0.81935483871	2.02580645161	0.607692307692	-11.8448275862
1478	0.739	-2.26774193548	-0.870967741935	2.04615384615	17.1896551724
1479	0.7395	0.629032258065	-2.31935483871	19.3076923077	-0.231034482759
1480	0.74	0.629032258065	-13.9064516129	2.04615384615	-0.231034482759
1481	0.7405	-0.81935483871	15.0612903226	0.607692307692	-3.13448275862
1482	0.741	-12.4064516129	0.577419354839	4.92307692308	-1.68275862069
1483	0.7415	9.31935483871	-3.76774193548	-0.830769230769	-1.68275862069
1484	0.742	-2.26774193548	-0.870967741935	-5.14615384615	-8.94137931034
1485	0.7425	-0.81935483871	-2.31935483871	-2.26923076923	-6.03793103448
1486	0.743	-2.26774193548	0.577419354839	-6.58461538462	-3.13448275862
1487	0.7435	-2.26774193548	-0.870967741935	6.36153846154	-1.68275862069
1488	0.744	-5.16451612903	-3.76774193548	2.04615384615	-1.68275862069
1489	0.7445	-12.4064516129	-0.870967741935	0.607692307692	-1.68275862069
1490	0.745	-3.71612903226	0.577419354839	2.04615384615	-7.48965517241
1491	0.7455	0.629032258065	0.577419354839	-6.58461538462	-1.68275862069
1492	0.746	0.629032258065	0.577419354839	6.36153846154	1.22068965517
1493	0.7465	0.629032258065	-3.76774193548	-0.830769230769	-1.68275862069
1494	0.747	0.629032258065	-8.11290322581	-0.830769230769	-3.13448275862
1495	0.7475	2.07741935484	0.577419354839	-0.830769230769	-4.58620689655
1496	0.748	22.3548387097	2.02580645161	3.48461538462	-14.7482758621
1497	0.7485	-0.81935483871	-0.870967741935	-0.830769230769	-16.2
1498	0.749	-2.26774193548	-2.31935483871	-2.26923076923	14.2862068966
1499	0.7495	-3.71612903226	4.92258064516	-2.26923076923	-1.68275862069
1500	0.75	-0.81935483871	-12.4580645161	-2.26923076923	-4.58620689655
1501	0.7505	2.07741935484	0.577419354839	-2.26923076923	-0.231034482759
1502	0.751	-10.9580645161	-2.31935483871	0.607692307692	-1.68275862069
1503	0.7515	-5.16451612903	-2.31935483871	0.607692307692	11.3827586207
1504	0.752	-0.81935483871	-3.76774193548	2.04615384615	-4.58620689655
1505	0.7525	-2.26774193548	-6.66451612903	-3.70769230769	-1.68275862069
1506	0.753	-0.81935483871	-8.11290322581	0.607692307692	-3.13448275862
1507	0.7535	2.07741935484	2.02580645161	-0.830769230769	-1.68275862069
1508	0.754	3.52580645161	-6.66451612903	4.92307692308	-1.68275862069
1509	0.7545	2.07741935484	-2.31935483871	3.48461538462	-0.231034482759
1510	0.755	-2.26774193548	-2.31935483871	2.04615384615	-4.58620689655
1511	0.7555	0.629032258065	0.577419354839	16.4307692308	-0.231034482759
1512	0.756	0.629032258065	-3.76774193548	3.48461538462	-1.68275862069
1513	0.7565	3.52580645161	-12.4580645161	2.04615384615	-1.68275862069
1514	0.757	3.52580645161	-2.31935483871	2.04615384615	-0.231034482759
1515	0.7575	-15.3032258065	-5.21612903226	0.607692307692	-0.231034482759
1516	0.758	0.629032258065	-2.31935483871	2.04615384615	-1.68275862069
1517	0.7585	-0.81935483871	-2.31935483871	-0.830769230769	-4.58620689655
1518	0.759	-0.81935483871	-2.31935483871	-5.14615384615	-1.68275862069
1519	0.7595	-0.81935483871	-0.870967741935	0.607692307692	2.6724137931
1520	0.76	0.629032258065	17.9580645161	0.607692307692	-1.68275862069
1521	0.7605	-3.71612903226	-2.31935483871	2.04615384615	-0.231034482759
1522	0.761	-9.50967741935	-2.31935483871	2.04615384615	-13.2965517241
1523	0.7615	-0.81935483871	-2.31935483871	3.48461538462	-7.48965517241
1524	0.762	-0.81935483871	0.577419354839	17.8692307692	-0.231034482759
1525	0.7625	-2.26774193548	-0.870967741935	0.607692307692	-4.58620689655
1526	0.763	-2.26774193548	-8.11290322581	3.48461538462	-1.68275862069
1527	0.7635	2.07741935484	2.02580645161	0.607692307692	-1.68275862069
1528	0.764	-0.81935483871	-0.870967741935	3.48461538462	-1.68275862069
1529	0.7645	-6.61290322581	-2.31935483871	2.04615384615	14.2862068966
1530	0.765	-2.26774193548	-2.31935483871	3.48461538462	-1.68275862069
1531	0.7655	0.629032258065	3.47419354839	17.8692307692	-1.68275862069
1532	0.766	0.629032258065	-0.870967741935	20.7461538462	-3.13448275862
1533	0.7665	0.629032258065	-8.11290322581	-0.830769230769	-1.68275862069
1534	0.767	0.629032258065	-2.31935483871	2.04615384615	-1.68275862069
1535	0.7675	-9.50967741935	0.577419354839	2.04615384615	14.2862068966
1536	0.768	-0.81935483871	0.577419354839	2.04615384615	15.7379310345
1537	0.7685	-2.26774193548	-2.31935483871	0.607692307692	-8.94137931034
1538	0.769	2.07741935484	-6.66451612903	-6.58461538462	-0.231034482759
1539	0.7695	2.07741935484	7.81935483871	0.607692307692	-1.68275862069
1540	0.77	2.07741935484	-2.31935483871	-0.830769230769	-1.68275862069
1541	0.7705	-0.81935483871	0.577419354839	-0.830769230769	-1.68275862069
1542	0.771	3.52580645161	-2.31935483871	0.607692307692	-7.48965517241
1543	0.7715	3.52580645161	0.577419354839	-2.26923076923	15.7379310345
1544	0.772	-0.81935483871	-0.870967741935	19.3076923077	-1.68275862069
1545	0.7725	-2.26774193548	-0.870967741935	4.92307692308	-0.231034482759
1546	0.773	-0.81935483871	-9.56129032258	3.48461538462	-0.231034482759
1547	0.7735	0.629032258065	-3.76774193548	2.04615384615	-1.68275862069
1548	0.774	13.664516129	-0.870967741935	3.48461538462	-1.68275862069
1549	0.7745	-0.81935483871	0.577419354839	2.04615384615	12.8344827586
1550	0.775	-0.81935483871	-0.870967741935	-0.830769230769	-10.3931034483
1551	0.7755	-2.26774193548	-0.870967741935	-6.58461538462	-1.68275862069
1552	0.776	2.07741935484	0.577419354839	0.607692307692	-1.68275862069
1553	0.7765	-0.81935483871	-0.870967741935	-0.830769230769	1.22068965517
1554	0.777	-10.9580645161	-0.870967741935	0.607692307692	-8.94137931034
1555	0.7775	-2.26774193548	-2.31935483871	-0.830769230769	-10.3931034483
1556	0.778	-2.26774193548	-3.76774193548	-9.46153846154	-8.94137931034
1557	0.7785	-0.81935483871	-0.870967741935	-9.46153846154	1.22068965517
1558	0.779	-0.81935483871	-11.0096774194	3.48461538462	-1.68275862069
1559	0.7795	0.629032258065	-12.4580645161	0.607692307692	-1.68275862069
1560	0.78	-10.9580645161	-0.870967741935	2.04615384615	-1.68275862069
1561	0.7805	-8.06129032258	0.577419354839	3.48461538462	2.6724137931
1562	0.781	-0.81935483871	-2.31935483871	3.48461538462	-11.8448275862
1563	0.7815	-0.81935483871	-5.21612903226	-2.26923076923	-0.231034482759
1564	0.782	0.629032258065	2.02580645161	-0.830769230769	-1.68275862069
1565	0.7825	-0.81935483871	3.47419354839	6.36153846154	-3.13448275862
1566	0.783	-12.4064516129	0.577419354839	4.92307692308	-0.231034482759
1567	0.7835	-5.16451612903	-2.31935483871	4.92307692308	-14.7482758621
1568	0.784	0.629032258065	-0.870967741935	3.48461538462	-10.3931034483
1569	0.7845	2.07741935484	0.577419354839	-8.02307692308	-1.68275862069
1570	0.785	-2.26774193548	2.02580645161	-2.26923076923	-1.68275862069
1571	0.7855	-2.26774193548	-12.4580645161	-6.58461538462	-3.13448275862
1572	0.786	4.97419354839	-5.21612903226	-0.830769230769	-1.68275862069
1573	0.7865	-10.9580645161	-6.66451612903	-0.830769230769	-1.68275862069
1574	0.787	2.07741935484	-3.76774193548	2.04615384615	2.6724137931
1575	0.7875	0.629032258065	-0.870967741935	2.04615384615	2.6724137931
1576	0.788	2.07741935484	-3.76774193548	6.36153846154	-0.231034482759
1577	0.7885	3.52580645161	6.37096774194	3.48461538462	-3.13448275862
1578	0.789	0.629032258065	-2.31935483871	-0.830769230769	1.22068965517
1579	0.7895	-5.16451612903	0.577419354839	3.48461538462	-3.13448275862
1580	0.79	-3.71612903226	0.577419354839	0.607692307692	-1.68275862069
1581	0.7905	2.07741935484	-0.870967741935	3.48461538462	-6.03793103448
1582	0.791	-0.81935483871	-2.31935483871	-5.14615384615	-0.231034482759
1583	0.7915	0.629032258065	0.577419354839	-5.14615384615	-1.68275862069
1584	0.792	3.52580645161	13.6129032258	2.04615384615	-1.68275862069
1585	0.7925	-0.81935483871	-11.0096774194	2.04615384615	-1.68275862069
1586	0.793	25.2516129032	-2.31935483871	0.607692307692	-13.2965517241
1587	0.7935	0.629032258065	-5.21612903226	-0.830769230769	-4.58620689655
1588	0.794	-3.71612903226	-5.21612903226	-8.02307692308	-1.68275862069
1589	0.7945	-3.71612903226	-5.21612903226	6.36153846154	-1.68275862069
1590	0.795	-2.26774193548	0.577419354839	4.92307692308	-1.68275862069
1591	0.7955	-0.81935483871	-0.870967741935	3.48461538462	-0.231034482759
1592	0.796	-5.16451612903	2.02580645161	4.92307692308	-1.68275862069
1593	0.7965	13.664516129	-2.31935483871	3.48461538462	-3.13448275862
1594	0.797	2.07741935484	-2.31935483871	-6.58461538462	-0.231034482759
1595	0.7975	-0.81935483871	0.577419354839	-2.26923076923	-1.68275862069
1596	0.798	-0.81935483871	3.47419354839	-0.830769230769	1.22068965517
1597	0.7985	-2.26774193548	3.47419354839	2.04615384615	-3.13448275862
1598	0.799	-3.71612903226	7.81935483871	2.04615384615	-1.68275862069
1599	0.7995	-6.61290322581	-0.870967741935	2.04615384615	-0.231034482759
1600	0.8	-0.81935483871	-0.870967741935	2.04615384615	-11.8448275862
1601	0.8005	-2.26774193548	-0.870967741935	3.48461538462	-10.3931034483
1602	0.801	0.629032258065	-6.66451612903	-6.58461538462	-4.58620689655
1603	0.8015	0.629032258065	0.577419354839	-3.70769230769	-1.68275862069
1604	0.802	-2.26774193548	-3.76774193548	3.48461538462	1.22068965517
1605	0.8025	-10.9580645161	-2.31935483871	3.48461538462	-3.13448275862
1606	0.803	0.629032258065	-3.76774193548	4.92307692308	-1.68275862069
1607	0.8035	-3.71612903226	-2.31935483871	3.48461538462	-6.03793103448
1608	0.804	0.629032258065	-0.870967741935	-2.26923076923	-1.68275862069
1609	0.8045	-0.81935483871	-3.76774193548	3.48461538462	-1.68275862069
1610	0.805	-0.81935483871	10.7161290323	2.04615384615	-3.13448275862
1611	0.8055	-2.26774193548	-9.56129032258	2.04615384615	-0.231034482759
1612	0.806	13.664516129	-0.870967741935	2.04615384615	-8.94137931034
1613	0.8065	0.629032258065	-2.31935483871	-2.26923076923	-13.2965517241
1614	0.807	-0.81935483871	0.577419354839	-3.70769230769	15.7379310345
1615	0.8075	-3.71612903226	2.02580645161	2.04615384615	-0.231034482759
1616	0.808	-2.26774193548	15.0612903226	-0.830769230769	-1.68275862069
1617	0.8085	-5.16451612903	-6.66451612903	2.04615384615	-1.68275862069
1618	0.809	18.0096774194	-2.31935483871	3.48461538462	-3.13448275862
1619	0.8095	2.07741935484	-2.31935483871	0.607692307692	1.22068965517
1620	0.81	0.629032258065	-2.31935483871	2.04615384615	1.22068965517
1621	0.8105	-0.81935483871	-5.21612903226	7.8	-0.231034482759
1622	0.811	-0.81935483871	-11.0096774194	2.04615384615	-1.68275862069
1623	0.8115	0.629032258065	-2.31935483871	0.607692307692	-3.13448275862
1624	0.812	-2.26774193548	-2.31935483871	2.04615384615	-1.68275862069
1625	0.8125	-6.61290322581	-2.31935483871	2.04615384615	2.6724137931
1626	0.813	2.07741935484	-2.31935483871	6.36153846154	-7.48965517241
1627	0.8135	3.52580645161	-0.870967741935	19.3076923077	-1.68275862069
1628	0.814	2.07741935484	-3.76774193548	-6.58461538462	-0.231034482759
1629	0.8145	0.629032258065	2.02580645161	-3.70769230769	-1.68275862069
1630	0.815	-3.71612903226	-2.31935483871	0.607692307692	-0.231034482759
1631	0.8155	-6.61290322581	-0.870967741935	0.607692307692	-3.13448275862
1632	0.816	3.52580645161	-0.870967741935	-2.26923076923	-11.8448275862
1633	0.8165	0.629032258065	-3.76774193548	-2.26923076923	17.1896551724
1634	0.817	3.52580645161	2.02580645161	17.8692307692	-1.68275862069
1635	0.8175	2.07741935484	-0.870967741935	2.04615384615	-1.68275862069
1636	0.818	2.07741935484	-9.56129032258	2.04615384615	-1.68275862069
1637	0.8185	3.52580645161	-2.31935483871	0.607692307692	-4.58620689655
1638	0.819	19.4580645161	-0.870967741935	0.607692307692	-3.13448275862
1639	0.8195	-0.81935483871	-2.31935483871	-9.46153846154	1.22068965517
1640	0.82	0.629032258065	0.577419354839	16.4307692308	-1.68275862069
1641	0.8205	0.629032258065	-0.870967741935	20.7461538462	-1.68275862069
1642	0.821	3.52580645161	17.9580645161	0.607692307692	-1.68275862069
1643	0.8215	0.629032258065	-0.870967741935	3.48461538462	-0.231034482759
1644	0.822	-6.61290322581	-2.31935483871	-0.830769230769	1.22068965517
1645	0.8225	0.629032258065	-0.870967741935	-0.830769230769	-4.58620689655
1646	0.823	2.07741935484	0.577419354839	-0.830769230769	-3.13448275862
1647	0.8235	-3.71612903226	0.577419354839	-0.830769230769	-0.231034482759
1648	0.824	-0.81935483871	9.26774193548	2.04615384615	1.22068965517
1649	0.8245	-0.81935483871	6.37096774194	3.48461538462	1.22068965517
1650	0.825	3.52580645161	0.577419354839	4.92307692308	-3.13448275862
1651	0.8255	-6.61290322581	-0.870967741935	3.48461538462	12.8344827586
1652	0.826	-0.81935483871	-3.76774193548	-0.830769230769	-0.231034482759
1653	0.8265	0.629032258065	-2.31935483871	0.607692307692	-1.68275862069
1654	0.827	-0.81935483871	-3.76774193548	-0.830769230769	-3.13448275862
1655	0.8275	0.629032258065	-11.0096774194	-2.26923076923	-1.68275862069
1656	0.828	3.52580645161	-0.870967741935	0.607692307692	1.22068965517
1657	0.8285	-10.9580645161	-0.870967741935	2.04615384615	-0.231034482759
1658	0.829	2.07741935484	-2.31935483871	9.23846153846	-3.13448275862
1659	0.8295	0.629032258065	-0.870967741935	13.5538461538	-3.13448275862
1660	0.83	2.07741935484	0.577419354839	-2.26923076923	-1.68275862069
1661	0.8305	-2.26774193548	-6.66451612903	2.04615384615	-0.231034482759
1662	0.831	0.629032258065	-9.56129032258	0.607692307692	-1.68275862069
1663	0.8315	3.52580645161	-3.76774193548	0.607692307692	1.22068965517
1664	0.832	-8.06129032258	-0.870967741935	-0.830769230769	17.1896551724
1665	0.8325	-0.81935483871	-3.76774193548	-9.46153846154	-4.58620689655
1666	0.833	0.629032258065	0.577419354839	3.48461538462	-1.68275862069
1667	0.8335	-0.81935483871	0.577419354839	-5.14615384615	-0.231034482759
1668	0.834	0.629032258065	6.37096774194	3.48461538462	-1.68275862069
1669	0.8345	0.629032258065	-2.31935483871	-0.830769230769	1.22068965517
1670	0.835	-8.06129032258	-0.870967741935	0.607692307692	2.6724137931
1671	0.8355	-8.06129032258	-0.870967741935	3.48461538462	1.22068965517
1672	0.836	0.629032258065	0.577419354839	20.7461538462	-1.68275862069
1673	0.8365	2.07741935484	-5.21612903226	-0.830769230769	-1.68275862069
1674	0.837	2.07741935484	-11.0096774194	2.04615384615	-3.13448275862
1675	0.8375	0.629032258065	2.02580645161	3.48461538462	-3.13448275862
1676	0.838	2.07741935484	0.577419354839	3.48461538462	2.6724137931
1677	0.8385	-8.06129032258	-0.870967741935	2.04615384615	1.22068965517
1678	0.839	-0.81935483871	3.47419354839	4.92307692308	-10.3931034483
1679	0.8395	-2.26774193548	0.577419354839	4.92307692308	-7.48965517241
1680	0.84	-0.81935483871	-12.4580645161	2.04615384615	-0.231034482759
1681	0.8405	2.07741935484	13.6129032258	3.48461538462	-1.68275862069
1682	0.841	0.629032258065	-3.76774193548	4.92307692308	-4.58620689655
1683	0.8415	0.629032258065	-2.31935483871	3.48461538462	-10.3931034483
1684	0.842	-0.81935483871	-3.76774193548	4.92307692308	-7.48965517241
1685	0.8425	3.52580645161	-9.56129032258	-3.70769230769	7.0275862069
1686	0.843	0.629032258065	-5.21612903226	-2.26923076923	-1.68275862069
1687	0.8435	0.629032258065	-3.76774193548	2.04615384615	-1.68275862069
1688	0.844	-2.26774193548	-9.56129032258	-0.830769230769	-3.13448275862
1689	0.8445	-0.81935483871	-0.870967741935	-0.830769230769	-3.13448275862
1690	0.845	18.0096774194	-2.31935483871	2.04615384615	-13.2965517241
1691	0.8455	0.629032258065	2.02580645161	4.92307692308	-4.58620689655
1692	0.846	-2.26774193548	0.577419354839	-2.26923076923	-1.68275862069
1693	0.8465	0.629032258065	0.577419354839	-3.70769230769	-1.68275862069
1694	0.847	0.629032258065	10.7161290323	-0.830769230769	-3.13448275862
1695	0.8475	9.31935483871	-6.66451612903	0.607692307692	-3.13448275862
1696	0.848	15.1129032258	-0.870967741935	0.607692307692	-3.13448275862
1697	0.8485	-0.81935483871	0.577419354839	3.48461538462	-8.94137931034
1698	0.849	0.629032258065	0.577419354839	0.607692307692	-1.68275862069
1699	0.8495	0.629032258065	2.02580645161	-0.830769230769	-1.68275862069
1700	0.85	0.629032258065	3.47419354839	2.04615384615	-1.68275862069
1701	0.8505	0.629032258065	7.81935483871	3.48461538462	-1.68275862069
1702	0.851	0.629032258065	2.02580645161	0.607692307692	-1.68275862069
1703	0.8515	-6.61290322581	-0.870967741935	3.48461538462	11.3827586207
1704	0.852	-0.81935483871	-3.76774193548	3.48461538462	-1.68275862069
1705	0.8525	-0.81935483871	-0.870967741935	-3.70769230769	-1.68275862069
1706	0.853	-2.26774193548	-6.66451612903	3.48461538462	-3.13448275862
1707	0.8535	-0.81935483871	-5.21612903226	-2.26923076923	-0.231034482759
1708	0.854	-3.71612903226	-2.31935483871	3.48461538462	-3.13448275862
1709	0.8545	13.664516129	-3.76774193548	7.8	-1.68275862069
1710	0.855	-0.81935483871	0.577419354839	3.48461538462	18.6413793103
1711	0.8555	-0.81935483871	-0.870967741935	22.1846153846	-1.68275862069
