	Time	Channel 1	Channel 2	Channel 3	Channel 4
0	0.0	-0.810714285714	0.489333333333	0.525714285714	-11.7272727273
1	0.0005	-0.810714285714	0.489333333333	13.3442857143	-4.5
2	0.001	-5.17142857143	3.33466666667	9.07142857143	1.28181818182
3	0.0015	-8.07857142857	0.489333333333	0.525714285714	-1.60909090909
4	0.002	-2.26428571429	1.912	1.95	-1.60909090909
5	0.0025	0.642857142857	3.33466666667	1.95	-1.60909090909
6	0.003	-2.26428571429	3.33466666667	-0.898571428571	12.8454545455
7	0.0035	-2.26428571429	3.33466666667	3.37428571429	-8.83636363636
8	0.004	-12.4392857143	3.33466666667	1.95	5.61818181818
9	0.0045	0.642857142857	17.5613333333	1.95	-0.163636363636
10	0.005	-5.17142857143	9.02533333333	0.525714285714	-3.05454545455
11	0.0055	-0.810714285714	10.448	-9.44428571429	-1.60909090909
12	0.006	0.642857142857	9.02533333333	-3.74714285714	2.72727272727
13	0.0065	0.642857142857	10.448	-2.32285714286	-0.163636363636
14	0.007	-2.26428571429	4.75733333333	0.525714285714	-0.163636363636
15	0.0075	3.55	6.18	0.525714285714	-1.60909090909
16	0.008	20.9928571429	6.18	0.525714285714	-11.7272727273
17	0.0085	-2.26428571429	7.60266666667	-2.32285714286	15.7363636364
18	0.009	-0.810714285714	6.18	1.95	2.72727272727
19	0.0095	0.642857142857	0.489333333333	-8.02	-3.05454545455
20	0.01	-0.810714285714	0.489333333333	0.525714285714	-1.60909090909
21	0.0105	0.642857142857	16.1386666667	0.525714285714	-1.60909090909
22	0.011	-2.26428571429	-0.933333333333	0.525714285714	2.72727272727
23	0.0115	15.1785714286	-5.20133333333	-0.898571428571	-0.163636363636
24	0.012	-6.625	-8.04666666667	4.79857142857	-3.05454545455
25	0.0125	-0.810714285714	-6.624	1.95	-3.05454545455
26	0.013	2.09642857143	-6.624	7.64714285714	-1.60909090909
27	0.0135	0.642857142857	0.489333333333	1.95	-0.163636363636
28	0.014	-2.26428571429	-3.77866666667	3.37428571429	-3.05454545455
29	0.0145	3.55	-2.356	1.95	-4.5
30	0.015	20.9928571429	-2.356	1.95	2.72727272727
31	0.0155	-9.53214285714	-2.356	3.37428571429	4.17272727273
32	0.016	-3.71785714286	-0.933333333333	-0.898571428571	-11.7272727273
33	0.0165	-0.810714285714	0.489333333333	3.37428571429	18.6272727273
34	0.017	0.642857142857	-9.46933333333	-0.898571428571	-0.163636363636
35	0.0175	3.55	16.1386666667	1.95	-1.60909090909
36	0.018	-0.810714285714	0.489333333333	3.37428571429	-1.60909090909
37	0.0185	-5.17142857143	1.912	3.37428571429	-1.60909090909
38	0.019	-2.26428571429	3.33466666667	0.525714285714	-5.94545454545
39	0.0195	-0.810714285714	6.18	-0.898571428571	-1.60909090909
40	0.02	-2.26428571429	4.75733333333	7.64714285714	-1.60909090909
41	0.0205	-2.26428571429	9.02533333333	-2.32285714286	-1.60909090909
42	0.021	-2.26428571429	20.4066666667	-2.32285714286	-3.05454545455
43	0.0215	7.91071428571	9.02533333333	-0.898571428571	-0.163636363636
44	0.022	22.4464285714	14.716	0.525714285714	-0.163636363636
45	0.0225	-10.9857142857	14.716	1.95	14.2909090909
46	0.023	0.642857142857	14.716	0.525714285714	-10.2818181818
47	0.0235	-2.26428571429	13.2933333333	-3.74714285714	-4.5
48	0.024	-3.71785714286	0.489333333333	-0.898571428571	-1.60909090909
49	0.0245	-0.810714285714	20.4066666667	-0.898571428571	-1.60909090909
50	0.025	-13.8928571429	4.75733333333	1.95	2.72727272727
51	0.0255	-3.71785714286	6.18	-0.898571428571	-13.1727272727
52	0.026	0.642857142857	3.33466666667	-3.74714285714	-13.1727272727
53	0.0265	-0.810714285714	-0.933333333333	-12.2928571429	-3.05454545455
54	0.027	0.642857142857	-0.933333333333	13.3442857143	-0.163636363636
55	0.0275	0.642857142857	-5.20133333333	-0.898571428571	-1.60909090909
56	0.028	-0.810714285714	4.75733333333	1.95	-3.05454545455
57	0.0285	0.642857142857	-0.933333333333	0.525714285714	-1.60909090909
58	0.029	-0.810714285714	-3.77866666667	1.95	2.72727272727
59	0.0295	-0.810714285714	-6.624	4.79857142857	-7.39090909091
60	0.03	0.642857142857	-6.624	-10.8685714286	-8.83636363636
61	0.0305	-0.810714285714	-3.77866666667	-6.59571428571	-0.163636363636
62	0.031	-2.26428571429	10.448	-0.898571428571	-4.5
63	0.0315	-2.26428571429	-10.892	1.95	-3.05454545455
64	0.032	-2.26428571429	-9.46933333333	0.525714285714	-1.60909090909
65	0.0325	-5.17142857143	-5.20133333333	-0.898571428571	1.28181818182
66	0.033	-0.810714285714	-3.77866666667	-5.17142857143	-7.39090909091
67	0.0335	-3.71785714286	-2.356	4.79857142857	-7.39090909091
68	0.034	-2.26428571429	-3.77866666667	0.525714285714	-3.05454545455
69	0.0345	0.642857142857	-12.3146666667	-0.898571428571	-1.60909090909
70	0.035	-3.71785714286	17.5613333333	1.95	-1.60909090909
71	0.0355	-2.26428571429	-6.624	-0.898571428571	-1.60909090909
72	0.036	-5.17142857143	1.912	-0.898571428571	5.61818181818
73	0.0365	-2.26428571429	3.33466666667	0.525714285714	-0.163636363636
74	0.037	-0.810714285714	4.75733333333	7.64714285714	-3.05454545455
75	0.0375	-2.26428571429	6.18	13.3442857143	-0.163636363636
76	0.038	2.09642857143	27.52	-0.898571428571	-0.163636363636
77	0.0385	-2.26428571429	3.33466666667	-0.898571428571	-0.163636363636
78	0.039	16.6321428571	13.2933333333	-2.32285714286	-1.60909090909
79	0.0395	-12.4392857143	9.02533333333	1.95	14.2909090909
80	0.04	-2.26428571429	10.448	0.525714285714	-10.2818181818
81	0.0405	-2.26428571429	9.02533333333	-9.44428571429	-1.60909090909
82	0.041	0.642857142857	3.33466666667	-0.898571428571	-1.60909090909
83	0.0415	-2.26428571429	17.5613333333	0.525714285714	-0.163636363636
84	0.042	0.642857142857	-2.356	-0.898571428571	-1.60909090909
85	0.0425	-10.9857142857	3.33466666667	0.525714285714	-0.163636363636
86	0.043	-2.26428571429	-0.933333333333	1.95	-1.60909090909
87	0.0435	0.642857142857	-2.356	-8.02	1.28181818182
88	0.044	-2.26428571429	0.489333333333	-5.17142857143	-0.163636363636
89	0.0445	-0.810714285714	0.489333333333	13.3442857143	-3.05454545455
90	0.045	2.09642857143	-10.892	-0.898571428571	-0.163636363636
91	0.0455	-2.26428571429	11.8706666667	-3.74714285714	-0.163636363636
92	0.046	-8.07857142857	-3.77866666667	-3.74714285714	-3.05454545455
93	0.0465	19.5392857143	-0.933333333333	0.525714285714	-0.163636363636
94	0.047	0.642857142857	-2.356	-2.32285714286	15.7363636364
95	0.0475	2.09642857143	-0.933333333333	11.92	-1.60909090909
96	0.048	0.642857142857	0.489333333333	-8.02	-1.60909090909
97	0.0485	0.642857142857	-3.77866666667	0.525714285714	-1.60909090909
98	0.049	-2.26428571429	6.18	1.95	-1.60909090909
99	0.0495	-3.71785714286	0.489333333333	4.79857142857	-7.39090909091
100	0.05	-5.17142857143	1.912	-0.898571428571	-10.2818181818
101	0.0505	-2.26428571429	3.33466666667	-10.8685714286	-4.5
102	0.051	0.642857142857	1.912	3.37428571429	8.50909090909
103	0.0515	2.09642857143	-8.04666666667	3.37428571429	-1.60909090909
104	0.052	5.00357142857	20.4066666667	1.95	1.28181818182
105	0.0525	-3.71785714286	4.75733333333	-0.898571428571	-1.60909090909
106	0.053	18.0857142857	4.75733333333	3.37428571429	-1.60909090909
107	0.0535	-2.26428571429	6.18	1.95	14.2909090909
108	0.054	-0.810714285714	6.18	1.95	14.2909090909
109	0.0545	0.642857142857	10.448	9.07142857143	-1.60909090909
110	0.055	-0.810714285714	20.4066666667	0.525714285714	-0.163636363636
111	0.0555	-0.810714285714	13.2933333333	0.525714285714	-1.60909090909
112	0.056	2.09642857143	18.984	0.525714285714	-1.60909090909
113	0.0565	7.91071428571	13.2933333333	0.525714285714	-0.163636363636
114	0.057	0.642857142857	7.60266666667	4.79857142857	1.28181818182
115	0.0575	-3.71785714286	9.02533333333	-6.59571428571	-1.60909090909
116	0.058	-0.810714285714	10.448	-2.32285714286	-5.94545454545
117	0.0585	-0.810714285714	-3.77866666667	-5.17142857143	-3.05454545455
118	0.059	-0.810714285714	6.18	-2.32285714286	-1.60909090909
119	0.0595	2.09642857143	-3.77866666667	0.525714285714	2.72727272727
120	0.06	0.642857142857	-2.356	1.95	4.17272727273
121	0.0605	-2.26428571429	-3.77866666667	1.95	4.17272727273
122	0.061	-0.810714285714	-5.20133333333	1.95	-1.60909090909
123	0.0615	-0.810714285714	-0.933333333333	-5.17142857143	-0.163636363636
124	0.062	-0.810714285714	-12.3146666667	-2.32285714286	-1.60909090909
125	0.0625	0.642857142857	-6.624	-0.898571428571	-0.163636363636
126	0.063	-6.625	-5.20133333333	-0.898571428571	-3.05454545455
127	0.0635	7.91071428571	-2.356	0.525714285714	-7.39090909091
128	0.064	-5.17142857143	0.489333333333	0.525714285714	-1.60909090909
129	0.0645	0.642857142857	-0.933333333333	6.22285714286	-4.5
130	0.065	-0.810714285714	-3.77866666667	0.525714285714	-3.05454545455
131	0.0655	-0.810714285714	-12.3146666667	0.525714285714	-1.60909090909
132	0.066	0.642857142857	17.5613333333	3.37428571429	-0.163636363636
133	0.0665	-13.8928571429	0.489333333333	4.79857142857	2.72727272727
134	0.067	-9.53214285714	1.912	3.37428571429	-13.1727272727
135	0.0675	-0.810714285714	1.912	1.95	-1.60909090909
136	0.068	0.642857142857	1.912	1.95	15.7363636364
137	0.0685	-2.26428571429	0.489333333333	0.525714285714	-1.60909090909
138	0.069	3.55	-0.933333333333	0.525714285714	-1.60909090909
139	0.0695	0.642857142857	17.5613333333	1.95	-1.60909090909
140	0.07	-2.26428571429	3.33466666667	0.525714285714	-1.60909090909
141	0.0705	-5.17142857143	6.18	-0.898571428571	2.72727272727
142	0.071	0.642857142857	4.75733333333	7.64714285714	-4.5
143	0.0715	0.642857142857	10.448	17.6171428571	1.28181818182
144	0.072	0.642857142857	9.02533333333	-8.02	-1.60909090909
145	0.0725	0.642857142857	17.5613333333	3.37428571429	-1.60909090909
146	0.073	-5.17142857143	9.02533333333	3.37428571429	-1.60909090909
147	0.0735	-5.17142857143	6.18	0.525714285714	-0.163636363636
148	0.074	10.8178571429	7.60266666667	4.79857142857	-3.05454545455
149	0.0745	-3.71785714286	4.75733333333	4.79857142857	5.61818181818
150	0.075	-0.810714285714	4.75733333333	1.95	-1.60909090909
151	0.0755	-2.26428571429	6.18	0.525714285714	-0.163636363636
152	0.076	0.642857142857	6.18	0.525714285714	-0.163636363636
153	0.0765	-2.26428571429	-9.46933333333	0.525714285714	-1.60909090909
154	0.077	20.9928571429	-5.20133333333	1.95	-11.7272727273
155	0.0775	0.642857142857	-5.20133333333	1.95	14.2909090909
156	0.078	-0.810714285714	-5.20133333333	7.64714285714	14.2909090909
157	0.0785	-0.810714285714	-5.20133333333	21.89	-3.05454545455
158	0.079	0.642857142857	-8.04666666667	-6.59571428571	-3.05454545455
159	0.0795	0.642857142857	10.448	1.95	-3.05454545455
160	0.08	-3.71785714286	-10.892	1.95	-1.60909090909
161	0.0805	2.09642857143	-3.77866666667	0.525714285714	2.72727272727
162	0.081	-9.53214285714	-2.356	0.525714285714	1.28181818182
163	0.0815	-0.810714285714	-2.356	4.79857142857	-7.39090909091
164	0.082	-3.71785714286	-3.77866666667	-3.74714285714	-0.163636363636
165	0.0825	-3.71785714286	-10.892	1.95	-1.60909090909
166	0.083	2.09642857143	-0.933333333333	3.37428571429	-1.60909090909
167	0.0835	-0.810714285714	-6.624	1.95	-1.60909090909
168	0.084	10.8178571429	-3.77866666667	3.37428571429	-3.05454545455
169	0.0845	-5.17142857143	-2.356	1.95	1.28181818182
170	0.085	0.642857142857	0.489333333333	6.22285714286	-4.5
171	0.0855	-2.26428571429	-0.933333333333	4.79857142857	-4.5
172	0.086	0.642857142857	-10.892	1.95	-3.05454545455
173	0.0865	0.642857142857	17.5613333333	4.79857142857	-3.05454545455
174	0.087	-0.810714285714	4.75733333333	3.37428571429	-1.60909090909
175	0.0875	-13.8928571429	7.60266666667	1.95	-3.05454545455
176	0.088	-0.810714285714	9.02533333333	1.95	-10.2818181818
177	0.0885	-0.810714285714	9.02533333333	0.525714285714	15.7363636364
178	0.089	0.642857142857	13.2933333333	16.1928571429	-3.05454545455
179	0.0895	-2.26428571429	14.716	14.7685714286	-1.60909090909
180	0.09	-0.810714285714	23.252	0.525714285714	-3.05454545455
181	0.0905	-0.810714285714	9.02533333333	1.95	-0.163636363636
182	0.091	-2.26428571429	6.18	0.525714285714	-1.60909090909
183	0.0915	5.00357142857	3.33466666667	3.37428571429	-3.05454545455
184	0.092	-3.71785714286	3.33466666667	1.95	-5.94545454545
185	0.0925	-2.26428571429	1.912	6.22285714286	8.50909090909
186	0.093	-0.810714285714	-12.3146666667	4.79857142857	-0.163636363636
187	0.0935	0.642857142857	14.716	3.37428571429	-1.60909090909
188	0.094	-2.26428571429	-5.20133333333	0.525714285714	1.28181818182
189	0.0945	-12.4392857143	-5.20133333333	1.95	-1.60909090909
190	0.095	-2.26428571429	-8.04666666667	0.525714285714	-10.2818181818
191	0.0955	0.642857142857	-8.04666666667	-6.59571428571	-1.60909090909
192	0.096	-0.810714285714	-6.624	19.0414285714	-3.05454545455
193	0.0965	-2.26428571429	-6.624	4.79857142857	1.28181818182
194	0.097	-0.810714285714	-5.20133333333	3.37428571429	-0.163636363636
195	0.0975	0.642857142857	-6.624	4.79857142857	1.28181818182
196	0.098	5.00357142857	-5.20133333333	4.79857142857	-0.163636363636
197	0.0985	2.09642857143	-6.624	1.95	-1.60909090909
198	0.099	0.642857142857	-5.20133333333	0.525714285714	-8.83636363636
199	0.0995	-0.810714285714	-6.624	4.79857142857	4.17272727273
200	0.1	-0.810714285714	-15.16	0.525714285714	-1.60909090909
201	0.1005	3.55	17.5613333333	0.525714285714	-1.60909090909
202	0.101	-2.26428571429	-0.933333333333	-0.898571428571	-1.60909090909
203	0.1015	-9.53214285714	-2.356	0.525714285714	-1.60909090909
204	0.102	12.2714285714	-2.356	4.79857142857	-0.163636363636
205	0.1025	0.642857142857	0.489333333333	-0.898571428571	-8.83636363636
206	0.103	-2.26428571429	3.33466666667	14.7685714286	-3.05454545455
207	0.1035	0.642857142857	-0.933333333333	-6.59571428571	-0.163636363636
208	0.104	-0.810714285714	7.60266666667	1.95	-1.60909090909
209	0.1045	-3.71785714286	0.489333333333	3.37428571429	-0.163636363636
210	0.105	12.2714285714	14.716	1.95	-1.60909090909
211	0.1055	-5.17142857143	13.2933333333	4.79857142857	5.61818181818
212	0.106	-2.26428571429	13.2933333333	-8.02	-4.5
213	0.1065	-0.810714285714	13.2933333333	16.1928571429	-4.5
214	0.107	-2.26428571429	0.489333333333	-0.898571428571	-1.60909090909
215	0.1075	0.642857142857	24.6746666667	1.95	-1.60909090909
216	0.108	-2.26428571429	4.75733333333	1.95	-0.163636363636
217	0.1085	0.642857142857	3.33466666667	3.37428571429	-0.163636363636
218	0.109	0.642857142857	1.912	4.79857142857	-5.94545454545
219	0.1095	2.09642857143	-0.933333333333	-8.02	-1.60909090909
220	0.11	-0.810714285714	-2.356	-6.59571428571	-0.163636363636
221	0.1105	0.642857142857	-3.77866666667	0.525714285714	-1.60909090909
222	0.111	0.642857142857	-8.04666666667	4.79857142857	-1.60909090909
223	0.1115	-13.8928571429	-6.624	1.95	-3.05454545455
224	0.112	20.9928571429	-9.46933333333	0.525714285714	-10.2818181818
225	0.1125	-3.71785714286	-9.46933333333	0.525714285714	8.50909090909
226	0.113	0.642857142857	-8.04666666667	-8.02	-5.94545454545
227	0.1135	-2.26428571429	-5.20133333333	-2.32285714286	-1.60909090909
228	0.114	0.642857142857	-16.5826666667	-0.898571428571	-0.163636363636
229	0.1145	0.642857142857	-12.3146666667	0.525714285714	2.72727272727
230	0.115	-8.07857142857	-6.624	1.95	-1.60909090909
231	0.1155	-2.26428571429	-6.624	0.525714285714	15.7363636364
232	0.116	-0.810714285714	-6.624	7.64714285714	17.1818181818
233	0.1165	-3.71785714286	-3.77866666667	20.4657142857	-1.60909090909
234	0.117	-0.810714285714	-3.77866666667	-6.59571428571	-0.163636363636
235	0.1175	-0.810714285714	9.02533333333	1.95	-1.60909090909
236	0.118	-0.810714285714	-0.933333333333	1.95	-1.60909090909
237	0.1185	9.36428571429	0.489333333333	0.525714285714	-0.163636363636
238	0.119	0.642857142857	0.489333333333	3.37428571429	-0.163636363636
239	0.1195	-2.26428571429	0.489333333333	6.22285714286	-4.5
240	0.12	-0.810714285714	0.489333333333	-9.44428571429	-3.05454545455
241	0.1205	-0.810714285714	6.18	0.525714285714	-3.05454545455
242	0.121	0.642857142857	-5.20133333333	3.37428571429	-0.163636363636
243	0.1215	0.642857142857	0.489333333333	1.95	-0.163636363636
244	0.122	0.642857142857	6.18	4.79857142857	-5.94545454545
245	0.1225	-5.17142857143	6.18	3.37428571429	7.06363636364
246	0.123	0.642857142857	6.18	3.37428571429	-1.60909090909
247	0.1235	0.642857142857	4.75733333333	20.4657142857	-3.05454545455
248	0.124	-2.26428571429	3.33466666667	-8.02	-1.60909090909
249	0.1245	-3.71785714286	20.4066666667	-0.898571428571	-1.60909090909
250	0.125	-0.810714285714	-2.356	1.95	-1.60909090909
251	0.1255	5.00357142857	0.489333333333	6.22285714286	-5.94545454545
252	0.126	-2.26428571429	0.489333333333	1.95	8.50909090909
253	0.1265	-0.810714285714	-6.624	4.79857142857	7.06363636364
254	0.127	0.642857142857	-6.624	20.4657142857	-1.60909090909
255	0.1275	0.642857142857	-9.46933333333	-3.74714285714	-1.60909090909
256	0.128	-0.810714285714	-2.356	0.525714285714	-1.60909090909
257	0.1285	2.09642857143	-20.8506666667	-0.898571428571	-0.163636363636
258	0.129	-12.4392857143	-10.892	3.37428571429	1.28181818182
259	0.1295	-12.4392857143	-9.46933333333	4.79857142857	-10.2818181818
260	0.13	0.642857142857	-10.892	-0.898571428571	-10.2818181818
261	0.1305	2.09642857143	-8.04666666667	-8.02	-1.60909090909
262	0.131	-0.810714285714	-13.7373333333	0.525714285714	-0.163636363636
263	0.1315	0.642857142857	-9.46933333333	1.95	-3.05454545455
264	0.132	-0.810714285714	-12.3146666667	0.525714285714	-0.163636363636
265	0.1325	-5.17142857143	-5.20133333333	3.37428571429	-1.60909090909
266	0.133	12.2714285714	-5.20133333333	3.37428571429	-11.7272727273
267	0.1335	-0.810714285714	-3.77866666667	-0.898571428571	11.4
268	0.134	0.642857142857	-5.20133333333	20.4657142857	-1.60909090909
269	0.1345	-2.26428571429	-6.624	-6.59571428571	-1.60909090909
270	0.135	-0.810714285714	-5.20133333333	3.37428571429	-3.05454545455
271	0.1355	2.09642857143	-6.624	1.95	-1.60909090909
272	0.136	-8.07857142857	-2.356	1.95	-0.163636363636
273	0.1365	0.642857142857	1.912	4.79857142857	-1.60909090909
274	0.137	-5.17142857143	1.912	-0.898571428571	-5.94545454545
275	0.1375	0.642857142857	1.912	6.22285714286	15.7363636364
276	0.138	-5.17142857143	9.02533333333	-9.44428571429	-8.83636363636
277	0.1385	-2.26428571429	24.6746666667	1.95	-1.60909090909
278	0.139	-0.810714285714	3.33466666667	1.95	1.28181818182
279	0.1395	-12.4392857143	6.18	3.37428571429	2.72727272727
280	0.14	18.0857142857	7.60266666667	1.95	-1.60909090909
281	0.1405	-0.810714285714	6.18	3.37428571429	15.7363636364
282	0.141	-0.810714285714	7.60266666667	16.1928571429	-1.60909090909
283	0.1415	-0.810714285714	3.33466666667	-3.74714285714	-0.163636363636
284	0.142	0.642857142857	3.33466666667	3.37428571429	-1.60909090909
285	0.1425	-3.71785714286	1.912	4.79857142857	-0.163636363636
286	0.143	-5.17142857143	-2.356	4.79857142857	-1.60909090909
287	0.1435	5.00357142857	-8.04666666667	1.95	-0.163636363636
288	0.144	0.642857142857	-6.624	3.37428571429	-7.39090909091
289	0.1445	-0.810714285714	-6.624	6.22285714286	5.61818181818
290	0.145	-0.810714285714	-20.8506666667	1.95	-1.60909090909
291	0.1455	0.642857142857	-5.20133333333	1.95	-1.60909090909
292	0.146	-0.810714285714	-16.5826666667	0.525714285714	-1.60909090909
293	0.1465	9.36428571429	-5.20133333333	-2.32285714286	-5.94545454545
294	0.147	-6.625	-3.77866666667	-2.32285714286	-7.39090909091
295	0.1475	-2.26428571429	-6.624	-10.8685714286	-5.94545454545
296	0.148	-2.26428571429	-3.77866666667	-0.898571428571	-3.05454545455
297	0.1485	0.642857142857	-18.0053333333	-3.74714285714	1.28181818182
298	0.149	0.642857142857	-18.0053333333	0.525714285714	-0.163636363636
299	0.1495	-5.17142857143	14.716	4.79857142857	-1.60909090909
300	0.15	15.1785714286	-3.77866666667	1.95	-1.60909090909
301	0.1505	-0.810714285714	-0.933333333333	3.37428571429	14.2909090909
302	0.151	-0.810714285714	-2.356	0.525714285714	11.4
303	0.1515	-2.26428571429	-2.356	11.92	-0.163636363636
304	0.152	-0.810714285714	-10.892	1.95	-1.60909090909
305	0.1525	0.642857142857	-3.77866666667	1.95	-1.60909090909
306	0.153	16.6321428571	-0.933333333333	0.525714285714	2.72727272727
307	0.1535	-6.625	1.912	3.37428571429	1.28181818182
308	0.154	-0.810714285714	1.912	1.95	-7.39090909091
309	0.1545	-0.810714285714	6.18	1.95	5.61818181818
310	0.155	0.642857142857	11.8706666667	1.95	-1.60909090909
311	0.1555	-0.810714285714	30.3653333333	0.525714285714	-1.60909090909
312	0.156	3.55	3.33466666667	1.95	-1.60909090909
313	0.1565	19.5392857143	10.448	4.79857142857	-0.163636363636
314	0.157	-10.9857142857	1.912	3.37428571429	-1.60909090909
315	0.1575	-3.71785714286	4.75733333333	16.1928571429	-3.05454545455
316	0.158	-0.810714285714	4.75733333333	-5.17142857143	-3.05454545455
317	0.1585	-2.26428571429	-0.933333333333	3.37428571429	-0.163636363636
318	0.159	0.642857142857	-5.20133333333	3.37428571429	-1.60909090909
319	0.1595	-8.07857142857	-2.356	1.95	1.28181818182
320	0.16	-5.17142857143	-5.20133333333	3.37428571429	-13.1727272727
321	0.1605	-2.26428571429	-5.20133333333	-0.898571428571	-3.05454545455
322	0.161	-0.810714285714	-6.624	0.525714285714	1.28181818182
323	0.1615	0.642857142857	-6.624	-6.59571428571	-1.60909090909
324	0.162	-2.26428571429	-16.5826666667	-0.898571428571	-0.163636363636
325	0.1625	0.642857142857	-15.16	4.79857142857	-0.163636363636
326	0.163	-12.4392857143	-10.892	1.95	-0.163636363636
327	0.1635	-10.9857142857	-10.892	1.95	-1.60909090909
328	0.164	-3.71785714286	-10.892	0.525714285714	-7.39090909091
329	0.1645	-2.26428571429	-10.892	-0.898571428571	11.4
330	0.165	0.642857142857	-10.892	4.79857142857	-1.60909090909
331	0.1655	-0.810714285714	-19.428	-0.898571428571	-4.5
332	0.166	2.09642857143	-10.892	0.525714285714	2.72727272727
333	0.1665	-10.9857142857	-8.04666666667	1.95	-1.60909090909
334	0.167	18.0857142857	-8.04666666667	3.37428571429	-5.94545454545
335	0.1675	2.09642857143	-8.04666666667	-9.44428571429	-1.60909090909
336	0.168	0.642857142857	-5.20133333333	-8.02	-4.5
337	0.1685	0.642857142857	-3.77866666667	19.0414285714	-1.60909090909
338	0.169	-0.810714285714	13.2933333333	4.79857142857	-1.60909090909
339	0.1695	0.642857142857	-3.77866666667	-0.898571428571	-0.163636363636
340	0.17	0.642857142857	-2.356	-0.898571428571	-1.60909090909
341	0.1705	9.36428571429	0.489333333333	3.37428571429	-1.60909090909
342	0.171	0.642857142857	4.75733333333	0.525714285714	-10.2818181818
343	0.1715	-0.810714285714	6.18	4.79857142857	11.4
344	0.172	0.642857142857	-0.933333333333	3.37428571429	-1.60909090909
345	0.1725	0.642857142857	26.0973333333	1.95	-0.163636363636
346	0.173	-3.71785714286	6.18	3.37428571429	-1.60909090909
347	0.1735	9.36428571429	4.75733333333	4.79857142857	-1.60909090909
348	0.174	2.09642857143	4.75733333333	3.37428571429	-1.60909090909
349	0.1745	-2.26428571429	3.33466666667	-10.8685714286	-4.5
350	0.175	-3.71785714286	4.75733333333	-5.17142857143	-1.60909090909
351	0.1755	-0.810714285714	-9.46933333333	4.79857142857	-4.5
352	0.176	2.09642857143	-10.892	1.95	-1.60909090909
353	0.1765	-2.26428571429	-3.77866666667	0.525714285714	-3.05454545455
354	0.177	5.00357142857	-9.46933333333	3.37428571429	-1.60909090909
355	0.1775	-0.810714285714	-9.46933333333	4.79857142857	-7.39090909091
356	0.178	2.09642857143	-10.892	-5.17142857143	-1.60909090909
357	0.1785	-0.810714285714	-10.892	-3.74714285714	1.28181818182
358	0.179	-0.810714285714	-3.77866666667	-0.898571428571	-0.163636363636
359	0.1795	-0.810714285714	-13.7373333333	1.95	1.28181818182
360	0.18	-12.4392857143	-8.04666666667	0.525714285714	-3.05454545455
361	0.1805	19.5392857143	-8.04666666667	0.525714285714	-11.7272727273
362	0.181	0.642857142857	-6.624	1.95	2.72727272727
363	0.1815	0.642857142857	-6.624	-0.898571428571	-8.83636363636
364	0.182	0.642857142857	-12.3146666667	3.37428571429	-3.05454545455
365	0.1825	0.642857142857	-2.356	0.525714285714	-1.60909090909
366	0.183	-2.26428571429	-10.892	4.79857142857	-1.60909090909
367	0.1835	-10.9857142857	-9.46933333333	-0.898571428571	-3.05454545455
368	0.184	19.5392857143	-9.46933333333	3.37428571429	-13.1727272727
369	0.1845	0.642857142857	-9.46933333333	0.525714285714	14.2909090909
370	0.185	-0.810714285714	-8.04666666667	-0.898571428571	-8.83636363636
371	0.1855	0.642857142857	-6.624	-2.32285714286	-0.163636363636
372	0.186	-0.810714285714	-18.0053333333	0.525714285714	-1.60909090909
373	0.1865	5.00357142857	-3.77866666667	1.95	-1.60909090909
374	0.187	20.9928571429	-3.77866666667	4.79857142857	2.72727272727
375	0.1875	-9.53214285714	0.489333333333	3.37428571429	1.28181818182
376	0.188	3.55	1.912	6.22285714286	-8.83636363636
377	0.1885	0.642857142857	4.75733333333	0.525714285714	-8.83636363636
378	0.189	0.642857142857	3.33466666667	9.07142857143	-1.60909090909
379	0.1895	0.642857142857	10.448	-3.74714285714	-0.163636363636
380	0.19	0.642857142857	3.33466666667	3.37428571429	-1.60909090909
381	0.1905	0.642857142857	1.912	3.37428571429	-3.05454545455
382	0.191	-3.71785714286	0.489333333333	4.79857142857	-0.163636363636
383	0.1915	-0.810714285714	0.489333333333	-3.74714285714	-0.163636363636
384	0.192	-3.71785714286	1.912	3.37428571429	-1.60909090909
385	0.1925	0.642857142857	-0.933333333333	16.1928571429	-3.05454545455
386	0.193	0.642857142857	-12.3146666667	0.525714285714	-0.163636363636
387	0.1935	0.642857142857	-9.46933333333	0.525714285714	1.28181818182
388	0.194	-12.4392857143	-9.46933333333	-0.898571428571	2.72727272727
389	0.1945	-6.625	-9.46933333333	1.95	-10.2818181818
390	0.195	0.642857142857	-9.46933333333	-5.17142857143	-1.60909090909
391	0.1955	0.642857142857	-13.7373333333	-5.17142857143	-0.163636363636
392	0.196	-0.810714285714	-9.46933333333	14.7685714286	-3.05454545455
393	0.1965	0.642857142857	-6.624	-3.74714285714	-0.163636363636
394	0.197	-0.810714285714	-10.892	-0.898571428571	-0.163636363636
395	0.1975	12.2714285714	-6.624	1.95	2.72727272727
396	0.198	-6.625	-9.46933333333	1.95	-0.163636363636
397	0.1985	0.642857142857	-6.624	-8.02	-8.83636363636
398	0.199	0.642857142857	-5.20133333333	-5.17142857143	-1.60909090909
399	0.1995	-0.810714285714	-8.04666666667	1.95	-1.60909090909
400	0.2	-0.810714285714	-13.7373333333	3.37428571429	-3.05454545455
401	0.2005	-0.810714285714	-6.624	0.525714285714	-0.163636363636
402	0.201	-3.71785714286	-5.20133333333	1.95	-0.163636363636
403	0.2015	-3.71785714286	-6.624	1.95	-4.5
404	0.202	0.642857142857	-3.77866666667	11.92	-3.05454545455
405	0.2025	-0.810714285714	-6.624	3.37428571429	-1.60909090909
406	0.203	-0.810714285714	-12.3146666667	1.95	-0.163636363636
407	0.2035	-0.810714285714	9.02533333333	1.95	-1.60909090909
408	0.204	-5.17142857143	-5.20133333333	1.95	-0.163636363636
409	0.2045	10.8178571429	0.489333333333	3.37428571429	-1.60909090909
410	0.205	-3.71785714286	3.33466666667	0.525714285714	-0.163636363636
411	0.2055	0.642857142857	4.75733333333	6.22285714286	8.50909090909
412	0.206	-0.810714285714	6.18	-9.44428571429	-5.94545454545
413	0.2065	0.642857142857	6.18	-6.59571428571	-3.05454545455
414	0.207	-0.810714285714	-5.20133333333	-0.898571428571	-0.163636363636
415	0.2075	-0.810714285714	0.489333333333	0.525714285714	-0.163636363636
416	0.208	9.36428571429	0.489333333333	1.95	-5.94545454545
417	0.2085	-6.625	-0.933333333333	1.95	-3.05454545455
418	0.209	-0.810714285714	0.489333333333	16.1928571429	-0.163636363636
419	0.2095	-2.26428571429	-9.46933333333	-0.898571428571	-1.60909090909
420	0.21	0.642857142857	-8.04666666667	-3.74714285714	-0.163636363636
421	0.2105	0.642857142857	-8.04666666667	0.525714285714	-0.163636363636
422	0.211	-12.4392857143	-10.892	3.37428571429	-4.5
423	0.2115	22.4464285714	-12.3146666667	0.525714285714	-1.60909090909
424	0.212	-2.26428571429	-16.5826666667	-0.898571428571	17.1818181818
425	0.2125	0.642857142857	-12.3146666667	1.95	1.28181818182
426	0.213	-0.810714285714	-13.7373333333	-6.59571428571	-3.05454545455
427	0.2135	0.642857142857	-8.04666666667	1.95	-1.60909090909
428	0.214	2.09642857143	4.75733333333	1.95	-1.60909090909
429	0.2145	0.642857142857	-16.5826666667	3.37428571429	-1.60909090909
430	0.215	10.8178571429	-10.892	0.525714285714	1.28181818182
431	0.2155	-0.810714285714	-10.892	-0.898571428571	-7.39090909091
432	0.216	2.09642857143	-10.892	1.95	-10.2818181818
433	0.2165	-2.26428571429	-8.04666666667	-3.74714285714	-0.163636363636
434	0.217	-0.810714285714	-9.46933333333	0.525714285714	-1.60909090909
435	0.2175	-0.810714285714	-10.892	0.525714285714	-0.163636363636
436	0.218	-5.17142857143	-5.20133333333	1.95	-0.163636363636
437	0.2185	5.00357142857	-3.77866666667	1.95	-1.60909090909
438	0.219	0.642857142857	-5.20133333333	4.79857142857	2.72727272727
439	0.2195	2.09642857143	-5.20133333333	16.1928571429	-1.60909090909
440	0.22	0.642857142857	-5.20133333333	4.79857142857	-0.163636363636
441	0.2205	-0.810714285714	-0.933333333333	-0.898571428571	-0.163636363636
442	0.221	-0.810714285714	-8.04666666667	4.79857142857	-0.163636363636
443	0.2215	3.55	0.489333333333	1.95	-3.05454545455
444	0.222	-5.17142857143	4.75733333333	4.79857142857	12.8454545455
445	0.2225	-2.26428571429	6.18	4.79857142857	-0.163636363636
446	0.223	-0.810714285714	3.33466666667	0.525714285714	-4.5
447	0.2235	-3.71785714286	6.18	-0.898571428571	-1.60909090909
448	0.224	0.642857142857	-6.624	3.37428571429	-1.60909090909
449	0.2245	0.642857142857	0.489333333333	1.95	-0.163636363636
450	0.225	3.55	-3.77866666667	3.37428571429	1.28181818182
451	0.2255	-8.07857142857	-2.356	3.37428571429	14.2909090909
452	0.226	-0.810714285714	-5.20133333333	3.37428571429	-10.2818181818
453	0.2265	2.09642857143	-6.624	-0.898571428571	-8.83636363636
454	0.227	-0.810714285714	-6.624	1.95	18.6272727273
455	0.2275	-2.26428571429	-13.7373333333	0.525714285714	-0.163636363636
456	0.228	-0.810714285714	0.489333333333	4.79857142857	-0.163636363636
457	0.2285	-0.810714285714	-10.892	0.525714285714	-1.60909090909
458	0.229	-2.26428571429	-12.3146666667	0.525714285714	1.28181818182
459	0.2295	0.642857142857	-10.892	1.95	-13.1727272727
460	0.23	-0.810714285714	-10.892	-10.8685714286	-4.5
461	0.2305	0.642857142857	-10.892	-10.8685714286	-0.163636363636
462	0.231	-3.71785714286	9.02533333333	0.525714285714	-1.60909090909
463	0.2315	-2.26428571429	-20.8506666667	0.525714285714	2.72727272727
464	0.232	-3.71785714286	-8.04666666667	0.525714285714	-1.60909090909
465	0.2325	7.91071428571	-10.892	0.525714285714	-1.60909090909
466	0.233	-0.810714285714	-9.46933333333	-3.74714285714	-1.60909090909
467	0.2335	-0.810714285714	-6.624	1.95	1.28181818182
468	0.234	0.642857142857	-0.933333333333	-3.74714285714	-1.60909090909
469	0.2345	0.642857142857	-13.7373333333	0.525714285714	-0.163636363636
470	0.235	0.642857142857	-10.892	3.37428571429	-1.60909090909
471	0.2355	-12.4392857143	-3.77866666667	-0.898571428571	-1.60909090909
472	0.236	22.4464285714	0.489333333333	0.525714285714	-4.5
473	0.2365	0.642857142857	1.912	-8.02	-1.60909090909
474	0.237	0.642857142857	4.75733333333	17.6171428571	-1.60909090909
475	0.2375	0.642857142857	6.18	1.95	-1.60909090909
476	0.238	0.642857142857	1.912	0.525714285714	-1.60909090909
477	0.2385	-0.810714285714	21.8293333333	0.525714285714	-0.163636363636
478	0.239	0.642857142857	9.02533333333	0.525714285714	1.28181818182
479	0.2395	0.642857142857	10.448	1.95	-1.60909090909
480	0.24	-2.26428571429	10.448	-3.74714285714	-1.60909090909
481	0.2405	-2.26428571429	7.60266666667	1.95	-1.60909090909
482	0.241	0.642857142857	10.448	3.37428571429	-1.60909090909
483	0.2415	-2.26428571429	-5.20133333333	4.79857142857	-0.163636363636
484	0.242	5.00357142857	4.75733333333	3.37428571429	-3.05454545455
485	0.2425	20.9928571429	0.489333333333	1.95	2.72727272727
486	0.243	-8.07857142857	-2.356	0.525714285714	1.28181818182
487	0.2435	0.642857142857	-5.20133333333	0.525714285714	-8.83636363636
488	0.244	2.09642857143	-8.04666666667	-3.74714285714	-1.60909090909
489	0.2445	0.642857142857	-16.5826666667	0.525714285714	-3.05454545455
490	0.245	0.642857142857	-0.933333333333	0.525714285714	-0.163636363636
491	0.2455	0.642857142857	-15.16	-0.898571428571	-3.05454545455
492	0.246	9.36428571429	-9.46933333333	1.95	-1.60909090909
493	0.2465	-5.17142857143	-8.04666666667	1.95	-1.60909090909
494	0.247	0.642857142857	-5.20133333333	1.95	2.72727272727
495	0.2475	0.642857142857	-5.20133333333	-2.32285714286	-1.60909090909
496	0.248	-2.26428571429	-8.04666666667	-2.32285714286	-1.60909090909
497	0.2485	-2.26428571429	-13.7373333333	1.95	-0.163636363636
498	0.249	3.55	-10.892	3.37428571429	-3.05454545455
499	0.2495	16.6321428571	-5.20133333333	1.95	-0.163636363636
500	0.25	0.642857142857	-6.624	4.79857142857	-5.94545454545
501	0.2505	-0.810714285714	-6.624	-0.898571428571	-8.83636363636
502	0.251	2.09642857143	-0.933333333333	4.79857142857	15.7363636364
503	0.2515	-5.17142857143	-10.892	1.95	-1.60909090909
504	0.252	0.642857142857	10.448	0.525714285714	-1.60909090909
505	0.2525	0.642857142857	0.489333333333	1.95	-0.163636363636
506	0.253	12.2714285714	1.912	0.525714285714	-1.60909090909
507	0.2535	-9.53214285714	4.75733333333	3.37428571429	1.28181818182
508	0.254	-2.26428571429	6.18	3.37428571429	-8.83636363636
509	0.2545	-0.810714285714	10.448	-0.898571428571	-0.163636363636
510	0.255	-0.810714285714	9.02533333333	3.37428571429	-1.60909090909
511	0.2555	2.09642857143	20.4066666667	4.79857142857	-1.60909090909
512	0.256	-9.53214285714	16.1386666667	3.37428571429	-1.60909090909
513	0.2565	-2.26428571429	17.5613333333	1.95	-1.60909090909
514	0.257	-2.26428571429	14.716	1.95	-3.05454545455
515	0.2575	0.642857142857	9.02533333333	-9.44428571429	-1.60909090909
516	0.258	-5.17142857143	9.02533333333	4.79857142857	14.2909090909
517	0.2585	-0.810714285714	0.489333333333	3.37428571429	-0.163636363636
518	0.259	0.642857142857	23.252	0.525714285714	-1.60909090909
519	0.2595	0.642857142857	3.33466666667	-0.898571428571	-1.60909090909
520	0.26	-6.625	0.489333333333	1.95	-7.39090909091
521	0.2605	3.55	-0.933333333333	0.525714285714	-11.7272727273
522	0.261	2.09642857143	-0.933333333333	-6.59571428571	-3.05454545455
523	0.2615	0.642857142857	-0.933333333333	0.525714285714	17.1818181818
524	0.262	0.642857142857	-3.77866666667	0.525714285714	-0.163636363636
525	0.2625	3.55	9.02533333333	0.525714285714	-1.60909090909
526	0.263	0.642857142857	-2.356	3.37428571429	-1.60909090909
527	0.2635	16.6321428571	-2.356	1.95	-0.163636363636
528	0.264	-9.53214285714	-0.933333333333	0.525714285714	1.28181818182
529	0.2645	-2.26428571429	0.489333333333	17.6171428571	-3.05454545455
530	0.265	-0.810714285714	-3.77866666667	-3.74714285714	-1.60909090909
531	0.2655	0.642857142857	0.489333333333	1.95	-1.60909090909
532	0.266	0.642857142857	16.1386666667	3.37428571429	-1.60909090909
533	0.2665	5.00357142857	-6.624	3.37428571429	-3.05454545455
534	0.267	18.0857142857	-0.933333333333	4.79857142857	-1.60909090909
535	0.2675	-5.17142857143	0.489333333333	1.95	17.1818181818
536	0.268	0.642857142857	0.489333333333	3.37428571429	-11.7272727273
537	0.2685	-0.810714285714	-0.933333333333	-10.8685714286	-1.60909090909
538	0.269	0.642857142857	0.489333333333	-0.898571428571	-1.60909090909
539	0.2695	0.642857142857	9.02533333333	-2.32285714286	-0.163636363636
540	0.27	2.09642857143	-2.356	1.95	-0.163636363636
541	0.2705	-6.625	7.60266666667	0.525714285714	-0.163636363636
542	0.271	-5.17142857143	9.02533333333	0.525714285714	-1.60909090909
543	0.2715	0.642857142857	10.448	4.79857142857	-0.163636363636
544	0.272	0.642857142857	10.448	4.79857142857	-1.60909090909
545	0.2725	-2.26428571429	18.984	1.95	-1.60909090909
546	0.273	0.642857142857	26.0973333333	1.95	-3.05454545455
547	0.2735	-3.71785714286	1.912	0.525714285714	-1.60909090909
548	0.274	19.5392857143	9.02533333333	0.525714285714	-10.2818181818
549	0.2745	-3.71785714286	9.02533333333	-0.898571428571	12.8454545455
550	0.275	-3.71785714286	4.75733333333	0.525714285714	-0.163636363636
551	0.2755	-3.71785714286	9.02533333333	11.92	-3.05454545455
552	0.276	-2.26428571429	4.75733333333	-0.898571428571	-1.60909090909
553	0.2765	0.642857142857	-8.04666666667	3.37428571429	-0.163636363636
554	0.277	-3.71785714286	7.60266666667	3.37428571429	-4.5
555	0.2775	-12.4392857143	0.489333333333	-0.898571428571	-4.5
556	0.278	0.642857142857	-0.933333333333	-0.898571428571	-10.2818181818
557	0.2785	-0.810714285714	-6.624	-3.74714285714	-1.60909090909
558	0.279	-2.26428571429	-5.20133333333	14.7685714286	-3.05454545455
559	0.2795	2.09642857143	-3.77866666667	0.525714285714	-1.60909090909
560	0.28	-0.810714285714	1.912	-0.898571428571	-0.163636363636
561	0.2805	2.09642857143	-3.77866666667	1.95	-0.163636363636
562	0.281	20.9928571429	-3.77866666667	-0.898571428571	2.72727272727
563	0.2815	-8.07857142857	-0.933333333333	0.525714285714	18.6272727273
564	0.282	-0.810714285714	-0.933333333333	-0.898571428571	-11.7272727273
565	0.2825	0.642857142857	-2.356	-8.02	-0.163636363636
566	0.283	0.642857142857	-5.20133333333	0.525714285714	-1.60909090909
567	0.2835	2.09642857143	0.489333333333	0.525714285714	-1.60909090909
568	0.284	0.642857142857	-2.356	1.95	-1.60909090909
569	0.2845	-5.17142857143	0.489333333333	0.525714285714	11.4
570	0.285	-2.26428571429	-0.933333333333	4.79857142857	-7.39090909091
571	0.2855	-0.810714285714	-0.933333333333	-6.59571428571	-8.83636363636
572	0.286	-2.26428571429	1.912	-3.74714285714	-1.60909090909
573	0.2865	0.642857142857	-0.933333333333	3.37428571429	-1.60909090909
574	0.287	-0.810714285714	-0.933333333333	0.525714285714	1.28181818182
575	0.2875	0.642857142857	16.1386666667	3.37428571429	-0.163636363636
576	0.288	-2.26428571429	6.18	3.37428571429	8.50909090909
577	0.2885	-0.810714285714	7.60266666667	4.79857142857	4.17272727273
578	0.289	-0.810714285714	13.2933333333	16.1928571429	-1.60909090909
579	0.2895	-2.26428571429	13.2933333333	-6.59571428571	-3.05454545455
580	0.29	-2.26428571429	28.9426666667	4.79857142857	-1.60909090909
581	0.2905	-3.71785714286	0.489333333333	1.95	-0.163636363636
582	0.291	5.00357142857	6.18	1.95	-4.5
583	0.2915	-2.26428571429	4.75733333333	-3.74714285714	17.1818181818
584	0.292	0.642857142857	0.489333333333	-0.898571428571	17.1818181818
585	0.2925	0.642857142857	-0.933333333333	7.64714285714	-1.60909090909
586	0.293	-0.810714285714	-3.77866666667	-9.44428571429	-1.60909090909
587	0.2935	2.09642857143	-12.3146666667	-3.74714285714	-1.60909090909
588	0.294	-0.810714285714	-15.16	0.525714285714	-4.5
589	0.2945	-3.71785714286	-8.04666666667	0.525714285714	-1.60909090909
590	0.295	-5.17142857143	-8.04666666667	-2.32285714286	-3.05454545455
591	0.2955	-2.26428571429	-6.624	-0.898571428571	-0.163636363636
592	0.296	0.642857142857	-6.624	-0.898571428571	5.61818181818
593	0.2965	0.642857142857	-2.356	-0.898571428571	-1.60909090909
594	0.297	-2.26428571429	-0.933333333333	-2.32285714286	-1.60909090909
595	0.2975	3.55	-5.20133333333	0.525714285714	-1.60909090909
596	0.298	18.0857142857	-5.20133333333	1.95	1.28181818182
597	0.2985	-3.71785714286	-6.624	1.95	2.72727272727
598	0.299	-2.26428571429	-5.20133333333	3.37428571429	-7.39090909091
599	0.2995	0.642857142857	-2.356	-12.2928571429	-3.05454545455
600	0.3	-0.810714285714	0.489333333333	0.525714285714	-1.60909090909
601	0.3005	0.642857142857	-10.892	3.37428571429	-3.05454545455
602	0.301	3.55	0.489333333333	3.37428571429	-0.163636363636
603	0.3015	-5.17142857143	-3.77866666667	-0.898571428571	1.28181818182
604	0.302	-5.17142857143	-0.933333333333	3.37428571429	-4.5
605	0.3025	0.642857142857	-0.933333333333	4.79857142857	-3.05454545455
606	0.303	0.642857142857	-0.933333333333	-2.32285714286	-1.60909090909
607	0.3035	-2.26428571429	-8.04666666667	-3.74714285714	-0.163636363636
608	0.304	2.09642857143	13.2933333333	0.525714285714	-1.60909090909
609	0.3045	-12.4392857143	9.02533333333	1.95	4.17272727273
610	0.305	-10.9857142857	9.02533333333	-0.898571428571	-3.05454545455
611	0.3055	-2.26428571429	9.02533333333	-3.74714285714	-10.2818181818
612	0.306	0.642857142857	9.02533333333	-13.7171428571	-1.60909090909
613	0.3065	0.642857142857	10.448	0.525714285714	1.28181818182
614	0.307	-0.810714285714	-5.20133333333	3.37428571429	-0.163636363636
615	0.3075	0.642857142857	-2.356	4.79857142857	-0.163636363636
616	0.308	-2.26428571429	1.912	3.37428571429	-1.60909090909
617	0.3085	-2.26428571429	0.489333333333	1.95	1.28181818182
618	0.309	-0.810714285714	3.33466666667	0.525714285714	-7.39090909091
619	0.3095	-2.26428571429	0.489333333333	4.79857142857	-1.60909090909
620	0.31	-2.26428571429	-0.933333333333	3.37428571429	-0.163636363636
621	0.3105	-0.810714285714	-10.892	4.79857142857	-3.05454545455
622	0.311	3.55	-5.20133333333	0.525714285714	-1.60909090909
623	0.3115	-12.4392857143	-2.356	0.525714285714	-1.60909090909
624	0.312	-9.53214285714	-6.624	1.95	-14.6181818182
625	0.3125	-0.810714285714	-5.20133333333	-2.32285714286	-13.1727272727
626	0.313	-0.810714285714	-6.624	3.37428571429	15.7363636364
627	0.3135	-2.26428571429	-6.624	13.3442857143	-1.60909090909
628	0.314	0.642857142857	-12.3146666667	-3.74714285714	-0.163636363636
629	0.3145	3.55	-9.46933333333	1.95	-1.60909090909
630	0.315	19.5392857143	-6.624	1.95	2.72727272727
631	0.3155	-9.53214285714	-8.04666666667	1.95	-1.60909090909
632	0.316	-2.26428571429	-6.624	-8.02	-8.83636363636
633	0.3165	0.642857142857	-6.624	-6.59571428571	-1.60909090909
634	0.317	-0.810714285714	-8.04666666667	19.0414285714	-1.60909090909
635	0.3175	0.642857142857	-16.5826666667	1.95	-0.163636363636
636	0.318	-5.17142857143	-8.04666666667	3.37428571429	-0.163636363636
637	0.3185	-0.810714285714	-9.46933333333	0.525714285714	-0.163636363636
638	0.319	-0.810714285714	-6.624	-2.32285714286	4.17272727273
639	0.3195	-0.810714285714	-8.04666666667	14.7685714286	-0.163636363636
640	0.32	0.642857142857	-5.20133333333	14.7685714286	-3.05454545455
641	0.3205	-0.810714285714	0.489333333333	-2.32285714286	1.28181818182
642	0.321	-3.71785714286	-8.04666666667	-0.898571428571	-3.05454545455
643	0.3215	3.55	-2.356	0.525714285714	-0.163636363636
644	0.322	19.5392857143	6.18	0.525714285714	-1.60909090909
645	0.3225	0.642857142857	7.60266666667	3.37428571429	-5.94545454545
646	0.323	-0.810714285714	9.02533333333	-0.898571428571	-11.7272727273
647	0.3235	-2.26428571429	6.18	4.79857142857	-3.05454545455
648	0.324	0.642857142857	-6.624	3.37428571429	-3.05454545455
649	0.3245	0.642857142857	-8.04666666667	0.525714285714	-3.05454545455
650	0.325	-8.07857142857	1.912	0.525714285714	-0.163636363636
651	0.3255	-8.07857142857	0.489333333333	4.79857142857	-7.39090909091
652	0.326	-0.810714285714	0.489333333333	3.37428571429	-7.39090909091
653	0.3265	-0.810714285714	-5.20133333333	1.95	-1.60909090909
654	0.327	0.642857142857	-8.04666666667	4.79857142857	-1.60909090909
655	0.3275	0.642857142857	-8.04666666667	4.79857142857	-1.60909090909
656	0.328	0.642857142857	1.912	4.79857142857	-0.163636363636
657	0.3285	3.55	-6.624	3.37428571429	1.28181818182
658	0.329	3.55	-8.04666666667	1.95	-0.163636363636
659	0.3295	0.642857142857	-8.04666666667	1.95	5.61818181818
660	0.33	-0.810714285714	-13.7373333333	3.37428571429	-1.60909090909
661	0.3305	-2.26428571429	-6.624	1.95	-1.60909090909
662	0.331	-2.26428571429	3.33466666667	-0.898571428571	-0.163636363636
663	0.3315	-5.17142857143	-10.892	-2.32285714286	-1.60909090909
664	0.332	18.0857142857	-5.20133333333	-5.17142857143	2.72727272727
665	0.3325	-12.4392857143	-3.77866666667	-2.32285714286	-10.2818181818
666	0.333	-0.810714285714	-5.20133333333	-8.02	-11.7272727273
667	0.3335	-2.26428571429	-8.04666666667	-8.02	17.1818181818
668	0.334	0.642857142857	-5.20133333333	-12.2928571429	-10.2818181818
669	0.3345	0.642857142857	1.912	-3.74714285714	1.28181818182
670	0.335	0.642857142857	-10.892	0.525714285714	-1.60909090909
671	0.3355	-5.17142857143	-2.356	3.37428571429	-1.60909090909
672	0.336	-6.625	-2.356	3.37428571429	-1.60909090909
673	0.3365	-0.810714285714	-0.933333333333	4.79857142857	-4.5
674	0.337	-0.810714285714	1.912	4.79857142857	1.28181818182
675	0.3375	0.642857142857	4.75733333333	-2.32285714286	-3.05454545455
676	0.338	0.642857142857	14.716	3.37428571429	-1.60909090909
677	0.3385	5.00357142857	4.75733333333	0.525714285714	-1.60909090909
678	0.339	-6.625	14.716	1.95	-4.5
679	0.3395	-8.07857142857	14.716	1.95	-5.94545454545
680	0.34	0.642857142857	11.8706666667	-0.898571428571	4.17272727273
681	0.3405	-2.26428571429	11.8706666667	11.92	-3.05454545455
682	0.341	-3.71785714286	-2.356	1.95	-1.60909090909
683	0.3415	-0.810714285714	-0.933333333333	0.525714285714	-0.163636363636
684	0.342	2.09642857143	6.18	3.37428571429	-0.163636363636
685	0.3425	-13.8928571429	4.75733333333	3.37428571429	-0.163636363636
686	0.343	-10.9857142857	0.489333333333	0.525714285714	-4.5
687	0.3435	0.642857142857	-2.356	-3.74714285714	-1.60909090909
688	0.344	0.642857142857	-2.356	-3.74714285714	-1.60909090909
689	0.3445	0.642857142857	-10.892	3.37428571429	-0.163636363636
690	0.345	3.55	13.2933333333	1.95	-1.60909090909
691	0.3455	-15.3464285714	-5.20133333333	0.525714285714	2.72727272727
692	0.346	-9.53214285714	-6.624	1.95	-10.2818181818
693	0.3465	0.642857142857	-5.20133333333	-0.898571428571	-13.1727272727
694	0.347	0.642857142857	-3.77866666667	-5.17142857143	-3.05454545455
695	0.3475	0.642857142857	-0.933333333333	7.64714285714	-1.60909090909
696	0.348	2.09642857143	1.912	0.525714285714	-1.60909090909
697	0.3485	-2.26428571429	-6.624	-0.898571428571	-1.60909090909
698	0.349	-12.4392857143	-2.356	0.525714285714	-4.5
699	0.3495	20.9928571429	-0.933333333333	-2.32285714286	1.28181818182
700	0.35	-0.810714285714	-2.356	-0.898571428571	14.2909090909
701	0.3505	-0.810714285714	0.489333333333	3.37428571429	-7.39090909091
702	0.351	0.642857142857	-0.933333333333	-8.02	-1.60909090909
703	0.3515	0.642857142857	3.33466666667	0.525714285714	-1.60909090909
704	0.352	0.642857142857	-2.356	-0.898571428571	-1.60909090909
705	0.3525	-3.71785714286	3.33466666667	-0.898571428571	-1.60909090909
706	0.353	-5.17142857143	0.489333333333	-0.898571428571	-1.60909090909
707	0.3535	-2.26428571429	3.33466666667	4.79857142857	-7.39090909091
708	0.354	-2.26428571429	6.18	4.79857142857	1.28181818182
709	0.3545	-2.26428571429	13.2933333333	0.525714285714	-1.60909090909
710	0.355	-2.26428571429	24.6746666667	0.525714285714	-0.163636363636
711	0.3555	3.55	7.60266666667	-2.32285714286	-3.05454545455
712	0.356	-13.8928571429	17.5613333333	0.525714285714	-1.60909090909
713	0.3565	-10.9857142857	16.1386666667	-0.898571428571	-4.5
714	0.357	0.642857142857	10.448	-6.59571428571	-4.5
715	0.3575	-0.810714285714	13.2933333333	1.95	12.8454545455
716	0.358	-0.810714285714	6.18	1.95	-1.60909090909
717	0.3585	-2.26428571429	13.2933333333	-0.898571428571	-3.05454545455
718	0.359	0.642857142857	3.33466666667	0.525714285714	-1.60909090909
719	0.3595	15.1785714286	-0.933333333333	0.525714285714	1.28181818182
720	0.36	-0.810714285714	-3.77866666667	1.95	-4.5
721	0.3605	0.642857142857	-5.20133333333	1.95	-7.39090909091
722	0.361	-0.810714285714	-9.46933333333	-9.44428571429	-0.163636363636
723	0.3615	-2.26428571429	-0.933333333333	-0.898571428571	-1.60909090909
724	0.362	-2.26428571429	-5.20133333333	-2.32285714286	1.28181818182
725	0.3625	0.642857142857	-8.04666666667	-2.32285714286	-1.60909090909
726	0.363	3.55	-3.77866666667	-0.898571428571	-0.163636363636
727	0.3635	0.642857142857	-5.20133333333	-2.32285714286	-1.60909090909
728	0.364	2.09642857143	-3.77866666667	-12.2928571429	-1.60909090909
729	0.3645	0.642857142857	-0.933333333333	-3.74714285714	-1.60909090909
730	0.365	0.642857142857	-0.933333333333	-3.74714285714	-4.5
731	0.3655	0.642857142857	-10.892	-2.32285714286	-1.60909090909
732	0.366	13.725	-2.356	-0.898571428571	-4.5
733	0.3665	-5.17142857143	-0.933333333333	-3.74714285714	-3.05454545455
734	0.367	0.642857142857	-2.356	-0.898571428571	1.28181818182
735	0.3675	-2.26428571429	1.912	-6.59571428571	-4.5
736	0.368	-3.71785714286	-8.04666666667	-6.59571428571	-1.60909090909
737	0.3685	2.09642857143	-0.933333333333	-0.898571428571	-1.60909090909
738	0.369	-9.53214285714	0.489333333333	-2.32285714286	-0.163636363636
739	0.3695	-6.625	0.489333333333	1.95	-3.05454545455
740	0.37	0.642857142857	4.75733333333	0.525714285714	1.28181818182
741	0.3705	0.642857142857	7.60266666667	3.37428571429	-1.60909090909
742	0.371	0.642857142857	9.02533333333	-2.32285714286	-0.163636363636
743	0.3715	-0.810714285714	-0.933333333333	0.525714285714	-0.163636363636
744	0.372	3.55	13.2933333333	1.95	-1.60909090909
745	0.3725	16.6321428571	10.448	3.37428571429	-1.60909090909
746	0.373	-5.17142857143	10.448	3.37428571429	-1.60909090909
747	0.3735	-2.26428571429	6.18	1.95	-8.83636363636
748	0.374	-2.26428571429	6.18	-5.17142857143	-0.163636363636
749	0.3745	-2.26428571429	-2.356	-0.898571428571	-0.163636363636
750	0.375	0.642857142857	-0.933333333333	1.95	-1.60909090909
751	0.3755	3.55	1.912	3.37428571429	1.28181818182
752	0.376	-13.8928571429	1.912	-0.898571428571	-1.60909090909
753	0.3765	-0.810714285714	0.489333333333	0.525714285714	-5.94545454545
754	0.377	-0.810714285714	-2.356	6.22285714286	1.28181818182
755	0.3775	0.642857142857	-3.77866666667	-0.898571428571	-0.163636363636
756	0.378	-2.26428571429	4.75733333333	-0.898571428571	-0.163636363636
757	0.3785	3.55	-10.892	-0.898571428571	-0.163636363636
758	0.379	-5.17142857143	-3.77866666667	0.525714285714	2.72727272727
759	0.3795	-6.625	-2.356	0.525714285714	-0.163636363636
760	0.38	-0.810714285714	0.489333333333	1.95	4.17272727273
761	0.3805	0.642857142857	1.912	-5.17142857143	1.28181818182
762	0.381	-2.26428571429	6.18	14.7685714286	-3.05454545455
763	0.3815	3.55	-3.77866666667	-0.898571428571	-0.163636363636
764	0.382	0.642857142857	6.18	0.525714285714	1.28181818182
765	0.3825	-9.53214285714	7.60266666667	1.95	4.17272727273
766	0.383	-12.4392857143	6.18	4.79857142857	-7.39090909091
767	0.3835	2.09642857143	9.02533333333	-0.898571428571	1.28181818182
768	0.384	0.642857142857	16.1386666667	-3.74714285714	1.28181818182
769	0.3845	2.09642857143	6.18	1.95	2.72727272727
770	0.385	0.642857142857	23.252	-2.32285714286	-0.163636363636
771	0.3855	-3.71785714286	14.716	-2.32285714286	-1.60909090909
772	0.386	19.5392857143	17.5613333333	-3.74714285714	-3.05454545455
773	0.3865	0.642857142857	21.8293333333	-2.32285714286	14.2909090909
774	0.387	0.642857142857	21.8293333333	-2.32285714286	-0.163636363636
775	0.3875	-2.26428571429	26.0973333333	3.37428571429	-1.60909090909
776	0.388	0.642857142857	40.324	-2.32285714286	-3.05454545455
777	0.3885	-0.810714285714	21.8293333333	-0.898571428571	-0.163636363636
778	0.389	2.09642857143	21.8293333333	1.95	-0.163636363636
779	0.3895	-13.8928571429	27.52	-0.898571428571	-1.60909090909
780	0.39	-0.810714285714	24.6746666667	-0.898571428571	-8.83636363636
781	0.3905	0.642857142857	21.8293333333	-5.17142857143	-1.60909090909
782	0.391	-0.810714285714	21.8293333333	9.07142857143	-1.60909090909
783	0.3915	-2.26428571429	28.9426666667	3.37428571429	1.28181818182
784	0.392	-2.26428571429	13.2933333333	1.95	-0.163636363636
785	0.3925	2.09642857143	18.984	3.37428571429	-1.60909090909
786	0.393	19.5392857143	14.716	4.79857142857	-1.60909090909
787	0.3935	2.09642857143	10.448	0.525714285714	-0.163636363636
788	0.394	0.642857142857	9.02533333333	6.22285714286	-0.163636363636
789	0.3945	2.09642857143	13.2933333333	4.79857142857	-1.60909090909
790	0.395	-0.810714285714	-2.356	4.79857142857	1.28181818182
791	0.3955	0.642857142857	-0.933333333333	1.95	-0.163636363636
792	0.396	10.8178571429	6.18	3.37428571429	-0.163636363636
793	0.3965	-9.53214285714	9.02533333333	1.95	-1.60909090909
794	0.397	-2.26428571429	9.02533333333	-3.74714285714	-5.94545454545
795	0.3975	-2.26428571429	10.448	11.92	-3.05454545455
796	0.398	-3.71785714286	10.448	-0.898571428571	-0.163636363636
797	0.3985	0.642857142857	27.52	3.37428571429	-1.60909090909
798	0.399	-12.4392857143	10.448	3.37428571429	-3.05454545455
799	0.3995	15.1785714286	9.02533333333	1.95	-1.60909090909
800	0.4	-10.9857142857	9.02533333333	0.525714285714	1.28181818182
801	0.4005	-0.810714285714	13.2933333333	6.22285714286	-1.60909090909
802	0.401	-0.810714285714	10.448	7.64714285714	-8.83636363636
803	0.4015	-2.26428571429	4.75733333333	6.22285714286	-3.05454545455
804	0.402	-3.71785714286	1.912	6.22285714286	-3.05454545455
805	0.4025	-13.8928571429	3.33466666667	6.22285714286	-4.5
806	0.403	16.6321428571	4.75733333333	3.37428571429	-3.05454545455
807	0.4035	-2.26428571429	3.33466666667	-10.8685714286	-3.05454545455
808	0.404	0.642857142857	6.18	-8.02	-3.05454545455
809	0.4045	0.642857142857	0.489333333333	19.0414285714	-3.05454545455
810	0.405	-3.71785714286	-0.933333333333	1.95	-0.163636363636
811	0.4055	-2.26428571429	21.8293333333	3.37428571429	-1.60909090909
812	0.406	-5.17142857143	3.33466666667	1.95	-0.163636363636
813	0.4065	0.642857142857	6.18	1.95	-3.05454545455
814	0.407	2.09642857143	1.912	-0.898571428571	-10.2818181818
815	0.4075	-3.71785714286	1.912	-10.8685714286	-1.60909090909
816	0.408	-2.26428571429	-8.04666666667	-0.898571428571	-0.163636363636
817	0.4085	0.642857142857	-2.356	1.95	-3.05454545455
818	0.409	-9.53214285714	0.489333333333	1.95	-3.05454545455
819	0.4095	-5.17142857143	-2.356	0.525714285714	14.2909090909
820	0.41	-0.810714285714	-8.04666666667	0.525714285714	1.28181818182
821	0.4105	0.642857142857	-9.46933333333	-0.898571428571	-11.7272727273
822	0.411	-0.810714285714	-12.3146666667	1.95	-0.163636363636
823	0.4115	2.09642857143	1.912	-0.898571428571	-1.60909090909
824	0.412	-2.26428571429	-12.3146666667	0.525714285714	-1.60909090909
825	0.4125	-6.625	-12.3146666667	1.95	-1.60909090909
826	0.413	0.642857142857	-12.3146666667	0.525714285714	-4.5
827	0.4135	-0.810714285714	-10.892	-8.02	-5.94545454545
828	0.414	-2.26428571429	-8.04666666667	0.525714285714	-1.60909090909
829	0.4145	0.642857142857	-20.8506666667	0.525714285714	-1.60909090909
830	0.415	0.642857142857	-19.428	1.95	-1.60909090909
831	0.4155	-3.71785714286	9.02533333333	1.95	-1.60909090909
832	0.416	9.36428571429	-8.04666666667	0.525714285714	-1.60909090909
833	0.4165	-3.71785714286	-8.04666666667	0.525714285714	12.8454545455
834	0.417	-0.810714285714	-6.624	-2.32285714286	11.4
835	0.4175	0.642857142857	-8.04666666667	-0.898571428571	-1.60909090909
836	0.418	-0.810714285714	-9.46933333333	-9.44428571429	-3.05454545455
837	0.4185	-0.810714285714	1.912	-0.898571428571	-3.05454545455
838	0.419	-5.17142857143	-6.624	-0.898571428571	-1.60909090909
839	0.4195	-8.07857142857	-6.624	-0.898571428571	-3.05454545455
840	0.42	3.55	-2.356	-0.898571428571	-11.7272727273
841	0.4205	2.09642857143	-0.933333333333	-8.02	-4.5
842	0.421	0.642857142857	3.33466666667	0.525714285714	-1.60909090909
843	0.4215	0.642857142857	-5.20133333333	-0.898571428571	-0.163636363636
844	0.422	3.55	21.8293333333	-3.74714285714	-1.60909090909
845	0.4225	-8.07857142857	9.02533333333	-0.898571428571	1.28181818182
846	0.423	15.1785714286	6.18	-0.898571428571	-4.5
847	0.4235	0.642857142857	3.33466666667	0.525714285714	-5.94545454545
848	0.424	-2.26428571429	0.489333333333	-9.44428571429	-3.05454545455
849	0.4245	-3.71785714286	4.75733333333	-3.74714285714	-1.60909090909
850	0.425	-0.810714285714	-10.892	-2.32285714286	-3.05454545455
851	0.4255	2.09642857143	-9.46933333333	-2.32285714286	-0.163636363636
852	0.426	-13.8928571429	0.489333333333	-3.74714285714	-1.60909090909
853	0.4265	-6.625	-3.77866666667	-0.898571428571	-11.7272727273
854	0.427	3.55	-3.77866666667	-3.74714285714	-11.7272727273
855	0.4275	0.642857142857	-2.356	-6.59571428571	-3.05454545455
856	0.428	2.09642857143	-2.356	4.79857142857	-0.163636363636
857	0.4285	0.642857142857	0.489333333333	-3.74714285714	-3.05454545455
858	0.429	3.55	-6.624	-3.74714285714	-3.05454545455
859	0.4295	18.0857142857	-5.20133333333	-2.32285714286	-3.05454545455
860	0.43	-5.17142857143	-5.20133333333	-2.32285714286	1.28181818182
861	0.4305	3.55	-3.77866666667	-12.2928571429	-10.2818181818
862	0.431	0.642857142857	-3.77866666667	-12.2928571429	-1.60909090909
863	0.4315	2.09642857143	-5.20133333333	-2.32285714286	-0.163636363636
864	0.432	0.642857142857	-0.933333333333	-2.32285714286	-1.60909090909
865	0.4325	5.00357142857	-8.04666666667	-3.74714285714	-3.05454545455
866	0.433	-12.4392857143	-0.933333333333	-5.17142857143	2.72727272727
867	0.4335	-5.17142857143	-0.933333333333	-5.17142857143	-8.83636363636
868	0.434	-0.810714285714	0.489333333333	-0.898571428571	-5.94545454545
869	0.4345	0.642857142857	-0.933333333333	-6.59571428571	-0.163636363636
870	0.435	0.642857142857	3.33466666667	0.525714285714	-3.05454545455
871	0.4355	3.55	-2.356	0.525714285714	-0.163636363636
872	0.436	-10.9857142857	1.912	0.525714285714	-1.60909090909
873	0.4365	-0.810714285714	3.33466666667	0.525714285714	-10.2818181818
874	0.437	-3.71785714286	0.489333333333	-0.898571428571	-3.05454545455
875	0.4375	0.642857142857	7.60266666667	14.7685714286	-3.05454545455
876	0.438	2.09642857143	7.60266666667	13.3442857143	-3.05454545455
877	0.4385	0.642857142857	13.2933333333	-0.898571428571	-1.60909090909
878	0.439	3.55	7.60266666667	-0.898571428571	-3.05454545455
879	0.4395	16.6321428571	14.716	-3.74714285714	1.28181818182
880	0.44	-8.07857142857	10.448	0.525714285714	1.28181818182
881	0.4405	-0.810714285714	9.02533333333	0.525714285714	-8.83636363636
882	0.441	-0.810714285714	9.02533333333	-12.2928571429	-4.5
883	0.4415	-0.810714285714	3.33466666667	19.0414285714	-1.60909090909
884	0.442	0.642857142857	21.8293333333	0.525714285714	-1.60909090909
885	0.4425	-0.810714285714	18.984	1.95	1.28181818182
886	0.443	3.55	-2.356	-0.898571428571	4.17272727273
887	0.4435	-0.810714285714	-5.20133333333	3.37428571429	-4.5
888	0.444	-0.810714285714	-6.624	1.95	-5.94545454545
889	0.4445	0.642857142857	-0.933333333333	-16.5657142857	-1.60909090909
890	0.445	0.642857142857	-10.892	-2.32285714286	-0.163636363636
891	0.4455	0.642857142857	-12.3146666667	-2.32285714286	-4.5
892	0.446	2.09642857143	-6.624	-3.74714285714	-3.05454545455
893	0.4465	-6.625	-3.77866666667	-3.74714285714	1.28181818182
894	0.447	-0.810714285714	-5.20133333333	0.525714285714	-3.05454545455
895	0.4475	3.55	-3.77866666667	19.0414285714	-3.05454545455
896	0.448	-0.810714285714	-5.20133333333	1.95	-1.60909090909
897	0.4485	-2.26428571429	-0.933333333333	-3.74714285714	-1.60909090909
898	0.449	0.642857142857	-5.20133333333	1.95	-4.5
899	0.4495	16.6321428571	-6.624	3.37428571429	2.72727272727
900	0.45	-10.9857142857	-2.356	-0.898571428571	14.2909090909
901	0.4505	-0.810714285714	-2.356	7.64714285714	-3.05454545455
902	0.451	-0.810714285714	-0.933333333333	20.4657142857	-1.60909090909
903	0.4515	2.09642857143	-2.356	-8.02	-0.163636363636
904	0.452	2.09642857143	14.716	-0.898571428571	-1.60909090909
905	0.4525	-3.71785714286	-0.933333333333	0.525714285714	-1.60909090909
906	0.453	7.91071428571	0.489333333333	1.95	-1.60909090909
907	0.4535	2.09642857143	4.75733333333	3.37428571429	-0.163636363636
908	0.454	0.642857142857	4.75733333333	-0.898571428571	-8.83636363636
909	0.4545	0.642857142857	6.18	0.525714285714	-4.5
910	0.455	0.642857142857	-3.77866666667	0.525714285714	-3.05454545455
911	0.4555	2.09642857143	0.489333333333	0.525714285714	-1.60909090909
912	0.456	-6.625	7.60266666667	1.95	-1.60909090909
913	0.4565	-8.07857142857	9.02533333333	1.95	-1.60909090909
914	0.457	-0.810714285714	6.18	3.37428571429	-4.5
915	0.4575	0.642857142857	4.75733333333	9.07142857143	-1.60909090909
916	0.458	-2.26428571429	7.60266666667	-0.898571428571	-3.05454545455
917	0.4585	-2.26428571429	18.984	1.95	-0.163636363636
918	0.459	5.00357142857	-5.20133333333	1.95	-1.60909090909
919	0.4595	20.9928571429	-2.356	3.37428571429	-1.60909090909
920	0.46	-8.07857142857	-5.20133333333	3.37428571429	15.7363636364
921	0.4605	0.642857142857	-6.624	-0.898571428571	-11.7272727273
922	0.461	-0.810714285714	-5.20133333333	-2.32285714286	-1.60909090909
923	0.4615	-0.810714285714	-10.892	0.525714285714	-0.163636363636
924	0.462	0.642857142857	-12.3146666667	1.95	-1.60909090909
925	0.4625	3.55	-6.624	4.79857142857	-1.60909090909
926	0.463	3.55	-6.624	4.79857142857	-1.60909090909
927	0.4635	-0.810714285714	-6.624	4.79857142857	-10.2818181818
928	0.464	-0.810714285714	-5.20133333333	-3.74714285714	-1.60909090909
929	0.4645	-2.26428571429	-2.356	4.79857142857	-1.60909090909
930	0.465	0.642857142857	10.448	0.525714285714	-1.60909090909
931	0.4655	-2.26428571429	-15.16	0.525714285714	-3.05454545455
932	0.466	16.6321428571	-5.20133333333	0.525714285714	-0.163636363636
933	0.4665	-8.07857142857	-3.77866666667	4.79857142857	8.50909090909
934	0.467	-0.810714285714	-3.77866666667	-2.32285714286	-5.94545454545
935	0.4675	0.642857142857	-2.356	4.79857142857	2.72727272727
936	0.468	0.642857142857	-13.7373333333	4.79857142857	-0.163636363636
937	0.4685	5.00357142857	16.1386666667	1.95	-0.163636363636
938	0.469	-3.71785714286	-2.356	4.79857142857	-1.60909090909
939	0.4695	15.1785714286	0.489333333333	4.79857142857	-4.5
940	0.47	3.55	3.33466666667	4.79857142857	-5.94545454545
941	0.4705	0.642857142857	0.489333333333	-8.02	-0.163636363636
942	0.471	0.642857142857	6.18	-6.59571428571	-4.5
943	0.4715	-0.810714285714	21.8293333333	-0.898571428571	-3.05454545455
944	0.472	-5.17142857143	1.912	-2.32285714286	-3.05454545455
945	0.4725	0.642857142857	7.60266666667	-0.898571428571	-1.60909090909
946	0.473	13.725	9.02533333333	-2.32285714286	-4.5
947	0.4735	-0.810714285714	7.60266666667	-5.17142857143	-1.60909090909
948	0.474	0.642857142857	6.18	-8.02	-4.5
949	0.4745	0.642857142857	4.75733333333	0.525714285714	-0.163636363636
950	0.475	-3.71785714286	-10.892	-0.898571428571	-1.60909090909
951	0.4755	0.642857142857	0.489333333333	1.95	-0.163636363636
952	0.476	-5.17142857143	-2.356	-0.898571428571	-1.60909090909
953	0.4765	-5.17142857143	-5.20133333333	-2.32285714286	-0.163636363636
954	0.477	-0.810714285714	-9.46933333333	-0.898571428571	4.17272727273
955	0.4775	-0.810714285714	-10.892	-0.898571428571	-1.60909090909
956	0.478	-0.810714285714	-19.428	1.95	-0.163636363636
957	0.4785	-0.810714285714	-9.46933333333	1.95	-1.60909090909
958	0.479	0.642857142857	-12.3146666667	-0.898571428571	-1.60909090909
959	0.4795	5.00357142857	-12.3146666667	0.525714285714	1.28181818182
960	0.48	-0.810714285714	-9.46933333333	4.79857142857	-4.5
961	0.4805	2.09642857143	-9.46933333333	-8.02	-1.60909090909
962	0.481	-2.26428571429	-10.892	-6.59571428571	-0.163636363636
963	0.4815	-2.26428571429	-2.356	1.95	-1.60909090909
964	0.482	2.09642857143	-8.04666666667	3.37428571429	1.28181818182
965	0.4825	-12.4392857143	-8.04666666667	1.95	-4.5
966	0.483	18.0857142857	-6.624	3.37428571429	-1.60909090909
967	0.4835	-0.810714285714	-6.624	4.79857142857	-1.60909090909
968	0.484	-0.810714285714	-5.20133333333	1.95	-1.60909090909
969	0.4845	-0.810714285714	-0.933333333333	3.37428571429	-1.60909090909
970	0.485	-0.810714285714	9.02533333333	-0.898571428571	-1.60909090909
971	0.4855	-10.9857142857	-8.04666666667	-0.898571428571	-0.163636363636
972	0.486	-3.71785714286	-3.77866666667	0.525714285714	-1.60909090909
973	0.4865	-0.810714285714	-3.77866666667	-5.17142857143	-11.7272727273
974	0.487	-0.810714285714	0.489333333333	-3.74714285714	-1.60909090909
975	0.4875	-2.26428571429	-0.933333333333	-0.898571428571	1.28181818182
976	0.488	2.09642857143	18.984	-0.898571428571	-1.60909090909
977	0.4885	-0.810714285714	7.60266666667	0.525714285714	-0.163636363636
978	0.489	-12.4392857143	7.60266666667	-0.898571428571	-1.60909090909
979	0.4895	0.642857142857	10.448	1.95	11.4
980	0.49	0.642857142857	9.02533333333	-5.17142857143	-1.60909090909
981	0.4905	-0.810714285714	9.02533333333	-10.8685714286	-3.05454545455
982	0.491	-2.26428571429	-0.933333333333	-0.898571428571	-0.163636363636
983	0.4915	-0.810714285714	-0.933333333333	0.525714285714	-1.60909090909
984	0.492	-5.17142857143	6.18	3.37428571429	-3.05454545455
985	0.4925	12.2714285714	3.33466666667	0.525714285714	-13.1727272727
986	0.493	0.642857142857	0.489333333333	3.37428571429	1.28181818182
987	0.4935	2.09642857143	-3.77866666667	17.6171428571	-3.05454545455
988	0.494	-2.26428571429	-5.20133333333	-5.17142857143	-1.60909090909
989	0.4945	0.642857142857	-8.04666666667	0.525714285714	-0.163636363636
990	0.495	3.55	-6.624	0.525714285714	-0.163636363636
991	0.4955	-15.3464285714	-8.04666666667	1.95	2.72727272727
992	0.496	-8.07857142857	-6.624	1.95	-4.5
993	0.4965	0.642857142857	-6.624	3.37428571429	-5.94545454545
994	0.497	2.09642857143	-6.624	17.6171428571	-1.60909090909
995	0.4975	0.642857142857	-2.356	1.95	-1.60909090909
996	0.498	-0.810714285714	-9.46933333333	3.37428571429	-0.163636363636
997	0.4985	-12.4392857143	-8.04666666667	1.95	2.72727272727
998	0.499	-6.625	-6.624	3.37428571429	-10.2818181818
999	0.4995	-0.810714285714	-5.20133333333	1.95	-8.83636363636
1000	0.5	0.642857142857	-6.624	0.525714285714	-1.60909090909
1001	0.5005	-0.810714285714	-6.624	-0.898571428571	-1.60909090909
1002	0.501	3.55	7.60266666667	0.525714285714	-1.60909090909
1003	0.5015	-5.17142857143	-2.356	-2.32285714286	-4.5
1004	0.502	-13.8928571429	-0.933333333333	-0.898571428571	-4.5
1005	0.5025	18.0857142857	-0.933333333333	-0.898571428571	-3.05454545455
1006	0.503	0.642857142857	-0.933333333333	-0.898571428571	-1.60909090909
1007	0.5035	-2.26428571429	0.489333333333	1.95	-4.5
1008	0.504	-0.810714285714	-8.04666666667	1.95	-1.60909090909
1009	0.5045	5.00357142857	23.252	3.37428571429	-1.60909090909
1010	0.505	-2.26428571429	9.02533333333	3.37428571429	-1.60909090909
1011	0.5055	-13.8928571429	9.02533333333	4.79857142857	-3.05454545455
1012	0.506	-3.71785714286	13.2933333333	-0.898571428571	-5.94545454545
1013	0.5065	-0.810714285714	10.448	-2.32285714286	-0.163636363636
1014	0.507	-0.810714285714	9.02533333333	7.64714285714	-1.60909090909
1015	0.5075	-2.26428571429	9.02533333333	-0.898571428571	-0.163636363636
1016	0.508	0.642857142857	21.8293333333	0.525714285714	1.28181818182
1017	0.5085	2.09642857143	-3.77866666667	1.95	-0.163636363636
1018	0.509	-9.53214285714	6.18	3.37428571429	-0.163636363636
1019	0.5095	0.642857142857	0.489333333333	1.95	-5.94545454545
1020	0.51	2.09642857143	-0.933333333333	13.3442857143	-1.60909090909
1021	0.5105	-0.810714285714	-3.77866666667	-5.17142857143	4.17272727273
1022	0.511	0.642857142857	6.18	-0.898571428571	-1.60909090909
1023	0.5115	-0.810714285714	-8.04666666667	3.37428571429	1.28181818182
1024	0.512	-13.8928571429	-8.04666666667	1.95	-1.60909090909
1025	0.5125	12.2714285714	-5.20133333333	3.37428571429	-0.163636363636
1026	0.513	0.642857142857	-6.624	0.525714285714	4.17272727273
1027	0.5135	-0.810714285714	-5.20133333333	7.64714285714	2.72727272727
1028	0.514	0.642857142857	-5.20133333333	4.79857142857	-1.60909090909
1029	0.5145	-0.810714285714	0.489333333333	4.79857142857	-1.60909090909
1030	0.515	-3.71785714286	-6.624	1.95	-3.05454545455
1031	0.5155	-6.625	-2.356	3.37428571429	-1.60909090909
1032	0.516	9.36428571429	-2.356	1.95	-0.163636363636
1033	0.5165	-0.810714285714	-2.356	1.95	1.28181818182
1034	0.517	-0.810714285714	0.489333333333	3.37428571429	8.50909090909
1035	0.5175	-2.26428571429	0.489333333333	6.22285714286	-3.05454545455
1036	0.518	-0.810714285714	-6.624	-3.74714285714	-1.60909090909
1037	0.5185	3.55	-2.356	-0.898571428571	-1.60909090909
1038	0.519	-10.9857142857	1.912	0.525714285714	-3.05454545455
1039	0.5195	18.0857142857	1.912	3.37428571429	-13.1727272727
1040	0.52	0.642857142857	1.912	-2.32285714286	11.4
1041	0.5205	-0.810714285714	6.18	0.525714285714	-5.94545454545
1042	0.521	-0.810714285714	11.8706666667	-9.44428571429	-1.60909090909
1043	0.5215	0.642857142857	24.6746666667	-0.898571428571	-0.163636363636
1044	0.522	-2.26428571429	4.75733333333	0.525714285714	-1.60909090909
1045	0.5225	2.09642857143	14.716	0.525714285714	-1.60909090909
1046	0.523	-9.53214285714	14.716	3.37428571429	-0.163636363636
1047	0.5235	-2.26428571429	11.8706666667	3.37428571429	-10.2818181818
1048	0.524	-0.810714285714	10.448	-6.59571428571	-1.60909090909
1049	0.5245	-2.26428571429	3.33466666667	3.37428571429	-1.60909090909
1050	0.525	0.642857142857	14.716	3.37428571429	-4.5
1051	0.5255	-0.810714285714	0.489333333333	4.79857142857	-0.163636363636
1052	0.526	15.1785714286	3.33466666667	3.37428571429	-5.94545454545
1053	0.5265	-0.810714285714	0.489333333333	1.95	-0.163636363636
1054	0.527	-0.810714285714	-0.933333333333	3.37428571429	-0.163636363636
1055	0.5275	-3.71785714286	-2.356	1.95	-7.39090909091
1056	0.528	0.642857142857	-15.16	0.525714285714	-0.163636363636
1057	0.5285	2.09642857143	16.1386666667	0.525714285714	-3.05454545455
1058	0.529	-2.26428571429	-8.04666666667	-0.898571428571	-3.05454545455
1059	0.5295	-5.17142857143	-0.933333333333	0.525714285714	-1.60909090909
1060	0.53	0.642857142857	-3.77866666667	1.95	-10.2818181818
1061	0.5305	-0.810714285714	-2.356	-3.74714285714	-0.163636363636
1062	0.531	-2.26428571429	-2.356	6.22285714286	-1.60909090909
1063	0.5315	-0.810714285714	-2.356	-2.32285714286	-1.60909090909
1064	0.532	-5.17142857143	-5.20133333333	1.95	-0.163636363636
1065	0.5325	-12.4392857143	-0.933333333333	0.525714285714	-1.60909090909
1066	0.533	15.1785714286	-0.933333333333	4.79857142857	-11.7272727273
1067	0.5335	-2.26428571429	1.912	4.79857142857	2.72727272727
1068	0.534	-0.810714285714	6.18	23.3142857143	-0.163636363636
1069	0.5345	3.55	1.912	3.37428571429	-1.60909090909
1070	0.535	2.09642857143	1.912	-0.898571428571	-3.05454545455
1071	0.5355	0.642857142857	10.448	1.95	-3.05454545455
1072	0.536	3.55	7.60266666667	3.37428571429	-4.5
1073	0.5365	-5.17142857143	4.75733333333	6.22285714286	15.7363636364
1074	0.537	0.642857142857	6.18	7.64714285714	-8.83636363636
1075	0.5375	2.09642857143	7.60266666667	-0.898571428571	-1.60909090909
1076	0.538	2.09642857143	10.448	-0.898571428571	-1.60909090909
1077	0.5385	2.09642857143	21.8293333333	1.95	-3.05454545455
1078	0.539	-2.26428571429	13.2933333333	3.37428571429	-0.163636363636
1079	0.5395	18.0857142857	14.716	0.525714285714	-1.60909090909
1080	0.54	-8.07857142857	16.1386666667	3.37428571429	1.28181818182
1081	0.5405	-3.71785714286	14.716	4.79857142857	-11.7272727273
1082	0.541	-0.810714285714	10.448	-9.44428571429	-1.60909090909
1083	0.5415	0.642857142857	13.2933333333	4.79857142857	-1.60909090909
1084	0.542	0.642857142857	-0.933333333333	-2.32285714286	-1.60909090909
1085	0.5425	0.642857142857	7.60266666667	1.95	-3.05454545455
1086	0.543	-2.26428571429	6.18	3.37428571429	-1.60909090909
1087	0.5435	0.642857142857	1.912	3.37428571429	-4.5
1088	0.544	2.09642857143	1.912	14.7685714286	1.28181818182
1089	0.5445	-0.810714285714	0.489333333333	-2.32285714286	-1.60909090909
1090	0.545	-0.810714285714	1.912	3.37428571429	-1.60909090909
1091	0.5455	-0.810714285714	3.33466666667	-0.898571428571	-1.60909090909
1092	0.546	2.09642857143	-0.933333333333	3.37428571429	-0.163636363636
1093	0.5465	20.9928571429	-2.356	6.22285714286	-1.60909090909
1094	0.547	-10.9857142857	0.489333333333	4.79857142857	2.72727272727
1095	0.5475	-0.810714285714	0.489333333333	3.37428571429	-7.39090909091
1096	0.548	-0.810714285714	3.33466666667	-8.02	-0.163636363636
1097	0.5485	-0.810714285714	-5.20133333333	1.95	-0.163636363636
1098	0.549	0.642857142857	-3.77866666667	0.525714285714	-1.60909090909
1099	0.5495	-8.07857142857	1.912	0.525714285714	-0.163636363636
1100	0.55	9.36428571429	0.489333333333	0.525714285714	-4.5
1101	0.5505	0.642857142857	6.18	1.95	2.72727272727
1102	0.551	-0.810714285714	6.18	3.37428571429	-4.5
1103	0.5515	2.09642857143	7.60266666667	0.525714285714	-1.60909090909
1104	0.552	0.642857142857	7.60266666667	0.525714285714	-1.60909090909
1105	0.5525	0.642857142857	-6.624	1.95	-1.60909090909
1106	0.553	20.9928571429	7.60266666667	4.79857142857	-0.163636363636
1107	0.5535	-10.9857142857	7.60266666667	4.79857142857	2.72727272727
1108	0.554	-3.71785714286	10.448	1.95	-7.39090909091
1109	0.5545	-2.26428571429	13.2933333333	-8.02	-8.83636363636
1110	0.555	-2.26428571429	17.5613333333	14.7685714286	-0.163636363636
1111	0.5555	-0.810714285714	16.1386666667	-3.74714285714	-3.05454545455
1112	0.556	-2.26428571429	34.6333333333	-2.32285714286	-0.163636363636
1113	0.5565	-8.07857142857	17.5613333333	-3.74714285714	-5.94545454545
1114	0.557	15.1785714286	14.716	0.525714285714	-0.163636363636
1115	0.5575	-2.26428571429	14.716	-0.898571428571	12.8454545455
1116	0.558	0.642857142857	11.8706666667	16.1928571429	-1.60909090909
1117	0.5585	-2.26428571429	10.448	0.525714285714	-10.2818181818
1118	0.559	2.09642857143	10.448	0.525714285714	-1.60909090909
1119	0.5595	2.09642857143	0.489333333333	1.95	-1.60909090909
1120	0.56	-8.07857142857	-2.356	1.95	-0.163636363636
1121	0.5605	-3.71785714286	-3.77866666667	0.525714285714	-13.1727272727
1122	0.561	-2.26428571429	-2.356	-6.59571428571	-3.05454545455
1123	0.5615	-2.26428571429	-0.933333333333	19.0414285714	-4.5
1124	0.562	-0.810714285714	-5.20133333333	3.37428571429	-0.163636363636
1125	0.5625	2.09642857143	-13.7373333333	1.95	-1.60909090909
1126	0.563	3.55	-5.20133333333	0.525714285714	-1.60909090909
1127	0.5635	-10.9857142857	-2.356	1.95	1.28181818182
1128	0.564	-10.9857142857	0.489333333333	3.37428571429	-13.1727272727
1129	0.5645	0.642857142857	0.489333333333	-6.59571428571	-0.163636363636
1130	0.565	-0.810714285714	0.489333333333	-5.17142857143	1.28181818182
1131	0.5655	-0.810714285714	0.489333333333	17.6171428571	-1.60909090909
1132	0.566	-0.810714285714	-0.933333333333	1.95	-1.60909090909
1133	0.5665	-2.26428571429	0.489333333333	1.95	2.72727272727
1134	0.567	-8.07857142857	1.912	0.525714285714	2.72727272727
1135	0.5675	-8.07857142857	1.912	3.37428571429	-5.94545454545
1136	0.568	0.642857142857	1.912	3.37428571429	-5.94545454545
1137	0.5685	3.55	3.33466666667	-3.74714285714	-0.163636363636
1138	0.569	-0.810714285714	-2.356	1.95	-1.60909090909
1139	0.5695	0.642857142857	6.18	4.79857142857	-4.5
1140	0.57	0.642857142857	3.33466666667	1.95	-0.163636363636
1141	0.5705	-2.26428571429	7.60266666667	4.79857142857	-10.2818181818
1142	0.571	-2.26428571429	13.2933333333	0.525714285714	-7.39090909091
1143	0.5715	0.642857142857	13.2933333333	-6.59571428571	-1.60909090909
1144	0.572	-3.71785714286	17.5613333333	20.4657142857	-1.60909090909
1145	0.5725	-0.810714285714	14.716	0.525714285714	-3.05454545455
1146	0.573	-2.26428571429	10.448	1.95	-1.60909090909
1147	0.5735	-5.17142857143	14.716	-0.898571428571	-3.05454545455
1148	0.574	12.2714285714	14.716	0.525714285714	-1.60909090909
1149	0.5745	-8.07857142857	10.448	-0.898571428571	2.72727272727
1150	0.575	-3.71785714286	9.02533333333	20.4657142857	-1.60909090909
1151	0.5755	-2.26428571429	6.18	-3.74714285714	-0.163636363636
1152	0.576	-2.26428571429	4.75733333333	-5.17142857143	1.28181818182
1153	0.5765	-2.26428571429	-3.77866666667	3.37428571429	1.28181818182
1154	0.577	-12.4392857143	-0.933333333333	3.37428571429	-0.163636363636
1155	0.5775	-2.26428571429	-3.77866666667	4.79857142857	-11.7272727273
1156	0.578	-0.810714285714	-2.356	4.79857142857	-1.60909090909
1157	0.5785	0.642857142857	-5.20133333333	17.6171428571	-0.163636363636
1158	0.579	-0.810714285714	-3.77866666667	1.95	-0.163636363636
1159	0.5795	-0.810714285714	6.18	0.525714285714	-1.60909090909
1160	0.58	2.09642857143	-3.77866666667	0.525714285714	1.28181818182
1161	0.5805	19.5392857143	-2.356	0.525714285714	2.72727272727
1162	0.581	-12.4392857143	-2.356	0.525714285714	14.2909090909
1163	0.5815	-2.26428571429	-2.356	3.37428571429	-0.163636363636
1164	0.582	-2.26428571429	-2.356	16.1928571429	-0.163636363636
1165	0.5825	0.642857142857	1.912	3.37428571429	-1.60909090909
1166	0.583	-3.71785714286	-8.04666666667	1.95	-1.60909090909
1167	0.5835	3.55	-0.933333333333	-0.898571428571	-3.05454545455
1168	0.584	22.4464285714	-0.933333333333	1.95	-0.163636363636
1169	0.5845	-10.9857142857	-0.933333333333	1.95	-0.163636363636
1170	0.585	0.642857142857	4.75733333333	3.37428571429	-7.39090909091
1171	0.5855	2.09642857143	0.489333333333	0.525714285714	-0.163636363636
1172	0.586	2.09642857143	14.716	3.37428571429	-0.163636363636
1173	0.5865	-2.26428571429	0.489333333333	3.37428571429	-0.163636363636
1174	0.587	-15.3464285714	4.75733333333	3.37428571429	-3.05454545455
1175	0.5875	19.5392857143	7.60266666667	0.525714285714	-13.1727272727
1176	0.588	2.09642857143	10.448	1.95	8.50909090909
1177	0.5885	-0.810714285714	10.448	6.22285714286	-1.60909090909
1178	0.589	2.09642857143	17.5613333333	0.525714285714	1.28181818182
1179	0.5895	0.642857142857	31.788	3.37428571429	-3.05454545455
1180	0.59	-3.71785714286	6.18	3.37428571429	-0.163636363636
1181	0.5905	0.642857142857	1.912	4.79857142857	-3.05454545455
1182	0.591	-10.9857142857	10.448	4.79857142857	-1.60909090909
1183	0.5915	0.642857142857	7.60266666667	0.525714285714	-7.39090909091
1184	0.592	0.642857142857	9.02533333333	1.95	-7.39090909091
1185	0.5925	3.55	7.60266666667	-2.32285714286	-0.163636363636
1186	0.593	0.642857142857	10.448	3.37428571429	-0.163636363636
1187	0.5935	-0.810714285714	13.2933333333	3.37428571429	-1.60909090909
1188	0.594	20.9928571429	-2.356	3.37428571429	-4.5
1189	0.5945	0.642857142857	-0.933333333333	-0.898571428571	15.7363636364
1190	0.595	0.642857142857	-3.77866666667	3.37428571429	-3.05454545455
1191	0.5955	0.642857142857	-5.20133333333	14.7685714286	-1.60909090909
1192	0.596	0.642857142857	-6.624	0.525714285714	-0.163636363636
1193	0.5965	0.642857142857	4.75733333333	0.525714285714	-1.60909090909
1194	0.597	3.55	-3.77866666667	3.37428571429	-1.60909090909
1195	0.5975	16.6321428571	-2.356	1.95	1.28181818182
1196	0.598	-5.17142857143	-3.77866666667	4.79857142857	2.72727272727
1197	0.5985	0.642857142857	-3.77866666667	3.37428571429	-11.7272727273
1198	0.599	0.642857142857	-2.356	-8.02	-3.05454545455
1199	0.5995	3.55	-10.892	4.79857142857	1.28181818182
1200	0.6	0.642857142857	-8.04666666667	3.37428571429	-3.05454545455
1201	0.6005	-5.17142857143	0.489333333333	3.37428571429	-0.163636363636
1202	0.601	6.45714285714	0.489333333333	-0.898571428571	-1.60909090909
1203	0.6015	0.642857142857	-2.356	4.79857142857	7.06363636364
1204	0.602	-0.810714285714	-0.933333333333	16.1928571429	-0.163636363636
1205	0.6025	-0.810714285714	-0.933333333333	-9.44428571429	-0.163636363636
1206	0.603	0.642857142857	6.18	-3.74714285714	-3.05454545455
1207	0.6035	-0.810714285714	23.252	-0.898571428571	-1.60909090909
1208	0.604	0.642857142857	-5.20133333333	-3.74714285714	-0.163636363636
1209	0.6045	-2.26428571429	6.18	1.95	-1.60909090909
1210	0.605	-0.810714285714	7.60266666667	-0.898571428571	-4.5
1211	0.6055	-0.810714285714	9.02533333333	3.37428571429	-4.5
1212	0.606	-0.810714285714	7.60266666667	-6.59571428571	-3.05454545455
1213	0.6065	-2.26428571429	10.448	1.95	-0.163636363636
1214	0.607	-2.26428571429	7.60266666667	-0.898571428571	-1.60909090909
1215	0.6075	0.642857142857	6.18	1.95	-1.60909090909
1216	0.608	3.55	6.18	3.37428571429	-0.163636363636
1217	0.6085	0.642857142857	4.75733333333	6.22285714286	-7.39090909091
1218	0.609	0.642857142857	0.489333333333	-6.59571428571	-0.163636363636
1219	0.6095	0.642857142857	0.489333333333	-2.32285714286	-3.05454545455
1220	0.61	0.642857142857	-0.933333333333	6.22285714286	-1.60909090909
1221	0.6105	2.09642857143	-5.20133333333	3.37428571429	-3.05454545455
1222	0.611	18.0857142857	-8.04666666667	1.95	1.28181818182
1223	0.6115	-8.07857142857	-6.624	6.22285714286	-0.163636363636
1224	0.612	0.642857142857	-6.624	4.79857142857	-11.7272727273
1225	0.6125	-0.810714285714	-9.46933333333	-3.74714285714	-1.60909090909
1226	0.613	-2.26428571429	-13.7373333333	-0.898571428571	-1.60909090909
1227	0.6135	0.642857142857	-6.624	1.95	-0.163636363636
1228	0.614	3.55	-8.04666666667	6.22285714286	-0.163636363636
1229	0.6145	-12.4392857143	-8.04666666667	3.37428571429	-0.163636363636
1230	0.615	0.642857142857	-6.624	1.95	-4.5
1231	0.6155	0.642857142857	-6.624	4.79857142857	-0.163636363636
1232	0.616	-3.71785714286	-3.77866666667	0.525714285714	-0.163636363636
1233	0.6165	-5.17142857143	-15.16	1.95	1.28181818182
1234	0.617	0.642857142857	-10.892	4.79857142857	-1.60909090909
1235	0.6175	2.09642857143	-3.77866666667	3.37428571429	-0.163636363636
1236	0.618	-8.07857142857	-2.356	3.37428571429	-1.60909090909
1237	0.6185	0.642857142857	-2.356	-0.898571428571	11.4
1238	0.619	0.642857142857	-5.20133333333	-0.898571428571	-0.163636363636
1239	0.6195	2.09642857143	1.912	-6.59571428571	-0.163636363636
1240	0.62	-0.810714285714	14.716	-6.59571428571	-1.60909090909
1241	0.6205	-3.71785714286	-3.77866666667	-0.898571428571	-1.60909090909
1242	0.621	20.9928571429	4.75733333333	0.525714285714	-0.163636363636
1243	0.6215	-9.53214285714	9.02533333333	1.95	4.17272727273
1244	0.622	0.642857142857	7.60266666667	-8.02	-3.05454545455
1245	0.6225	0.642857142857	10.448	20.4657142857	-4.5
1246	0.623	0.642857142857	6.18	-6.59571428571	1.28181818182
1247	0.6235	-0.810714285714	6.18	3.37428571429	-1.60909090909
1248	0.624	-9.53214285714	4.75733333333	3.37428571429	-0.163636363636
1249	0.6245	-3.71785714286	6.18	0.525714285714	-13.1727272727
1250	0.625	-0.810714285714	0.489333333333	-3.74714285714	-10.2818181818
1251	0.6255	-0.810714285714	-2.356	-8.02	-0.163636363636
1252	0.626	2.09642857143	-3.77866666667	0.525714285714	14.2909090909
1253	0.6265	0.642857142857	-0.933333333333	1.95	-3.05454545455
1254	0.627	-0.810714285714	-10.892	3.37428571429	-1.60909090909
1255	0.6275	5.00357142857	-18.0053333333	1.95	-1.60909090909
1256	0.628	-8.07857142857	-8.04666666667	1.95	7.06363636364
1257	0.6285	-0.810714285714	-10.892	0.525714285714	4.17272727273
1258	0.629	0.642857142857	-9.46933333333	16.1928571429	-1.60909090909
1259	0.6295	-2.26428571429	-12.3146666667	17.6171428571	-0.163636363636
1260	0.63	0.642857142857	6.18	-0.898571428571	-1.60909090909
1261	0.6305	-0.810714285714	-5.20133333333	0.525714285714	-1.60909090909
1262	0.631	9.36428571429	-5.20133333333	0.525714285714	1.28181818182
1263	0.6315	0.642857142857	-5.20133333333	4.79857142857	-1.60909090909
1264	0.632	-2.26428571429	-6.624	14.7685714286	-1.60909090909
1265	0.6325	-2.26428571429	-5.20133333333	-6.59571428571	-1.60909090909
1266	0.633	-3.71785714286	-15.16	-0.898571428571	-0.163636363636
1267	0.6335	0.642857142857	-9.46933333333	-0.898571428571	-0.163636363636
1268	0.634	-13.8928571429	-3.77866666667	1.95	-1.60909090909
1269	0.6345	-10.9857142857	-0.933333333333	3.37428571429	-3.05454545455
1270	0.635	-2.26428571429	-5.20133333333	-2.32285714286	-0.163636363636
1271	0.6355	0.642857142857	-2.356	-2.32285714286	-1.60909090909
1272	0.636	0.642857142857	-0.933333333333	4.79857142857	-1.60909090909
1273	0.6365	-0.810714285714	-0.933333333333	4.79857142857	-1.60909090909
1274	0.637	3.55	-2.356	1.95	-1.60909090909
1275	0.6375	19.5392857143	1.912	3.37428571429	4.17272727273
1276	0.638	-10.9857142857	3.33466666667	4.79857142857	1.28181818182
1277	0.6385	-0.810714285714	6.18	7.64714285714	-5.94545454545
1278	0.639	2.09642857143	6.18	0.525714285714	-1.60909090909
1279	0.6395	-0.810714285714	-5.20133333333	3.37428571429	-1.60909090909
1280	0.64	-0.810714285714	24.6746666667	1.95	-3.05454545455
1281	0.6405	-2.26428571429	0.489333333333	6.22285714286	-1.60909090909
1282	0.641	-5.17142857143	4.75733333333	4.79857142857	-5.94545454545
1283	0.6415	0.642857142857	1.912	-3.74714285714	-4.5
1284	0.642	0.642857142857	1.912	17.6171428571	-4.5
1285	0.6425	0.642857142857	-3.77866666667	3.37428571429	-1.60909090909
1286	0.643	0.642857142857	-12.3146666667	4.79857142857	-0.163636363636
1287	0.6435	3.55	-6.624	3.37428571429	1.28181818182
1288	0.644	-12.4392857143	-8.04666666667	1.95	-1.60909090909
1289	0.6445	0.642857142857	-6.624	-0.898571428571	-7.39090909091
1290	0.645	3.55	-6.624	-3.74714285714	-1.60909090909
1291	0.6455	0.642857142857	-8.04666666667	-6.59571428571	-1.60909090909
1292	0.646	-0.810714285714	-16.5826666667	0.525714285714	-1.60909090909
1293	0.6465	2.09642857143	1.912	0.525714285714	-1.60909090909
1294	0.647	-15.3464285714	-8.04666666667	-2.32285714286	2.72727272727
1295	0.6475	-10.9857142857	-8.04666666667	-0.898571428571	-13.1727272727
1296	0.648	-0.810714285714	-6.624	1.95	-4.5
1297	0.6485	0.642857142857	-5.20133333333	11.92	-3.05454545455
1298	0.649	-3.71785714286	-8.04666666667	1.95	-1.60909090909
1299	0.6495	-2.26428571429	-9.46933333333	3.37428571429	-1.60909090909
1300	0.65	-2.26428571429	1.912	0.525714285714	-0.163636363636
1301	0.6505	0.642857142857	-5.20133333333	0.525714285714	-3.05454545455
1302	0.651	-5.17142857143	-0.933333333333	1.95	-1.60909090909
1303	0.6515	0.642857142857	-3.77866666667	1.95	-1.60909090909
1304	0.652	-2.26428571429	-2.356	1.95	1.28181818182
1305	0.6525	-0.810714285714	1.912	1.95	-1.60909090909
1306	0.653	-0.810714285714	17.5613333333	4.79857142857	-1.60909090909
1307	0.6535	-3.71785714286	-6.624	1.95	-1.60909090909
1308	0.654	-6.625	3.33466666667	1.95	-0.163636363636
1309	0.6545	-2.26428571429	6.18	1.95	-0.163636363636
1310	0.655	0.642857142857	7.60266666667	3.37428571429	-0.163636363636
1311	0.6555	0.642857142857	10.448	-3.74714285714	-0.163636363636
1312	0.656	-0.810714285714	0.489333333333	0.525714285714	-3.05454545455
1313	0.6565	0.642857142857	4.75733333333	-0.898571428571	-1.60909090909
1314	0.657	-13.8928571429	6.18	0.525714285714	-1.60909090909
1315	0.6575	-9.53214285714	4.75733333333	4.79857142857	-8.83636363636
1316	0.658	0.642857142857	1.912	1.95	-4.5
1317	0.6585	-0.810714285714	0.489333333333	7.64714285714	-0.163636363636
1318	0.659	-0.810714285714	-8.04666666667	0.525714285714	-1.60909090909
1319	0.6595	0.642857142857	7.60266666667	1.95	-1.60909090909
1320	0.66	-3.71785714286	7.60266666667	0.525714285714	-1.60909090909
1321	0.6605	7.91071428571	-16.5826666667	0.525714285714	-1.60909090909
1322	0.661	-9.53214285714	-6.624	3.37428571429	14.2909090909
1323	0.6615	-0.810714285714	-8.04666666667	1.95	-7.39090909091
1324	0.662	-2.26428571429	-8.04666666667	4.79857142857	-1.60909090909
1325	0.6625	0.642857142857	-10.892	-2.32285714286	-3.05454545455
1326	0.663	2.09642857143	4.75733333333	0.525714285714	-0.163636363636
1327	0.6635	-0.810714285714	-6.624	1.95	-4.5
1328	0.664	20.9928571429	-6.624	-0.898571428571	-8.83636363636
1329	0.6645	0.642857142857	-5.20133333333	1.95	2.72727272727
1330	0.665	-0.810714285714	-5.20133333333	3.37428571429	17.1818181818
1331	0.6655	-0.810714285714	-6.624	19.0414285714	-3.05454545455
1332	0.666	-0.810714285714	-5.20133333333	-5.17142857143	-3.05454545455
1333	0.6665	-2.26428571429	6.18	6.22285714286	-1.60909090909
1334	0.667	-3.71785714286	-12.3146666667	4.79857142857	-1.60909090909
1335	0.6675	9.36428571429	-6.624	3.37428571429	-1.60909090909
1336	0.668	-8.07857142857	-5.20133333333	6.22285714286	8.50909090909
1337	0.6685	-2.26428571429	-0.933333333333	1.95	-7.39090909091
1338	0.669	-0.810714285714	-3.77866666667	11.92	-5.94545454545
1339	0.6695	-0.810714285714	-10.892	4.79857142857	-4.5
1340	0.67	-2.26428571429	1.912	3.37428571429	-1.60909090909
1341	0.6705	-16.8	3.33466666667	3.37428571429	-1.60909090909
1342	0.671	16.6321428571	4.75733333333	3.37428571429	-0.163636363636
1343	0.6715	-0.810714285714	4.75733333333	4.79857142857	-13.1727272727
1344	0.672	-0.810714285714	7.60266666667	-2.32285714286	-10.2818181818
1345	0.6725	-5.17142857143	0.489333333333	-0.898571428571	-1.60909090909
1346	0.673	-0.810714285714	20.4066666667	-0.898571428571	-0.163636363636
1347	0.6735	-2.26428571429	0.489333333333	0.525714285714	-1.60909090909
1348	0.674	5.00357142857	3.33466666667	-0.898571428571	-0.163636363636
1349	0.6745	-8.07857142857	1.912	0.525714285714	4.17272727273
1350	0.675	-0.810714285714	4.75733333333	4.79857142857	2.72727272727
1351	0.6755	-3.71785714286	0.489333333333	13.3442857143	-0.163636363636
1352	0.676	-2.26428571429	0.489333333333	0.525714285714	-0.163636363636
1353	0.6765	-2.26428571429	7.60266666667	4.79857142857	-0.163636363636
1354	0.677	-16.8	-6.624	4.79857142857	-4.5
1355	0.6775	19.5392857143	-10.892	3.37428571429	-1.60909090909
1356	0.678	0.642857142857	-12.3146666667	0.525714285714	15.7363636364
1357	0.6785	0.642857142857	-9.46933333333	-0.898571428571	14.2909090909
1358	0.679	-0.810714285714	-15.16	0.525714285714	-1.60909090909
1359	0.6795	-0.810714285714	-13.7373333333	-2.32285714286	-0.163636363636
1360	0.68	0.642857142857	-15.16	-0.898571428571	-1.60909090909
1361	0.6805	0.642857142857	-10.892	1.95	-0.163636363636
1362	0.681	-6.625	-8.04666666667	3.37428571429	12.8454545455
1363	0.6815	-3.71785714286	-8.04666666667	-0.898571428571	-10.2818181818
1364	0.682	-3.71785714286	-9.46933333333	-10.8685714286	-1.60909090909
1365	0.6825	0.642857142857	-6.624	0.525714285714	-1.60909090909
1366	0.683	-3.71785714286	4.75733333333	-0.898571428571	-0.163636363636
1367	0.6835	-2.26428571429	-6.624	3.37428571429	-0.163636363636
1368	0.684	-0.810714285714	-2.356	4.79857142857	-1.60909090909
1369	0.6845	12.2714285714	-6.624	6.22285714286	-0.163636363636
1370	0.685	-0.810714285714	-3.77866666667	4.79857142857	-4.5
1371	0.6855	0.642857142857	-3.77866666667	-5.17142857143	4.17272727273
1372	0.686	-2.26428571429	0.489333333333	3.37428571429	-1.60909090909
1373	0.6865	0.642857142857	-10.892	-2.32285714286	-1.60909090909
1374	0.687	2.09642857143	0.489333333333	-2.32285714286	-1.60909090909
1375	0.6875	-9.53214285714	-2.356	-3.74714285714	-3.05454545455
1376	0.688	3.55	6.18	-2.32285714286	-1.60909090909
1377	0.6885	-6.625	9.02533333333	0.525714285714	5.61818181818
1378	0.689	-2.26428571429	10.448	3.37428571429	-1.60909090909
1379	0.6895	-0.810714285714	10.448	0.525714285714	-1.60909090909
1380	0.69	0.642857142857	-5.20133333333	4.79857142857	-1.60909090909
1381	0.6905	0.642857142857	-6.624	3.37428571429	-1.60909090909
1382	0.691	-16.8	6.18	-0.898571428571	-1.60909090909
1383	0.6915	-10.9857142857	4.75733333333	1.95	-10.2818181818
1384	0.692	-5.17142857143	6.18	-3.74714285714	-10.2818181818
1385	0.6925	-2.26428571429	4.75733333333	-8.02	-0.163636363636
1386	0.693	-2.26428571429	-0.933333333333	17.6171428571	-1.60909090909
1387	0.6935	-0.810714285714	16.1386666667	1.95	-1.60909090909
1388	0.694	-3.71785714286	-9.46933333333	-0.898571428571	-1.60909090909
1389	0.6945	19.5392857143	-2.356	0.525714285714	2.72727272727
1390	0.695	-9.53214285714	-0.933333333333	-0.898571428571	18.6272727273
1391	0.6955	0.642857142857	-2.356	1.95	-10.2818181818
1392	0.696	-2.26428571429	-3.77866666667	3.37428571429	-10.2818181818
1393	0.6965	-0.810714285714	-2.356	0.525714285714	-3.05454545455
1394	0.697	0.642857142857	0.489333333333	1.95	-1.60909090909
1395	0.6975	-3.71785714286	-10.892	1.95	-0.163636363636
1396	0.698	15.1785714286	-3.77866666667	0.525714285714	1.28181818182
1397	0.6985	-10.9857142857	-3.77866666667	3.37428571429	11.4
1398	0.699	-2.26428571429	-3.77866666667	-0.898571428571	-7.39090909091
1399	0.6995	-0.810714285714	-0.933333333333	-2.32285714286	-1.60909090909
1400	0.7	0.642857142857	-6.624	0.525714285714	-1.60909090909
1401	0.7005	0.642857142857	-6.624	1.95	-1.60909090909
1402	0.701	-10.9857142857	-0.933333333333	-0.898571428571	-0.163636363636
1403	0.7015	-6.625	0.489333333333	4.79857142857	-13.1727272727
1404	0.702	-0.810714285714	1.912	6.22285714286	-8.83636363636
1405	0.7025	0.642857142857	1.912	-8.02	-0.163636363636
1406	0.703	-2.26428571429	7.60266666667	-9.44428571429	-3.05454545455
1407	0.7035	-2.26428571429	23.252	3.37428571429	-1.60909090909
1408	0.704	-3.71785714286	0.489333333333	3.37428571429	-0.163636363636
1409	0.7045	-0.810714285714	10.448	-0.898571428571	-4.5
1410	0.705	-6.625	16.1386666667	0.525714285714	-0.163636363636
1411	0.7055	-2.26428571429	14.716	1.95	-8.83636363636
1412	0.706	-0.810714285714	18.984	-6.59571428571	-1.60909090909
1413	0.7065	-0.810714285714	16.1386666667	-0.898571428571	-1.60909090909
1414	0.707	-0.810714285714	31.788	-2.32285714286	1.28181818182
1415	0.7075	-2.26428571429	1.912	1.95	-3.05454545455
1416	0.708	-0.810714285714	7.60266666667	0.525714285714	-1.60909090909
1417	0.7085	-0.810714285714	7.60266666667	0.525714285714	12.8454545455
1418	0.709	0.642857142857	4.75733333333	3.37428571429	1.28181818182
1419	0.7095	0.642857142857	3.33466666667	3.37428571429	-8.83636363636
1420	0.71	-3.71785714286	0.489333333333	1.95	1.28181818182
1421	0.7105	2.09642857143	0.489333333333	-3.74714285714	-1.60909090909
1422	0.711	-2.26428571429	-10.892	-2.32285714286	-0.163636363636
1423	0.7115	3.55	-2.356	-2.32285714286	-1.60909090909
1424	0.712	-10.9857142857	-2.356	1.95	1.28181818182
1425	0.7125	-2.26428571429	-3.77866666667	1.95	-11.7272727273
1426	0.713	-0.810714285714	-3.77866666667	-12.2928571429	-3.05454545455
1427	0.7135	0.642857142857	0.489333333333	1.95	-0.163636363636
1428	0.714	-0.810714285714	-16.5826666667	-2.32285714286	-1.60909090909
1429	0.7145	3.55	-2.356	0.525714285714	-3.05454545455
1430	0.715	19.5392857143	-3.77866666667	0.525714285714	-0.163636363636
1431	0.7155	-10.9857142857	-0.933333333333	1.95	12.8454545455
1432	0.716	0.642857142857	0.489333333333	0.525714285714	-11.7272727273
1433	0.7165	-2.26428571429	-2.356	-9.44428571429	-0.163636363636
1434	0.717	0.642857142857	1.912	-0.898571428571	-1.60909090909
1435	0.7175	-0.810714285714	4.75733333333	1.95	-1.60909090909
1436	0.718	0.642857142857	1.912	3.37428571429	-1.60909090909
1437	0.7185	18.0857142857	3.33466666667	4.79857142857	-1.60909090909
1438	0.719	-5.17142857143	0.489333333333	1.95	12.8454545455
1439	0.7195	0.642857142857	1.912	-0.898571428571	-3.05454545455
1440	0.72	3.55	4.75733333333	6.22285714286	-1.60909090909
1441	0.7205	2.09642857143	16.1386666667	-0.898571428571	-1.60909090909
1442	0.721	-0.810714285714	4.75733333333	0.525714285714	-1.60909090909
1443	0.7215	3.55	9.02533333333	0.525714285714	-1.60909090909
1444	0.722	13.725	10.448	-0.898571428571	-1.60909090909
1445	0.7225	-2.26428571429	10.448	1.95	8.50909090909
1446	0.723	-0.810714285714	14.716	16.1928571429	-1.60909090909
1447	0.7235	0.642857142857	7.60266666667	-0.898571428571	-0.163636363636
1448	0.724	-2.26428571429	-5.20133333333	3.37428571429	-1.60909090909
1449	0.7245	2.09642857143	24.6746666667	-0.898571428571	-0.163636363636
1450	0.725	-15.3464285714	4.75733333333	-3.74714285714	2.72727272727
1451	0.7255	-12.4392857143	6.18	0.525714285714	-13.1727272727
1452	0.726	-0.810714285714	1.912	1.95	-10.2818181818
1453	0.7265	-0.810714285714	1.912	-10.8685714286	-0.163636363636
1454	0.727	0.642857142857	1.912	-5.17142857143	-0.163636363636
1455	0.7275	0.642857142857	-5.20133333333	0.525714285714	-1.60909090909
1456	0.728	-5.17142857143	6.18	-0.898571428571	-1.60909090909
1457	0.7285	5.00357142857	-5.20133333333	-0.898571428571	-0.163636363636
1458	0.729	-3.71785714286	-6.624	-0.898571428571	11.4
1459	0.7295	-0.810714285714	-6.624	1.95	-8.83636363636
1460	0.73	2.09642857143	-6.624	14.7685714286	-1.60909090909
1461	0.7305	0.642857142857	-3.77866666667	-8.02	-1.60909090909
1462	0.731	-2.26428571429	18.984	0.525714285714	-1.60909090909
1463	0.7315	-3.71785714286	-10.892	0.525714285714	-0.163636363636
1464	0.732	-8.07857142857	-3.77866666667	-0.898571428571	-3.05454545455
1465	0.7325	-5.17142857143	-5.20133333333	-2.32285714286	-8.83636363636
1466	0.733	0.642857142857	-3.77866666667	-10.8685714286	-3.05454545455
1467	0.7335	-0.810714285714	-0.933333333333	16.1928571429	-1.60909090909
1468	0.734	-0.810714285714	-3.77866666667	-2.32285714286	-1.60909090909
1469	0.7345	2.09642857143	14.716	0.525714285714	-3.05454545455
1470	0.735	0.642857142857	-0.933333333333	0.525714285714	-1.60909090909
1471	0.7355	-0.810714285714	0.489333333333	0.525714285714	1.28181818182
1472	0.736	0.642857142857	0.489333333333	3.37428571429	-7.39090909091
1473	0.7365	0.642857142857	-0.933333333333	-12.2928571429	-3.05454545455
1474	0.737	0.642857142857	3.33466666667	-5.17142857143	-0.163636363636
1475	0.7375	0.642857142857	21.8293333333	-0.898571428571	-0.163636363636
1476	0.738	-0.810714285714	-2.356	0.525714285714	-1.60909090909
1477	0.7385	2.09642857143	7.60266666667	3.37428571429	-1.60909090909
1478	0.739	18.0857142857	9.02533333333	0.525714285714	-0.163636363636
1479	0.7395	-0.810714285714	11.8706666667	6.22285714286	-8.83636363636
1480	0.74	2.09642857143	6.18	3.37428571429	-10.2818181818
1481	0.7405	-0.810714285714	6.18	-3.74714285714	-0.163636363636
1482	0.741	0.642857142857	0.489333333333	1.95	-0.163636363636
1483	0.7415	-0.810714285714	-0.933333333333	0.525714285714	-0.163636363636
1484	0.742	-5.17142857143	0.489333333333	0.525714285714	-4.5
1485	0.7425	12.2714285714	-0.933333333333	-2.32285714286	-10.2818181818
1486	0.743	0.642857142857	-0.933333333333	-10.8685714286	-1.60909090909
1487	0.7435	0.642857142857	-6.624	14.7685714286	-1.60909090909
1488	0.744	2.09642857143	-10.892	3.37428571429	-0.163636363636
1489	0.7445	0.642857142857	-12.3146666667	-0.898571428571	-1.60909090909
1490	0.745	-2.26428571429	-10.892	0.525714285714	-1.60909090909
1491	0.7455	-12.4392857143	-9.46933333333	3.37428571429	-1.60909090909
1492	0.746	18.0857142857	-9.46933333333	1.95	-1.60909090909
1493	0.7465	-2.26428571429	-10.892	4.79857142857	14.2909090909
1494	0.747	-0.810714285714	-9.46933333333	6.22285714286	-1.60909090909
1495	0.7475	0.642857142857	-8.04666666667	-5.17142857143	-0.163636363636
1496	0.748	2.09642857143	10.448	-0.898571428571	-1.60909090909
1497	0.7485	-2.26428571429	-8.04666666667	-2.32285714286	-1.60909090909
1498	0.749	-6.625	-3.77866666667	-0.898571428571	-1.60909090909
1499	0.7495	15.1785714286	-3.77866666667	1.95	-1.60909090909
1500	0.75	-0.810714285714	-0.933333333333	-3.74714285714	11.4
1501	0.7505	-0.810714285714	-2.356	7.64714285714	-0.163636363636
1502	0.751	0.642857142857	-2.356	6.22285714286	-7.39090909091
1503	0.7515	2.09642857143	-0.933333333333	3.37428571429	-1.60909090909
1504	0.752	3.55	-3.77866666667	4.79857142857	-1.60909090909
1505	0.7525	-13.8928571429	0.489333333333	3.37428571429	1.28181818182
1506	0.753	-2.26428571429	0.489333333333	4.79857142857	-7.39090909091
1507	0.7535	0.642857142857	0.489333333333	-9.44428571429	-11.7272727273
1508	0.754	2.09642857143	4.75733333333	-9.44428571429	-0.163636363636
1509	0.7545	2.09642857143	0.489333333333	1.95	-1.60909090909
1510	0.755	-2.26428571429	3.33466666667	1.95	-3.05454545455
1511	0.7555	-9.53214285714	7.60266666667	0.525714285714	-4.5
1512	0.756	10.8178571429	6.18	-0.898571428571	-3.05454545455
1513	0.7565	-2.26428571429	7.60266666667	0.525714285714	5.61818181818
1514	0.757	-0.810714285714	6.18	16.1928571429	-1.60909090909
1515	0.7575	-2.26428571429	-0.933333333333	0.525714285714	-3.05454545455
1516	0.758	-2.26428571429	-10.892	0.525714285714	-1.60909090909
1517	0.7585	-0.810714285714	18.984	0.525714285714	-1.60909090909
1518	0.759	-2.26428571429	-0.933333333333	1.95	-0.163636363636
1519	0.7595	22.4464285714	-2.356	1.95	-1.60909090909
1520	0.76	-8.07857142857	-5.20133333333	1.95	-1.60909090909
1521	0.7605	0.642857142857	-6.624	9.07142857143	1.28181818182
1522	0.761	0.642857142857	-10.892	7.64714285714	-0.163636363636
1523	0.7615	0.642857142857	-20.8506666667	-2.32285714286	-1.60909090909
1524	0.762	-2.26428571429	-9.46933333333	-6.59571428571	-0.163636363636
1525	0.7625	-13.8928571429	-10.892	-3.74714285714	-5.94545454545
1526	0.763	13.725	-6.624	0.525714285714	-4.5
1527	0.7635	-2.26428571429	-9.46933333333	4.79857142857	8.50909090909
1528	0.764	0.642857142857	-6.624	-3.74714285714	-4.5
1529	0.7645	0.642857142857	0.489333333333	-0.898571428571	-1.60909090909
1530	0.765	-0.810714285714	-15.16	3.37428571429	-0.163636363636
1531	0.7655	0.642857142857	-12.3146666667	3.37428571429	-1.60909090909
1532	0.766	-9.53214285714	-3.77866666667	3.37428571429	-1.60909090909
1533	0.7665	12.2714285714	-2.356	4.79857142857	-0.163636363636
1534	0.767	0.642857142857	-3.77866666667	4.79857142857	-1.60909090909
1535	0.7675	-0.810714285714	-2.356	7.64714285714	-1.60909090909
1536	0.768	-2.26428571429	0.489333333333	3.37428571429	-1.60909090909
1537	0.7685	-2.26428571429	9.02533333333	1.95	-1.60909090909
1538	0.769	2.09642857143	-5.20133333333	0.525714285714	-0.163636363636
1539	0.7695	16.6321428571	-2.356	1.95	-13.1727272727
1540	0.77	-2.26428571429	0.489333333333	-0.898571428571	12.8454545455
1541	0.7705	-0.810714285714	0.489333333333	1.95	2.72727272727
1542	0.771	-0.810714285714	3.33466666667	-8.02	-1.60909090909
1543	0.7715	0.642857142857	9.02533333333	0.525714285714	-3.05454545455
1544	0.772	2.09642857143	24.6746666667	-0.898571428571	-0.163636363636
1545	0.7725	0.642857142857	-0.933333333333	0.525714285714	-0.163636363636
1546	0.773	16.6321428571	6.18	-2.32285714286	-1.60909090909
1547	0.7735	-10.9857142857	3.33466666667	1.95	-1.60909090909
1548	0.774	-2.26428571429	3.33466666667	-3.74714285714	-5.94545454545
1549	0.7745	0.642857142857	1.912	7.64714285714	-0.163636363636
1550	0.775	0.642857142857	13.2933333333	3.37428571429	-3.05454545455
1551	0.7755	-2.26428571429	-2.356	4.79857142857	1.28181818182
1552	0.776	-12.4392857143	-0.933333333333	3.37428571429	-1.60909090909
1553	0.7765	22.4464285714	-2.356	4.79857142857	-0.163636363636
1554	0.777	-5.17142857143	-5.20133333333	-0.898571428571	12.8454545455
1555	0.7775	-0.810714285714	-6.624	6.22285714286	-0.163636363636
1556	0.778	2.09642857143	-5.20133333333	-3.74714285714	-0.163636363636
1557	0.7785	2.09642857143	-16.5826666667	0.525714285714	-3.05454545455
1558	0.779	3.55	-10.892	0.525714285714	-1.60909090909
1559	0.7795	-5.17142857143	-8.04666666667	0.525714285714	-3.05454545455
1560	0.78	0.642857142857	-3.77866666667	-2.32285714286	-13.1727272727
1561	0.7805	-0.810714285714	-6.624	-8.02	-1.60909090909
1562	0.781	-2.26428571429	-5.20133333333	14.7685714286	-1.60909090909
1563	0.7815	-2.26428571429	-6.624	-2.32285714286	-1.60909090909
1564	0.782	-0.810714285714	1.912	-3.74714285714	-4.5
1565	0.7825	9.36428571429	-3.77866666667	-2.32285714286	-0.163636363636
1566	0.783	-3.71785714286	-3.77866666667	-0.898571428571	-1.60909090909
1567	0.7835	-0.810714285714	-2.356	1.95	1.28181818182
1568	0.784	0.642857142857	-3.77866666667	-3.74714285714	1.28181818182
1569	0.7845	-2.26428571429	-2.356	-3.74714285714	-1.60909090909
1570	0.785	-0.810714285714	-13.7373333333	1.95	-3.05454545455
1571	0.7855	3.55	-2.356	0.525714285714	-1.60909090909
1572	0.786	-13.8928571429	0.489333333333	1.95	1.28181818182
1573	0.7865	-9.53214285714	0.489333333333	1.95	-13.1727272727
1574	0.787	0.642857142857	0.489333333333	1.95	-1.60909090909
1575	0.7875	3.55	6.18	20.4657142857	-0.163636363636
1576	0.788	-0.810714285714	4.75733333333	0.525714285714	-1.60909090909
1577	0.7885	0.642857142857	3.33466666667	1.95	-1.60909090909
1578	0.789	-2.26428571429	20.4066666667	4.79857142857	-0.163636363636
1579	0.7895	-8.07857142857	-0.933333333333	1.95	-1.60909090909
1580	0.79	0.642857142857	4.75733333333	3.37428571429	2.72727272727
1581	0.7905	-0.810714285714	1.912	-3.74714285714	4.17272727273
1582	0.791	-0.810714285714	4.75733333333	6.22285714286	-1.60909090909
1583	0.7915	-2.26428571429	0.489333333333	-0.898571428571	-1.60909090909
1584	0.792	-3.71785714286	0.489333333333	3.37428571429	-0.163636363636
1585	0.7925	3.55	-0.933333333333	3.37428571429	-1.60909090909
1586	0.793	12.2714285714	-6.624	3.37428571429	1.28181818182
1587	0.7935	0.642857142857	-6.624	4.79857142857	-0.163636363636
1588	0.794	0.642857142857	-6.624	1.95	2.72727272727
1589	0.7945	3.55	-5.20133333333	-5.17142857143	-5.94545454545
1590	0.795	-0.810714285714	-15.16	-3.74714285714	-0.163636363636
1591	0.7955	3.55	-9.46933333333	1.95	-1.60909090909
1592	0.796	3.55	-10.892	1.95	-1.60909090909
1593	0.7965	-8.07857142857	-10.892	-0.898571428571	1.28181818182
1594	0.797	0.642857142857	-6.624	3.37428571429	5.61818181818
1595	0.7975	0.642857142857	-6.624	1.95	1.28181818182
1596	0.798	-2.26428571429	-6.624	0.525714285714	-1.60909090909
1597	0.7985	-2.26428571429	-5.20133333333	0.525714285714	-0.163636363636
1598	0.799	-2.26428571429	-9.46933333333	3.37428571429	-1.60909090909
1599	0.7995	-12.4392857143	-5.20133333333	1.95	-0.163636363636
1600	0.8	9.36428571429	-6.624	-0.898571428571	-1.60909090909
1601	0.8005	-5.17142857143	-3.77866666667	-2.32285714286	-3.05454545455
1602	0.801	-0.810714285714	-2.356	1.95	-0.163636363636
1603	0.8015	-0.810714285714	-3.77866666667	0.525714285714	-1.60909090909
1604	0.802	-2.26428571429	1.912	0.525714285714	1.28181818182
1605	0.8025	-2.26428571429	-3.77866666667	3.37428571429	-3.05454545455
1606	0.803	0.642857142857	3.33466666667	3.37428571429	-0.163636363636
1607	0.8035	-5.17142857143	-0.933333333333	0.525714285714	1.28181818182
1608	0.804	0.642857142857	4.75733333333	3.37428571429	-11.7272727273
1609	0.8045	0.642857142857	6.18	-8.02	-1.60909090909
1610	0.805	0.642857142857	13.2933333333	1.95	-1.60909090909
1611	0.8055	2.09642857143	0.489333333333	3.37428571429	-0.163636363636
1612	0.806	3.55	3.33466666667	4.79857142857	-1.60909090909
1613	0.8065	-5.17142857143	10.448	1.95	-7.39090909091
1614	0.807	-6.625	6.18	1.95	4.17272727273
1615	0.8075	-2.26428571429	4.75733333333	0.525714285714	-0.163636363636
1616	0.808	-0.810714285714	6.18	0.525714285714	-7.39090909091
1617	0.8085	-0.810714285714	7.60266666667	-0.898571428571	-3.05454545455
1618	0.809	-0.810714285714	17.5613333333	-5.17142857143	-0.163636363636
1619	0.8095	-0.810714285714	-9.46933333333	-2.32285714286	-1.60909090909
1620	0.81	-3.71785714286	-5.20133333333	-2.32285714286	-1.60909090909
1621	0.8105	-0.810714285714	-5.20133333333	-0.898571428571	1.28181818182
1622	0.811	0.642857142857	-6.624	-12.2928571429	1.28181818182
1623	0.8115	-0.810714285714	-5.20133333333	-6.59571428571	-3.05454545455
1624	0.812	0.642857142857	-5.20133333333	-3.74714285714	-0.163636363636
1625	0.8125	2.09642857143	-19.428	-3.74714285714	-1.60909090909
1626	0.813	-3.71785714286	10.448	-6.59571428571	-1.60909090909
1627	0.8135	15.1785714286	-6.624	-2.32285714286	-5.94545454545
1628	0.814	0.642857142857	-2.356	-3.74714285714	-4.5
1629	0.8145	-0.810714285714	-3.77866666667	-9.44428571429	-3.05454545455
1630	0.815	-0.810714285714	-6.624	-5.17142857143	-1.60909090909
1631	0.8155	0.642857142857	-2.356	-3.74714285714	-1.60909090909
1632	0.816	-3.71785714286	-10.892	3.37428571429	-0.163636363636
1633	0.8165	2.09642857143	-2.356	0.525714285714	-3.05454545455
1634	0.817	20.9928571429	-5.20133333333	1.95	-0.163636363636
1635	0.8175	-6.625	-3.77866666667	4.79857142857	18.6272727273
1636	0.818	0.642857142857	-3.77866666667	17.6171428571	-3.05454545455
1637	0.8185	-0.810714285714	-3.77866666667	3.37428571429	-1.60909090909
1638	0.819	0.642857142857	-9.46933333333	4.79857142857	-0.163636363636
1639	0.8195	2.09642857143	17.5613333333	0.525714285714	-0.163636363636
1640	0.82	-2.26428571429	-0.933333333333	1.95	-1.60909090909
1641	0.8205	-6.625	-0.933333333333	1.95	-0.163636363636
1642	0.821	-0.810714285714	1.912	4.79857142857	-0.163636363636
1643	0.8215	0.642857142857	6.18	14.7685714286	-0.163636363636
1644	0.822	0.642857142857	3.33466666667	-0.898571428571	-1.60909090909
1645	0.8225	0.642857142857	13.2933333333	1.95	-1.60909090909
1646	0.823	-3.71785714286	1.912	0.525714285714	-1.60909090909
1647	0.8235	5.00357142857	6.18	1.95	-1.60909090909
1648	0.824	-8.07857142857	6.18	4.79857142857	-8.83636363636
1649	0.8245	-5.17142857143	1.912	0.525714285714	-7.39090909091
1650	0.825	-3.71785714286	3.33466666667	-8.02	-4.5
1651	0.8255	-2.26428571429	4.75733333333	0.525714285714	-1.60909090909
1652	0.826	-0.810714285714	-12.3146666667	3.37428571429	-1.60909090909
1653	0.8265	-0.810714285714	-12.3146666667	0.525714285714	-1.60909090909
1654	0.827	3.55	-9.46933333333	0.525714285714	-3.05454545455
1655	0.8275	-8.07857142857	-8.04666666667	-0.898571428571	-1.60909090909
1656	0.828	-3.71785714286	-6.624	-0.898571428571	-13.1727272727
1657	0.8285	2.09642857143	-10.892	-10.8685714286	-1.60909090909
1658	0.829	0.642857142857	-8.04666666667	-0.898571428571	-1.60909090909
1659	0.8295	0.642857142857	-19.428	0.525714285714	-1.60909090909
1660	0.83	2.09642857143	-13.7373333333	1.95	-1.60909090909
1661	0.8305	0.642857142857	-8.04666666667	3.37428571429	-0.163636363636
1662	0.831	-8.07857142857	-6.624	7.64714285714	1.28181818182
1663	0.8315	2.09642857143	-9.46933333333	9.07142857143	-11.7272727273
1664	0.832	-0.810714285714	-6.624	3.37428571429	-8.83636363636
1665	0.8325	-3.71785714286	-8.04666666667	-3.74714285714	-1.60909090909
1666	0.833	-0.810714285714	-9.46933333333	1.95	-1.60909090909
1667	0.8335	-0.810714285714	0.489333333333	4.79857142857	-3.05454545455
1668	0.834	0.642857142857	-5.20133333333	4.79857142857	-1.60909090909
1669	0.8345	-3.71785714286	-5.20133333333	0.525714285714	14.2909090909
1670	0.835	-2.26428571429	-3.77866666667	-12.2928571429	-1.60909090909
1671	0.8355	-0.810714285714	-0.933333333333	19.0414285714	-1.60909090909
1672	0.836	-0.810714285714	-6.624	17.6171428571	-3.05454545455
1673	0.8365	0.642857142857	-8.04666666667	0.525714285714	-1.60909090909
1674	0.837	3.55	-0.933333333333	1.95	-1.60909090909
1675	0.8375	-13.8928571429	1.912	-0.898571428571	-0.163636363636
1676	0.838	-8.07857142857	6.18	-0.898571428571	-11.7272727273
1677	0.8385	0.642857142857	6.18	-15.1414285714	-7.39090909091
1678	0.839	0.642857142857	9.02533333333	-12.2928571429	-1.60909090909
1679	0.8395	0.642857142857	10.448	-0.898571428571	-1.60909090909
1680	0.84	-0.810714285714	-2.356	0.525714285714	-0.163636363636
1681	0.8405	3.55	3.33466666667	-0.898571428571	-1.60909090909
1682	0.841	19.5392857143	0.489333333333	1.95	4.17272727273
1683	0.8415	-9.53214285714	0.489333333333	6.22285714286	1.28181818182
1684	0.842	-0.810714285714	-0.933333333333	3.37428571429	-8.83636363636
1685	0.8425	-0.810714285714	-3.77866666667	-6.59571428571	-1.60909090909
1686	0.843	0.642857142857	-3.77866666667	1.95	-1.60909090909
1687	0.8435	-2.26428571429	-2.356	0.525714285714	-0.163636363636
1688	0.844	5.00357142857	-6.624	-0.898571428571	-1.60909090909
1689	0.8445	16.6321428571	-5.20133333333	1.95	-1.60909090909
1690	0.845	-3.71785714286	-3.77866666667	1.95	-0.163636363636
1691	0.8455	0.642857142857	-6.624	3.37428571429	-13.1727272727
1692	0.846	-0.810714285714	-6.624	-8.02	-3.05454545455
1693	0.8465	0.642857142857	-0.933333333333	1.95	-0.163636363636
1694	0.847	3.55	-16.5826666667	3.37428571429	-3.05454545455
1695	0.8475	2.09642857143	-6.624	1.95	-1.60909090909
1696	0.848	-9.53214285714	-6.624	1.95	1.28181818182
1697	0.8485	-2.26428571429	-6.624	1.95	-10.2818181818
1698	0.849	-0.810714285714	-5.20133333333	0.525714285714	4.17272727273
1699	0.8495	-0.810714285714	-5.20133333333	6.22285714286	-0.163636363636
1700	0.85	-0.810714285714	0.489333333333	0.525714285714	-1.60909090909
1701	0.8505	-2.26428571429	14.716	0.525714285714	-1.60909090909
1702	0.851	-3.71785714286	-6.624	0.525714285714	-0.163636363636
1703	0.8515	19.5392857143	-0.933333333333	1.95	-13.1727272727
1704	0.852	0.642857142857	0.489333333333	3.37428571429	-0.163636363636
1705	0.8525	2.09642857143	1.912	7.64714285714	-10.2818181818
1706	0.853	2.09642857143	1.912	-0.898571428571	-0.163636363636
1707	0.8535	0.642857142857	-2.356	1.95	-4.5
1708	0.854	0.642857142857	17.5613333333	6.22285714286	-3.05454545455
1709	0.8545	0.642857142857	6.18	4.79857142857	-1.60909090909
1710	0.855	18.0857142857	10.448	7.64714285714	-3.05454545455
1711	0.8555	-0.810714285714	13.2933333333	1.95	1.28181818182
1712	0.856	0.642857142857	13.2933333333	20.4657142857	-1.60909090909
1713	0.8565	-0.810714285714	10.448	17.6171428571	-3.05454545455
1714	0.857	-0.810714285714	13.2933333333	-8.02	-3.05454545455
1715	0.8575	-3.71785714286	-0.933333333333	-0.898571428571	-1.60909090909
1716	0.858	2.09642857143	4.75733333333	-3.74714285714	-1.60909090909
1717	0.8585	19.5392857143	4.75733333333	-2.32285714286	1.28181818182
1718	0.859	-5.17142857143	4.75733333333	-3.74714285714	15.7363636364
1719	0.8595	-0.810714285714	1.912	3.37428571429	-4.5
1720	0.86	0.642857142857	-2.356	-6.59571428571	-0.163636363636
1721	0.8605	0.642857142857	-5.20133333333	-6.59571428571	-1.60909090909
1722	0.861	5.00357142857	9.02533333333	0.525714285714	-4.5
1723	0.8615	3.55	-3.77866666667	0.525714285714	-3.05454545455
1724	0.862	7.91071428571	-6.624	-0.898571428571	-0.163636363636
1725	0.8625	0.642857142857	-6.624	3.37428571429	7.06363636364
1726	0.863	0.642857142857	-3.77866666667	-8.02	-3.05454545455
1727	0.8635	-0.810714285714	0.489333333333	1.95	-1.60909090909
1728	0.864	-0.810714285714	-10.892	-0.898571428571	-1.60909090909
1729	0.8645	0.642857142857	-12.3146666667	0.525714285714	-1.60909090909
1730	0.865	0.642857142857	-2.356	0.525714285714	-1.60909090909
1731	0.8655	-6.625	-3.77866666667	1.95	1.28181818182
1732	0.866	-0.810714285714	-2.356	-3.74714285714	-5.94545454545
1733	0.8665	-2.26428571429	-2.356	-5.17142857143	-5.94545454545
1734	0.867	-0.810714285714	-2.356	21.89	-1.60909090909
1735	0.8675	0.642857142857	-8.04666666667	3.37428571429	-3.05454545455
1736	0.868	0.642857142857	0.489333333333	1.95	1.28181818182
1737	0.8685	-5.17142857143	0.489333333333	3.37428571429	-0.163636363636
1738	0.869	-8.07857142857	-0.933333333333	4.79857142857	-7.39090909091
1739	0.8695	0.642857142857	4.75733333333	3.37428571429	-1.60909090909
1740	0.87	0.642857142857	1.912	4.79857142857	-1.60909090909
1741	0.8705	0.642857142857	7.60266666667	-0.898571428571	-0.163636363636
1742	0.871	-0.810714285714	7.60266666667	-0.898571428571	-0.163636363636
1743	0.8715	2.09642857143	9.02533333333	-0.898571428571	-1.60909090909
1744	0.872	19.5392857143	14.716	-0.898571428571	1.28181818182
1745	0.8725	-6.625	13.2933333333	-0.898571428571	1.28181818182
1746	0.873	0.642857142857	13.2933333333	1.95	-11.7272727273
1747	0.8735	0.642857142857	16.1386666667	-12.2928571429	-0.163636363636
1748	0.874	-2.26428571429	9.02533333333	-2.32285714286	-0.163636363636
1749	0.8745	-2.26428571429	6.18	-3.74714285714	-0.163636363636
1750	0.875	0.642857142857	10.448	0.525714285714	-1.60909090909
1751	0.8755	-2.26428571429	7.60266666667	-3.74714285714	14.2909090909
1752	0.876	0.642857142857	4.75733333333	4.79857142857	14.2909090909
1753	0.8765	-0.810714285714	1.912	16.1928571429	-0.163636363636
1754	0.877	-2.26428571429	-5.20133333333	-5.17142857143	-1.60909090909
1755	0.8775	-0.810714285714	-2.356	4.79857142857	-3.05454545455
1756	0.878	0.642857142857	-3.77866666667	1.95	-1.60909090909
1757	0.8785	10.8178571429	-5.20133333333	0.525714285714	-3.05454545455
1758	0.879	-0.810714285714	-5.20133333333	0.525714285714	5.61818181818
1759	0.8795	-0.810714285714	-2.356	-6.59571428571	-1.60909090909
1760	0.88	0.642857142857	-2.356	19.0414285714	-1.60909090909
1761	0.8805	-0.810714285714	-6.624	0.525714285714	-1.60909090909
1762	0.881	0.642857142857	-12.3146666667	0.525714285714	1.28181818182
1763	0.8815	2.09642857143	-3.77866666667	1.95	2.72727272727
1764	0.882	-10.9857142857	-0.933333333333	1.95	-1.60909090909
1765	0.8825	16.6321428571	-0.933333333333	4.79857142857	-1.60909090909
1766	0.883	-2.26428571429	-0.933333333333	-0.898571428571	14.2909090909
1767	0.8835	-2.26428571429	0.489333333333	6.22285714286	-1.60909090909
1768	0.884	-0.810714285714	1.912	-8.02	-0.163636363636
1769	0.8845	0.642857142857	6.18	-0.898571428571	-1.60909090909
1770	0.885	0.642857142857	-2.356	-0.898571428571	-0.163636363636
1771	0.8855	-10.9857142857	1.912	-0.898571428571	-1.60909090909
1772	0.886	-0.810714285714	4.75733333333	-0.898571428571	-4.5
1773	0.8865	0.642857142857	6.18	-0.898571428571	14.2909090909
1774	0.887	0.642857142857	4.75733333333	3.37428571429	-5.94545454545
1775	0.8875	-2.26428571429	13.2933333333	1.95	-1.60909090909
1776	0.888	0.642857142857	16.1386666667	1.95	-3.05454545455
1777	0.8885	2.09642857143	10.448	1.95	-1.60909090909
1778	0.889	18.0857142857	16.1386666667	0.525714285714	-0.163636363636
1779	0.8895	-9.53214285714	16.1386666667	0.525714285714	-3.05454545455
1780	0.89	-2.26428571429	14.716	-2.32285714286	-5.94545454545
1781	0.8905	-3.71785714286	16.1386666667	-0.898571428571	-1.60909090909
1782	0.891	-2.26428571429	1.912	4.79857142857	-0.163636363636
1783	0.8915	-0.810714285714	7.60266666667	4.79857142857	-1.60909090909
1784	0.892	2.09642857143	4.75733333333	6.22285714286	1.28181818182
1785	0.8925	-13.8928571429	6.18	1.95	5.61818181818
1786	0.893	-3.71785714286	1.912	0.525714285714	-8.83636363636
1787	0.8935	-2.26428571429	0.489333333333	-10.8685714286	-0.163636363636
1788	0.894	0.642857142857	-0.933333333333	-0.898571428571	-1.60909090909
1789	0.8945	-0.810714285714	0.489333333333	-0.898571428571	-0.163636363636
1790	0.895	-0.810714285714	-13.7373333333	0.525714285714	-0.163636363636
1791	0.8955	3.55	-8.04666666667	1.95	-1.60909090909
1792	0.896	19.5392857143	-3.77866666667	3.37428571429	-0.163636363636
1793	0.8965	-8.07857142857	-5.20133333333	3.37428571429	-1.60909090909
1794	0.897	-0.810714285714	0.489333333333	6.22285714286	-11.7272727273
1795	0.8975	0.642857142857	1.912	-8.02	-3.05454545455
1796	0.898	0.642857142857	-6.624	1.95	-0.163636363636
1797	0.8985	-0.810714285714	-6.624	1.95	-1.60909090909
1798	0.899	2.09642857143	4.75733333333	4.79857142857	2.72727272727
1799	0.8995	-12.4392857143	3.33466666667	1.95	-0.163636363636
1800	0.9	-0.810714285714	6.18	3.37428571429	-7.39090909091
1801	0.9005	-0.810714285714	4.75733333333	3.37428571429	9.95454545455
1802	0.901	-0.810714285714	4.75733333333	11.92	-3.05454545455
1803	0.9015	-0.810714285714	7.60266666667	4.79857142857	-1.60909090909
1804	0.902	-0.810714285714	1.912	4.79857142857	1.28181818182
1805	0.9025	-10.9857142857	7.60266666667	6.22285714286	-3.05454545455
1806	0.903	16.6321428571	7.60266666667	4.79857142857	1.28181818182
1807	0.9035	0.642857142857	6.18	7.64714285714	11.4
1808	0.904	-0.810714285714	6.18	16.1928571429	-1.60909090909
1809	0.9045	-0.810714285714	13.2933333333	11.92	-1.60909090909
1810	0.905	0.642857142857	26.0973333333	-3.74714285714	-1.60909090909
1811	0.9055	-0.810714285714	28.9426666667	0.525714285714	-1.60909090909
1812	0.906	3.55	7.60266666667	-0.898571428571	-1.60909090909
1813	0.9065	-0.810714285714	16.1386666667	-3.74714285714	14.2909090909
1814	0.907	-5.17142857143	13.2933333333	0.525714285714	2.72727272727
1815	0.9075	-0.810714285714	10.448	3.37428571429	-8.83636363636
1816	0.908	-2.26428571429	10.448	-0.898571428571	-3.05454545455
1817	0.9085	-0.810714285714	10.448	-0.898571428571	-0.163636363636
1818	0.909	0.642857142857	0.489333333333	-2.32285714286	1.28181818182
1819	0.9095	13.725	7.60266666667	-0.898571428571	1.28181818182
1820	0.91	-10.9857142857	1.912	1.95	8.50909090909
1821	0.9105	-0.810714285714	0.489333333333	1.95	-1.60909090909
1822	0.911	-0.810714285714	0.489333333333	14.7685714286	-4.5
1823	0.9115	-0.810714285714	-10.892	1.95	-1.60909090909
1824	0.912	2.09642857143	-6.624	3.37428571429	-0.163636363636
1825	0.9125	3.55	-5.20133333333	1.95	-3.05454545455
1826	0.913	-13.8928571429	-2.356	0.525714285714	-0.163636363636
1827	0.9135	0.642857142857	1.912	0.525714285714	-8.83636363636
1828	0.914	0.642857142857	3.33466666667	-5.17142857143	-1.60909090909
1829	0.9145	-2.26428571429	0.489333333333	-0.898571428571	-1.60909090909
1830	0.915	-0.810714285714	1.912	16.1928571429	-3.05454545455
1831	0.9155	-0.810714285714	-2.356	1.95	-1.60909090909
1832	0.916	-12.4392857143	3.33466666667	4.79857142857	-3.05454545455
1833	0.9165	16.6321428571	6.18	1.95	-1.60909090909
1834	0.917	-2.26428571429	4.75733333333	-0.898571428571	15.7363636364
1835	0.9175	0.642857142857	6.18	20.4657142857	-1.60909090909
1836	0.918	-3.71785714286	3.33466666667	4.79857142857	-1.60909090909
1837	0.9185	0.642857142857	0.489333333333	4.79857142857	-1.60909090909
1838	0.919	-0.810714285714	16.1386666667	4.79857142857	-1.60909090909
1839	0.9195	3.55	7.60266666667	4.79857142857	-8.83636363636
1840	0.92	-3.71785714286	7.60266666667	6.22285714286	7.06363636364
1841	0.9205	3.55	10.448	7.64714285714	-1.60909090909
1842	0.921	0.642857142857	13.2933333333	-3.74714285714	-1.60909090909
1843	0.9215	0.642857142857	21.8293333333	0.525714285714	-0.163636363636
1844	0.922	-2.26428571429	20.4066666667	-0.898571428571	-1.60909090909
1845	0.9225	-8.07857142857	18.984	0.525714285714	-1.60909090909
1846	0.923	-5.17142857143	18.984	0.525714285714	-11.7272727273
1847	0.9235	-0.810714285714	16.1386666667	1.95	-13.1727272727
1848	0.924	-3.71785714286	10.448	-0.898571428571	17.1818181818
1849	0.9245	-0.810714285714	13.2933333333	0.525714285714	-1.60909090909
1850	0.925	-0.810714285714	7.60266666667	1.95	-1.60909090909
1851	0.9255	-0.810714285714	3.33466666667	-0.898571428571	-1.60909090909
1852	0.926	-2.26428571429	9.02533333333	-2.32285714286	-0.163636363636
1853	0.9265	-5.17142857143	4.75733333333	-0.898571428571	11.4
1854	0.927	2.09642857143	1.912	-2.32285714286	-5.94545454545
1855	0.9275	2.09642857143	1.912	-6.59571428571	-3.05454545455
1856	0.928	0.642857142857	0.489333333333	14.7685714286	-1.60909090909
1857	0.9285	0.642857142857	16.1386666667	1.95	-1.60909090909
1858	0.929	-2.26428571429	16.1386666667	0.525714285714	-1.60909090909
1859	0.9295	16.6321428571	-5.20133333333	1.95	-1.60909090909
1860	0.93	-0.810714285714	-3.77866666667	0.525714285714	4.17272727273
1861	0.9305	0.642857142857	-0.933333333333	-8.02	-1.60909090909
1862	0.931	-0.810714285714	0.489333333333	-6.59571428571	-4.5
1863	0.9315	2.09642857143	14.716	-0.898571428571	-0.163636363636
1864	0.932	-3.71785714286	-6.624	-0.898571428571	-1.60909090909
1865	0.9325	3.55	0.489333333333	-3.74714285714	-4.5
