	Time	Channel 1	Channel 2	Channel 3	Channel 4
0	0.0	13.2628294036	0.448571428571	-5.25294117647	-2.86956521739
1	0.0005	10.4514563107	-2.44285714286	3.20352941176	-1.4347826087
2	0.001	11.8571428571	-8.22571428571	0.384705882353	-2.86956521739
3	0.0015	10.4514563107	-2.44285714286	3.20352941176	-4.30434782609
4	0.002	10.4514563107	-2.44285714286	0.384705882353	-1.4347826087
5	0.0025	11.8571428571	10.5685714286	-1.02470588235	4.30434782609
6	0.003	9.04576976422	-9.67142857143	-1.02470588235	-2.86956521739
7	0.0035	0.611650485437	-0.997142857143	3.20352941176	-2.86956521739
8	0.004	13.2628294036	-5.33428571429	3.20352941176	-8.60869565217
9	0.0045	11.8571428571	-5.33428571429	-6.66235294118	-1.4347826087
10	0.005	13.2628294036	10.5685714286	-1.02470588235	-1.4347826087
11	0.0055	10.4514563107	-6.78	-1.02470588235	-1.4347826087
12	0.006	-0.794036061026	-0.997142857143	-1.02470588235	-1.4347826087
13	0.0065	7.64008321775	-0.997142857143	-2.43411764706	14.347826087
14	0.007	3.42302357836	-2.44285714286	4.61294117647	-5.73913043478
15	0.0075	9.04576976422	0.448571428571	-9.48117647059	-1.4347826087
16	0.008	7.64008321775	-2.44285714286	0.384705882353	1.4347826087
17	0.0085	7.64008321775	-9.67142857143	0.384705882353	-1.4347826087
18	0.009	4.82871012483	4.78571428571	0.384705882353	-1.4347826087
19	0.0095	4.82871012483	-8.22571428571	3.20352941176	0.0
20	0.01	-5.01109570042	0.448571428571	3.20352941176	-1.4347826087
21	0.0105	-0.794036061026	-2.44285714286	-1.02470588235	11.4782608696
22	0.011	4.82871012483	-2.44285714286	4.61294117647	-5.73913043478
23	0.0115	10.4514563107	-5.33428571429	-10.8905882353	-2.86956521739
24	0.012	7.64008321775	-2.44285714286	18.7070588235	0.0
25	0.0125	2.0173370319	-5.33428571429	-1.02470588235	-2.86956521739
26	0.013	9.04576976422	17.7971428571	1.79411764706	-1.4347826087
27	0.0135	2.0173370319	-8.22571428571	0.384705882353	0.0
28	0.014	7.64008321775	-2.44285714286	-1.02470588235	0.0
29	0.0145	-7.82246879334	-0.997142857143	-1.02470588235	-2.86956521739
30	0.015	20.2912621359	-3.88857142857	1.79411764706	0.0
31	0.0155	2.0173370319	-3.88857142857	-1.02470588235	-11.4782608696
32	0.016	4.82871012483	-2.44285714286	-2.43411764706	7.17391304348
33	0.0165	3.42302357836	-0.997142857143	4.61294117647	-2.86956521739
34	0.017	2.0173370319	0.448571428571	1.79411764706	-1.4347826087
35	0.0175	2.0173370319	17.7971428571	3.20352941176	-4.30434782609
36	0.018	2.0173370319	-11.1171428571	0.384705882353	-1.4347826087
37	0.0185	3.42302357836	-2.44285714286	-1.02470588235	-1.4347826087
38	0.019	21.6969486824	-0.997142857143	-1.02470588235	-8.60869565217
39	0.0195	-0.794036061026	0.448571428571	-1.02470588235	-1.4347826087
40	0.02	3.42302357836	-3.88857142857	1.79411764706	-7.17391304348
41	0.0205	0.611650485437	-3.88857142857	-2.43411764706	-2.86956521739
42	0.021	3.42302357836	-0.997142857143	-6.66235294118	-1.4347826087
43	0.0215	2.0173370319	-9.67142857143	1.79411764706	-1.4347826087
44	0.022	0.611650485437	0.448571428571	-1.02470588235	0.0
45	0.0225	4.82871012483	-3.88857142857	1.79411764706	0.0
46	0.023	-7.82246879334	-2.44285714286	-1.02470588235	0.0
47	0.0235	-7.82246879334	-0.997142857143	-1.02470588235	-1.4347826087
48	0.024	-5.01109570042	0.448571428571	1.79411764706	-1.4347826087
49	0.0245	-0.794036061026	-3.88857142857	-1.02470588235	7.17391304348
50	0.025	3.42302357836	-3.88857142857	18.7070588235	0.0
51	0.0255	-0.794036061026	-2.44285714286	-10.8905882353	-2.86956521739
52	0.026	0.611650485437	-3.88857142857	0.384705882353	0.0
53	0.0265	2.0173370319	16.3514285714	1.79411764706	-1.4347826087
54	0.027	0.611650485437	-0.997142857143	3.20352941176	0.0
55	0.0275	0.611650485437	-2.44285714286	-1.02470588235	1.4347826087
56	0.028	-9.22815533981	-3.88857142857	0.384705882353	1.4347826087
57	0.0285	-7.82246879334	-2.44285714286	0.384705882353	-10.0434782609
58	0.029	3.42302357836	-3.88857142857	-6.66235294118	-1.4347826087
59	0.0295	2.0173370319	-0.997142857143	14.4788235294	-4.30434782609
60	0.03	7.64008321775	-2.44285714286	-9.48117647059	0.0
61	0.0305	0.611650485437	3.34	3.20352941176	0.0
62	0.031	0.611650485437	-14.0085714286	3.20352941176	-2.86956521739
63	0.0315	-0.794036061026	13.46	0.384705882353	-1.4347826087
64	0.032	7.64008321775	-6.78	-1.02470588235	-1.4347826087
65	0.0325	-9.22815533981	-0.997142857143	-1.02470588235	0.0
66	0.033	0.611650485437	-0.997142857143	0.384705882353	-12.9130434783
67	0.0335	3.42302357836	-5.33428571429	-12.3	-2.86956521739
68	0.034	0.611650485437	-0.997142857143	14.4788235294	-1.4347826087
69	0.0345	2.0173370319	-5.33428571429	-5.25294117647	-1.4347826087
70	0.035	2.0173370319	-0.997142857143	-3.84352941176	-1.4347826087
71	0.0355	3.42302357836	3.34	3.20352941176	-1.4347826087
72	0.036	-2.19972260749	6.23142857143	-1.02470588235	-1.4347826087
73	0.0365	2.0173370319	-5.33428571429	-1.02470588235	-2.86956521739
74	0.037	16.0742024965	-3.88857142857	0.384705882353	-1.4347826087
75	0.0375	-6.41678224688	-0.997142857143	-1.02470588235	-11.4782608696
76	0.038	2.0173370319	-2.44285714286	-1.02470588235	14.347826087
77	0.0385	2.0173370319	0.448571428571	3.20352941176	-7.17391304348
78	0.039	3.42302357836	0.448571428571	-8.07176470588	-2.86956521739
79	0.0395	3.42302357836	-2.44285714286	11.66	-2.86956521739
80	0.04	0.611650485437	0.448571428571	1.79411764706	0.0
81	0.0405	2.0173370319	-2.44285714286	0.384705882353	-2.86956521739
82	0.041	9.04576976422	-3.88857142857	-1.02470588235	-1.4347826087
83	0.0415	-5.01109570042	-3.88857142857	-1.02470588235	-1.4347826087
84	0.042	2.0173370319	-2.44285714286	-2.43411764706	0.0
85	0.0425	10.4514563107	-2.44285714286	1.79411764706	1.4347826087
86	0.043	9.04576976422	-0.997142857143	-6.66235294118	-1.4347826087
87	0.0435	9.04576976422	-0.997142857143	4.61294117647	-1.4347826087
88	0.044	4.82871012483	-11.1171428571	3.20352941176	-1.4347826087
89	0.0445	11.8571428571	9.12285714286	-1.02470588235	-1.4347826087
90	0.045	3.42302357836	-8.22571428571	-2.43411764706	-1.4347826087
91	0.0455	13.2628294036	-2.44285714286	0.384705882353	0.0
92	0.046	-0.794036061026	-2.44285714286	-1.02470588235	-2.86956521739
93	0.0465	9.04576976422	-0.997142857143	-1.02470588235	2.86956521739
94	0.047	7.64008321775	-2.44285714286	3.20352941176	-11.4782608696
95	0.0475	3.42302357836	0.448571428571	-2.43411764706	8.60869565217
96	0.048	9.04576976422	-2.44285714286	-2.43411764706	-4.30434782609
97	0.0485	9.04576976422	-14.0085714286	1.79411764706	-2.86956521739
98	0.049	3.42302357836	14.9057142857	0.384705882353	-1.4347826087
99	0.0495	7.64008321775	0.448571428571	-1.02470588235	0.0
100	0.05	-10.6338418863	-0.997142857143	-1.02470588235	-5.73913043478
101	0.0505	20.2912621359	-0.997142857143	-1.02470588235	-14.347826087
102	0.051	3.42302357836	-2.44285714286	-1.02470588235	15.7826086957
103	0.0515	3.42302357836	-3.88857142857	1.79411764706	-8.60869565217
104	0.052	3.42302357836	0.448571428571	-6.66235294118	-1.4347826087
105	0.0525	3.42302357836	3.34	-1.02470588235	-2.86956521739
106	0.053	0.611650485437	-14.0085714286	-1.02470588235	-2.86956521739
107	0.0535	4.82871012483	14.9057142857	0.384705882353	-1.4347826087
108	0.054	-3.60540915395	-5.33428571429	0.384705882353	-1.4347826087
109	0.0545	16.0742024965	-0.997142857143	-1.02470588235	0.0
110	0.055	-7.82246879334	-0.997142857143	0.384705882353	-1.4347826087
111	0.0555	-6.41678224688	0.448571428571	-1.02470588235	0.0
112	0.056	2.0173370319	-0.997142857143	1.79411764706	8.60869565217
113	0.0565	7.64008321775	-3.88857142857	11.66	-1.4347826087
114	0.057	3.42302357836	-2.44285714286	-8.07176470588	0.0
115	0.0575	4.82871012483	0.448571428571	1.79411764706	-1.4347826087
116	0.058	2.0173370319	-2.44285714286	-5.25294117647	0.0
117	0.0585	-2.19972260749	-8.22571428571	-1.02470588235	-1.4347826087
118	0.059	7.64008321775	-2.44285714286	0.384705882353	-2.86956521739
119	0.0595	-5.01109570042	0.448571428571	1.79411764706	-10.0434782609
120	0.06	0.611650485437	-3.88857142857	-2.43411764706	8.60869565217
121	0.0605	3.42302357836	0.448571428571	4.61294117647	-1.4347826087
122	0.061	0.611650485437	0.448571428571	-10.8905882353	-1.4347826087
123	0.0615	-2.19972260749	-0.997142857143	0.384705882353	7.17391304348
124	0.062	-2.19972260749	-2.44285714286	4.61294117647	0.0
125	0.0625	-5.01109570042	-14.0085714286	1.79411764706	0.0
126	0.063	-2.19972260749	-2.44285714286	0.384705882353	1.4347826087
127	0.0635	-13.4452149792	-2.44285714286	1.79411764706	-1.4347826087
128	0.064	3.42302357836	-2.44285714286	1.79411764706	-4.30434782609
129	0.0645	4.82871012483	-3.88857142857	1.79411764706	-2.86956521739
130	0.065	3.42302357836	-2.44285714286	3.20352941176	-11.4782608696
131	0.0655	0.611650485437	-5.33428571429	-1.02470588235	12.9130434783
132	0.066	0.611650485437	-2.44285714286	15.8882352941	-5.73913043478
133	0.0665	0.611650485437	-6.78	0.384705882353	-4.30434782609
134	0.067	-0.794036061026	14.9057142857	0.384705882353	-1.4347826087
135	0.0675	0.611650485437	-11.1171428571	-1.02470588235	-2.86956521739
136	0.068	-10.6338418863	-0.997142857143	-1.02470588235	1.4347826087
137	0.0685	23.1026352288	-0.997142857143	-1.02470588235	-1.4347826087
138	0.069	-2.19972260749	-0.997142857143	0.384705882353	-14.347826087
139	0.0695	9.04576976422	-0.997142857143	-2.43411764706	12.9130434783
140	0.07	13.2628294036	-3.88857142857	-1.02470588235	-7.17391304348
141	0.0705	10.4514563107	-3.88857142857	-12.3	-1.4347826087
142	0.071	7.64008321775	-5.33428571429	20.1164705882	-1.4347826087
143	0.0715	10.4514563107	14.9057142857	-2.43411764706	-2.86956521739
144	0.072	4.82871012483	-3.88857142857	-1.02470588235	-1.4347826087
145	0.0725	14.6685159501	-5.33428571429	-1.02470588235	0.0
146	0.073	9.04576976422	-3.88857142857	1.79411764706	-7.17391304348
147	0.0735	3.42302357836	-2.44285714286	0.384705882353	4.30434782609
148	0.074	7.64008321775	0.448571428571	3.20352941176	4.30434782609
149	0.0745	10.4514563107	-3.88857142857	3.20352941176	-1.4347826087
150	0.075	9.04576976422	-5.33428571429	-8.07176470588	-1.4347826087
151	0.0755	10.4514563107	-2.44285714286	20.1164705882	-2.86956521739
152	0.076	11.8571428571	-14.0085714286	0.384705882353	-2.86956521739
153	0.0765	7.64008321775	-3.88857142857	1.79411764706	-1.4347826087
154	0.077	13.2628294036	-6.78	0.384705882353	2.86956521739
155	0.0775	-5.01109570042	0.448571428571	0.384705882353	4.30434782609
156	0.078	2.0173370319	-2.44285714286	0.384705882353	-7.17391304348
157	0.0785	9.04576976422	0.448571428571	-8.07176470588	-7.17391304348
158	0.079	11.8571428571	-3.88857142857	-1.02470588235	12.9130434783
159	0.0795	9.04576976422	-3.88857142857	-1.02470588235	-8.60869565217
160	0.08	4.82871012483	1.89428571429	-9.48117647059	-2.86956521739
161	0.0805	3.42302357836	-12.5628571429	0.384705882353	-2.86956521739
162	0.081	7.64008321775	-12.5628571429	-1.02470588235	-2.86956521739
163	0.0815	2.0173370319	-3.88857142857	3.20352941176	0.0
164	0.082	24.5083217753	-0.997142857143	4.61294117647	-1.4347826087
165	0.0825	0.611650485437	0.448571428571	0.384705882353	-10.0434782609
166	0.083	0.611650485437	-2.44285714286	3.20352941176	1.4347826087
167	0.0835	4.82871012483	0.448571428571	4.61294117647	2.86956521739
168	0.084	2.0173370319	0.448571428571	-6.66235294118	-4.30434782609
169	0.0845	9.04576976422	-2.44285714286	3.20352941176	-4.30434782609
170	0.085	4.82871012483	0.448571428571	7.43176470588	-4.30434782609
171	0.0855	9.04576976422	6.23142857143	-2.43411764706	-1.4347826087
172	0.086	9.04576976422	-11.1171428571	-1.02470588235	-4.30434782609
173	0.0865	7.64008321775	-2.44285714286	1.79411764706	-1.4347826087
174	0.087	-0.794036061026	-2.44285714286	1.79411764706	-10.0434782609
175	0.0875	4.82871012483	-3.88857142857	-1.02470588235	1.4347826087
176	0.088	4.82871012483	-2.44285714286	3.20352941176	-7.17391304348
177	0.0885	4.82871012483	-3.88857142857	-13.7094117647	-2.86956521739
178	0.089	2.0173370319	-2.44285714286	14.4788235294	-1.4347826087
179	0.0895	7.64008321775	0.448571428571	-1.02470588235	-1.4347826087
180	0.09	3.42302357836	-9.67142857143	-3.84352941176	-1.4347826087
181	0.0905	13.2628294036	-5.33428571429	0.384705882353	1.4347826087
182	0.091	2.0173370319	-3.88857142857	-1.02470588235	0.0
183	0.0915	0.611650485437	-2.44285714286	-1.02470588235	-5.73913043478
184	0.092	23.1026352288	-3.88857142857	0.384705882353	0.0
185	0.0925	3.42302357836	-5.33428571429	1.79411764706	-8.60869565217
186	0.093	7.64008321775	-2.44285714286	-8.07176470588	-1.4347826087
187	0.0935	7.64008321775	0.448571428571	14.4788235294	0.0
188	0.094	9.04576976422	0.448571428571	-1.02470588235	0.0
189	0.0945	9.04576976422	1.89428571429	-1.02470588235	1.4347826087
190	0.095	3.42302357836	14.9057142857	-1.02470588235	0.0
191	0.0955	-0.794036061026	-9.67142857143	-1.02470588235	-2.86956521739
192	0.096	0.611650485437	-3.88857142857	1.79411764706	-2.86956521739
193	0.0965	-10.6338418863	-3.88857142857	1.79411764706	-10.0434782609
194	0.097	-3.60540915395	-0.997142857143	-1.02470588235	1.4347826087
195	0.0975	-0.794036061026	-0.997142857143	0.384705882353	7.17391304348
196	0.098	-0.794036061026	-2.44285714286	-2.43411764706	-10.0434782609
197	0.0985	2.0173370319	-2.44285714286	-12.3	-2.86956521739
198	0.099	3.42302357836	-0.997142857143	14.4788235294	-2.86956521739
199	0.0995	0.611650485437	16.3514285714	-1.02470588235	0.0
200	0.1	-2.19972260749	-2.44285714286	-1.02470588235	-1.4347826087
201	0.1005	2.0173370319	-0.997142857143	3.20352941176	4.30434782609
202	0.101	-14.8509015257	-2.44285714286	0.384705882353	-1.4347826087
203	0.1015	-5.01109570042	-0.997142857143	-1.02470588235	2.86956521739
204	0.102	0.611650485437	-0.997142857143	-1.02470588235	-4.30434782609
205	0.1025	0.611650485437	-2.44285714286	-8.07176470588	-7.17391304348
206	0.103	0.611650485437	-3.88857142857	-3.84352941176	0.0
207	0.1035	2.0173370319	-8.22571428571	-1.02470588235	0.0
208	0.104	3.42302357836	0.448571428571	3.20352941176	-1.4347826087
209	0.1045	3.42302357836	9.12285714286	0.384705882353	-1.4347826087
210	0.105	0.611650485437	-0.997142857143	1.79411764706	-4.30434782609
211	0.1055	18.8855755895	-2.44285714286	0.384705882353	4.30434782609
212	0.106	-7.82246879334	-3.88857142857	1.79411764706	20.0869565217
213	0.1065	-3.60540915395	-0.997142857143	4.61294117647	-8.60869565217
214	0.107	-2.19972260749	-2.44285714286	-8.07176470588	-7.17391304348
215	0.1075	-0.794036061026	-6.78	-1.02470588235	0.0
216	0.108	2.0173370319	-6.78	0.384705882353	-1.4347826087
217	0.1085	0.611650485437	-0.997142857143	-3.84352941176	-1.4347826087
218	0.109	0.611650485437	-9.67142857143	1.79411764706	-1.4347826087
219	0.1095	4.82871012483	-2.44285714286	0.384705882353	0.0
220	0.11	-7.82246879334	-2.44285714286	-1.02470588235	-1.4347826087
221	0.1105	4.82871012483	-2.44285714286	0.384705882353	1.4347826087
222	0.111	7.64008321775	-2.44285714286	3.20352941176	-7.17391304348
223	0.1115	9.04576976422	-0.997142857143	-12.3	0.0
224	0.112	10.4514563107	1.89428571429	14.4788235294	-2.86956521739
225	0.1125	9.04576976422	-11.1171428571	1.79411764706	-1.4347826087
226	0.113	9.04576976422	14.9057142857	1.79411764706	-1.4347826087
227	0.1135	9.04576976422	-12.5628571429	-1.02470588235	-2.86956521739
228	0.114	4.82871012483	-6.78	0.384705882353	0.0
229	0.1145	24.5083217753	-5.33428571429	1.79411764706	-10.0434782609
230	0.115	0.611650485437	-2.44285714286	1.79411764706	7.17391304348
231	0.1155	2.0173370319	-2.44285714286	3.20352941176	-2.86956521739
232	0.116	4.82871012483	-2.44285714286	-9.48117647059	-7.17391304348
233	0.1165	9.04576976422	-0.997142857143	6.02235294118	-1.4347826087
234	0.117	4.82871012483	0.448571428571	3.20352941176	-1.4347826087
235	0.1175	7.64008321775	-8.22571428571	-5.25294117647	-2.86956521739
236	0.118	10.4514563107	-5.33428571429	1.79411764706	-1.4347826087
237	0.1185	7.64008321775	-2.44285714286	1.79411764706	-1.4347826087
238	0.119	0.611650485437	-2.44285714286	3.20352941176	-2.86956521739
239	0.1195	23.1026352288	-0.997142857143	1.79411764706	0.0
240	0.12	-6.41678224688	-0.997142857143	4.61294117647	-12.9130434783
241	0.1205	-2.19972260749	-0.997142857143	-8.07176470588	-1.4347826087
242	0.121	-3.60540915395	-2.44285714286	14.4788235294	1.4347826087
243	0.1215	-5.01109570042	-0.997142857143	6.02235294118	1.4347826087
244	0.122	-6.41678224688	-6.78	-3.84352941176	-1.4347826087
245	0.1225	0.611650485437	1.89428571429	3.20352941176	-2.86956521739
246	0.123	2.0173370319	10.5685714286	3.20352941176	-1.4347826087
247	0.1235	0.611650485437	-0.997142857143	0.384705882353	-1.4347826087
248	0.124	21.6969486824	-0.997142857143	0.384705882353	4.30434782609
249	0.1245	-3.60540915395	0.448571428571	3.20352941176	-10.0434782609
250	0.125	4.82871012483	-2.44285714286	3.20352941176	1.4347826087
251	0.1255	9.04576976422	-0.997142857143	18.7070588235	1.4347826087
252	0.126	7.64008321775	0.448571428571	-9.48117647059	-2.86956521739
253	0.1265	10.4514563107	1.89428571429	-1.02470588235	1.4347826087
254	0.127	13.2628294036	13.46	-1.02470588235	-1.4347826087
255	0.1275	9.04576976422	-0.997142857143	4.61294117647	0.0
256	0.128	11.8571428571	0.448571428571	1.79411764706	2.86956521739
257	0.1285	3.42302357836	-0.997142857143	3.20352941176	0.0
258	0.129	4.82871012483	-0.997142857143	0.384705882353	-1.4347826087
259	0.1295	9.04576976422	0.448571428571	3.20352941176	-1.4347826087
260	0.13	4.82871012483	-2.44285714286	1.79411764706	-8.60869565217
261	0.1305	4.82871012483	0.448571428571	-6.66235294118	0.0
262	0.131	2.0173370319	0.448571428571	1.79411764706	-1.4347826087
263	0.1315	-0.794036061026	-9.67142857143	-1.02470588235	-1.4347826087
264	0.132	2.0173370319	17.7971428571	-1.02470588235	0.0
265	0.1325	9.04576976422	-0.997142857143	-1.02470588235	2.86956521739
266	0.133	-6.41678224688	-0.997142857143	3.20352941176	-1.4347826087
267	0.1335	21.6969486824	-0.997142857143	-1.02470588235	2.86956521739
268	0.134	4.82871012483	-0.997142857143	3.20352941176	7.17391304348
269	0.1345	9.04576976422	-2.44285714286	-6.66235294118	-1.4347826087
270	0.135	10.4514563107	0.448571428571	1.79411764706	-2.86956521739
271	0.1355	9.04576976422	-2.44285714286	-1.02470588235	0.0
272	0.136	7.64008321775	0.448571428571	4.61294117647	0.0
273	0.1365	10.4514563107	-8.22571428571	1.79411764706	0.0
274	0.137	11.8571428571	-6.78	-1.02470588235	2.86956521739
275	0.1375	-6.41678224688	-0.997142857143	1.79411764706	-1.4347826087
276	0.138	24.5083217753	-2.44285714286	0.384705882353	-8.60869565217
277	0.1385	9.04576976422	-0.997142857143	-1.02470588235	10.0434782609
278	0.139	10.4514563107	-0.997142857143	1.79411764706	-2.86956521739
279	0.1395	9.04576976422	0.448571428571	-8.07176470588	-1.4347826087
280	0.14	9.04576976422	-0.997142857143	15.8882352941	0.0
281	0.1405	10.4514563107	3.34	-3.84352941176	0.0
282	0.141	11.8571428571	-11.1171428571	-2.43411764706	-1.4347826087
283	0.1415	18.8855755895	-3.88857142857	0.384705882353	0.0
284	0.142	0.611650485437	-0.997142857143	3.20352941176	1.4347826087
285	0.1425	23.1026352288	0.448571428571	1.79411764706	-1.4347826087
286	0.143	9.04576976422	0.448571428571	0.384705882353	2.86956521739
287	0.1435	10.4514563107	-2.44285714286	-5.25294117647	-2.86956521739
288	0.144	10.4514563107	-2.44285714286	11.66	0.0
289	0.1445	10.4514563107	-0.997142857143	11.66	-1.4347826087
290	0.145	10.4514563107	-2.44285714286	-6.66235294118	-1.4347826087
291	0.1455	10.4514563107	14.9057142857	-1.02470588235	-1.4347826087
292	0.146	10.4514563107	-11.1171428571	-1.02470588235	1.4347826087
293	0.1465	-0.794036061026	0.448571428571	0.384705882353	-1.4347826087
294	0.147	25.9140083218	0.448571428571	0.384705882353	1.4347826087
295	0.1475	-0.794036061026	-2.44285714286	4.61294117647	-8.60869565217
296	0.148	2.0173370319	-2.44285714286	-1.02470588235	8.60869565217
297	0.1485	2.0173370319	-0.997142857143	4.61294117647	-4.30434782609
298	0.149	3.42302357836	0.448571428571	-8.07176470588	-4.30434782609
299	0.1495	2.0173370319	-12.5628571429	0.384705882353	-1.4347826087
300	0.15	0.611650485437	-5.33428571429	1.79411764706	1.4347826087
301	0.1505	4.82871012483	-5.33428571429	1.79411764706	-1.4347826087
302	0.151	-7.82246879334	-0.997142857143	3.20352941176	-2.86956521739
303	0.1515	-2.19972260749	0.448571428571	0.384705882353	7.17391304348
304	0.152	0.611650485437	-2.44285714286	-1.02470588235	-4.30434782609
305	0.1525	0.611650485437	0.448571428571	-2.43411764706	-5.73913043478
306	0.153	0.611650485437	-0.997142857143	1.79411764706	-1.4347826087
307	0.1535	-3.60540915395	-0.997142857143	0.384705882353	0.0
308	0.154	-3.60540915395	-3.88857142857	0.384705882353	-2.86956521739
309	0.1545	-5.01109570042	7.67714285714	0.384705882353	-2.86956521739
310	0.155	-10.6338418863	0.448571428571	1.79411764706	-1.4347826087
311	0.1555	-2.19972260749	1.89428571429	-2.43411764706	1.4347826087
312	0.156	11.8571428571	-0.997142857143	-3.84352941176	4.30434782609
313	0.1565	3.42302357836	-0.997142857143	-1.02470588235	-8.60869565217
314	0.157	2.0173370319	0.448571428571	-9.48117647059	2.86956521739
315	0.1575	7.64008321775	-0.997142857143	15.8882352941	0.0
316	0.158	10.4514563107	-5.33428571429	0.384705882353	1.4347826087
317	0.1585	10.4514563107	0.448571428571	-9.48117647059	1.4347826087
318	0.159	9.04576976422	-6.78	-1.02470588235	-1.4347826087
319	0.1595	13.2628294036	-3.88857142857	0.384705882353	0.0
320	0.16	0.611650485437	-2.44285714286	3.20352941176	0.0
321	0.1605	-2.19972260749	0.448571428571	1.79411764706	4.30434782609
322	0.161	3.42302357836	0.448571428571	0.384705882353	-1.4347826087
323	0.1615	7.64008321775	0.448571428571	14.4788235294	0.0
324	0.162	4.82871012483	-0.997142857143	-1.02470588235	-2.86956521739
325	0.1625	3.42302357836	0.448571428571	-6.66235294118	-1.4347826087
326	0.163	7.64008321775	-5.33428571429	-1.02470588235	-1.4347826087
327	0.1635	3.42302357836	-5.33428571429	1.79411764706	-1.4347826087
328	0.164	-2.19972260749	0.448571428571	1.79411764706	0.0
329	0.1645	0.611650485437	0.448571428571	-2.43411764706	-1.4347826087
330	0.165	-7.82246879334	-0.997142857143	3.20352941176	-10.0434782609
331	0.1655	-3.60540915395	0.448571428571	-5.25294117647	-2.86956521739
332	0.166	-5.01109570042	1.89428571429	18.7070588235	1.4347826087
333	0.1665	-9.22815533981	-2.44285714286	-5.25294117647	0.0
334	0.167	-9.22815533981	-0.997142857143	18.7070588235	-2.86956521739
335	0.1675	-2.19972260749	-11.1171428571	1.79411764706	-1.4347826087
336	0.168	-6.41678224688	-0.997142857143	-1.02470588235	0.0
337	0.1685	-2.19972260749	-0.997142857143	-1.02470588235	-1.4347826087
338	0.169	-9.22815533981	-2.44285714286	0.384705882353	2.86956521739
339	0.1695	-5.01109570042	-0.997142857143	-1.02470588235	-1.4347826087
340	0.17	2.0173370319	0.448571428571	0.384705882353	-10.0434782609
341	0.1705	0.611650485437	-2.44285714286	-1.02470588235	2.86956521739
342	0.171	0.611650485437	0.448571428571	-5.25294117647	-8.60869565217
343	0.1715	2.0173370319	0.448571428571	0.384705882353	1.4347826087
344	0.172	2.0173370319	-11.1171428571	1.79411764706	0.0
345	0.1725	0.611650485437	-2.44285714286	0.384705882353	0.0
346	0.173	-7.82246879334	0.448571428571	-1.02470588235	-1.4347826087
347	0.1735	21.6969486824	-2.44285714286	0.384705882353	4.30434782609
348	0.174	-0.794036061026	-0.997142857143	3.20352941176	-2.86956521739
349	0.1745	-2.19972260749	-2.44285714286	-10.8905882353	-2.86956521739
350	0.175	-3.60540915395	0.448571428571	15.8882352941	-1.4347826087
351	0.1755	-3.60540915395	-0.997142857143	-3.84352941176	-1.4347826087
352	0.176	-0.794036061026	0.448571428571	-1.02470588235	0.0
353	0.1765	-0.794036061026	7.67714285714	0.384705882353	-2.86956521739
354	0.177	0.611650485437	-8.22571428571	0.384705882353	-1.4347826087
355	0.1775	-2.19972260749	0.448571428571	1.79411764706	-1.4347826087
356	0.178	-5.01109570042	0.448571428571	1.79411764706	-8.60869565217
357	0.1785	3.42302357836	1.89428571429	-1.02470588235	18.652173913
358	0.179	4.82871012483	-2.44285714286	0.384705882353	-1.4347826087
359	0.1795	2.0173370319	1.89428571429	-8.07176470588	-8.60869565217
360	0.18	4.82871012483	-0.997142857143	0.384705882353	0.0
361	0.1805	0.611650485437	-9.67142857143	-1.02470588235	0.0
362	0.181	3.42302357836	16.3514285714	-2.43411764706	0.0
363	0.1815	2.0173370319	-8.22571428571	-1.02470588235	0.0
364	0.182	24.5083217753	0.448571428571	-1.02470588235	0.0
365	0.1825	-6.41678224688	0.448571428571	-2.43411764706	-2.86956521739
366	0.183	3.42302357836	0.448571428571	0.384705882353	2.86956521739
367	0.1835	3.42302357836	-0.997142857143	1.79411764706	-7.17391304348
368	0.184	9.04576976422	0.448571428571	-10.8905882353	-2.86956521739
369	0.1845	10.4514563107	-2.44285714286	-1.02470588235	-1.4347826087
370	0.185	9.04576976422	-11.1171428571	-2.43411764706	0.0
371	0.1855	10.4514563107	16.3514285714	-2.43411764706	0.0
372	0.186	13.2628294036	-0.997142857143	0.384705882353	-1.4347826087
373	0.1865	-2.19972260749	-2.44285714286	-1.02470588235	-1.4347826087
374	0.187	28.7253814147	-0.997142857143	0.384705882353	1.4347826087
375	0.1875	4.82871012483	-3.88857142857	4.61294117647	-7.17391304348
376	0.188	0.611650485437	-3.88857142857	-2.43411764706	21.5217391304
377	0.1885	2.0173370319	-2.44285714286	17.2976470588	0.0
378	0.189	0.611650485437	0.448571428571	-10.8905882353	-1.4347826087
379	0.1895	0.611650485437	-9.67142857143	-1.02470588235	0.0
380	0.19	3.42302357836	-11.1171428571	-2.43411764706	0.0
381	0.1905	0.611650485437	-0.997142857143	-1.02470588235	-1.4347826087
382	0.191	7.64008321775	-0.997142857143	0.384705882353	-1.4347826087
383	0.1915	-5.01109570042	-0.997142857143	-1.02470588235	-2.86956521739
384	0.192	0.611650485437	-2.44285714286	0.384705882353	0.0
385	0.1925	0.611650485437	-0.997142857143	0.384705882353	-7.17391304348
386	0.193	0.611650485437	-0.997142857143	-2.43411764706	0.0
387	0.1935	0.611650485437	-0.997142857143	6.02235294118	4.30434782609
388	0.194	-0.794036061026	-8.22571428571	0.384705882353	1.4347826087
389	0.1945	2.0173370319	10.5685714286	0.384705882353	1.4347826087
390	0.195	0.611650485437	-9.67142857143	0.384705882353	-1.4347826087
391	0.1955	9.04576976422	-0.997142857143	3.20352941176	4.30434782609
392	0.196	-9.22815533981	-0.997142857143	1.79411764706	1.4347826087
393	0.1965	6.23439667129	-0.997142857143	0.384705882353	4.30434782609
394	0.197	3.42302357836	-0.997142857143	-1.02470588235	-7.17391304348
395	0.1975	2.0173370319	0.448571428571	-10.8905882353	-1.4347826087
396	0.198	-0.794036061026	-0.997142857143	-1.02470588235	-1.4347826087
397	0.1985	0.611650485437	-12.5628571429	1.79411764706	-1.4347826087
398	0.199	-3.60540915395	-11.1171428571	-3.84352941176	0.0
399	0.1995	-3.60540915395	9.12285714286	0.384705882353	-1.4347826087
400	0.2	-12.0395284327	-2.44285714286	-1.02470588235	0.0
401	0.2005	14.6685159501	0.448571428571	-1.02470588235	1.4347826087
402	0.201	9.04576976422	-0.997142857143	-1.02470588235	-1.4347826087
403	0.2015	3.42302357836	-0.997142857143	-2.43411764706	-5.73913043478
404	0.202	4.82871012483	-0.997142857143	-8.07176470588	0.0
405	0.2025	4.82871012483	-0.997142857143	3.20352941176	-8.60869565217
406	0.203	3.42302357836	-0.997142857143	-9.48117647059	-1.4347826087
407	0.2035	0.611650485437	-11.1171428571	-1.02470588235	1.4347826087
408	0.204	2.0173370319	16.3514285714	1.79411764706	-1.4347826087
409	0.2045	-5.01109570042	-6.78	0.384705882353	-1.4347826087
410	0.205	16.0742024965	-0.997142857143	0.384705882353	-1.4347826087
411	0.2055	-2.19972260749	0.448571428571	0.384705882353	-1.4347826087
412	0.206	-5.01109570042	-0.997142857143	0.384705882353	-1.4347826087
413	0.2065	0.611650485437	-2.44285714286	-1.02470588235	0.0
414	0.207	-0.794036061026	-2.44285714286	18.7070588235	-1.4347826087
415	0.2075	-5.01109570042	-0.997142857143	-5.25294117647	2.86956521739
416	0.208	-5.01109570042	-0.997142857143	3.20352941176	0.0
417	0.2085	-3.60540915395	20.6885714286	-1.02470588235	-1.4347826087
418	0.209	-7.82246879334	-11.1171428571	0.384705882353	0.0
419	0.2095	2.0173370319	-0.997142857143	0.384705882353	1.4347826087
420	0.21	-13.4452149792	-2.44285714286	1.79411764706	0.0
421	0.2105	-0.794036061026	-2.44285714286	1.79411764706	4.30434782609
422	0.211	2.0173370319	0.448571428571	3.20352941176	-8.60869565217
423	0.2115	3.42302357836	0.448571428571	-2.43411764706	14.347826087
424	0.212	4.82871012483	-3.88857142857	-1.02470588235	0.0
425	0.2125	7.64008321775	0.448571428571	-5.25294117647	-1.4347826087
426	0.213	3.42302357836	-11.1171428571	-2.43411764706	-1.4347826087
427	0.2135	9.04576976422	-2.44285714286	0.384705882353	2.86956521739
428	0.214	-9.22815533981	-2.44285714286	1.79411764706	-1.4347826087
429	0.2145	17.479889043	-0.997142857143	3.20352941176	-11.4782608696
430	0.215	0.611650485437	-0.997142857143	-1.02470588235	7.17391304348
431	0.2155	0.611650485437	-0.997142857143	4.61294117647	-7.17391304348
432	0.216	0.611650485437	-0.997142857143	-3.84352941176	0.0
433	0.2165	2.0173370319	-2.44285714286	15.8882352941	-1.4347826087
434	0.217	0.611650485437	0.448571428571	-3.84352941176	0.0
435	0.2175	3.42302357836	-14.0085714286	1.79411764706	-2.86956521739
436	0.218	4.82871012483	-2.44285714286	1.79411764706	0.0
437	0.2185	-10.6338418863	-0.997142857143	0.384705882353	-1.4347826087
438	0.219	17.479889043	-0.997142857143	1.79411764706	0.0
439	0.2195	-2.19972260749	0.448571428571	6.02235294118	-7.17391304348
440	0.22	-5.01109570042	-2.44285714286	1.79411764706	8.60869565217
441	0.2205	-5.01109570042	-2.44285714286	4.61294117647	1.4347826087
442	0.221	-9.22815533981	-0.997142857143	-5.25294117647	-4.30434782609
443	0.2215	-10.6338418863	-11.1171428571	-1.02470588235	-2.86956521739
444	0.222	-9.22815533981	0.448571428571	0.384705882353	0.0
445	0.2225	-9.22815533981	-3.88857142857	3.20352941176	-1.4347826087
446	0.223	-16.2565880721	0.448571428571	1.79411764706	0.0
447	0.2235	-2.19972260749	-0.997142857143	0.384705882353	-1.4347826087
448	0.224	-0.794036061026	-2.44285714286	0.384705882353	7.17391304348
449	0.2245	-0.794036061026	-0.997142857143	-3.84352941176	-7.17391304348
450	0.225	0.611650485437	0.448571428571	0.384705882353	-1.4347826087
451	0.2255	2.0173370319	-0.997142857143	13.0694117647	-1.4347826087
452	0.226	0.611650485437	-0.997142857143	-6.66235294118	0.0
453	0.2265	0.611650485437	-9.67142857143	0.384705882353	0.0
454	0.227	3.42302357836	17.7971428571	0.384705882353	0.0
455	0.2275	-10.6338418863	-2.44285714286	-1.02470588235	-1.4347826087
456	0.228	21.6969486824	1.89428571429	-1.02470588235	1.4347826087
457	0.2285	-2.19972260749	-0.997142857143	3.20352941176	-11.4782608696
458	0.229	3.42302357836	0.448571428571	-2.43411764706	1.4347826087
459	0.2295	4.82871012483	0.448571428571	8.84117647059	-1.4347826087
460	0.23	7.64008321775	-2.44285714286	-3.84352941176	1.4347826087
461	0.2305	7.64008321775	-2.44285714286	-1.02470588235	0.0
462	0.231	10.4514563107	-5.33428571429	-1.02470588235	1.4347826087
463	0.2315	7.64008321775	14.9057142857	0.384705882353	-1.4347826087
464	0.232	7.64008321775	-0.997142857143	-1.02470588235	-1.4347826087
465	0.2325	-2.19972260749	-0.997142857143	-1.02470588235	0.0
466	0.233	24.5083217753	-0.997142857143	-1.02470588235	2.86956521739
467	0.2335	4.82871012483	-0.997142857143	1.79411764706	-8.60869565217
468	0.234	7.64008321775	-0.997142857143	-3.84352941176	8.60869565217
469	0.2345	2.0173370319	-0.997142857143	1.79411764706	-1.4347826087
470	0.235	2.0173370319	1.89428571429	-3.84352941176	-4.30434782609
471	0.2355	0.611650485437	-14.0085714286	-1.02470588235	-1.4347826087
472	0.236	4.82871012483	-11.1171428571	-1.02470588235	-1.4347826087
473	0.2365	2.0173370319	-0.997142857143	0.384705882353	0.0
474	0.237	-12.0395284327	-2.44285714286	0.384705882353	-1.4347826087
475	0.2375	-12.0395284327	-0.997142857143	3.20352941176	0.0
476	0.238	0.611650485437	1.89428571429	3.20352941176	1.4347826087
477	0.2385	-2.19972260749	-0.997142857143	4.61294117647	-5.73913043478
478	0.239	-0.794036061026	-2.44285714286	-10.8905882353	-4.30434782609
479	0.2395	2.0173370319	-2.44285714286	14.4788235294	-4.30434782609
480	0.24	0.611650485437	3.34	3.20352941176	1.4347826087
481	0.2405	-0.794036061026	16.3514285714	1.79411764706	-1.4347826087
482	0.241	0.611650485437	-11.1171428571	0.384705882353	1.4347826087
483	0.2415	-14.8509015257	0.448571428571	-1.02470588235	-2.86956521739
484	0.242	17.479889043	-0.997142857143	-1.02470588235	4.30434782609
485	0.2425	-10.6338418863	-2.44285714286	3.20352941176	-12.9130434783
486	0.243	-3.60540915395	-2.44285714286	1.79411764706	11.4782608696
487	0.2435	-3.60540915395	-0.997142857143	1.79411764706	-5.73913043478
488	0.244	-0.794036061026	0.448571428571	-9.48117647059	-1.4347826087
489	0.2445	-3.60540915395	-11.1171428571	1.79411764706	0.0
490	0.245	0.611650485437	-3.88857142857	3.20352941176	-1.4347826087
491	0.2455	-3.60540915395	-5.33428571429	0.384705882353	-2.86956521739
492	0.246	4.82871012483	-2.44285714286	-2.43411764706	0.0
493	0.2465	2.0173370319	-0.997142857143	0.384705882353	1.4347826087
494	0.247	2.0173370319	-2.44285714286	0.384705882353	1.4347826087
495	0.2475	4.82871012483	-0.997142857143	0.384705882353	-5.73913043478
496	0.248	4.82871012483	-0.997142857143	-1.02470588235	17.2173913043
497	0.2485	4.82871012483	-2.44285714286	0.384705882353	-2.86956521739
498	0.249	3.42302357836	0.448571428571	-6.66235294118	0.0
499	0.2495	3.42302357836	-9.67142857143	0.384705882353	-1.4347826087
500	0.25	4.82871012483	14.9057142857	1.79411764706	-1.4347826087
501	0.2505	-5.01109570042	-2.44285714286	3.20352941176	-2.86956521739
502	0.251	3.42302357836	-0.997142857143	0.384705882353	-2.86956521739
503	0.2515	16.0742024965	-3.88857142857	0.384705882353	-1.4347826087
504	0.252	0.611650485437	-0.997142857143	0.384705882353	-10.0434782609
505	0.2525	2.0173370319	-2.44285714286	-12.3	-2.86956521739
506	0.253	2.0173370319	0.448571428571	18.7070588235	-1.4347826087
507	0.2535	3.42302357836	-2.44285714286	1.79411764706	-1.4347826087
508	0.254	0.611650485437	-5.33428571429	-6.66235294118	-1.4347826087
509	0.2545	7.64008321775	0.448571428571	1.79411764706	-1.4347826087
510	0.255	3.42302357836	9.12285714286	0.384705882353	1.4347826087
511	0.2555	0.611650485437	0.448571428571	0.384705882353	-1.4347826087
512	0.256	21.6969486824	0.448571428571	0.384705882353	1.4347826087
513	0.2565	-5.01109570042	-0.997142857143	-1.02470588235	-1.4347826087
514	0.257	3.42302357836	-3.88857142857	-8.07176470588	-1.4347826087
515	0.2575	4.82871012483	0.448571428571	7.43176470588	-1.4347826087
516	0.258	0.611650485437	0.448571428571	7.43176470588	-1.4347826087
517	0.2585	2.0173370319	-0.997142857143	-9.48117647059	-1.4347826087
518	0.259	4.82871012483	-8.22571428571	-1.02470588235	-1.4347826087
519	0.2595	3.42302357836	17.7971428571	-1.02470588235	-2.86956521739
520	0.26	7.64008321775	-8.22571428571	0.384705882353	-1.4347826087
521	0.2605	24.5083217753	0.448571428571	0.384705882353	1.4347826087
522	0.261	0.611650485437	-2.44285714286	-2.43411764706	-1.4347826087
523	0.2615	0.611650485437	-0.997142857143	0.384705882353	1.4347826087
524	0.262	4.82871012483	-2.44285714286	-1.02470588235	-2.86956521739
525	0.2625	3.42302357836	-0.997142857143	18.7070588235	-5.73913043478
526	0.263	3.42302357836	-3.88857142857	-8.07176470588	-1.4347826087
527	0.2635	4.82871012483	0.448571428571	0.384705882353	-1.4347826087
528	0.264	3.42302357836	-11.1171428571	-3.84352941176	-1.4347826087
529	0.2645	10.4514563107	-5.33428571429	-1.02470588235	-1.4347826087
530	0.265	0.611650485437	0.448571428571	-1.02470588235	0.0
531	0.2655	-3.60540915395	-2.44285714286	-1.02470588235	-2.86956521739
532	0.266	21.6969486824	0.448571428571	-1.02470588235	2.86956521739
533	0.2665	2.0173370319	-2.44285714286	1.79411764706	-8.60869565217
534	0.267	2.0173370319	-5.33428571429	3.20352941176	-1.4347826087
535	0.2675	2.0173370319	-3.88857142857	0.384705882353	5.73913043478
536	0.268	3.42302357836	-0.997142857143	1.79411764706	-2.86956521739
537	0.2685	3.42302357836	-8.22571428571	3.20352941176	-4.30434782609
538	0.269	4.82871012483	16.3514285714	3.20352941176	-4.30434782609
539	0.2695	3.42302357836	-9.67142857143	4.61294117647	-1.4347826087
540	0.27	-7.82246879334	-0.997142857143	0.384705882353	-1.4347826087
541	0.2705	14.6685159501	-2.44285714286	1.79411764706	-1.4347826087
542	0.271	0.611650485437	0.448571428571	0.384705882353	7.17391304348
543	0.2715	3.42302357836	0.448571428571	0.384705882353	-8.60869565217
544	0.272	7.64008321775	-0.997142857143	-12.3	-1.4347826087
545	0.2725	4.82871012483	0.448571428571	13.0694117647	-1.4347826087
546	0.273	9.04576976422	-11.1171428571	-1.02470588235	-1.4347826087
547	0.2735	11.8571428571	1.89428571429	0.384705882353	-1.4347826087
548	0.274	11.8571428571	14.9057142857	-1.02470588235	-1.4347826087
549	0.2745	14.6685159501	-11.1171428571	-2.43411764706	-1.4347826087
550	0.275	32.9424410541	-0.997142857143	-2.43411764706	1.4347826087
551	0.2755	3.42302357836	-0.997142857143	-1.02470588235	-11.4782608696
552	0.276	11.8571428571	-3.88857142857	0.384705882353	7.17391304348
553	0.2765	14.6685159501	-3.88857142857	-1.02470588235	8.60869565217
554	0.277	11.8571428571	0.448571428571	-1.02470588235	-10.0434782609
555	0.2775	11.8571428571	0.448571428571	-10.8905882353	1.4347826087
556	0.278	11.8571428571	-3.88857142857	15.8882352941	-1.4347826087
557	0.2785	13.2628294036	16.3514285714	-1.02470588235	1.4347826087
558	0.279	7.64008321775	-11.1171428571	0.384705882353	-1.4347826087
559	0.2795	11.8571428571	0.448571428571	0.384705882353	0.0
560	0.28	-3.60540915395	-2.44285714286	1.79411764706	-11.4782608696
561	0.2805	3.42302357836	-0.997142857143	0.384705882353	2.86956521739
562	0.281	0.611650485437	-0.997142857143	3.20352941176	-12.9130434783
563	0.2815	-0.794036061026	0.448571428571	-6.66235294118	-1.4347826087
564	0.282	-3.60540915395	-5.33428571429	0.384705882353	-1.4347826087
565	0.2825	-0.794036061026	-11.1171428571	0.384705882353	-1.4347826087
566	0.283	0.611650485437	17.7971428571	3.20352941176	0.0
567	0.2835	10.4514563107	17.7971428571	0.384705882353	-2.86956521739
568	0.284	-0.794036061026	-0.997142857143	1.79411764706	-1.4347826087
569	0.2845	23.1026352288	-0.997142857143	3.20352941176	0.0
570	0.285	-2.19972260749	-0.997142857143	3.20352941176	-12.9130434783
571	0.2855	9.04576976422	-3.88857142857	-2.43411764706	-10.0434782609
572	0.286	13.2628294036	-0.997142857143	18.7070588235	-4.30434782609
573	0.2865	10.4514563107	-0.997142857143	-8.07176470588	-1.4347826087
574	0.287	7.64008321775	0.448571428571	4.61294117647	-10.0434782609
575	0.2875	2.0173370319	7.67714285714	1.79411764706	-1.4347826087
576	0.288	-2.19972260749	1.89428571429	0.384705882353	-1.4347826087
577	0.2885	0.611650485437	-2.44285714286	1.79411764706	-1.4347826087
578	0.289	2.0173370319	-0.997142857143	4.61294117647	-7.17391304348
579	0.2895	-5.01109570042	-0.997142857143	-1.02470588235	-1.4347826087
580	0.29	4.82871012483	-0.997142857143	0.384705882353	14.347826087
581	0.2905	4.82871012483	-2.44285714286	3.20352941176	-8.60869565217
582	0.291	6.23439667129	0.448571428571	-8.07176470588	0.0
583	0.2915	7.64008321775	-2.44285714286	15.8882352941	-1.4347826087
584	0.292	7.64008321775	-11.1171428571	0.384705882353	-1.4347826087
585	0.2925	7.64008321775	0.448571428571	3.20352941176	-1.4347826087
586	0.293	7.64008321775	-5.33428571429	4.61294117647	-1.4347826087
587	0.2935	3.42302357836	-2.44285714286	1.79411764706	-1.4347826087
588	0.294	-5.01109570042	-3.88857142857	1.79411764706	-4.30434782609
589	0.2945	3.42302357836	-0.997142857143	0.384705882353	1.4347826087
590	0.295	4.82871012483	-0.997142857143	4.61294117647	-8.60869565217
591	0.2955	2.0173370319	0.448571428571	1.79411764706	-1.4347826087
592	0.296	4.82871012483	1.89428571429	-1.02470588235	0.0
593	0.2965	-0.794036061026	-6.78	1.79411764706	-1.4347826087
594	0.297	-0.794036061026	-5.33428571429	4.61294117647	-1.4347826087
595	0.2975	-6.41678224688	-0.997142857143	0.384705882353	1.4347826087
596	0.298	-3.60540915395	-0.997142857143	3.20352941176	-1.4347826087
597	0.2985	3.42302357836	0.448571428571	1.79411764706	0.0
598	0.299	-12.0395284327	-5.33428571429	0.384705882353	-4.30434782609
599	0.2995	-6.41678224688	-2.44285714286	4.61294117647	-2.86956521739
600	0.3	-5.01109570042	-0.997142857143	-3.84352941176	-8.60869565217
601	0.3005	-0.794036061026	-2.44285714286	3.20352941176	0.0
602	0.301	0.611650485437	3.34	3.20352941176	-1.4347826087
603	0.3015	-3.60540915395	4.78571428571	0.384705882353	-1.4347826087
604	0.302	2.0173370319	-5.33428571429	1.79411764706	-2.86956521739
605	0.3025	-6.41678224688	-2.44285714286	0.384705882353	-2.86956521739
606	0.303	-2.19972260749	-2.44285714286	1.79411764706	1.4347826087
607	0.3035	2.0173370319	-2.44285714286	1.79411764706	1.4347826087
608	0.304	3.42302357836	-0.997142857143	-6.66235294118	-5.73913043478
609	0.3045	10.4514563107	-2.44285714286	17.2976470588	-1.4347826087
610	0.305	9.04576976422	0.448571428571	-1.02470588235	0.0
611	0.3055	9.04576976422	-12.5628571429	-1.02470588235	0.0
612	0.306	10.4514563107	-3.88857142857	1.79411764706	-1.4347826087
613	0.3065	-6.41678224688	-2.44285714286	1.79411764706	-2.86956521739
614	0.307	23.1026352288	-2.44285714286	1.79411764706	0.0
615	0.3075	-3.60540915395	0.448571428571	1.79411764706	-4.30434782609
616	0.308	4.82871012483	-3.88857142857	-9.48117647059	-2.86956521739
617	0.3085	3.42302357836	0.448571428571	13.0694117647	-1.4347826087
618	0.309	4.82871012483	-3.88857142857	-2.43411764706	-1.4347826087
619	0.3095	4.82871012483	0.448571428571	0.384705882353	-1.4347826087
620	0.31	4.82871012483	-14.0085714286	-2.43411764706	-1.4347826087
621	0.3105	9.04576976422	-5.33428571429	-1.02470588235	1.4347826087
622	0.311	-12.0395284327	-2.44285714286	0.384705882353	-1.4347826087
623	0.3115	10.4514563107	-2.44285714286	1.79411764706	0.0
624	0.312	-0.794036061026	-0.997142857143	1.79411764706	5.73913043478
625	0.3125	3.42302357836	-3.88857142857	-2.43411764706	-1.4347826087
626	0.313	3.42302357836	0.448571428571	-2.43411764706	7.17391304348
627	0.3135	3.42302357836	1.89428571429	-2.43411764706	-7.17391304348
628	0.314	3.42302357836	-9.67142857143	-1.02470588235	-1.4347826087
629	0.3145	3.42302357836	1.89428571429	0.384705882353	-1.4347826087
630	0.315	2.0173370319	1.89428571429	0.384705882353	-1.4347826087
631	0.3155	9.04576976422	-0.997142857143	-1.02470588235	-1.4347826087
632	0.316	9.04576976422	-2.44285714286	0.384705882353	-2.86956521739
633	0.3165	0.611650485437	-0.997142857143	0.384705882353	-1.4347826087
634	0.317	2.0173370319	-2.44285714286	0.384705882353	-7.17391304348
635	0.3175	4.82871012483	-0.997142857143	7.43176470588	-1.4347826087
636	0.318	4.82871012483	0.448571428571	-2.43411764706	-1.4347826087
637	0.3185	-0.794036061026	-3.88857142857	1.79411764706	-1.4347826087
638	0.319	0.611650485437	-5.33428571429	-1.02470588235	-1.4347826087
639	0.3195	0.611650485437	13.46	1.79411764706	0.0
640	0.32	2.0173370319	-11.1171428571	3.20352941176	-1.4347826087
641	0.3205	-3.60540915395	0.448571428571	1.79411764706	-1.4347826087
642	0.321	-5.01109570042	0.448571428571	3.20352941176	-7.17391304348
643	0.3215	0.611650485437	0.448571428571	0.384705882353	-2.86956521739
644	0.322	2.0173370319	-2.44285714286	15.8882352941	0.0
645	0.3225	0.611650485437	0.448571428571	-8.07176470588	-2.86956521739
646	0.323	3.42302357836	0.448571428571	3.20352941176	-2.86956521739
647	0.3235	7.64008321775	17.7971428571	0.384705882353	-1.4347826087
648	0.324	2.0173370319	-9.67142857143	1.79411764706	-2.86956521739
649	0.3245	7.64008321775	-2.44285714286	0.384705882353	0.0
650	0.325	-10.6338418863	-2.44285714286	0.384705882353	-4.30434782609
651	0.3255	0.611650485437	-3.88857142857	1.79411764706	17.2173913043
652	0.326	-5.01109570042	0.448571428571	7.43176470588	-10.0434782609
653	0.3265	-3.60540915395	-2.44285714286	-8.07176470588	-1.4347826087
654	0.327	-2.19972260749	-2.44285714286	0.384705882353	0.0
655	0.3275	-3.60540915395	-12.5628571429	0.384705882353	0.0
656	0.328	-6.41678224688	14.9057142857	6.02235294118	0.0
657	0.3285	-5.01109570042	1.89428571429	1.79411764706	0.0
658	0.329	-0.794036061026	-6.78	1.79411764706	-1.4347826087
659	0.3295	7.64008321775	-2.44285714286	-1.02470588235	0.0
660	0.33	-7.82246879334	-0.997142857143	0.384705882353	-1.4347826087
661	0.3305	0.611650485437	0.448571428571	1.79411764706	1.4347826087
662	0.331	0.611650485437	-2.44285714286	20.1164705882	-2.86956521739
663	0.3315	-0.794036061026	-3.88857142857	-3.84352941176	0.0
664	0.332	0.611650485437	-0.997142857143	-2.43411764706	-2.86956521739
665	0.3325	0.611650485437	-14.0085714286	0.384705882353	-1.4347826087
666	0.333	0.611650485437	-5.33428571429	0.384705882353	-2.86956521739
667	0.3335	7.64008321775	-0.997142857143	-1.02470588235	-2.86956521739
668	0.334	-6.41678224688	-0.997142857143	0.384705882353	-1.4347826087
669	0.3345	0.611650485437	-0.997142857143	1.79411764706	-1.4347826087
670	0.335	-0.794036061026	-2.44285714286	1.79411764706	-5.73913043478
671	0.3355	2.0173370319	0.448571428571	3.20352941176	-4.30434782609
672	0.336	3.42302357836	-2.44285714286	-2.43411764706	-2.86956521739
673	0.3365	2.0173370319	0.448571428571	11.66	-4.30434782609
674	0.337	4.82871012483	-5.33428571429	-3.84352941176	-2.86956521739
675	0.3375	2.0173370319	0.448571428571	0.384705882353	-1.4347826087
676	0.338	-2.19972260749	-2.44285714286	0.384705882353	0.0
677	0.3385	-7.82246879334	-0.997142857143	1.79411764706	-1.4347826087
678	0.339	14.6685159501	-0.997142857143	-1.02470588235	1.4347826087
679	0.3395	-12.0395284327	-2.44285714286	1.79411764706	-10.0434782609
680	0.34	-0.794036061026	-2.44285714286	-1.02470588235	14.347826087
681	0.3405	0.611650485437	-2.44285714286	1.79411764706	-8.60869565217
682	0.341	2.0173370319	0.448571428571	-10.8905882353	0.0
683	0.3415	3.42302357836	-12.5628571429	3.20352941176	-1.4347826087
684	0.342	3.42302357836	17.7971428571	3.20352941176	0.0
685	0.3425	-3.60540915395	-3.88857142857	3.20352941176	-1.4347826087
686	0.343	17.479889043	0.448571428571	0.384705882353	1.4347826087
687	0.3435	-13.4452149792	-2.44285714286	3.20352941176	-12.9130434783
688	0.344	-3.60540915395	-0.997142857143	0.384705882353	14.347826087
689	0.3445	-6.41678224688	-0.997142857143	6.02235294118	-11.4782608696
690	0.345	-3.60540915395	1.89428571429	-8.07176470588	0.0
691	0.3455	-2.19972260749	0.448571428571	1.79411764706	-1.4347826087
692	0.346	3.42302357836	-14.0085714286	3.20352941176	-1.4347826087
693	0.3465	2.0173370319	-8.22571428571	1.79411764706	-1.4347826087
694	0.347	7.64008321775	-0.997142857143	-1.02470588235	-1.4347826087
695	0.3475	-6.41678224688	-2.44285714286	0.384705882353	-2.86956521739
696	0.348	21.6969486824	0.448571428571	3.20352941176	4.30434782609
697	0.3485	3.42302357836	-2.44285714286	4.61294117647	-11.4782608696
698	0.349	0.611650485437	-0.997142857143	0.384705882353	11.4782608696
699	0.3495	2.0173370319	-2.44285714286	4.61294117647	-4.30434782609
700	0.35	2.0173370319	0.448571428571	3.20352941176	-1.4347826087
701	0.3505	-0.794036061026	-14.0085714286	-2.43411764706	0.0
702	0.351	-0.794036061026	10.5685714286	0.384705882353	-1.4347826087
703	0.3515	-16.2565880721	-2.44285714286	1.79411764706	-1.4347826087
704	0.352	9.04576976422	-0.997142857143	1.79411764706	-1.4347826087
705	0.3525	-6.41678224688	0.448571428571	1.79411764706	-1.4347826087
706	0.353	-5.01109570042	-2.44285714286	1.79411764706	0.0
707	0.3535	-2.19972260749	-0.997142857143	4.61294117647	-2.86956521739
708	0.354	-2.19972260749	-2.44285714286	11.66	-2.86956521739
709	0.3545	-0.794036061026	-0.997142857143	-6.66235294118	-2.86956521739
710	0.355	-0.794036061026	-12.5628571429	3.20352941176	1.4347826087
711	0.3555	2.0173370319	-11.1171428571	3.20352941176	-1.4347826087
712	0.356	-2.19972260749	-0.997142857143	1.79411764706	0.0
713	0.3565	21.6969486824	0.448571428571	4.61294117647	1.4347826087
714	0.357	-5.01109570042	-2.44285714286	4.61294117647	-10.0434782609
715	0.3575	-6.41678224688	-2.44285714286	0.384705882353	7.17391304348
716	0.358	-5.01109570042	0.448571428571	7.43176470588	-1.4347826087
717	0.3585	-7.82246879334	-0.997142857143	7.43176470588	-1.4347826087
718	0.359	-7.82246879334	0.448571428571	-2.43411764706	0.0
719	0.3595	-10.6338418863	-3.88857142857	3.20352941176	-1.4347826087
720	0.36	-7.82246879334	10.5685714286	4.61294117647	-1.4347826087
721	0.3605	-6.41678224688	-2.44285714286	1.79411764706	2.86956521739
722	0.361	-5.01109570042	-0.997142857143	3.20352941176	-1.4347826087
723	0.3615	-12.0395284327	-2.44285714286	4.61294117647	-8.60869565217
724	0.362	-5.01109570042	-3.88857142857	3.20352941176	17.2173913043
725	0.3625	-0.794036061026	-2.44285714286	3.20352941176	-8.60869565217
726	0.363	3.42302357836	0.448571428571	-8.07176470588	0.0
727	0.3635	-3.60540915395	-3.88857142857	0.384705882353	0.0
728	0.364	-2.19972260749	-12.5628571429	1.79411764706	1.4347826087
729	0.3645	-0.794036061026	16.3514285714	0.384705882353	-2.86956521739
730	0.365	3.42302357836	0.448571428571	0.384705882353	1.4347826087
731	0.3655	-13.4452149792	-2.44285714286	-1.02470588235	-1.4347826087
732	0.366	11.8571428571	-0.997142857143	0.384705882353	-1.4347826087
733	0.3665	-5.01109570042	-0.997142857143	1.79411764706	2.86956521739
734	0.367	-3.60540915395	-0.997142857143	-3.84352941176	-1.4347826087
735	0.3675	-3.60540915395	0.448571428571	7.43176470588	0.0
736	0.368	-5.01109570042	-3.88857142857	-2.43411764706	1.4347826087
737	0.3685	-5.01109570042	-3.88857142857	15.8882352941	-2.86956521739
738	0.369	-2.19972260749	-5.33428571429	-3.84352941176	0.0
739	0.3695	-5.01109570042	-6.78	1.79411764706	-1.4347826087
740	0.37	-2.19972260749	1.89428571429	1.79411764706	1.4347826087
741	0.3705	-17.6622746186	-0.997142857143	1.79411764706	1.4347826087
742	0.371	-14.8509015257	-0.997142857143	4.61294117647	-12.9130434783
743	0.3715	-6.41678224688	0.448571428571	0.384705882353	17.2173913043
744	0.372	-5.01109570042	0.448571428571	18.7070588235	-1.4347826087
745	0.3725	-2.19972260749	-3.88857142857	-6.66235294118	0.0
746	0.373	0.611650485437	1.89428571429	1.79411764706	-1.4347826087
747	0.3735	-3.60540915395	-12.5628571429	1.79411764706	-1.4347826087
748	0.374	0.611650485437	16.3514285714	1.79411764706	0.0
749	0.3745	-14.8509015257	-0.997142857143	0.384705882353	0.0
750	0.375	14.6685159501	0.448571428571	1.79411764706	2.86956521739
751	0.3755	-2.19972260749	-0.997142857143	1.79411764706	0.0
752	0.376	-6.41678224688	0.448571428571	-1.02470588235	0.0
753	0.3765	-5.01109570042	-0.997142857143	-1.02470588235	-1.4347826087
754	0.377	-2.19972260749	0.448571428571	11.66	0.0
755	0.3775	-5.01109570042	-0.997142857143	-5.25294117647	2.86956521739
756	0.378	-5.01109570042	-3.88857142857	1.79411764706	0.0
757	0.3785	-5.01109570042	-8.22571428571	1.79411764706	0.0
758	0.379	-10.6338418863	-2.44285714286	-2.43411764706	-2.86956521739
759	0.3795	-16.2565880721	0.448571428571	0.384705882353	-2.86956521739
760	0.38	9.04576976422	-0.997142857143	-1.02470588235	4.30434782609
761	0.3805	-20.4736477115	-0.997142857143	1.79411764706	-12.9130434783
762	0.381	-10.6338418863	-0.997142857143	-9.48117647059	-4.30434782609
763	0.3815	-10.6338418863	-0.997142857143	13.0694117647	-1.4347826087
764	0.382	-7.82246879334	-2.44285714286	-2.43411764706	-2.86956521739
765	0.3825	-7.82246879334	-0.997142857143	7.43176470588	-8.60869565217
766	0.383	-7.82246879334	7.67714285714	0.384705882353	-1.4347826087
767	0.3835	-7.82246879334	4.78571428571	1.79411764706	-1.4347826087
768	0.384	-9.22815533981	-6.78	1.79411764706	0.0
769	0.3845	2.0173370319	0.448571428571	3.20352941176	-4.30434782609
770	0.385	-12.0395284327	0.448571428571	3.20352941176	-11.4782608696
771	0.3855	-3.60540915395	0.448571428571	3.20352941176	1.4347826087
772	0.386	-3.60540915395	0.448571428571	20.1164705882	-2.86956521739
773	0.3865	0.611650485437	-0.997142857143	-6.66235294118	-2.86956521739
774	0.387	-3.60540915395	0.448571428571	3.20352941176	-4.30434782609
775	0.3875	-2.19972260749	-12.5628571429	1.79411764706	-1.4347826087
776	0.388	-0.794036061026	14.9057142857	0.384705882353	2.86956521739
777	0.3885	-14.8509015257	-0.997142857143	0.384705882353	0.0
778	0.389	10.4514563107	-0.997142857143	1.79411764706	1.4347826087
779	0.3895	-13.4452149792	0.448571428571	3.20352941176	11.4782608696
780	0.39	-9.22815533981	-0.997142857143	4.61294117647	-4.30434782609
781	0.3905	-7.82246879334	-0.997142857143	-2.43411764706	5.73913043478
782	0.391	-5.01109570042	-2.44285714286	-1.02470588235	-2.86956521739
783	0.3915	-2.19972260749	-9.67142857143	3.20352941176	1.4347826087
784	0.392	-5.01109570042	-2.44285714286	3.20352941176	1.4347826087
785	0.3925	-3.60540915395	9.12285714286	3.20352941176	0.0
786	0.393	-3.60540915395	-11.1171428571	1.79411764706	-1.4347826087
787	0.3935	14.6685159501	-0.997142857143	3.20352941176	1.4347826087
788	0.394	-12.0395284327	1.89428571429	3.20352941176	15.7826086957
789	0.3945	-2.19972260749	0.448571428571	1.79411764706	-7.17391304348
790	0.395	-2.19972260749	0.448571428571	-1.02470588235	17.2173913043
791	0.3955	-3.60540915395	-3.88857142857	0.384705882353	-4.30434782609
792	0.396	-6.41678224688	0.448571428571	-5.25294117647	-1.4347826087
793	0.3965	-6.41678224688	14.9057142857	-1.02470588235	-1.4347826087
794	0.397	-3.60540915395	-11.1171428571	1.79411764706	1.4347826087
795	0.3975	-12.0395284327	-2.44285714286	0.384705882353	-1.4347826087
796	0.398	17.479889043	-0.997142857143	3.20352941176	2.86956521739
797	0.3985	-10.6338418863	-0.997142857143	1.79411764706	-12.9130434783
798	0.399	0.611650485437	0.448571428571	0.384705882353	14.347826087
799	0.3995	4.82871012483	-0.997142857143	4.61294117647	-8.60869565217
800	0.4	3.42302357836	-0.997142857143	-6.66235294118	-2.86956521739
801	0.4005	0.611650485437	-12.5628571429	0.384705882353	-2.86956521739
802	0.401	2.0173370319	-9.67142857143	1.79411764706	-4.30434782609
803	0.4015	-0.794036061026	0.448571428571	3.20352941176	-2.86956521739
804	0.402	4.82871012483	-0.997142857143	0.384705882353	-1.4347826087
805	0.4025	-7.82246879334	0.448571428571	1.79411764706	-12.9130434783
806	0.403	3.42302357836	-2.44285714286	-1.02470588235	17.2173913043
807	0.4035	4.82871012483	0.448571428571	4.61294117647	-2.86956521739
808	0.404	7.64008321775	1.89428571429	-6.66235294118	-1.4347826087
809	0.4045	3.42302357836	-3.88857142857	15.8882352941	-1.4347826087
810	0.405	3.42302357836	1.89428571429	6.02235294118	0.0
811	0.4055	-0.794036061026	-0.997142857143	0.384705882353	0.0
812	0.406	7.64008321775	-0.997142857143	0.384705882353	0.0
813	0.4065	-5.01109570042	-0.997142857143	3.20352941176	0.0
814	0.407	10.4514563107	0.448571428571	-1.02470588235	1.4347826087
815	0.4075	-10.6338418863	-0.997142857143	-1.02470588235	0.0
816	0.408	0.611650485437	-0.997142857143	-5.25294117647	1.4347826087
817	0.4085	0.611650485437	0.448571428571	15.8882352941	-1.4347826087
818	0.409	-0.794036061026	-3.88857142857	-5.25294117647	-1.4347826087
819	0.4095	0.611650485437	1.89428571429	0.384705882353	0.0
820	0.41	3.42302357836	19.2428571429	0.384705882353	1.4347826087
821	0.4105	-0.794036061026	-5.33428571429	-1.02470588235	0.0
822	0.411	10.4514563107	-0.997142857143	0.384705882353	-1.4347826087
823	0.4115	-3.60540915395	-2.44285714286	4.61294117647	-10.0434782609
824	0.412	0.611650485437	-2.44285714286	0.384705882353	11.4782608696
825	0.4125	2.0173370319	-0.997142857143	3.20352941176	0.0
826	0.413	3.42302357836	0.448571428571	-3.84352941176	-5.73913043478
827	0.4135	0.611650485437	-2.44285714286	7.43176470588	0.0
828	0.414	-0.794036061026	0.448571428571	8.84117647059	-2.86956521739
829	0.4145	-0.794036061026	1.89428571429	0.384705882353	0.0
830	0.415	0.611650485437	-2.44285714286	3.20352941176	0.0
831	0.4155	-0.794036061026	-0.997142857143	-1.02470588235	-1.4347826087
832	0.416	-3.60540915395	-2.44285714286	-1.02470588235	-1.4347826087
833	0.4165	2.0173370319	-3.88857142857	-1.02470588235	-8.60869565217
834	0.417	0.611650485437	-2.44285714286	0.384705882353	1.4347826087
835	0.4175	3.42302357836	-0.997142857143	-8.07176470588	0.0
836	0.418	3.42302357836	0.448571428571	3.20352941176	15.7826086957
837	0.4185	6.23439667129	0.448571428571	-6.66235294118	-1.4347826087
838	0.419	7.64008321775	-12.5628571429	0.384705882353	-1.4347826087
839	0.4195	10.4514563107	-2.44285714286	3.20352941176	-1.4347826087
840	0.42	-5.01109570042	-0.997142857143	0.384705882353	-2.86956521739
841	0.4205	21.6969486824	-0.997142857143	1.79411764706	1.4347826087
842	0.421	-2.19972260749	-2.44285714286	0.384705882353	8.60869565217
843	0.4215	0.611650485437	-0.997142857143	1.79411764706	0.0
844	0.422	0.611650485437	0.448571428571	3.20352941176	0.0
845	0.4225	-0.794036061026	-2.44285714286	11.66	1.4347826087
846	0.423	-0.794036061026	0.448571428571	4.61294117647	-1.4347826087
847	0.4235	3.42302357836	-11.1171428571	1.79411764706	-1.4347826087
848	0.424	4.82871012483	-5.33428571429	1.79411764706	-1.4347826087
849	0.4245	-6.41678224688	-2.44285714286	1.79411764706	0.0
850	0.425	9.04576976422	-0.997142857143	1.79411764706	-2.86956521739
851	0.4255	3.42302357836	-0.997142857143	3.20352941176	-7.17391304348
852	0.426	-5.01109570042	-0.997142857143	0.384705882353	-1.4347826087
853	0.4265	-2.19972260749	-0.997142857143	0.384705882353	14.347826087
854	0.427	-5.01109570042	-0.997142857143	3.20352941176	-10.0434782609
855	0.4275	-6.41678224688	-2.44285714286	1.79411764706	-1.4347826087
856	0.428	-3.60540915395	-9.67142857143	0.384705882353	-1.4347826087
857	0.4285	-3.60540915395	-11.1171428571	1.79411764706	-1.4347826087
858	0.429	-9.22815533981	0.448571428571	1.79411764706	-1.4347826087
859	0.4295	10.4514563107	-0.997142857143	0.384705882353	-1.4347826087
860	0.43	-16.2565880721	-0.997142857143	3.20352941176	15.7826086957
861	0.4305	-7.82246879334	-2.44285714286	4.61294117647	-8.60869565217
862	0.431	-6.41678224688	-2.44285714286	0.384705882353	7.17391304348
863	0.4315	-5.01109570042	-6.78	1.79411764706	-1.4347826087
864	0.432	-7.82246879334	1.89428571429	0.384705882353	0.0
865	0.4325	-3.60540915395	-11.1171428571	-1.02470588235	-1.4347826087
866	0.433	-3.60540915395	1.89428571429	3.20352941176	0.0
867	0.4335	-12.0395284327	0.448571428571	3.20352941176	-1.4347826087
868	0.434	0.611650485437	-0.997142857143	-1.02470588235	0.0
869	0.4345	3.42302357836	-0.997142857143	0.384705882353	-2.86956521739
870	0.435	-3.60540915395	-0.997142857143	3.20352941176	-8.60869565217
871	0.4355	-2.19972260749	-0.997142857143	-1.02470588235	12.9130434783
872	0.436	-2.19972260749	-0.997142857143	4.61294117647	-11.4782608696
873	0.4365	-5.01109570042	0.448571428571	-1.02470588235	-2.86956521739
874	0.437	-6.41678224688	20.6885714286	-3.84352941176	-1.4347826087
875	0.4375	-2.19972260749	-11.1171428571	-1.02470588235	-1.4347826087
876	0.438	-7.82246879334	-2.44285714286	-1.02470588235	-2.86956521739
877	0.4385	14.6685159501	-2.44285714286	0.384705882353	-1.4347826087
878	0.439	-10.6338418863	-0.997142857143	3.20352941176	-8.60869565217
879	0.4395	-7.82246879334	-0.997142857143	1.79411764706	4.30434782609
880	0.44	-7.82246879334	-2.44285714286	13.0694117647	-2.86956521739
881	0.4405	-6.41678224688	0.448571428571	-8.07176470588	-4.30434782609
882	0.441	-5.01109570042	-3.88857142857	7.43176470588	-1.4347826087
883	0.4415	-3.60540915395	1.89428571429	3.20352941176	1.4347826087
884	0.442	-5.01109570042	0.448571428571	-1.02470588235	1.4347826087
885	0.4425	-2.19972260749	-5.33428571429	3.20352941176	0.0
886	0.443	-10.6338418863	0.448571428571	-1.02470588235	-1.4347826087
887	0.4435	-14.8509015257	0.448571428571	0.384705882353	-1.4347826087
888	0.444	-9.22815533981	-0.997142857143	3.20352941176	5.73913043478
889	0.4445	-7.82246879334	-2.44285714286	-2.43411764706	-8.60869565217
890	0.445	-3.60540915395	-0.997142857143	7.43176470588	-1.4347826087
891	0.4455	-2.19972260749	-2.44285714286	6.02235294118	0.0
892	0.446	2.0173370319	1.89428571429	0.384705882353	0.0
893	0.4465	3.42302357836	9.12285714286	-1.02470588235	-1.4347826087
894	0.447	2.0173370319	-0.997142857143	0.384705882353	-1.4347826087
895	0.4475	4.82871012483	-0.997142857143	-1.02470588235	0.0
896	0.448	11.8571428571	-5.33428571429	-1.02470588235	-4.30434782609
897	0.4485	-3.60540915395	1.89428571429	1.79411764706	0.0
898	0.449	2.0173370319	-5.33428571429	1.79411764706	7.17391304348
899	0.4495	4.82871012483	-2.44285714286	0.384705882353	-1.4347826087
900	0.45	0.611650485437	-2.44285714286	7.43176470588	-4.30434782609
901	0.4505	-0.794036061026	-0.997142857143	4.61294117647	-2.86956521739
902	0.451	0.611650485437	-9.67142857143	-3.84352941176	-1.4347826087
903	0.4515	3.42302357836	-2.44285714286	0.384705882353	-2.86956521739
904	0.452	-6.41678224688	0.448571428571	0.384705882353	-2.86956521739
905	0.4525	10.4514563107	-2.44285714286	-1.02470588235	-1.4347826087
906	0.453	2.0173370319	0.448571428571	0.384705882353	4.30434782609
907	0.4535	-0.794036061026	-0.997142857143	-1.02470588235	-7.17391304348
908	0.454	0.611650485437	0.448571428571	-1.02470588235	12.9130434783
909	0.4545	0.611650485437	0.448571428571	-1.02470588235	-8.60869565217
910	0.455	0.611650485437	-6.78	1.79411764706	-1.4347826087
911	0.4555	-3.60540915395	0.448571428571	-1.02470588235	-1.4347826087
912	0.456	-0.794036061026	1.89428571429	3.20352941176	-1.4347826087
913	0.4565	2.0173370319	-2.44285714286	-1.02470588235	-1.4347826087
914	0.457	-5.01109570042	-2.44285714286	3.20352941176	-8.60869565217
915	0.4575	-6.41678224688	-2.44285714286	1.79411764706	11.4782608696
916	0.458	-5.01109570042	-0.997142857143	3.20352941176	-5.73913043478
917	0.4585	0.611650485437	0.448571428571	1.79411764706	-1.4347826087
918	0.459	2.0173370319	1.89428571429	-2.43411764706	-1.4347826087
919	0.4595	2.0173370319	-9.67142857143	1.79411764706	-2.86956521739
920	0.46	4.82871012483	13.46	0.384705882353	-1.4347826087
921	0.4605	4.82871012483	0.448571428571	0.384705882353	-1.4347826087
922	0.461	20.2912621359	-3.88857142857	0.384705882353	0.0
923	0.4615	7.64008321775	-5.33428571429	3.20352941176	-1.4347826087
924	0.462	0.611650485437	-2.44285714286	3.20352941176	-1.4347826087
925	0.4625	4.82871012483	-0.997142857143	4.61294117647	-4.30434782609
926	0.463	3.42302357836	-0.997142857143	15.8882352941	-1.4347826087
927	0.4635	3.42302357836	-0.997142857143	-2.43411764706	-1.4347826087
928	0.464	4.82871012483	-2.44285714286	18.7070588235	-1.4347826087
929	0.4645	9.04576976422	16.3514285714	1.79411764706	-1.4347826087
930	0.465	3.42302357836	-11.1171428571	3.20352941176	-1.4347826087
931	0.4655	10.4514563107	-5.33428571429	3.20352941176	-1.4347826087
932	0.466	-6.41678224688	0.448571428571	1.79411764706	-1.4347826087
933	0.4665	2.0173370319	-2.44285714286	0.384705882353	4.30434782609
934	0.467	7.64008321775	-3.88857142857	3.20352941176	2.86956521739
935	0.4675	4.82871012483	-2.44285714286	-3.84352941176	-5.73913043478
936	0.468	3.42302357836	0.448571428571	-2.43411764706	-1.4347826087
937	0.4685	4.82871012483	-5.33428571429	1.79411764706	-1.4347826087
938	0.469	4.82871012483	1.89428571429	0.384705882353	-1.4347826087
939	0.4695	3.42302357836	10.5685714286	-2.43411764706	-1.4347826087
940	0.47	3.42302357836	0.448571428571	-1.02470588235	-2.86956521739
941	0.4705	-10.6338418863	-0.997142857143	-1.02470588235	-1.4347826087
942	0.471	21.6969486824	-0.997142857143	1.79411764706	2.86956521739
943	0.4715	2.0173370319	0.448571428571	4.61294117647	-4.30434782609
944	0.472	0.611650485437	0.448571428571	1.79411764706	11.4782608696
945	0.4725	-3.60540915395	0.448571428571	7.43176470588	-1.4347826087
946	0.473	-5.01109570042	1.89428571429	0.384705882353	0.0
947	0.4735	-5.01109570042	-12.5628571429	-1.02470588235	0.0
948	0.474	-6.41678224688	16.3514285714	-1.02470588235	1.4347826087
949	0.4745	-7.82246879334	-5.33428571429	-1.02470588235	0.0
950	0.475	11.8571428571	-2.44285714286	0.384705882353	4.30434782609
951	0.4755	-12.0395284327	-2.44285714286	1.79411764706	-1.4347826087
952	0.476	-3.60540915395	-2.44285714286	-1.02470588235	11.4782608696
953	0.4765	-0.794036061026	-2.44285714286	3.20352941176	0.0
954	0.477	-2.19972260749	-2.44285714286	-8.07176470588	-1.4347826087
955	0.4775	0.611650485437	-0.997142857143	-1.02470588235	-1.4347826087
956	0.478	0.611650485437	-12.5628571429	1.79411764706	-1.4347826087
957	0.4785	-2.19972260749	-6.78	0.384705882353	-1.4347826087
958	0.479	0.611650485437	-5.33428571429	1.79411764706	-1.4347826087
959	0.4795	-6.41678224688	-0.997142857143	4.61294117647	-1.4347826087
960	0.48	-6.41678224688	-0.997142857143	1.79411764706	-7.17391304348
961	0.4805	0.611650485437	-0.997142857143	1.79411764706	14.347826087
962	0.481	2.0173370319	-0.997142857143	1.79411764706	-2.86956521739
963	0.4815	3.42302357836	-0.997142857143	18.7070588235	-2.86956521739
964	0.482	0.611650485437	-3.88857142857	-8.07176470588	-4.30434782609
965	0.4825	7.64008321775	-14.0085714286	-2.43411764706	-2.86956521739
966	0.483	9.04576976422	17.7971428571	0.384705882353	0.0
967	0.4835	2.0173370319	-2.44285714286	1.79411764706	-4.30434782609
968	0.484	18.8855755895	-0.997142857143	-1.02470588235	0.0
969	0.4845	9.04576976422	-2.44285714286	1.79411764706	-4.30434782609
970	0.485	-5.01109570042	-2.44285714286	-1.02470588235	12.9130434783
971	0.4855	7.64008321775	-0.997142857143	-6.66235294118	-2.86956521739
972	0.486	4.82871012483	1.89428571429	-8.07176470588	-1.4347826087
973	0.4865	6.23439667129	-2.44285714286	1.79411764706	-1.4347826087
974	0.487	2.0173370319	-11.1171428571	1.79411764706	-2.86956521739
975	0.4875	0.611650485437	-6.78	3.20352941176	-1.4347826087
976	0.488	0.611650485437	-2.44285714286	0.384705882353	1.4347826087
977	0.4885	-12.0395284327	1.89428571429	3.20352941176	0.0
978	0.489	-12.0395284327	-0.997142857143	1.79411764706	0.0
979	0.4895	-9.22815533981	-0.997142857143	1.79411764706	1.4347826087
980	0.49	-10.6338418863	-3.88857142857	3.20352941176	-7.17391304348
981	0.4905	-9.22815533981	0.448571428571	-10.8905882353	0.0
982	0.491	-7.82246879334	-3.88857142857	17.2976470588	-1.4347826087
983	0.4915	-9.22815533981	3.34	-5.25294117647	1.4347826087
984	0.492	-7.82246879334	-6.78	1.79411764706	1.4347826087
985	0.4925	-0.794036061026	0.448571428571	1.79411764706	0.0
986	0.493	0.611650485437	-0.997142857143	1.79411764706	-1.4347826087
987	0.4935	14.6685159501	0.448571428571	0.384705882353	2.86956521739
988	0.494	-9.22815533981	-0.997142857143	-1.02470588235	11.4782608696
989	0.4945	-0.794036061026	-2.44285714286	-6.66235294118	0.0
990	0.495	-0.794036061026	0.448571428571	6.02235294118	-1.4347826087
991	0.4955	-2.19972260749	-0.997142857143	-6.66235294118	-1.4347826087
992	0.496	-5.01109570042	-0.997142857143	0.384705882353	0.0
993	0.4965	-2.19972260749	-11.1171428571	-1.02470588235	0.0
994	0.497	2.0173370319	-5.33428571429	0.384705882353	0.0
995	0.4975	-9.22815533981	-2.44285714286	0.384705882353	-2.86956521739
996	0.498	7.64008321775	0.448571428571	1.79411764706	-2.86956521739
997	0.4985	-10.6338418863	0.448571428571	1.79411764706	-1.4347826087
998	0.499	-0.794036061026	0.448571428571	-1.02470588235	1.4347826087
999	0.4995	-0.794036061026	-0.997142857143	18.7070588235	-1.4347826087
1000	0.5	-0.794036061026	-2.44285714286	-3.84352941176	0.0
1001	0.5005	-5.01109570042	1.89428571429	-1.02470588235	-1.4347826087
1002	0.501	-2.19972260749	3.34	0.384705882353	-1.4347826087
1003	0.5015	-7.82246879334	4.78571428571	1.79411764706	0.0
1004	0.502	-5.01109570042	-6.78	1.79411764706	-2.86956521739
1005	0.5025	7.64008321775	-0.997142857143	1.79411764706	-1.4347826087
1006	0.503	-17.6622746186	0.448571428571	3.20352941176	-12.9130434783
1007	0.5035	-9.22815533981	0.448571428571	1.79411764706	14.347826087
1008	0.504	-6.41678224688	0.448571428571	0.384705882353	1.4347826087
1009	0.5045	-6.41678224688	0.448571428571	14.4788235294	1.4347826087
1010	0.505	-7.82246879334	-2.44285714286	-1.02470588235	-1.4347826087
1011	0.5055	-6.41678224688	-6.78	-1.02470588235	-1.4347826087
1012	0.506	-6.41678224688	-11.1171428571	-1.02470588235	1.4347826087
1013	0.5065	-12.0395284327	-0.997142857143	1.79411764706	0.0
1014	0.507	10.4514563107	0.448571428571	0.384705882353	1.4347826087
1015	0.5075	-19.067961165	-2.44285714286	0.384705882353	-1.4347826087
1016	0.508	-12.0395284327	-0.997142857143	-1.02470588235	15.7826086957
1017	0.5085	-12.0395284327	-3.88857142857	4.61294117647	-4.30434782609
1018	0.509	-7.82246879334	0.448571428571	-6.66235294118	-2.86956521739
1019	0.5095	-9.22815533981	-3.88857142857	15.8882352941	1.4347826087
1020	0.51	-9.22815533981	4.78571428571	-1.02470588235	0.0
1021	0.5105	-10.6338418863	-6.78	3.20352941176	0.0
1022	0.511	-6.41678224688	-2.44285714286	0.384705882353	1.4347826087
1023	0.5115	-19.067961165	-0.997142857143	0.384705882353	0.0
1024	0.512	-14.8509015257	-0.997142857143	0.384705882353	4.30434782609
1025	0.5125	-9.22815533981	-2.44285714286	3.20352941176	-5.73913043478
1026	0.513	-9.22815533981	-0.997142857143	0.384705882353	-5.73913043478
1027	0.5135	-7.82246879334	0.448571428571	-6.66235294118	-4.30434782609
1028	0.514	-6.41678224688	-3.88857142857	18.7070588235	0.0
1029	0.5145	-2.19972260749	1.89428571429	-6.66235294118	0.0
1030	0.515	0.611650485437	-14.0085714286	-1.02470588235	-1.4347826087
1031	0.5155	7.64008321775	-2.44285714286	0.384705882353	1.4347826087
1032	0.516	-10.6338418863	-2.44285714286	-1.02470588235	0.0
1033	0.5165	-5.01109570042	-0.997142857143	0.384705882353	-4.30434782609
1034	0.517	14.6685159501	-2.44285714286	1.79411764706	1.4347826087
1035	0.5175	0.611650485437	-2.44285714286	0.384705882353	-12.9130434783
1036	0.518	4.82871012483	0.448571428571	-12.3	-4.30434782609
1037	0.5185	6.23439667129	-0.997142857143	15.8882352941	-2.86956521739
1038	0.519	4.82871012483	3.34	-1.02470588235	-1.4347826087
1039	0.5195	7.64008321775	16.3514285714	0.384705882353	-1.4347826087
1040	0.52	4.82871012483	-8.22571428571	0.384705882353	-1.4347826087
1041	0.5205	4.82871012483	-3.88857142857	-1.02470588235	-2.86956521739
1042	0.521	0.611650485437	-2.44285714286	1.79411764706	-4.30434782609
1043	0.5215	-5.01109570042	-0.997142857143	-1.02470588235	-2.86956521739
1044	0.522	-2.19972260749	0.448571428571	3.20352941176	0.0
1045	0.5225	0.611650485437	-2.44285714286	14.4788235294	-1.4347826087
1046	0.523	-0.794036061026	-0.997142857143	-6.66235294118	-1.4347826087
1047	0.5235	3.42302357836	-2.44285714286	11.66	-2.86956521739
1048	0.524	3.42302357836	0.448571428571	-1.02470588235	-1.4347826087
1049	0.5245	3.42302357836	-0.997142857143	0.384705882353	1.4347826087
1050	0.525	9.04576976422	-6.78	0.384705882353	-1.4347826087
1051	0.5255	-0.794036061026	-0.997142857143	-1.02470588235	-1.4347826087
1052	0.526	3.42302357836	-0.997142857143	-1.02470588235	-2.86956521739
1053	0.5265	10.4514563107	-0.997142857143	0.384705882353	8.60869565217
1054	0.527	7.64008321775	-0.997142857143	-3.84352941176	-8.60869565217
1055	0.5275	10.4514563107	-0.997142857143	0.384705882353	0.0
1056	0.528	9.04576976422	0.448571428571	11.66	-1.4347826087
1057	0.5285	7.64008321775	-5.33428571429	0.384705882353	-2.86956521739
1058	0.529	9.04576976422	0.448571428571	0.384705882353	-1.4347826087
1059	0.5295	4.82871012483	-6.78	3.20352941176	1.4347826087
1060	0.53	16.0742024965	-0.997142857143	-1.02470588235	-7.17391304348
1061	0.5305	2.0173370319	-2.44285714286	0.384705882353	4.30434782609
1062	0.531	3.42302357836	-0.997142857143	4.61294117647	-1.4347826087
1063	0.5315	0.611650485437	-0.997142857143	-6.66235294118	-7.17391304348
1064	0.532	-0.794036061026	-0.997142857143	7.43176470588	-2.86956521739
1065	0.5325	0.611650485437	-0.997142857143	3.20352941176	-2.86956521739
1066	0.533	0.611650485437	-9.67142857143	-8.07176470588	-1.4347826087
1067	0.5335	3.42302357836	-2.44285714286	0.384705882353	-1.4347826087
1068	0.534	2.0173370319	-2.44285714286	1.79411764706	-4.30434782609
1069	0.5345	11.8571428571	-2.44285714286	-1.02470588235	-1.4347826087
1070	0.535	13.2628294036	-2.44285714286	0.384705882353	-1.4347826087
1071	0.5355	3.42302357836	0.448571428571	-5.25294117647	-4.30434782609
1072	0.536	0.611650485437	-2.44285714286	0.384705882353	5.73913043478
1073	0.5365	2.0173370319	1.89428571429	-5.25294117647	-7.17391304348
1074	0.537	3.42302357836	-0.997142857143	-1.02470588235	0.0
1075	0.5375	7.64008321775	16.3514285714	1.79411764706	-1.4347826087
1076	0.538	0.611650485437	-8.22571428571	0.384705882353	-1.4347826087
1077	0.5385	10.4514563107	-3.88857142857	-1.02470588235	0.0
1078	0.539	-0.794036061026	-2.44285714286	-1.02470588235	-1.4347826087
1079	0.5395	18.8855755895	1.89428571429	3.20352941176	-4.30434782609
1080	0.54	11.8571428571	-2.44285714286	-1.02470588235	-1.4347826087
1081	0.5405	7.64008321775	-0.997142857143	0.384705882353	-8.60869565217
1082	0.541	10.4514563107	-0.997142857143	14.4788235294	1.4347826087
1083	0.5415	7.64008321775	-5.33428571429	-1.02470588235	-1.4347826087
1084	0.542	4.82871012483	7.67714285714	0.384705882353	-1.4347826087
1085	0.5425	4.82871012483	-9.67142857143	0.384705882353	0.0
1086	0.543	-3.60540915395	-0.997142857143	1.79411764706	-1.4347826087
1087	0.5435	-16.2565880721	-0.997142857143	0.384705882353	-2.86956521739
1088	0.544	13.2628294036	0.448571428571	-1.02470588235	2.86956521739
1089	0.5445	-6.41678224688	-0.997142857143	1.79411764706	-12.9130434783
1090	0.545	-6.41678224688	-0.997142857143	-9.48117647059	0.0
1091	0.5455	-7.82246879334	-0.997142857143	15.8882352941	-1.4347826087
1092	0.546	-3.60540915395	1.89428571429	-1.02470588235	-1.4347826087
1093	0.5465	-2.19972260749	16.3514285714	-1.02470588235	-1.4347826087
1094	0.547	2.0173370319	17.7971428571	-1.02470588235	-2.86956521739
1095	0.5475	-2.19972260749	-11.1171428571	-1.02470588235	0.0
1096	0.548	18.8855755895	0.448571428571	0.384705882353	1.4347826087
1097	0.5485	-5.01109570042	-2.44285714286	-1.02470588235	-4.30434782609
1098	0.549	2.0173370319	-2.44285714286	-1.02470588235	-1.4347826087
1099	0.5495	3.42302357836	0.448571428571	17.2976470588	0.0
1100	0.55	7.64008321775	-3.88857142857	-2.43411764706	0.0
1101	0.5505	10.4514563107	-0.997142857143	-2.43411764706	0.0
1102	0.551	11.8571428571	-3.88857142857	0.384705882353	0.0
1103	0.5515	9.04576976422	-5.33428571429	1.79411764706	-1.4347826087
1104	0.552	13.2628294036	-6.78	1.79411764706	0.0
1105	0.5525	0.611650485437	-0.997142857143	-1.02470588235	-1.4347826087
1106	0.553	18.8855755895	-0.997142857143	-2.43411764706	-10.0434782609
1107	0.5535	14.6685159501	-2.44285714286	1.79411764706	-2.86956521739
1108	0.554	9.04576976422	-3.88857142857	0.384705882353	4.30434782609
1109	0.5545	4.82871012483	-5.33428571429	7.43176470588	-1.4347826087
1110	0.555	9.04576976422	-2.44285714286	3.20352941176	4.30434782609
1111	0.5555	10.4514563107	-12.5628571429	0.384705882353	0.0
1112	0.556	10.4514563107	0.448571428571	3.20352941176	1.4347826087
1113	0.5565	7.64008321775	-5.33428571429	0.384705882353	0.0
1114	0.557	4.82871012483	-2.44285714286	-1.02470588235	0.0
1115	0.5575	16.0742024965	-2.44285714286	1.79411764706	-7.17391304348
1116	0.558	3.42302357836	-2.44285714286	-1.02470588235	14.347826087
1117	0.5585	2.0173370319	-3.88857142857	1.79411764706	-8.60869565217
1118	0.559	-0.794036061026	-2.44285714286	-9.48117647059	-1.4347826087
1119	0.5595	0.611650485437	1.89428571429	17.2976470588	0.0
1120	0.56	0.611650485437	1.89428571429	1.79411764706	-2.86956521739
1121	0.5605	-0.794036061026	16.3514285714	-1.02470588235	0.0
1122	0.561	3.42302357836	-8.22571428571	0.384705882353	-1.4347826087
1123	0.5615	-0.794036061026	13.46	-1.02470588235	-1.4347826087
1124	0.562	23.1026352288	-0.997142857143	1.79411764706	0.0
1125	0.5625	-5.01109570042	-0.997142857143	3.20352941176	-11.4782608696
1126	0.563	3.42302357836	-2.44285714286	-3.84352941176	-8.60869565217
1127	0.5635	0.611650485437	0.448571428571	1.79411764706	15.7826086957
1128	0.564	-0.794036061026	-6.78	-8.07176470588	-1.4347826087
1129	0.5645	3.42302357836	0.448571428571	0.384705882353	-1.4347826087
1130	0.565	3.42302357836	-14.0085714286	-1.02470588235	-2.86956521739
1131	0.5655	-0.794036061026	-12.5628571429	0.384705882353	-1.4347826087
1132	0.566	7.64008321775	-2.44285714286	1.79411764706	0.0
1133	0.5665	-7.82246879334	-3.88857142857	4.61294117647	-2.86956521739
1134	0.567	24.5083217753	0.448571428571	1.79411764706	0.0
1135	0.5675	2.0173370319	-0.997142857143	3.20352941176	-10.0434782609
1136	0.568	0.611650485437	-0.997142857143	-10.8905882353	-4.30434782609
1137	0.5685	2.0173370319	-0.997142857143	18.7070588235	-2.86956521739
1138	0.569	4.82871012483	-0.997142857143	-9.48117647059	-2.86956521739
1139	0.5695	3.42302357836	-11.1171428571	-1.02470588235	0.0
1140	0.57	4.82871012483	17.7971428571	0.384705882353	-1.4347826087
1141	0.5705	-0.794036061026	-6.78	-1.02470588235	-2.86956521739
1142	0.571	23.1026352288	-5.33428571429	-1.02470588235	1.4347826087
1143	0.5715	-0.794036061026	-5.33428571429	0.384705882353	-1.4347826087
1144	0.572	7.64008321775	-2.44285714286	-2.43411764706	11.4782608696
1145	0.5725	10.4514563107	-0.997142857143	3.20352941176	-12.9130434783
1146	0.573	11.8571428571	-2.44285714286	-5.25294117647	-1.4347826087
1147	0.5735	10.4514563107	-3.88857142857	17.2976470588	0.0
1148	0.574	10.4514563107	0.448571428571	-5.25294117647	0.0
1149	0.5745	10.4514563107	-11.1171428571	1.79411764706	-1.4347826087
1150	0.575	10.4514563107	-5.33428571429	1.79411764706	0.0
1151	0.5755	-5.01109570042	-0.997142857143	3.20352941176	-4.30434782609
1152	0.576	27.3196948682	-2.44285714286	1.79411764706	1.4347826087
1153	0.5765	-0.794036061026	0.448571428571	1.79411764706	-2.86956521739
1154	0.577	10.4514563107	-0.997142857143	-8.07176470588	-4.30434782609
1155	0.5775	9.04576976422	-0.997142857143	6.02235294118	1.4347826087
1156	0.578	4.82871012483	-2.44285714286	3.20352941176	-1.4347826087
1157	0.5785	4.82871012483	-8.22571428571	3.20352941176	0.0
1158	0.579	9.04576976422	0.448571428571	-1.02470588235	-1.4347826087
1159	0.5795	4.82871012483	-6.78	0.384705882353	-2.86956521739
1160	0.58	4.82871012483	-0.997142857143	1.79411764706	0.0
1161	0.5805	4.82871012483	-3.88857142857	0.384705882353	-1.4347826087
1162	0.581	4.82871012483	-6.78	-1.02470588235	0.0
1163	0.5815	7.64008321775	-3.88857142857	0.384705882353	-14.347826087
1164	0.582	7.64008321775	-2.44285714286	-2.43411764706	15.7826086957
1165	0.5825	3.42302357836	-2.44285714286	-1.02470588235	-4.30434782609
1166	0.583	4.82871012483	-12.5628571429	0.384705882353	-2.86956521739
1167	0.5835	4.82871012483	10.5685714286	0.384705882353	-2.86956521739
1168	0.584	10.4514563107	-3.88857142857	-1.02470588235	-2.86956521739
1169	0.5845	-3.60540915395	-0.997142857143	-1.02470588235	-2.86956521739
1170	0.585	18.8855755895	0.448571428571	0.384705882353	0.0
1171	0.5855	13.2628294036	-3.88857142857	-1.02470588235	-5.73913043478
1172	0.586	10.4514563107	-2.44285714286	3.20352941176	-8.60869565217
1173	0.5865	11.8571428571	-3.88857142857	-1.02470588235	1.4347826087
1174	0.587	14.6685159501	0.448571428571	17.2976470588	-1.4347826087
1175	0.5875	13.2628294036	-2.44285714286	-8.07176470588	-4.30434782609
1176	0.588	13.2628294036	16.3514285714	0.384705882353	-1.4347826087
1177	0.5885	14.6685159501	-3.88857142857	1.79411764706	-2.86956521739
1178	0.589	14.6685159501	-8.22571428571	1.79411764706	-2.86956521739
1179	0.5895	16.0742024965	-2.44285714286	-1.02470588235	-1.4347826087
1180	0.59	31.5367545076	-2.44285714286	1.79411764706	-1.4347826087
1181	0.5905	2.0173370319	0.448571428571	3.20352941176	-1.4347826087
1182	0.591	16.0742024965	-0.997142857143	-12.3	-2.86956521739
1183	0.5915	18.8855755895	-2.44285714286	3.20352941176	-7.17391304348
1184	0.592	17.479889043	0.448571428571	-6.66235294118	-1.4347826087
1185	0.5925	16.0742024965	1.89428571429	-1.02470588235	-1.4347826087
1186	0.593	16.0742024965	-9.67142857143	-1.02470588235	-2.86956521739
1187	0.5935	11.8571428571	-2.44285714286	1.79411764706	-2.86956521739
1188	0.594	14.6685159501	-11.1171428571	1.79411764706	-2.86956521739
1189	0.5945	4.82871012483	0.448571428571	1.79411764706	-4.30434782609
1190	0.595	17.479889043	-2.44285714286	0.384705882353	-2.86956521739
1191	0.5955	3.42302357836	-0.997142857143	-2.43411764706	7.17391304348
1192	0.596	0.611650485437	-0.997142857143	14.4788235294	-2.86956521739
1193	0.5965	0.611650485437	1.89428571429	-10.8905882353	-4.30434782609
1194	0.597	3.42302357836	-12.5628571429	-1.02470588235	-1.4347826087
1195	0.5975	4.82871012483	14.9057142857	0.384705882353	-5.73913043478
1196	0.598	4.82871012483	-5.33428571429	-2.43411764706	-5.73913043478
1197	0.5985	-2.19972260749	-2.44285714286	-1.02470588235	-4.30434782609
1198	0.599	25.9140083218	-5.33428571429	-2.43411764706	1.4347826087
1199	0.5995	7.64008321775	0.448571428571	4.61294117647	-11.4782608696
1200	0.6	10.4514563107	-5.33428571429	-8.07176470588	0.0
1201	0.6005	14.6685159501	-2.44285714286	15.8882352941	-2.86956521739
1202	0.601	14.6685159501	-5.33428571429	-6.66235294118	-1.4347826087
1203	0.6015	17.479889043	-0.997142857143	0.384705882353	-1.4347826087
1204	0.602	17.479889043	-14.0085714286	-1.02470588235	-1.4347826087
1205	0.6025	17.479889043	-2.44285714286	0.384705882353	0.0
1206	0.603	3.42302357836	-0.997142857143	1.79411764706	-2.86956521739
1207	0.6035	28.7253814147	0.448571428571	1.79411764706	2.86956521739
1208	0.604	3.42302357836	-0.997142857143	3.20352941176	-1.4347826087
1209	0.6045	16.0742024965	-0.997142857143	-2.43411764706	2.86956521739
1210	0.605	14.6685159501	-2.44285714286	-1.02470588235	-4.30434782609
1211	0.6055	13.2628294036	-0.997142857143	-2.43411764706	1.4347826087
1212	0.606	11.8571428571	0.448571428571	1.79411764706	1.4347826087
1213	0.6065	11.8571428571	10.5685714286	0.384705882353	1.4347826087
1214	0.607	7.64008321775	-0.997142857143	0.384705882353	7.17391304348
1215	0.6075	10.4514563107	-2.44285714286	0.384705882353	2.86956521739
1216	0.608	-3.60540915395	-0.997142857143	3.20352941176	-1.4347826087
1217	0.6085	6.23439667129	-0.997142857143	1.79411764706	5.73913043478
1218	0.609	2.0173370319	-0.997142857143	1.79411764706	-1.4347826087
1219	0.6095	7.64008321775	0.448571428571	-3.84352941176	4.30434782609
1220	0.61	4.82871012483	-0.997142857143	14.4788235294	4.30434782609
1221	0.6105	9.04576976422	1.89428571429	-9.48117647059	7.17391304348
1222	0.611	10.4514563107	-11.1171428571	-1.02470588235	5.73913043478
1223	0.6115	14.6685159501	-0.997142857143	-1.02470588235	7.17391304348
1224	0.612	-7.82246879334	-0.997142857143	-1.02470588235	7.17391304348
1225	0.6125	16.0742024965	-0.997142857143	-1.02470588235	7.17391304348
1226	0.613	7.64008321775	0.448571428571	-3.84352941176	4.30434782609
1227	0.6135	0.611650485437	-2.44285714286	-5.25294117647	-1.4347826087
1228	0.614	0.611650485437	-0.997142857143	1.79411764706	15.7826086957
1229	0.6145	0.611650485437	-0.997142857143	-1.02470588235	-4.30434782609
1230	0.615	-5.01109570042	-2.44285714286	0.384705882353	5.73913043478
1231	0.6155	-6.41678224688	-6.78	0.384705882353	5.73913043478
1232	0.616	-7.82246879334	-9.67142857143	0.384705882353	7.17391304348
1233	0.6165	-9.22815533981	0.448571428571	-1.02470588235	5.73913043478
1234	0.617	0.611650485437	-0.997142857143	-3.84352941176	7.17391304348
1235	0.6175	-19.067961165	-0.997142857143	-1.02470588235	-1.4347826087
1236	0.618	-12.0395284327	-2.44285714286	-2.43411764706	22.9565217391
1237	0.6185	-13.4452149792	-0.997142857143	4.61294117647	-2.86956521739
1238	0.619	-12.0395284327	0.448571428571	-10.8905882353	5.73913043478
1239	0.6195	-9.22815533981	-5.33428571429	18.7070588235	7.17391304348
1240	0.62	-10.6338418863	3.34	0.384705882353	7.17391304348
1241	0.6205	-13.4452149792	-11.1171428571	0.384705882353	7.17391304348
1242	0.621	-7.82246879334	0.448571428571	3.20352941176	11.4782608696
1243	0.6215	-24.6907073509	-2.44285714286	0.384705882353	11.4782608696
1244	0.622	7.64008321775	-0.997142857143	3.20352941176	12.9130434783
1245	0.6225	-13.4452149792	-0.997142857143	7.43176470588	0.0
1246	0.623	-14.8509015257	0.448571428571	-8.07176470588	11.4782608696
1247	0.6235	-12.0395284327	-2.44285714286	3.20352941176	1.4347826087
1248	0.624	-12.0395284327	-2.44285714286	-10.8905882353	11.4782608696
1249	0.6245	-13.4452149792	-11.1171428571	1.79411764706	7.17391304348
1250	0.625	-12.0395284327	16.3514285714	-1.02470588235	12.9130434783
1251	0.6255	-14.8509015257	-8.22571428571	1.79411764706	11.4782608696
1252	0.626	-13.4452149792	3.34	1.79411764706	12.9130434783
1253	0.6265	-23.2850208044	-0.997142857143	4.61294117647	1.4347826087
1254	0.627	-16.2565880721	0.448571428571	4.61294117647	15.7826086957
1255	0.6275	-17.6622746186	-0.997142857143	4.61294117647	0.0
1256	0.628	-20.4736477115	-0.997142857143	1.79411764706	27.2608695652
1257	0.6285	-21.879334258	-2.44285714286	4.61294117647	5.73913043478
1258	0.629	-16.2565880721	3.34	3.20352941176	5.73913043478
1259	0.6295	-17.6622746186	-9.67142857143	1.79411764706	7.17391304348
1260	0.63	-16.2565880721	19.2428571429	1.79411764706	5.73913043478
1261	0.6305	-19.067961165	-3.88857142857	0.384705882353	5.73913043478
1262	0.631	-5.01109570042	4.78571428571	1.79411764706	7.17391304348
1263	0.6315	-23.2850208044	0.448571428571	1.79411764706	4.30434782609
1264	0.632	-24.6907073509	3.34	-1.02470588235	12.9130434783
1265	0.6325	-21.879334258	0.448571428571	3.20352941176	-2.86956521739
1266	0.633	-23.2850208044	0.448571428571	-3.84352941176	0.0
1267	0.6335	-21.879334258	-0.997142857143	-1.02470588235	-2.86956521739
1268	0.634	-19.067961165	4.78571428571	-1.02470588235	-4.30434782609
1269	0.6345	-21.879334258	-11.1171428571	-1.02470588235	-5.73913043478
1270	0.635	-17.6622746186	-2.44285714286	3.20352941176	-1.4347826087
1271	0.6355	-30.3134535368	0.448571428571	0.384705882353	-5.73913043478
1272	0.636	-6.41678224688	-2.44285714286	-1.02470588235	-1.4347826087
1273	0.6365	-17.6622746186	-2.44285714286	1.79411764706	-12.9130434783
1274	0.637	-12.0395284327	-0.997142857143	-3.84352941176	-7.17391304348
1275	0.6375	-14.8509015257	0.448571428571	1.79411764706	2.86956521739
1276	0.638	-13.4452149792	3.34	-1.02470588235	-8.60869565217
1277	0.6385	-14.8509015257	-2.44285714286	3.20352941176	-1.4347826087
1278	0.639	-12.0395284327	4.78571428571	1.79411764706	-1.4347826087
1279	0.6395	-12.0395284327	9.12285714286	0.384705882353	-4.30434782609
1280	0.64	-13.4452149792	-3.88857142857	1.79411764706	-4.30434782609
1281	0.6405	-3.60540915395	1.89428571429	0.384705882353	-4.30434782609
1282	0.641	-17.6622746186	-0.997142857143	4.61294117647	-11.4782608696
1283	0.6415	-9.22815533981	-0.997142857143	-2.43411764706	5.73913043478
1284	0.642	-7.82246879334	-2.44285714286	-1.02470588235	-14.347826087
1285	0.6425	-10.6338418863	0.448571428571	-5.25294117647	-8.60869565217
1286	0.643	-7.82246879334	-2.44285714286	-1.02470588235	-7.17391304348
1287	0.6435	-7.82246879334	-9.67142857143	-1.02470588235	-7.17391304348
1288	0.644	-5.01109570042	13.46	-2.43411764706	-8.60869565217
1289	0.6445	-0.794036061026	-11.1171428571	0.384705882353	-8.60869565217
1290	0.645	-10.6338418863	-0.997142857143	0.384705882353	-5.73913043478
1291	0.6455	17.479889043	-0.997142857143	-1.02470588235	-2.86956521739
1292	0.646	3.42302357836	-0.997142857143	0.384705882353	-11.4782608696
1293	0.6465	0.611650485437	-0.997142857143	-2.43411764706	5.73913043478
1294	0.647	4.82871012483	-2.44285714286	1.79411764706	-1.4347826087
1295	0.6475	4.82871012483	-0.997142857143	-6.66235294118	-7.17391304348
1296	0.648	4.82871012483	-9.67142857143	0.384705882353	-1.4347826087
1297	0.6485	10.4514563107	7.67714285714	-1.02470588235	-7.17391304348
1298	0.649	10.4514563107	-6.78	-1.02470588235	-2.86956521739
1299	0.6495	16.0742024965	-3.88857142857	-1.02470588235	-1.4347826087
1300	0.65	21.6969486824	-3.88857142857	0.384705882353	-4.30434782609
1301	0.6505	7.64008321775	-0.997142857143	1.79411764706	5.73913043478
1302	0.651	14.6685159501	-0.997142857143	0.384705882353	-4.30434782609
1303	0.6515	14.6685159501	-2.44285714286	0.384705882353	-12.9130434783
1304	0.652	13.2628294036	-3.88857142857	-5.25294117647	-2.86956521739
1305	0.6525	14.6685159501	-2.44285714286	4.61294117647	-4.30434782609
1306	0.653	14.6685159501	3.34	-2.43411764706	-5.73913043478
1307	0.6535	14.6685159501	-0.997142857143	-5.25294117647	-5.73913043478
1308	0.654	6.23439667129	-0.997142857143	-2.43411764706	-5.73913043478
1309	0.6545	13.2628294036	-3.88857142857	-1.02470588235	-7.17391304348
1310	0.655	4.82871012483	-6.78	-2.43411764706	-7.17391304348
1311	0.6555	4.82871012483	-0.997142857143	-3.84352941176	-2.86956521739
1312	0.656	4.82871012483	0.448571428571	8.84117647059	-2.86956521739
1313	0.6565	3.42302357836	-3.88857142857	-3.84352941176	-4.30434782609
1314	0.657	4.82871012483	-2.44285714286	0.384705882353	-5.73913043478
1315	0.6575	3.42302357836	6.23142857143	0.384705882353	-7.17391304348
1316	0.658	0.611650485437	-11.1171428571	0.384705882353	-4.30434782609
1317	0.6585	-7.82246879334	-5.33428571429	-1.02470588235	-4.30434782609
1318	0.659	-5.01109570042	-0.997142857143	-1.02470588235	-10.0434782609
1319	0.6595	3.42302357836	-2.44285714286	-1.02470588235	8.60869565217
1320	0.66	3.42302357836	-3.88857142857	-1.02470588235	-12.9130434783
1321	0.6605	4.82871012483	-0.997142857143	-5.25294117647	-2.86956521739
1322	0.661	3.42302357836	-0.997142857143	-1.02470588235	-4.30434782609
1323	0.6615	0.611650485437	-8.22571428571	0.384705882353	-7.17391304348
1324	0.662	0.611650485437	9.12285714286	0.384705882353	-2.86956521739
1325	0.6625	0.611650485437	-0.997142857143	0.384705882353	-2.86956521739
1326	0.663	-7.82246879334	-0.997142857143	0.384705882353	-4.30434782609
1327	0.6635	18.8855755895	-2.44285714286	1.79411764706	-1.4347826087
1328	0.664	2.0173370319	-0.997142857143	3.20352941176	-12.9130434783
1329	0.6645	0.611650485437	-2.44285714286	-12.3	-4.30434782609
1330	0.665	-0.794036061026	-0.997142857143	15.8882352941	-2.86956521739
1331	0.6655	0.611650485437	-2.44285714286	-9.48117647059	-4.30434782609
1332	0.666	0.611650485437	0.448571428571	-1.02470588235	-2.86956521739
1333	0.6665	-3.60540915395	-8.22571428571	0.384705882353	-4.30434782609
1334	0.667	6.23439667129	-5.33428571429	-1.02470588235	-5.73913043478
1335	0.6675	-6.41678224688	-3.88857142857	-2.43411764706	-4.30434782609
1336	0.668	7.64008321775	-2.44285714286	1.79411764706	-1.4347826087
1337	0.6685	0.611650485437	-2.44285714286	0.384705882353	5.73913043478
1338	0.669	0.611650485437	-0.997142857143	-2.43411764706	-4.30434782609
1339	0.6695	0.611650485437	0.448571428571	13.0694117647	-5.73913043478
1340	0.67	3.42302357836	-0.997142857143	-10.8905882353	-2.86956521739
1341	0.6705	0.611650485437	-15.4542857143	-1.02470588235	-4.30434782609
1342	0.671	3.42302357836	13.46	-3.84352941176	-1.4347826087
1343	0.6715	-2.19972260749	-9.67142857143	-1.02470588235	-1.4347826087
1344	0.672	3.42302357836	-5.33428571429	1.79411764706	-4.30434782609
1345	0.6725	-5.01109570042	-2.44285714286	4.61294117647	-11.4782608696
1346	0.673	-5.01109570042	-2.44285714286	0.384705882353	4.30434782609
1347	0.6735	-0.794036061026	-2.44285714286	3.20352941176	-2.86956521739
1348	0.674	-5.01109570042	-2.44285714286	0.384705882353	-7.17391304348
1349	0.6745	-3.60540915395	-2.44285714286	7.43176470588	-1.4347826087
1350	0.675	-3.60540915395	-0.997142857143	3.20352941176	-1.4347826087
1351	0.6755	-5.01109570042	-8.22571428571	0.384705882353	-2.86956521739
1352	0.676	-0.794036061026	-6.78	0.384705882353	-2.86956521739
1353	0.6765	-12.0395284327	-0.997142857143	-1.02470588235	-1.4347826087
1354	0.677	2.0173370319	-3.88857142857	-1.02470588235	1.4347826087
1355	0.6775	4.82871012483	-0.997142857143	0.384705882353	-4.30434782609
1356	0.678	0.611650485437	-2.44285714286	-1.02470588235	-8.60869565217
1357	0.6785	2.0173370319	-2.44285714286	-1.02470588235	14.347826087
1358	0.679	3.42302357836	-0.997142857143	-1.02470588235	-12.9130434783
1359	0.6795	4.82871012483	-0.997142857143	0.384705882353	-1.4347826087
1360	0.68	3.42302357836	-11.1171428571	-1.02470588235	-2.86956521739
1361	0.6805	3.42302357836	16.3514285714	1.79411764706	-1.4347826087
1362	0.681	-0.794036061026	-3.88857142857	-1.02470588235	-1.4347826087
1363	0.6815	21.6969486824	-3.88857142857	3.20352941176	-1.4347826087
1364	0.682	-5.01109570042	-2.44285714286	0.384705882353	-4.30434782609
1365	0.6825	0.611650485437	-0.997142857143	1.79411764706	0.0
1366	0.683	0.611650485437	-2.44285714286	18.7070588235	-2.86956521739
1367	0.6835	-0.794036061026	-2.44285714286	-10.8905882353	-4.30434782609
1368	0.684	2.0173370319	-5.33428571429	17.2976470588	-2.86956521739
1369	0.6845	3.42302357836	14.9057142857	0.384705882353	-5.73913043478
1370	0.685	0.611650485437	-8.22571428571	-1.02470588235	-4.30434782609
1371	0.6855	11.8571428571	-3.88857142857	-1.02470588235	-1.4347826087
1372	0.686	-5.01109570042	-3.88857142857	-1.02470588235	-2.86956521739
1373	0.6865	3.42302357836	-2.44285714286	-1.02470588235	11.4782608696
1374	0.687	4.82871012483	-2.44285714286	4.61294117647	-2.86956521739
1375	0.6875	3.42302357836	-2.44285714286	-8.07176470588	-2.86956521739
1376	0.688	4.82871012483	-0.997142857143	0.384705882353	-1.4347826087
1377	0.6885	2.0173370319	-0.997142857143	-2.43411764706	-1.4347826087
1378	0.689	0.611650485437	0.448571428571	8.84117647059	-1.4347826087
1379	0.6895	-0.794036061026	-0.997142857143	-1.02470588235	-1.4347826087
1380	0.69	3.42302357836	-2.44285714286	-1.02470588235	-1.4347826087
1381	0.6905	-9.22815533981	-2.44285714286	-1.02470588235	-1.4347826087
1382	0.691	-5.01109570042	1.89428571429	-1.02470588235	12.9130434783
1383	0.6915	-3.60540915395	0.448571428571	-1.02470588235	-10.0434782609
1384	0.692	-5.01109570042	-2.44285714286	-1.02470588235	7.17391304348
1385	0.6925	-2.19972260749	-3.88857142857	13.0694117647	-1.4347826087
1386	0.693	-0.794036061026	0.448571428571	-3.84352941176	-1.4347826087
1387	0.6935	0.611650485437	-14.0085714286	-2.43411764706	-2.86956521739
1388	0.694	2.0173370319	7.67714285714	-1.02470588235	0.0
1389	0.6945	-9.22815533981	0.448571428571	-1.02470588235	-2.86956521739
1390	0.695	4.82871012483	-2.44285714286	0.384705882353	-2.86956521739
1391	0.6955	3.42302357836	-0.997142857143	0.384705882353	-1.4347826087
1392	0.696	-9.22815533981	0.448571428571	0.384705882353	-10.0434782609
1393	0.6965	-5.01109570042	-0.997142857143	-2.43411764706	15.7826086957
1394	0.697	-3.60540915395	-2.44285714286	14.4788235294	-1.4347826087
1395	0.6975	-0.794036061026	-2.44285714286	-9.48117647059	0.0
1396	0.698	0.611650485437	0.448571428571	15.8882352941	-4.30434782609
1397	0.6985	0.611650485437	6.23142857143	-1.02470588235	-1.4347826087
1398	0.699	-3.60540915395	-9.67142857143	-1.02470588235	-1.4347826087
1399	0.6995	11.8571428571	-2.44285714286	0.384705882353	-1.4347826087
1400	0.7	-12.0395284327	0.448571428571	-1.02470588235	-4.30434782609
1401	0.7005	-5.01109570042	-2.44285714286	0.384705882353	-2.86956521739
1402	0.701	-7.82246879334	-0.997142857143	0.384705882353	-12.9130434783
1403	0.7015	-7.82246879334	-0.997142857143	-12.3	-4.30434782609
1404	0.702	-6.41678224688	-5.33428571429	17.2976470588	-4.30434782609
1405	0.7025	-6.41678224688	1.89428571429	-3.84352941176	-2.86956521739
1406	0.703	-7.82246879334	-6.78	0.384705882353	-2.86956521739
1407	0.7035	-5.01109570042	-5.33428571429	3.20352941176	-1.4347826087
1408	0.704	-19.067961165	0.448571428571	1.79411764706	-2.86956521739
1409	0.7045	10.4514563107	-2.44285714286	1.79411764706	-1.4347826087
1410	0.705	-7.82246879334	-2.44285714286	3.20352941176	-5.73913043478
1411	0.7055	-2.19972260749	0.448571428571	-1.02470588235	8.60869565217
1412	0.706	-5.01109570042	-2.44285714286	4.61294117647	-2.86956521739
1413	0.7065	-2.19972260749	0.448571428571	0.384705882353	-1.4347826087
1414	0.707	-2.19972260749	10.5685714286	3.20352941176	-2.86956521739
1415	0.7075	-0.794036061026	-0.997142857143	0.384705882353	-1.4347826087
1416	0.708	0.611650485437	-3.88857142857	4.61294117647	-1.4347826087
1417	0.7085	-2.19972260749	-0.997142857143	4.61294117647	-1.4347826087
1418	0.709	9.04576976422	-0.997142857143	1.79411764706	-4.30434782609
1419	0.7095	-6.41678224688	-0.997142857143	0.384705882353	-7.17391304348
1420	0.71	-3.60540915395	-2.44285714286	-1.02470588235	-2.86956521739
1421	0.7105	-2.19972260749	0.448571428571	8.84117647059	-1.4347826087
1422	0.711	-3.60540915395	-3.88857142857	-8.07176470588	-1.4347826087
1423	0.7115	-3.60540915395	-0.997142857143	0.384705882353	-2.86956521739
1424	0.712	-3.60540915395	-8.22571428571	1.79411764706	-1.4347826087
1425	0.7125	-5.01109570042	-0.997142857143	0.384705882353	-2.86956521739
1426	0.713	-12.0395284327	-0.997142857143	-2.43411764706	-2.86956521739
1427	0.7135	16.0742024965	-2.44285714286	0.384705882353	2.86956521739
1428	0.714	-6.41678224688	-0.997142857143	0.384705882353	-11.4782608696
1429	0.7145	0.611650485437	-2.44285714286	-10.8905882353	-2.86956521739
1430	0.715	2.0173370319	0.448571428571	14.4788235294	-2.86956521739
1431	0.7155	7.64008321775	-3.88857142857	-2.43411764706	-2.86956521739
1432	0.716	3.42302357836	0.448571428571	-3.84352941176	-4.30434782609
1433	0.7165	0.611650485437	-8.22571428571	1.79411764706	-2.86956521739
1434	0.717	7.64008321775	-6.78	0.384705882353	-2.86956521739
1435	0.7175	-7.82246879334	-2.44285714286	0.384705882353	-1.4347826087
1436	0.718	16.0742024965	-2.44285714286	0.384705882353	-1.4347826087
1437	0.7185	3.42302357836	-0.997142857143	0.384705882353	-10.0434782609
1438	0.719	3.42302357836	-3.88857142857	-8.07176470588	-1.4347826087
1439	0.7195	10.4514563107	-2.44285714286	1.79411764706	0.0
1440	0.72	4.82871012483	0.448571428571	-8.07176470588	-4.30434782609
1441	0.7205	10.4514563107	-2.44285714286	-2.43411764706	-2.86956521739
1442	0.721	14.6685159501	13.46	-2.43411764706	-2.86956521739
1443	0.7215	7.64008321775	-5.33428571429	0.384705882353	-1.4347826087
1444	0.722	11.8571428571	-2.44285714286	-1.02470588235	-2.86956521739
1445	0.7225	-2.19972260749	-2.44285714286	-1.02470588235	-1.4347826087
1446	0.723	10.4514563107	-3.88857142857	-1.02470588235	14.347826087
1447	0.7235	9.04576976422	-0.997142857143	0.384705882353	-10.0434782609
1448	0.724	10.4514563107	0.448571428571	-2.43411764706	18.652173913
1449	0.7245	7.64008321775	-2.44285714286	0.384705882353	-2.86956521739
1450	0.725	4.82871012483	-0.997142857143	-9.48117647059	1.4347826087
1451	0.7255	4.82871012483	13.46	0.384705882353	0.0
1452	0.726	2.0173370319	-9.67142857143	-2.43411764706	-1.4347826087
1453	0.7265	-7.82246879334	-2.44285714286	-1.02470588235	-1.4347826087
1454	0.727	14.6685159501	-2.44285714286	-1.02470588235	-1.4347826087
1455	0.7275	-9.22815533981	-3.88857142857	3.20352941176	8.60869565217
1456	0.728	-5.01109570042	-2.44285714286	-1.02470588235	-8.60869565217
1457	0.7285	-9.22815533981	-0.997142857143	0.384705882353	-1.4347826087
1458	0.729	-9.22815533981	-3.88857142857	11.66	-1.4347826087
1459	0.7295	-9.22815533981	-3.88857142857	-6.66235294118	-1.4347826087
1460	0.73	-6.41678224688	-8.22571428571	1.79411764706	0.0
1461	0.7305	-12.0395284327	-2.44285714286	0.384705882353	0.0
1462	0.731	-6.41678224688	0.448571428571	1.79411764706	-1.4347826087
1463	0.7315	14.6685159501	-0.997142857143	-1.02470588235	-1.4347826087
1464	0.732	-7.82246879334	-2.44285714286	-1.02470588235	-2.86956521739
1465	0.7325	0.611650485437	-5.33428571429	-6.66235294118	-2.86956521739
1466	0.733	0.611650485437	0.448571428571	3.20352941176	-11.4782608696
1467	0.7335	0.611650485437	-3.88857142857	-8.07176470588	-5.73913043478
1468	0.734	-3.60540915395	0.448571428571	1.79411764706	-2.86956521739
1469	0.7345	0.611650485437	-11.1171428571	0.384705882353	-1.4347826087
1470	0.735	-0.794036061026	-0.997142857143	0.384705882353	1.4347826087
1471	0.7355	-16.2565880721	-0.997142857143	-2.43411764706	-5.73913043478
1472	0.736	16.0742024965	-0.997142857143	-1.02470588235	0.0
1473	0.7365	-2.19972260749	0.448571428571	-1.02470588235	-7.17391304348
1474	0.737	-3.60540915395	-3.88857142857	-1.02470588235	-2.86956521739
1475	0.7375	-3.60540915395	-2.44285714286	0.384705882353	7.17391304348
1476	0.738	-3.60540915395	-0.997142857143	-5.25294117647	-11.4782608696
1477	0.7385	-2.19972260749	-8.22571428571	-1.02470588235	-1.4347826087
1478	0.739	3.42302357836	1.89428571429	0.384705882353	-1.4347826087
1479	0.7395	2.0173370319	-6.78	4.61294117647	-1.4347826087
1480	0.74	0.611650485437	0.448571428571	3.20352941176	-4.30434782609
1481	0.7405	16.0742024965	-2.44285714286	0.384705882353	-1.4347826087
1482	0.741	-6.41678224688	-0.997142857143	-1.02470588235	-4.30434782609
1483	0.7415	0.611650485437	-0.997142857143	-8.07176470588	-1.4347826087
1484	0.742	-5.01109570042	-0.997142857143	0.384705882353	-7.17391304348
1485	0.7425	-5.01109570042	-0.997142857143	-9.48117647059	0.0
1486	0.743	-2.19972260749	-2.44285714286	18.7070588235	-2.86956521739
1487	0.7435	-3.60540915395	16.3514285714	1.79411764706	-2.86956521739
1488	0.744	-5.01109570042	-11.1171428571	-2.43411764706	-1.4347826087
1489	0.7445	-3.60540915395	-0.997142857143	-1.02470588235	-1.4347826087
1490	0.745	-16.2565880721	-0.997142857143	0.384705882353	-12.9130434783
1491	0.7455	-12.0395284327	-2.44285714286	-1.02470588235	-1.4347826087
1492	0.746	-9.22815533981	-2.44285714286	0.384705882353	-12.9130434783
1493	0.7465	-10.6338418863	-2.44285714286	0.384705882353	8.60869565217
1494	0.747	-7.82246879334	-3.88857142857	-1.02470588235	-4.30434782609
1495	0.7475	-7.82246879334	1.89428571429	-3.84352941176	-1.4347826087
1496	0.748	-10.6338418863	-11.1171428571	-1.02470588235	-1.4347826087
1497	0.7485	-5.01109570042	-5.33428571429	-1.02470588235	-1.4347826087
1498	0.749	-16.2565880721	0.448571428571	0.384705882353	-2.86956521739
1499	0.7495	11.8571428571	-2.44285714286	-1.02470588235	0.0
1500	0.75	-5.01109570042	-3.88857142857	0.384705882353	-12.9130434783
1501	0.7505	-2.19972260749	0.448571428571	-5.25294117647	4.30434782609
1502	0.751	-2.19972260749	-0.997142857143	3.20352941176	-1.4347826087
1503	0.7515	-2.19972260749	0.448571428571	-9.48117647059	-2.86956521739
1504	0.752	-3.60540915395	-15.4542857143	3.20352941176	-5.73913043478
1505	0.7525	-2.19972260749	17.7971428571	0.384705882353	-2.86956521739
1506	0.753	-6.41678224688	-0.997142857143	-1.02470588235	-4.30434782609
1507	0.7535	-2.19972260749	-2.44285714286	0.384705882353	-2.86956521739
1508	0.754	-14.8509015257	-2.44285714286	0.384705882353	-1.4347826087
1509	0.7545	-5.01109570042	-0.997142857143	0.384705882353	2.86956521739
1510	0.755	-6.41678224688	0.448571428571	0.384705882353	-14.347826087
1511	0.7555	-6.41678224688	-2.44285714286	-8.07176470588	-2.86956521739
1512	0.756	-3.60540915395	0.448571428571	0.384705882353	-2.86956521739
1513	0.7565	-3.60540915395	-14.0085714286	-2.43411764706	-2.86956521739
1514	0.757	-3.60540915395	16.3514285714	0.384705882353	0.0
1515	0.7575	-0.794036061026	-3.88857142857	0.384705882353	-2.86956521739
1516	0.758	-16.2565880721	-3.88857142857	1.79411764706	-1.4347826087
1517	0.7585	13.2628294036	-2.44285714286	0.384705882353	0.0
1518	0.759	-5.01109570042	-2.44285714286	3.20352941176	-1.4347826087
1519	0.7595	-5.01109570042	-0.997142857143	-9.48117647059	-2.86956521739
1520	0.76	-2.19972260749	-2.44285714286	1.79411764706	0.0
1521	0.7605	-3.60540915395	1.89428571429	6.02235294118	0.0
1522	0.761	-5.01109570042	-6.78	-5.25294117647	-2.86956521739
1523	0.7615	-3.60540915395	-6.78	-1.02470588235	-1.4347826087
1524	0.762	-6.41678224688	-3.88857142857	0.384705882353	-4.30434782609
1525	0.7625	-13.4452149792	-2.44285714286	0.384705882353	-7.17391304348
1526	0.763	13.2628294036	-2.44285714286	0.384705882353	-12.9130434783
1527	0.7635	-7.82246879334	-3.88857142857	-2.43411764706	15.7826086957
1528	0.764	-10.6338418863	-0.997142857143	4.61294117647	-7.17391304348
1529	0.7645	-6.41678224688	-0.997142857143	-12.3	-1.4347826087
1530	0.765	-7.82246879334	-2.44285714286	-1.02470588235	-1.4347826087
1531	0.7655	-6.41678224688	-12.5628571429	-1.02470588235	-1.4347826087
1532	0.766	-9.22815533981	14.9057142857	-2.43411764706	-4.30434782609
1533	0.7665	-3.60540915395	-3.88857142857	0.384705882353	-2.86956521739
1534	0.767	-16.2565880721	-2.44285714286	0.384705882353	-2.86956521739
1535	0.7675	10.4514563107	-3.88857142857	0.384705882353	0.0
1536	0.768	-6.41678224688	-2.44285714286	0.384705882353	8.60869565217
1537	0.7685	-5.01109570042	-2.44285714286	-2.43411764706	-8.60869565217
1538	0.769	-6.41678224688	0.448571428571	-3.84352941176	0.0
1539	0.7695	-5.01109570042	-0.997142857143	-6.66235294118	-1.4347826087
1540	0.77	-5.01109570042	-2.44285714286	14.4788235294	-2.86956521739
1541	0.7705	-3.60540915395	13.46	-1.02470588235	-1.4347826087
1542	0.771	-5.01109570042	-8.22571428571	0.384705882353	1.4347826087
1543	0.7715	-0.794036061026	-2.44285714286	0.384705882353	-1.4347826087
1544	0.772	17.479889043	-3.88857142857	-1.02470588235	-1.4347826087
1545	0.7725	-6.41678224688	-0.997142857143	1.79411764706	15.7826086957
1546	0.773	0.611650485437	-2.44285714286	6.02235294118	-4.30434782609
1547	0.7735	2.0173370319	-2.44285714286	-1.02470588235	5.73913043478
1548	0.774	-2.19972260749	0.448571428571	-1.02470588235	0.0
1549	0.7745	0.611650485437	-9.67142857143	1.79411764706	0.0
1550	0.775	-2.19972260749	-2.44285714286	0.384705882353	0.0
1551	0.7755	-3.60540915395	-11.1171428571	1.79411764706	0.0
1552	0.776	3.42302357836	-5.33428571429	1.79411764706	-1.4347826087
1553	0.7765	-10.6338418863	0.448571428571	4.61294117647	-1.4347826087
1554	0.777	-2.19972260749	0.448571428571	0.384705882353	-1.4347826087
1555	0.7775	-2.19972260749	0.448571428571	1.79411764706	-8.60869565217
1556	0.778	-5.01109570042	0.448571428571	0.384705882353	2.86956521739
1557	0.7785	-0.794036061026	-5.33428571429	-3.84352941176	-2.86956521739
1558	0.779	-2.19972260749	-11.1171428571	-1.02470588235	-4.30434782609
1559	0.7795	2.0173370319	0.448571428571	-2.43411764706	-1.4347826087
1560	0.78	3.42302357836	4.78571428571	-2.43411764706	-1.4347826087
1561	0.7805	-3.60540915395	-0.997142857143	-1.02470588235	-1.4347826087
1562	0.781	3.42302357836	-5.33428571429	-1.02470588235	-1.4347826087
1563	0.7815	18.8855755895	-0.997142857143	1.79411764706	-1.4347826087
1564	0.782	3.42302357836	-2.44285714286	3.20352941176	-10.0434782609
1565	0.7825	0.611650485437	-2.44285714286	-8.07176470588	-2.86956521739
1566	0.783	3.42302357836	-2.44285714286	17.2976470588	-1.4347826087
1567	0.7835	2.0173370319	-2.44285714286	-9.48117647059	1.4347826087
1568	0.784	7.64008321775	14.9057142857	-3.84352941176	0.0
1569	0.7845	9.04576976422	-0.997142857143	-2.43411764706	-1.4347826087
1570	0.785	0.611650485437	-0.997142857143	-1.02470588235	-2.86956521739
1571	0.7855	18.8855755895	-0.997142857143	1.79411764706	-2.86956521739
1572	0.786	16.0742024965	0.448571428571	3.20352941176	-1.4347826087
1573	0.7865	3.42302357836	-0.997142857143	0.384705882353	-8.60869565217
1574	0.787	2.0173370319	-2.44285714286	-3.84352941176	15.7826086957
1575	0.7875	-0.794036061026	-0.997142857143	4.61294117647	-5.73913043478
1576	0.788	-2.19972260749	1.89428571429	1.79411764706	-1.4347826087
1577	0.7885	-3.60540915395	-14.0085714286	-1.02470588235	-1.4347826087
1578	0.789	-3.60540915395	7.67714285714	0.384705882353	-1.4347826087
1579	0.7895	-6.41678224688	0.448571428571	0.384705882353	-2.86956521739
1580	0.79	0.611650485437	0.448571428571	0.384705882353	1.4347826087
1581	0.7905	-2.19972260749	-0.997142857143	1.79411764706	-1.4347826087
1582	0.791	-12.0395284327	-2.44285714286	0.384705882353	-1.4347826087
1583	0.7915	-10.6338418863	-0.997142857143	1.79411764706	5.73913043478
1584	0.792	-9.22815533981	-0.997142857143	6.02235294118	-1.4347826087
1585	0.7925	-6.41678224688	0.448571428571	-3.84352941176	-1.4347826087
1586	0.793	-5.01109570042	-8.22571428571	-1.02470588235	0.0
1587	0.7935	-5.01109570042	-2.44285714286	-5.25294117647	0.0
1588	0.794	-3.60540915395	-2.44285714286	0.384705882353	-1.4347826087
1589	0.7945	-9.22815533981	-8.22571428571	1.79411764706	-2.86956521739
1590	0.795	-2.19972260749	-2.44285714286	0.384705882353	-2.86956521739
1591	0.7955	-5.01109570042	-0.997142857143	-1.02470588235	0.0
1592	0.796	-7.82246879334	0.448571428571	1.79411764706	-12.9130434783
1593	0.7965	-6.41678224688	-0.997142857143	-2.43411764706	15.7826086957
1594	0.797	-5.01109570042	0.448571428571	1.79411764706	-2.86956521739
1595	0.7975	-5.01109570042	-3.88857142857	-8.07176470588	-4.30434782609
1596	0.798	-2.19972260749	-9.67142857143	0.384705882353	-1.4347826087
1597	0.7985	-0.794036061026	14.9057142857	0.384705882353	-2.86956521739
1598	0.799	-7.82246879334	-0.997142857143	0.384705882353	-2.86956521739
1599	0.7995	9.04576976422	-2.44285714286	-1.02470588235	-2.86956521739
1600	0.8	-6.41678224688	-0.997142857143	3.20352941176	-5.73913043478
1601	0.8005	0.611650485437	-0.997142857143	0.384705882353	-1.4347826087
1602	0.801	2.0173370319	0.448571428571	13.0694117647	-1.4347826087
1603	0.8015	0.611650485437	-2.44285714286	-9.48117647059	-1.4347826087
1604	0.802	3.42302357836	-3.88857142857	20.1164705882	-5.73913043478
1605	0.8025	7.64008321775	17.7971428571	0.384705882353	-1.4347826087
1606	0.803	2.0173370319	-0.997142857143	1.79411764706	-4.30434782609
1607	0.8035	7.64008321775	-2.44285714286	0.384705882353	-1.4347826087
1608	0.804	-10.6338418863	-0.997142857143	1.79411764706	0.0
1609	0.8045	24.5083217753	-3.88857142857	1.79411764706	-2.86956521739
1610	0.805	9.04576976422	-3.88857142857	3.20352941176	-11.4782608696
1611	0.8055	9.04576976422	-3.88857142857	-1.02470588235	8.60869565217
1612	0.806	10.4514563107	-5.33428571429	-1.02470588235	-1.4347826087
1613	0.8065	9.04576976422	0.448571428571	-2.43411764706	-1.4347826087
1614	0.807	7.64008321775	-14.0085714286	-2.43411764706	0.0
1615	0.8075	9.04576976422	13.46	0.384705882353	0.0
1616	0.808	-5.01109570042	-0.997142857143	-1.02470588235	0.0
1617	0.8085	14.6685159501	-2.44285714286	0.384705882353	-1.4347826087
1618	0.809	11.8571428571	-2.44285714286	-1.02470588235	-5.73913043478
1619	0.8095	4.82871012483	-5.33428571429	-3.84352941176	-4.30434782609
1620	0.81	4.82871012483	-2.44285714286	-1.02470588235	-2.86956521739
1621	0.8105	7.64008321775	-2.44285714286	8.84117647059	-1.4347826087
1622	0.811	9.04576976422	-0.997142857143	-3.84352941176	-1.4347826087
1623	0.8115	10.4514563107	3.34	0.384705882353	0.0
1624	0.812	7.64008321775	-8.22571428571	0.384705882353	2.86956521739
1625	0.8125	3.42302357836	-0.997142857143	0.384705882353	0.0
1626	0.813	13.2628294036	-0.997142857143	0.384705882353	1.4347826087
1627	0.8135	-10.6338418863	-2.44285714286	3.20352941176	-4.30434782609
1628	0.814	-2.19972260749	-2.44285714286	-1.02470588235	14.347826087
1629	0.8145	-6.41678224688	-2.44285714286	1.79411764706	-5.73913043478
1630	0.815	-5.01109570042	-0.997142857143	-2.43411764706	0.0
1631	0.8155	-5.01109570042	0.448571428571	-3.84352941176	-2.86956521739
1632	0.816	-0.794036061026	-9.67142857143	3.20352941176	0.0
1633	0.8165	-2.19972260749	1.89428571429	-1.02470588235	-1.4347826087
1634	0.817	2.0173370319	-2.44285714286	-1.02470588235	-1.4347826087
1635	0.8175	-0.794036061026	-2.44285714286	0.384705882353	-1.4347826087
1636	0.818	-6.41678224688	-2.44285714286	-1.02470588235	-4.30434782609
1637	0.8185	7.64008321775	-2.44285714286	0.384705882353	-1.4347826087
1638	0.819	4.82871012483	-3.88857142857	3.20352941176	-10.0434782609
1639	0.8195	7.64008321775	-3.88857142857	-8.07176470588	-1.4347826087
1640	0.82	7.64008321775	-3.88857142857	0.384705882353	-4.30434782609
1641	0.8205	10.4514563107	-3.88857142857	-6.66235294118	-2.86956521739
1642	0.821	11.8571428571	3.34	3.20352941176	-2.86956521739
1643	0.8215	10.4514563107	-6.78	-1.02470588235	-2.86956521739
1644	0.822	14.6685159501	-2.44285714286	0.384705882353	0.0
1645	0.8225	17.479889043	-0.997142857143	1.79411764706	0.0
1646	0.823	3.42302357836	-2.44285714286	3.20352941176	-2.86956521739
1647	0.8235	10.4514563107	-0.997142857143	0.384705882353	11.4782608696
1648	0.824	10.4514563107	-0.997142857143	11.66	-2.86956521739
1649	0.8245	11.8571428571	-3.88857142857	-5.25294117647	0.0
1650	0.825	11.8571428571	-0.997142857143	17.2976470588	0.0
1651	0.8255	10.4514563107	-2.44285714286	-9.48117647059	-2.86956521739
1652	0.826	7.64008321775	-11.1171428571	-1.02470588235	-1.4347826087
1653	0.8265	11.8571428571	-0.997142857143	1.79411764706	-1.4347826087
1654	0.827	-5.01109570042	-2.44285714286	1.79411764706	-2.86956521739
1655	0.8275	23.1026352288	-2.44285714286	1.79411764706	0.0
1656	0.828	4.82871012483	-0.997142857143	1.79411764706	0.0
1657	0.8285	4.82871012483	-0.997142857143	-8.07176470588	-4.30434782609
1658	0.829	3.42302357836	-0.997142857143	1.79411764706	-4.30434782609
1659	0.8295	3.42302357836	1.89428571429	1.79411764706	-4.30434782609
1660	0.83	3.42302357836	-5.33428571429	0.384705882353	-2.86956521739
1661	0.8305	4.82871012483	10.5685714286	3.20352941176	-2.86956521739
1662	0.831	4.82871012483	-8.22571428571	0.384705882353	0.0
1663	0.8315	2.0173370319	16.3514285714	0.384705882353	-1.4347826087
1664	0.832	16.0742024965	-3.88857142857	0.384705882353	-2.86956521739
1665	0.8325	-5.01109570042	-3.88857142857	0.384705882353	-10.0434782609
1666	0.833	2.0173370319	-0.997142857143	1.79411764706	-12.9130434783
1667	0.8335	2.0173370319	-2.44285714286	3.20352941176	-1.4347826087
1668	0.834	-0.794036061026	0.448571428571	-9.48117647059	-1.4347826087
1669	0.8345	2.0173370319	-3.88857142857	0.384705882353	-4.30434782609
1670	0.835	2.0173370319	-12.5628571429	0.384705882353	-2.86956521739
1671	0.8355	-0.794036061026	-9.67142857143	0.384705882353	-1.4347826087
1672	0.836	9.04576976422	-2.44285714286	0.384705882353	-1.4347826087
1673	0.8365	-6.41678224688	-0.997142857143	-1.02470588235	1.4347826087
1674	0.837	24.5083217753	-0.997142857143	1.79411764706	-1.4347826087
1675	0.8375	-0.794036061026	-0.997142857143	4.61294117647	-11.4782608696
1676	0.838	2.0173370319	-2.44285714286	-1.02470588235	11.4782608696
1677	0.8385	0.611650485437	-2.44285714286	1.79411764706	-2.86956521739
1678	0.839	7.64008321775	1.89428571429	0.384705882353	-1.4347826087
1679	0.8395	6.23439667129	-12.5628571429	0.384705882353	-1.4347826087
1680	0.84	7.64008321775	-2.44285714286	0.384705882353	-2.86956521739
1681	0.8405	2.0173370319	-2.44285714286	3.20352941176	-1.4347826087
1682	0.841	2.0173370319	6.23142857143	1.79411764706	-1.4347826087
1683	0.8415	7.64008321775	0.448571428571	3.20352941176	0.0
1684	0.842	-6.41678224688	-2.44285714286	-1.02470588235	0.0
1685	0.8425	2.0173370319	-0.997142857143	-5.25294117647	-1.4347826087
1686	0.843	-0.794036061026	-2.44285714286	3.20352941176	-10.0434782609
1687	0.8435	2.0173370319	1.89428571429	-8.07176470588	-1.4347826087
1688	0.844	2.0173370319	-0.997142857143	-1.02470588235	-1.4347826087
1689	0.8445	7.64008321775	17.7971428571	1.79411764706	-2.86956521739
1690	0.845	7.64008321775	0.448571428571	-1.02470588235	-1.4347826087
1691	0.8455	11.8571428571	-3.88857142857	1.79411764706	0.0
1692	0.846	0.611650485437	-0.997142857143	0.384705882353	-1.4347826087
1693	0.8465	10.4514563107	-0.997142857143	-1.02470588235	-1.4347826087
1694	0.847	10.4514563107	-2.44285714286	3.20352941176	-11.4782608696
1695	0.8475	11.8571428571	-0.997142857143	0.384705882353	11.4782608696
1696	0.848	10.4514563107	-3.88857142857	0.384705882353	-1.4347826087
1697	0.8485	10.4514563107	-3.88857142857	-8.07176470588	-1.4347826087
1698	0.849	13.2628294036	-8.22571428571	1.79411764706	-2.86956521739
1699	0.8495	16.0742024965	-9.67142857143	0.384705882353	-2.86956521739
1700	0.85	10.4514563107	-0.997142857143	1.79411764706	-1.4347826087
1701	0.8505	32.9424410541	-2.44285714286	-1.02470588235	-1.4347826087
1702	0.851	7.64008321775	-2.44285714286	3.20352941176	-12.9130434783
1703	0.8515	17.479889043	-2.44285714286	-1.02470588235	14.347826087
1704	0.852	16.0742024965	-3.88857142857	18.7070588235	-2.86956521739
1705	0.8525	16.0742024965	-6.78	-6.66235294118	-1.4347826087
1706	0.853	11.8571428571	-2.44285714286	18.7070588235	-4.30434782609
1707	0.8535	13.2628294036	14.9057142857	-1.02470588235	-4.30434782609
1708	0.854	7.64008321775	-0.997142857143	0.384705882353	0.0
1709	0.8545	13.2628294036	-2.44285714286	3.20352941176	1.4347826087
1710	0.855	-2.19972260749	-3.88857142857	1.79411764706	-1.4347826087
1711	0.8555	4.82871012483	-0.997142857143	1.79411764706	1.4347826087
1712	0.856	10.4514563107	-0.997142857143	-1.02470588235	-12.9130434783
1713	0.8565	11.8571428571	-0.997142857143	-1.02470588235	7.17391304348
1714	0.857	10.4514563107	-3.88857142857	1.79411764706	-2.86956521739
1715	0.8575	10.4514563107	-12.5628571429	1.79411764706	0.0
1716	0.858	7.64008321775	-12.5628571429	-1.02470588235	1.4347826087
1717	0.8585	10.4514563107	-5.33428571429	1.79411764706	-1.4347826087
1718	0.859	-3.60540915395	-0.997142857143	0.384705882353	-2.86956521739
1719	0.8595	27.3196948682	-2.44285714286	0.384705882353	2.86956521739
1720	0.86	3.42302357836	-2.44285714286	3.20352941176	-8.60869565217
1721	0.8605	9.04576976422	-2.44285714286	0.384705882353	8.60869565217
1722	0.861	7.64008321775	-0.997142857143	0.384705882353	-2.86956521739
1723	0.8615	9.04576976422	-0.997142857143	-6.66235294118	-7.17391304348
1724	0.862	3.42302357836	-9.67142857143	0.384705882353	-1.4347826087
1725	0.8625	4.82871012483	4.78571428571	-1.02470588235	-1.4347826087
1726	0.863	2.0173370319	0.448571428571	-1.02470588235	-1.4347826087
1727	0.8635	14.6685159501	-2.44285714286	-1.02470588235	1.4347826087
1728	0.864	-3.60540915395	-0.997142857143	-1.02470588235	-1.4347826087
1729	0.8645	-0.794036061026	0.448571428571	-1.02470588235	2.86956521739
1730	0.865	0.611650485437	-3.88857142857	1.79411764706	-8.60869565217
1731	0.8655	2.0173370319	0.448571428571	-2.43411764706	-2.86956521739
1732	0.866	3.42302357836	3.34	-2.43411764706	-2.86956521739
1733	0.8665	6.23439667129	-12.5628571429	0.384705882353	-1.4347826087
1734	0.867	4.82871012483	-5.33428571429	-2.43411764706	-2.86956521739
1735	0.8675	11.8571428571	-5.33428571429	0.384705882353	-1.4347826087
1736	0.868	-5.01109570042	0.448571428571	1.79411764706	-2.86956521739
1737	0.8685	4.82871012483	-0.997142857143	1.79411764706	17.2173913043
1738	0.869	4.82871012483	-2.44285714286	3.20352941176	-12.9130434783
1739	0.8695	2.0173370319	0.448571428571	0.384705882353	11.4782608696
1740	0.87	3.42302357836	-2.44285714286	15.8882352941	-1.4347826087
1741	0.8705	2.0173370319	-2.44285714286	0.384705882353	0.0
1742	0.871	9.04576976422	-3.88857142857	1.79411764706	0.0
1743	0.8715	9.04576976422	12.0142857143	1.79411764706	-1.4347826087
1744	0.872	9.04576976422	-9.67142857143	-2.43411764706	-1.4347826087
1745	0.8725	25.9140083218	-0.997142857143	1.79411764706	2.86956521739
1746	0.873	0.611650485437	-0.997142857143	0.384705882353	-1.4347826087
1747	0.8735	9.04576976422	0.448571428571	-1.02470588235	2.86956521739
1748	0.874	9.04576976422	0.448571428571	15.8882352941	-1.4347826087
1749	0.8745	10.4514563107	-2.44285714286	-9.48117647059	0.0
1750	0.875	11.8571428571	-3.88857142857	17.2976470588	0.0
1751	0.8755	9.04576976422	-0.997142857143	-5.25294117647	-1.4347826087
1752	0.876	2.0173370319	-11.1171428571	-1.02470588235	0.0
1753	0.8765	4.82871012483	-2.44285714286	-1.02470588235	0.0
1754	0.877	-3.60540915395	-0.997142857143	0.384705882353	0.0
1755	0.8775	20.2912621359	0.448571428571	1.79411764706	-8.60869565217
1756	0.878	7.64008321775	-2.44285714286	-1.02470588235	0.0
1757	0.8785	3.42302357836	0.448571428571	14.4788235294	-1.4347826087
1758	0.879	4.82871012483	0.448571428571	-6.66235294118	0.0
1759	0.8795	7.64008321775	-5.33428571429	0.384705882353	-1.4347826087
1760	0.88	7.64008321775	-3.88857142857	-2.43411764706	0.0
1761	0.8805	9.04576976422	-8.22571428571	0.384705882353	-2.86956521739
1762	0.881	7.64008321775	-5.33428571429	1.79411764706	0.0
1763	0.8815	0.611650485437	-2.44285714286	0.384705882353	-2.86956521739
1764	0.882	4.82871012483	-3.88857142857	0.384705882353	5.73913043478
1765	0.8825	-2.19972260749	-0.997142857143	0.384705882353	-1.4347826087
1766	0.883	-6.41678224688	-2.44285714286	11.66	-2.86956521739
1767	0.8835	-3.60540915395	-0.997142857143	1.79411764706	0.0
1768	0.884	-6.41678224688	-8.22571428571	0.384705882353	-1.4347826087
1769	0.8845	-0.794036061026	-2.44285714286	0.384705882353	-1.4347826087
1770	0.885	-5.01109570042	-3.88857142857	1.79411764706	-2.86956521739
1771	0.8855	14.6685159501	-0.997142857143	-1.02470588235	0.0
1772	0.886	-5.01109570042	0.448571428571	0.384705882353	-11.4782608696
1773	0.8865	-5.01109570042	0.448571428571	-1.02470588235	11.4782608696
1774	0.887	-3.60540915395	-0.997142857143	4.61294117647	-1.4347826087
1775	0.8875	-0.794036061026	0.448571428571	14.4788235294	-2.86956521739
1776	0.888	0.611650485437	3.34	3.20352941176	0.0
1777	0.8885	3.42302357836	14.9057142857	1.79411764706	-1.4347826087
1778	0.889	3.42302357836	-8.22571428571	3.20352941176	-1.4347826087
1779	0.8895	-0.794036061026	-0.997142857143	1.79411764706	-1.4347826087
1780	0.89	18.8855755895	-2.44285714286	1.79411764706	-1.4347826087
1781	0.8905	-9.22815533981	-2.44285714286	-1.02470588235	-1.4347826087
1782	0.891	-2.19972260749	-2.44285714286	-1.02470588235	4.30434782609
