Time,1,2
0.000000,7.366263,-6.241609
0.000500,0.346560,-4.837595
0.001000,0.346560,-4.837595
0.001500,0.346560,-4.837595
0.002000,-1.057381,-3.433581
0.002500,0.346560,-4.837595
0.003000,-1.057381,-2.029567
0.003500,-1.057381,-7.645623
0.004000,-1.057381,-2.029567
0.004500,3.154441,-2.029567
0.005000,-1.057381,-2.029567
0.005500,0.346560,-4.837595
0.006000,0.346560,-3.433581
0.006500,1.750501,-3.433581
0.007000,1.750501,-7.645623
0.007500,0.346560,-6.241609
0.008000,3.154441,-16.069706
0.008500,1.750501,-16.069706
0.009000,17.193848,-14.665692
0.009500,15.789907,-14.665692
0.010000,3.154441,-13.261678
0.010500,0.346560,-13.261678
0.011000,4.558382,-16.069706
0.011500,4.558382,-11.857664
0.012000,1.750501,-11.857664
0.012500,4.558382,-16.069706
0.013000,7.366263,-3.433581
0.013500,1.750501,-16.069706
0.014000,4.558382,-14.665692
0.014500,-2.461321,-10.453650
0.015000,-1.057381,-9.049636
0.015500,3.154441,-7.645623
0.016000,3.154441,-6.241609
0.016500,4.558382,-9.049636
0.017000,1.750501,-2.029567
0.017500,1.750501,-3.433581
0.018000,0.346560,-2.029567
0.018500,1.750501,-7.645623
0.019000,3.154441,-4.837595
0.019500,0.346560,9.202545
0.020000,0.346560,-10.453650
0.020500,-6.673143,-2.029567
0.021000,17.193848,-0.625553
0.021500,-8.077084,-4.837595
0.022000,-1.057381,-3.433581
0.022500,3.154441,-4.837595
0.023000,1.750501,-4.837595
0.023500,1.750501,-9.049636
0.024000,0.346560,-4.837595
0.024500,0.346560,-10.453650
0.025000,1.750501,-16.069706
0.025500,3.154441,-11.857664
0.026000,1.750501,-13.261678
0.026500,-2.461321,-11.857664
0.027000,4.558382,-14.665692
0.027500,7.366263,-11.857664
0.028000,5.962323,-13.261678
0.028500,4.558382,-13.261678
0.029000,4.558382,-10.453650
0.029500,3.154441,-11.857664
0.030000,1.750501,-10.453650
0.030500,4.558382,-16.069706
0.031000,3.154441,-10.453650
0.031500,7.366263,-9.049636
0.032000,-3.865262,-7.645623
0.032500,0.346560,-6.241609
0.033000,0.346560,-4.837595
0.033500,3.154441,-4.837595
0.034000,-1.057381,-3.433581
0.034500,0.346560,-0.625553
0.035000,-1.057381,-0.625553
0.035500,-1.057381,-6.241609
0.036000,0.346560,7.798531
0.036500,3.154441,-0.625553
0.037000,-8.077084,-0.625553
0.037500,15.789907,-2.029567
0.038000,-5.269203,-0.625553
0.038500,-2.461321,0.778461
0.039000,0.346560,-2.029567
0.039500,1.750501,-2.029567
0.040000,0.346560,-7.645623
0.040500,-1.057381,-6.241609
0.041000,0.346560,4.990503
0.041500,1.750501,-13.261678
0.042000,-1.057381,-6.241609
0.042500,14.385967,-10.453650
0.043000,-1.057381,-10.453650
0.043500,-2.461321,-7.645623
0.044000,1.750501,-10.453650
0.044500,1.750501,-9.049636
0.045000,1.750501,-7.645623
0.045500,3.154441,-6.241609
0.046000,1.750501,-18.877734
0.046500,1.750501,-0.625553
0.047000,-1.057381,-2.029567
0.047500,0.346560,-13.261678
0.048000,0.346560,-4.837595
0.048500,-8.077084,-4.837595
0.049000,-8.077084,-2.029567
0.049500,0.346560,-4.837595
0.050000,0.346560,0.778461
0.050500,-3.865262,0.778461
0.051000,-1.057381,-2.029567
0.051500,-1.057381,0.778461
0.052000,-3.865262,-3.433581
0.052500,-1.057381,0.778461
0.053000,-5.269203,-0.625553
0.053500,-3.865262,-2.029567
0.054000,4.558382,0.778461
0.054500,-8.077084,0.778461
0.055000,-3.865262,0.778461
0.055500,-2.461321,-2.029567
0.056000,-2.461321,-2.029567
0.056500,-3.865262,-2.029567
0.057000,-3.865262,-2.029567
0.057500,-1.057381,7.798531
0.058000,-5.269203,-11.857664
0.058500,1.750501,-6.241609
0.059000,-10.884965,-7.645623
0.059500,-9.481025,-9.049636
0.060000,-3.865262,-9.049636
0.060500,-2.461321,-6.241609
0.061000,-1.057381,-9.049636
0.061500,-1.057381,-10.453650
0.062000,-2.461321,-10.453650
0.062500,-1.057381,-2.029567
0.063000,-1.057381,-10.453650
0.063500,-3.865262,-11.857664
0.064000,-10.884965,-10.453650
0.064500,8.770204,-9.049636
0.065000,-6.673143,-3.433581
0.065500,-1.057381,-4.837595
0.066000,-2.461321,-6.241609
0.066500,-3.865262,-3.433581
0.067000,-1.057381,-6.241609
0.067500,-1.057381,-0.625553
0.068000,-3.865262,7.798531
0.068500,-3.865262,-2.029567
0.069000,0.346560,-6.241609
0.069500,-9.481025,-2.029567
0.070000,1.750501,-6.241609
0.070500,-13.692847,-2.029567
0.071000,-3.865262,-3.433581
0.071500,-6.673143,-3.433581
0.072000,-5.269203,-2.029567
0.072500,-6.673143,-4.837595
0.073000,-6.673143,-10.453650
0.073500,-6.673143,-7.645623
0.074000,-3.865262,-11.857664
0.074500,-10.884965,-9.049636
0.075000,-6.673143,-9.049636
0.075500,-3.865262,-9.049636
0.076000,-5.269203,-9.049636
0.076500,-6.673143,-10.453650
0.077000,-3.865262,-11.857664
0.077500,-5.269203,-10.453650
0.078000,-3.865262,-11.857664
0.078500,-2.461321,-7.645623
0.079000,-2.461321,-17.473720
0.079500,-3.865262,-2.029567
0.080000,-12.288906,-13.261678
0.080500,-10.884965,-10.453650
0.081000,3.154441,-9.049636
0.081500,-5.269203,-10.453650
0.082000,-3.865262,-7.645623
0.082500,-3.865262,-6.241609
0.083000,-3.865262,-4.837595
0.083500,-3.865262,-4.837595
0.084000,-5.269203,-7.645623
0.084500,-8.077084,-3.433581
0.085000,-5.269203,-10.453650
0.085500,-8.077084,-11.857664
0.086000,-2.461321,-3.433581
0.086500,-16.500728,-6.241609
0.087000,-6.673143,-3.433581
0.087500,-5.269203,-6.241609
0.088000,-8.077084,-4.837595
0.088500,-9.481025,-6.241609
0.089000,-6.673143,-7.645623
0.089500,-5.269203,-13.261678
0.090000,-5.269203,-10.453650
0.090500,-6.673143,-2.029567
0.091000,-6.673143,-20.281748
0.091500,-10.884965,-10.453650
0.092000,-5.269203,-11.857664
0.092500,-16.500728,-14.665692
0.093000,-8.077084,-16.069706
0.093500,-6.673143,-14.665692
0.094000,-6.673143,-14.665692
0.094500,-5.269203,-16.069706
0.095000,-5.269203,-14.665692
0.095500,-3.865262,-20.281748
0.096000,-5.269203,-16.069706
0.096500,-5.269203,-17.473720
0.097000,-9.481025,-13.261678
0.097500,-3.865262,-10.453650
0.098000,-16.500728,-10.453650
0.098500,-6.673143,-7.645623
0.099000,-8.077084,-10.453650
0.099500,-8.077084,-7.645623
0.100000,-6.673143,-4.837595
0.100500,-8.077084,-4.837595
0.101000,-6.673143,-4.837595
0.101500,-8.077084,-6.241609
0.102000,-9.481025,-3.433581
0.102500,-9.481025,-9.049636
0.103000,-9.481025,-2.029567
0.103500,-8.077084,-4.837595
0.104000,-20.712550,-3.433581
0.104500,4.558382,-0.625553
0.105000,-10.884965,-4.837595
0.105500,-10.884965,-4.837595
0.106000,-10.884965,-6.241609
0.106500,-9.481025,-6.241609
0.107000,-8.077084,-7.645623
0.107500,-10.884965,-9.049636
0.108000,-9.481025,-13.261678
0.108500,-10.884965,-0.625553
0.109000,-13.692847,-21.685762
0.109500,4.558382,-13.261678
0.110000,4.558382,-13.261678
0.110500,-16.500728,-13.261678
0.111000,-9.481025,-13.261678
0.111500,-5.269203,-13.261678
0.112000,-5.269203,-17.473720
0.112500,-8.077084,-13.261678
0.113000,-9.481025,-13.261678
0.113500,-10.884965,-24.493790
0.114000,-5.269203,-4.837595
0.114500,-9.481025,-11.857664
0.115000,-5.269203,-13.261678
0.115500,-1.057381,-10.453650
0.116000,3.154441,-9.049636
0.116500,-17.904669,-9.049636
0.117000,-10.884965,-7.645623
0.117500,-8.077084,-7.645623
0.118000,-9.481025,-4.837595
0.118500,-10.884965,-2.029567
0.119000,-10.884965,-11.857664
0.119500,-9.481025,-11.857664
0.120000,-10.884965,-3.433581
0.120500,-8.077084,-6.241609
0.121000,-15.096787,-4.837595
0.121500,-10.884965,-6.241609
0.122000,-2.461321,-6.241609
0.122500,-10.884965,-10.453650
0.123000,-8.077084,-10.453650
0.123500,-9.481025,-11.857664
0.124000,-9.481025,-11.857664
0.124500,-10.884965,-14.665692
0.125000,-10.884965,-16.069706
0.125500,-8.077084,-13.261678
0.126000,-8.077084,-25.897804
0.126500,-8.077084,-18.877734
0.127000,-3.865262,-18.877734
0.127500,-13.692847,-20.281748
0.128000,-6.673143,-17.473720
0.128500,-6.673143,-18.877734
0.129000,-8.077084,-17.473720
0.129500,-8.077084,-16.069706
0.130000,-9.481025,-14.665692
0.130500,-6.673143,-13.261678
0.131000,-8.077084,-11.857664
0.131500,-10.884965,-13.261678
0.132000,-10.884965,-16.069706
0.132500,-6.673143,-14.665692
0.133000,-1.057381,-9.049636
0.133500,3.154441,-11.857664
0.134000,-15.096787,-7.645623
0.134500,-6.673143,-6.241609
0.135000,-8.077084,-6.241609
0.135500,-8.077084,-4.837595
0.136000,-9.481025,-6.241609
0.136500,-9.481025,-2.029567
0.137000,-9.481025,-10.453650
0.137500,-5.269203,-4.837595
0.138000,-19.308609,-3.433581
0.138500,0.346560,-4.837595
0.139000,-6.673143,-7.645623
0.139500,-10.884965,-9.049636
0.140000,-8.077084,-9.049636
0.140500,-5.269203,-11.857664
0.141000,-9.481025,-10.453650
0.141500,-8.077084,-14.665692
0.142000,-6.673143,-11.857664
0.142500,-3.865262,-9.049636
0.143000,-6.673143,-17.473720
0.143500,-3.865262,-20.281748
0.144000,10.174145,-14.665692
0.144500,10.174145,-16.069706
0.145000,-10.884965,-18.877734
0.145500,-3.865262,-18.877734
0.146000,-5.269203,-16.069706
0.146500,-3.865262,-16.069706
0.147000,-5.269203,-11.857664
0.147500,-8.077084,-23.089776
0.148000,-5.269203,-6.241609
0.148500,-6.673143,-13.261678
0.149000,-5.269203,-16.069706
0.149500,-1.057381,-10.453650
0.150000,-10.884965,-9.049636
0.150500,-3.865262,-6.241609
0.151000,-6.673143,-6.241609
0.151500,-6.673143,-6.241609
0.152000,-9.481025,-4.837595
0.152500,-9.481025,-4.837595
0.153000,-8.077084,-4.837595
0.153500,-10.884965,-11.857664
0.154000,-10.884965,-9.049636
0.154500,-8.077084,-7.645623
0.155000,-6.673143,-9.049636
0.155500,-1.057381,-6.241609
0.156000,-12.288906,-10.453650
0.156500,-5.269203,-13.261678
0.157000,-5.269203,-10.453650
0.157500,-5.269203,-11.857664
0.158000,-9.481025,-14.665692
0.158500,-8.077084,-13.261678
0.159000,-5.269203,-23.089776
0.159500,-5.269203,-6.241609
0.160000,-6.673143,-23.089776
0.160500,10.174145,-18.877734
0.161000,11.578085,-17.473720
0.161500,-9.481025,-18.877734
0.162000,-5.269203,-18.877734
0.162500,-5.269203,-20.281748
0.163000,-5.269203,-14.665692
0.163500,-5.269203,-17.473720
0.164000,-9.481025,-17.473720
0.164500,-6.673143,-23.089776
0.165000,-8.077084,0.778461
0.165500,-8.077084,-18.877734
0.166000,-2.461321,-14.665692
0.166500,-13.692847,-11.857664
0.167000,-8.077084,-11.857664
0.167500,-5.269203,-7.645623
0.168000,-5.269203,-11.857664
0.168500,-8.077084,-9.049636
0.169000,-12.288906,-10.453650
0.169500,-10.884965,-16.069706
0.170000,-8.077084,-2.029567
0.170500,-12.288906,-2.029567
0.171000,-10.884965,-10.453650
0.171500,-6.673143,-9.049636
0.172000,-5.269203,-9.049636
0.172500,-13.692847,-10.453650
0.173000,-9.481025,-10.453650
0.173500,-10.884965,-13.261678
0.174000,-9.481025,-11.857664
0.174500,-10.884965,-13.261678
0.175000,-9.481025,-16.069706
0.175500,-8.077084,-23.089776
0.176000,-12.288906,-23.089776
0.176500,-5.269203,-16.069706
0.177000,-16.500728,-16.069706
0.177500,7.366263,-20.281748
0.178000,-8.077084,-16.069706
0.178500,-3.865262,-17.473720
0.179000,-6.673143,-18.877734
0.179500,-8.077084,-18.877734
0.180000,-5.269203,-14.665692
0.180500,-6.673143,-14.665692
0.181000,-3.865262,-16.069706
0.181500,-3.865262,-13.261678
0.182000,-8.077084,-13.261678
0.182500,-6.673143,-11.857664
0.183000,-12.288906,-11.857664
0.183500,-12.288906,-10.453650
0.184000,-6.673143,-7.645623
0.184500,-5.269203,-9.049636
0.185000,-8.077084,-9.049636
0.185500,-8.077084,-9.049636
0.186000,-6.673143,-7.645623
0.186500,-9.481025,-9.049636
0.187000,-10.884965,-13.261678
0.187500,-9.481025,-11.857664
0.188000,-3.865262,-7.645623
0.188500,-13.692847,-4.837595
0.189000,-8.077084,-9.049636
0.189500,-12.288906,-4.837595
0.190000,-6.673143,-9.049636
0.190500,-5.269203,-10.453650
0.191000,-5.269203,-11.857664
0.191500,-5.269203,-11.857664
0.192000,-5.269203,-10.453650
0.192500,-5.269203,-20.281748
0.193000,-5.269203,-4.837595
0.193500,-6.673143,-9.049636
0.194000,-3.865262,-18.877734
0.194500,4.558382,-11.857664
0.195000,-9.481025,-10.453650
0.195500,-5.269203,-10.453650
0.196000,-3.865262,-11.857664
0.196500,-3.865262,-10.453650
0.197000,-5.269203,-9.049636
0.197500,-5.269203,-7.645623
0.198000,-5.269203,-16.069706
0.198500,-5.269203,-17.473720
0.199000,-3.865262,4.990503
0.199500,-13.692847,-4.837595
0.200000,-10.884965,-6.241609
0.200500,-3.865262,-6.241609
0.201000,-5.269203,-3.433581
0.201500,-5.269203,-0.625553
0.202000,-6.673143,-3.433581
0.202500,-6.673143,-0.625553
0.203000,-9.481025,-3.433581
0.203500,-8.077084,-2.029567
0.204000,-6.673143,-9.049636
0.204500,-5.269203,-7.645623
0.205000,-8.077084,-2.029567
0.205500,-16.500728,-2.029567
0.206000,7.366263,-2.029567
0.206500,-10.884965,-4.837595
0.207000,-6.673143,-7.645623
0.207500,-6.673143,-7.645623
0.208000,-5.269203,-9.049636
0.208500,-5.269203,-9.049636
0.209000,-5.269203,-10.453650
0.209500,-6.673143,-20.281748
0.210000,-3.865262,-21.685762
0.210500,-5.269203,-3.433581
0.211000,0.346560,-13.261678
0.211500,-5.269203,-13.261678
0.212000,-2.461321,-14.665692
0.212500,-5.269203,-13.261678
0.213000,-5.269203,-13.261678
0.213500,-1.057381,-14.665692
0.214000,-3.865262,-11.857664
0.214500,-5.269203,-10.453650
0.215000,-3.865262,-7.645623
0.215500,-3.865262,-11.857664
0.216000,-6.673143,-10.453650
0.216500,-5.269203,-10.453650
0.217000,-3.865262,-2.029567
0.217500,-13.692847,-2.029567
0.218000,-6.673143,-0.625553
0.218500,-6.673143,-0.625553
0.219000,-8.077084,-2.029567
0.219500,-6.673143,-2.029567
0.220000,-6.673143,0.778461
0.220500,-6.673143,-3.433581
0.221000,-6.673143,-0.625553
0.221500,-5.269203,6.394517
0.222000,-6.673143,-11.857664
0.222500,-16.500728,-2.029567
0.223000,10.174145,-2.029567
0.223500,-13.692847,-6.241609
0.224000,-8.077084,-6.241609
0.224500,-6.673143,-7.645623
0.225000,-6.673143,-9.049636
0.225500,-6.673143,-9.049636
0.226000,-6.673143,-10.453650
0.226500,-5.269203,-11.857664
0.227000,-2.461321,-6.241609
0.227500,-2.461321,3.586489
0.228000,-5.269203,-17.473720
0.228500,0.346560,-11.857664
0.229000,-10.884965,-11.857664
0.229500,-5.269203,-7.645623
0.230000,-5.269203,-9.049636
0.230500,-3.865262,-9.049636
0.231000,-8.077084,-6.241609
0.231500,-6.673143,-3.433581
0.232000,-5.269203,-13.261678
0.232500,-5.269203,-6.241609
0.233000,-8.077084,-9.049636
0.233500,-8.077084,-0.625553
0.234000,-6.673143,0.778461
0.234500,-13.692847,0.778461
0.235000,-12.288906,0.778461
0.235500,-9.481025,0.778461
0.236000,-8.077084,0.778461
0.236500,-8.077084,2.182475
0.237000,-8.077084,2.182475
0.237500,-8.077084,-6.241609
0.238000,-5.269203,10.606559
0.238500,-9.481025,-3.433581
0.239000,-5.269203,-2.029567
0.239500,-13.692847,-0.625553
0.240000,0.346560,-0.625553
0.240500,-5.269203,-2.029567
0.241000,-5.269203,-3.433581
0.241500,-6.673143,-7.645623
0.242000,-5.269203,-0.625553
0.242500,-5.269203,-3.433581
0.243000,-5.269203,-10.453650
0.243500,-3.865262,-3.433581
0.244000,-3.865262,-4.837595
0.244500,-1.057381,-9.049636
0.245000,1.750501,-6.241609
0.245500,-6.673143,-7.645623
0.246000,-3.865262,-7.645623
0.246500,-2.461321,-4.837595
0.247000,-5.269203,-7.645623
0.247500,-5.269203,-7.645623
0.248000,-5.269203,-2.029567
0.248500,-5.269203,-2.029567
0.249000,-8.077084,-13.261678
0.249500,-5.269203,13.414586
0.250000,-15.096787,-0.625553
0.250500,-16.500728,0.778461
0.251000,0.346560,0.778461
0.251500,-10.884965,2.182475
0.252000,-8.077084,2.182475
0.252500,-9.481025,2.182475
0.253000,-10.884965,3.586489
0.253500,-12.288906,2.182475
0.254000,-9.481025,6.394517
0.254500,-10.884965,-2.029567
0.255000,-6.673143,16.222614
0.255500,-6.673143,0.778461
0.256000,-13.692847,0.778461
0.256500,-16.500728,0.778461
0.257000,-9.481025,-2.029567
0.257500,-6.673143,-2.029567
0.258000,-8.077084,-4.837595
0.258500,-9.481025,-3.433581
0.259000,-6.673143,-6.241609
0.259500,-6.673143,-6.241609
0.260000,-8.077084,-2.029567
0.260500,-8.077084,-4.837595
0.261000,-5.269203,-10.453650
0.261500,-12.288906,-7.645623
0.262000,-9.481025,-7.645623
0.262500,-6.673143,-7.645623
0.263000,-6.673143,-7.645623
0.263500,-6.673143,-4.837595
0.264000,-5.269203,-4.837595
0.264500,-5.269203,-2.029567
0.265000,-6.673143,-4.837595
0.265500,-6.673143,-9.049636
0.266000,-5.269203,9.202545
0.266500,-10.884965,-6.241609
0.267000,7.366263,0.778461
0.267500,-10.884965,3.586489
0.268000,-8.077084,0.778461
0.268500,-6.673143,3.586489
0.269000,-9.481025,4.990503
0.269500,-6.673143,3.586489
0.270000,-8.077084,2.182475
0.270500,-8.077084,4.990503
0.271000,-9.481025,7.798531
0.271500,-8.077084,-0.625553
0.272000,-3.865262,3.586489
0.272500,-13.692847,0.778461
0.273000,-5.269203,2.182475
0.273500,-5.269203,0.778461
0.274000,-5.269203,0.778461
0.274500,-5.269203,-0.625553
0.275000,-6.673143,0.778461
0.275500,-6.673143,-3.433581
0.276000,-5.269203,0.778461
0.276500,-5.269203,-11.857664
0.277000,-5.269203,9.202545
0.277500,-5.269203,-10.453650
0.278000,10.174145,-3.433581
0.278500,-12.288906,-2.029567
0.279000,-3.865262,-7.645623
0.279500,-2.461321,-4.837595
0.280000,-3.865262,-2.029567
0.280500,-3.865262,-2.029567
0.281000,-5.269203,-0.625553
0.281500,-1.057381,4.990503
0.282000,-5.269203,-0.625553
0.282500,-1.057381,0.778461
0.283000,-6.673143,2.182475
0.283500,-5.269203,4.990503
0.284000,10.174145,4.990503
0.284500,-10.884965,6.394517
0.285000,-5.269203,6.394517
0.285500,-5.269203,7.798531
0.286000,-9.481025,9.202545
0.286500,-10.884965,4.990503
0.287000,-8.077084,7.798531
0.287500,-6.673143,0.778461
0.288000,-6.673143,6.394517
0.288500,-5.269203,6.394517
0.289000,-3.865262,4.990503
0.289500,-17.904669,3.586489
0.290000,-2.461321,4.990503
0.290500,-6.673143,2.182475
0.291000,-5.269203,0.778461
0.291500,-6.673143,-0.625553
0.292000,-8.077084,-0.625553
0.292500,-5.269203,-6.241609
0.293000,-5.269203,-4.837595
0.293500,-5.269203,-9.049636
0.294000,-5.269203,-3.433581
0.294500,-2.461321,-2.029567
0.295000,-12.288906,-7.645623
0.295500,-12.288906,-4.837595
0.296000,-3.865262,-4.837595
0.296500,-5.269203,-4.837595
0.297000,-5.269203,-2.029567
0.297500,-5.269203,-2.029567
0.298000,-3.865262,-7.645623
0.298500,-6.673143,4.990503
0.299000,-3.865262,9.202545
0.299500,-5.269203,-9.049636
0.300000,-13.692847,0.778461
0.300500,10.174145,2.182475
0.301000,-10.884965,2.182475
0.301500,-6.673143,2.182475
0.302000,-8.077084,2.182475
0.302500,-9.481025,3.586489
0.303000,-8.077084,2.182475
0.303500,-8.077084,4.990503
0.304000,-10.884965,-2.029567
0.304500,-9.481025,0.778461
0.305000,-8.077084,3.586489
0.305500,-5.269203,2.182475
0.306000,-15.096787,0.778461
0.306500,4.558382,0.778461
0.307000,-15.096787,-0.625553
0.307500,-8.077084,-2.029567
0.308000,-6.673143,-4.837595
0.308500,-6.673143,-4.837595
0.309000,-6.673143,-6.241609
0.309500,-5.269203,-4.837595
0.310000,-5.269203,-16.069706
0.310500,-3.865262,6.394517
0.311000,-6.673143,-13.261678
0.311500,7.366263,-7.645623
0.312000,-3.865262,-6.241609
0.312500,-8.077084,-9.049636
0.313000,-5.269203,-9.049636
0.313500,-5.269203,-7.645623
0.314000,-5.269203,-7.645623
0.314500,-3.865262,-7.645623
0.315000,-5.269203,-2.029567
0.315500,-5.269203,-6.241609
0.316000,-6.673143,7.798531
0.316500,-6.673143,-6.241609
0.317000,-2.461321,0.778461
0.317500,-13.692847,0.778461
0.318000,-5.269203,0.778461
0.318500,-5.269203,3.586489
0.319000,-5.269203,2.182475
0.319500,-6.673143,3.586489
0.320000,-6.673143,2.182475
0.320500,-8.077084,3.586489
0.321000,-10.884965,-4.837595
0.321500,-3.865262,7.798531
0.322000,-8.077084,2.182475
0.322500,-1.057381,0.778461
0.323000,-1.057381,2.182475
0.323500,-10.884965,-0.625553
0.324000,-5.269203,-2.029567
0.324500,-5.269203,-6.241609
0.325000,-3.865262,-6.241609
0.325500,-5.269203,-6.241609
0.326000,-5.269203,-6.241609
0.326500,-1.057381,-0.625553
0.327000,-1.057381,-4.837595
0.327500,0.346560,9.202545
0.328000,-9.481025,-6.241609
0.328500,14.385967,-6.241609
0.329000,-9.481025,-4.837595
0.329500,-2.461321,-6.241609
0.330000,-2.461321,-4.837595
0.330500,0.346560,-4.837595
0.331000,-2.461321,-2.029567
0.331500,-3.865262,-3.433581
0.332000,-3.865262,-0.625553
0.332500,-6.673143,-6.241609
0.333000,-6.673143,2.182475
0.333500,-3.865262,-2.029567
0.334000,-12.288906,0.778461
0.334500,-5.269203,0.778461
0.335000,-6.673143,2.182475
0.335500,-6.673143,2.182475
0.336000,-5.269203,0.778461
0.336500,-6.673143,2.182475
0.337000,-6.673143,4.990503
0.337500,-8.077084,2.182475
0.338000,-8.077084,6.394517
0.338500,-5.269203,9.202545
0.339000,-6.673143,-0.625553
0.339500,0.346560,-0.625553
0.340000,-3.865262,-2.029567
0.340500,0.346560,-4.837595
0.341000,-9.481025,-6.241609
0.341500,-5.269203,-6.241609
0.342000,-5.269203,-4.837595
0.342500,-3.865262,-7.645623
0.343000,-6.673143,-10.453650
0.343500,-1.057381,-18.877734
0.344000,0.346560,2.182475
0.344500,-3.865262,-13.261678
0.345000,0.346560,-11.857664
0.345500,-10.884965,-9.049636
0.346000,-5.269203,-10.453650
0.346500,-3.865262,-9.049636
0.347000,-2.461321,-7.645623
0.347500,-2.461321,-4.837595
0.348000,-2.461321,-4.837595
0.348500,-3.865262,-3.433581
0.349000,-1.057381,-6.241609
0.349500,-2.461321,-6.241609
0.350000,-1.057381,7.798531
0.350500,-2.461321,-3.433581
0.351000,-12.288906,-3.433581
0.351500,11.578085,0.778461
0.352000,-8.077084,-0.625553
0.352500,-5.269203,-0.625553
0.353000,-6.673143,-2.029567
0.353500,-5.269203,-4.837595
0.354000,-5.269203,0.778461
0.354500,-2.461321,2.182475
0.355000,-1.057381,-11.857664
0.355500,-2.461321,10.606559
0.356000,-6.673143,-10.453650
0.356500,-2.461321,-4.837595
0.357000,10.174145,-6.241609
0.357500,-8.077084,-7.645623
0.358000,-3.865262,-6.241609
0.358500,-6.673143,-10.453650
0.359000,-3.865262,-9.049636
0.359500,-3.865262,-11.857664
0.360000,-3.865262,-13.261678
0.360500,-2.461321,-14.665692
0.361000,-2.461321,-4.837595
0.361500,-1.057381,-18.877734
0.362000,-2.461321,-13.261678
0.362500,-5.269203,-13.261678
0.363000,-8.077084,-11.857664
0.363500,0.346560,-11.857664
0.364000,-1.057381,-11.857664
0.364500,-1.057381,-10.453650
0.365000,-2.461321,-10.453650
0.365500,-1.057381,-7.645623
0.366000,-2.461321,-14.665692
0.366500,-2.461321,6.394517
0.367000,-5.269203,-13.261678
0.367500,10.174145,-6.241609
0.368000,11.578085,-4.837595
0.368500,-12.288906,-3.433581
0.369000,-8.077084,-3.433581
0.369500,-3.865262,-2.029567
0.370000,-2.461321,-6.241609
0.370500,-6.673143,-2.029567
0.371000,-3.865262,-10.453650
0.371500,-2.461321,7.798531
0.372000,-3.865262,7.798531
0.372500,-1.057381,-11.857664
0.373000,-10.884965,-9.049636
0.373500,12.982026,-9.049636
0.374000,-12.288906,-10.453650
0.374500,-3.865262,-11.857664
0.375000,-3.865262,-11.857664
0.375500,-2.461321,-13.261678
0.376000,-2.461321,-13.261678
0.376500,-2.461321,-11.857664
0.377000,-2.461321,-23.089776
0.377500,1.750501,-16.069706
0.378000,3.154441,-16.069706
0.378500,-8.077084,-16.069706
0.379000,0.346560,-16.069706
0.379500,-1.057381,-17.473720
0.380000,-3.865262,-17.473720
0.380500,-2.461321,-13.261678
0.381000,-3.865262,-13.261678
0.381500,-5.269203,-9.049636
0.382000,-5.269203,-14.665692
0.382500,-5.269203,2.182475
0.383000,-1.057381,-18.877734
0.383500,-5.269203,-18.877734
0.384000,-12.288906,-6.241609
0.384500,11.578085,-7.645623
0.385000,-9.481025,-4.837595
0.385500,-5.269203,-4.837595
0.386000,-5.269203,-4.837595
0.386500,-5.269203,-2.029567
0.387000,-5.269203,-7.645623
0.387500,-8.077084,-6.241609
0.388000,-3.865262,6.394517
0.388500,-8.077084,-13.261678
0.389000,-1.057381,-7.645623
0.389500,-13.692847,-10.453650
0.390000,11.578085,-10.453650
0.390500,-6.673143,-10.453650
0.391000,-3.865262,-10.453650
0.391500,-5.269203,-13.261678
0.392000,-6.673143,-13.261678
0.392500,-5.269203,-16.069706
0.393000,-5.269203,-11.857664
0.393500,-5.269203,-21.685762
0.394000,-6.673143,-16.069706
0.394500,-1.057381,-16.069706
0.395000,-10.884965,-16.069706
0.395500,-10.884965,-17.473720
0.396000,-3.865262,-17.473720
0.396500,-6.673143,-16.069706
0.397000,-3.865262,-16.069706
0.397500,-5.269203,-16.069706
0.398000,-6.673143,-16.069706
0.398500,-3.865262,-20.281748
0.399000,-5.269203,0.778461
0.399500,-5.269203,-18.877734
0.400000,8.770204,-11.857664
0.400500,-10.884965,-9.049636
0.401000,-6.673143,-10.453650
0.401500,-5.269203,-7.645623
0.402000,-6.673143,-10.453650
0.402500,-6.673143,-11.857664
0.403000,-6.673143,-7.645623
0.403500,-6.673143,-20.281748
0.404000,-5.269203,2.182475
0.404500,-8.077084,-16.069706
0.405000,-1.057381,-10.453650
0.405500,-17.904669,-9.049636
0.406000,-5.269203,-13.261678
0.406500,-5.269203,-11.857664
0.407000,-3.865262,-14.665692
0.407500,-2.461321,-17.473720
0.408000,-3.865262,-13.261678
0.408500,-6.673143,-17.473720
0.409000,-5.269203,-4.837595
0.409500,-1.057381,-20.281748
0.410000,-5.269203,-20.281748
0.410500,0.346560,-18.877734
0.411000,-13.692847,-18.877734
0.411500,-3.865262,-16.069706
0.412000,-2.461321,-16.069706
0.412500,-1.057381,-17.473720
0.413000,-2.461321,-16.069706
0.413500,-1.057381,-16.069706
0.414000,-1.057381,-17.473720
0.414500,-3.865262,-11.857664
0.415000,-3.865262,-13.261678
0.415500,-5.269203,-4.837595
0.416000,-6.673143,-10.453650
0.416500,-8.077084,-9.049636
0.417000,-10.884965,-7.645623
0.417500,-2.461321,-6.241609
0.418000,-3.865262,-4.837595
0.418500,-2.461321,-7.645623
0.419000,-3.865262,-7.645623
0.419500,-5.269203,-0.625553
0.420000,-5.269203,-14.665692
0.420500,-2.461321,7.798531
0.421000,-5.269203,-9.049636
0.421500,-1.057381,-7.645623
0.422000,-6.673143,-6.241609
0.422500,-5.269203,-10.453650
0.423000,-5.269203,-10.453650
0.423500,-3.865262,-10.453650
0.424000,-2.461321,-11.857664
0.424500,-1.057381,-11.857664
0.425000,-3.865262,-13.261678
0.425500,-2.461321,-13.261678
0.426000,0.346560,-24.493790
0.426500,0.346560,-17.473720
0.427000,-10.884965,-17.473720
0.427500,15.789907,-18.877734
0.428000,-6.673143,-14.665692
0.428500,-1.057381,-18.877734
0.429000,1.750501,-16.069706
0.429500,-2.461321,-16.069706
0.430000,-1.057381,-17.473720
0.430500,0.346560,-14.665692
0.431000,0.346560,-21.685762
0.431500,-1.057381,-2.029567
0.432000,-1.057381,-17.473720
0.432500,1.750501,-11.857664
0.433000,-9.481025,-11.857664
0.433500,-6.673143,-10.453650
0.434000,-2.461321,-9.049636
0.434500,-1.057381,-9.049636
0.435000,-2.461321,-9.049636
0.435500,-1.057381,-7.645623
0.436000,-5.269203,-7.645623
0.436500,-2.461321,-6.241609
0.437000,-1.057381,6.394517
0.437500,-3.865262,-14.665692
0.438000,0.346560,-7.645623
0.438500,-13.692847,-7.645623
0.439000,11.578085,-9.049636
0.439500,-3.865262,-9.049636
0.440000,-1.057381,-10.453650
0.440500,-1.057381,-10.453650
0.441000,-2.461321,-11.857664
0.441500,-1.057381,-11.857664
0.442000,-3.865262,-20.281748
0.442500,-1.057381,-13.261678
0.443000,-1.057381,-16.069706
0.443500,-2.461321,-11.857664
0.444000,-10.884965,-16.069706
0.444500,14.385967,-16.069706
0.445000,0.346560,-14.665692
0.445500,-1.057381,-17.473720
0.446000,-1.057381,-16.069706
0.446500,0.346560,-13.261678
0.447000,-2.461321,-14.665692
0.447500,-1.057381,-13.261678
0.448000,-1.057381,-18.877734
0.448500,0.346560,0.778461
0.449000,-12.288906,-10.453650
0.449500,-9.481025,-13.261678
0.450000,0.346560,-6.241609
0.450500,-2.461321,-7.645623
0.451000,-3.865262,-4.837595
0.451500,-3.865262,-4.837595
0.452000,-6.673143,-6.241609
0.452500,-2.461321,-6.241609
0.453000,-6.673143,-13.261678
0.453500,-2.461321,3.586489
0.454000,-6.673143,-7.645623
0.454500,-5.269203,-9.049636
0.455000,-5.269203,-4.837595
0.455500,-10.884965,-7.645623
0.456000,-10.884965,-10.453650
0.456500,-3.865262,-9.049636
0.457000,-3.865262,-13.261678
0.457500,-3.865262,-11.857664
0.458000,-5.269203,-16.069706
0.458500,-1.057381,-14.665692
0.459000,-2.461321,-11.857664
0.459500,-3.865262,-21.685762
0.460000,-3.865262,-10.453650
0.460500,8.770204,-16.069706
0.461000,1.750501,-17.473720
0.461500,-5.269203,-16.069706
0.462000,-3.865262,-17.473720
0.462500,-2.461321,-18.877734
0.463000,0.346560,-20.281748
0.463500,-1.057381,-17.473720
0.464000,-1.057381,-20.281748
0.464500,-2.461321,-17.473720
0.465000,-2.461321,-6.241609
0.465500,-3.865262,-16.069706
0.466000,-2.461321,-11.857664
0.466500,10.174145,-13.261678
0.467000,-6.673143,-9.049636
0.467500,0.346560,-10.453650
0.468000,-2.461321,-10.453650
0.468500,-1.057381,-9.049636
0.469000,-3.865262,-10.453650
0.469500,-3.865262,-7.645623
0.470000,-5.269203,-18.877734
0.470500,-3.865262,3.586489
0.471000,-10.884965,-9.049636
0.471500,-12.288906,-10.453650
0.472000,8.770204,-10.453650
0.472500,-5.269203,-10.453650
0.473000,0.346560,-11.857664
0.473500,-3.865262,-16.069706
0.474000,-1.057381,-14.665692
0.474500,-1.057381,-16.069706
0.475000,-2.461321,-25.897804
0.475500,-1.057381,-7.645623
0.476000,-1.057381,-27.301818
0.476500,-1.057381,-23.089776
0.477000,3.154441,-16.069706
0.477500,4.558382,-18.877734
0.478000,-3.865262,-20.281748
0.478500,0.346560,-20.281748
0.479000,0.346560,-21.685762
0.479500,0.346560,-21.685762
0.480000,-2.461321,-23.089776
0.480500,-1.057381,-17.473720
0.481000,-1.057381,-24.493790
0.481500,-2.461321,-3.433581
0.482000,-2.461321,-24.493790
0.482500,12.982026,-14.665692
0.483000,-5.269203,-13.261678
0.483500,-1.057381,-11.857664
0.484000,0.346560,-10.453650
0.484500,1.750501,-10.453650
0.485000,-1.057381,-10.453650
0.485500,0.346560,-13.261678
0.486000,0.346560,-9.049636
0.486500,-1.057381,-18.877734
0.487000,1.750501,3.586489
0.487500,-3.865262,-11.857664
0.488000,1.750501,-10.453650
0.488500,1.750501,-9.049636
0.489000,-1.057381,-11.857664
0.489500,0.346560,-11.857664
0.490000,0.346560,-11.857664
0.490500,0.346560,-11.857664
0.491000,0.346560,-13.261678
0.491500,-1.057381,-10.453650
0.492000,0.346560,-25.897804
0.492500,1.750501,-4.837595
0.493000,0.346560,-21.685762
0.493500,4.558382,-18.877734
0.494000,-3.865262,-16.069706
0.494500,7.366263,-17.473720
0.495000,7.366263,-16.069706
0.495500,5.962323,-18.877734
0.496000,3.154441,-17.473720
0.496500,3.154441,-14.665692
0.497000,1.750501,-16.069706
0.497500,0.346560,-11.857664
0.498000,3.154441,-21.685762
0.498500,7.366263,-0.625553
0.499000,10.174145,-17.473720
0.499500,-5.269203,-10.453650
0.500000,3.154441,-9.049636
0.500500,1.750501,-6.241609
0.501000,1.750501,-7.645623
0.501500,3.154441,-7.645623
0.502000,3.154441,-4.837595
0.502500,3.154441,-3.433581
0.503000,-1.057381,-4.837595
0.503500,1.750501,-14.665692
0.504000,3.154441,6.394517
0.504500,1.750501,-9.049636
0.505000,12.982026,-6.241609
0.505500,10.174145,-10.453650
0.506000,-3.865262,-6.241609
0.506500,3.154441,-11.857664
0.507000,4.558382,-11.857664
0.507500,4.558382,-7.645623
0.508000,7.366263,-11.857664
0.508500,4.558382,-16.069706
0.509000,1.750501,-11.857664
0.509500,7.366263,-23.089776
0.510000,11.578085,-6.241609
0.510500,12.982026,-17.473720
0.511000,1.750501,-14.665692
0.511500,8.770204,-16.069706
0.512000,11.578085,-16.069706
0.512500,10.174145,-16.069706
0.513000,8.770204,-16.069706
0.513500,10.174145,-14.665692
0.514000,7.366263,-16.069706
0.514500,8.770204,-14.665692
0.515000,8.770204,-7.645623
0.515500,3.154441,-16.069706
0.516000,11.578085,-10.453650
0.516500,-1.057381,-10.453650
0.517000,10.174145,-7.645623
0.517500,18.597788,-6.241609
0.518000,4.558382,-6.241609
0.518500,4.558382,-6.241609
0.519000,3.154441,-3.433581
0.519500,4.558382,-4.837595
0.520000,7.366263,-3.433581
0.520500,7.366263,-0.625553
0.521000,7.366263,-11.857664
0.521500,7.366263,-4.837595
0.522000,10.174145,-7.645623
0.522500,17.193848,-7.645623
0.523000,14.385967,-6.241609
0.523500,1.750501,-9.049636
0.524000,5.962323,-10.453650
0.524500,7.366263,-10.453650
0.525000,7.366263,-13.261678
0.525500,8.770204,-16.069706
0.526000,7.366263,-18.877734
0.526500,7.366263,-14.665692
0.527000,8.770204,-10.453650
0.527500,5.962323,-16.069706
0.528000,4.558382,-17.473720
0.528500,20.001729,-16.069706
0.529000,-1.057381,-16.069706
0.529500,7.366263,-18.877734
0.530000,8.770204,-18.877734
0.530500,7.366263,-14.665692
0.531000,7.366263,-11.857664
0.531500,7.366263,-21.685762
0.532000,7.366263,-13.261678
0.532500,4.558382,-18.877734
0.533000,4.558382,-9.049636
0.533500,-2.461321,-7.645623
0.534000,20.001729,-7.645623
0.534500,4.558382,-9.049636
0.535000,1.750501,-7.645623
0.535500,1.750501,-6.241609
0.536000,0.346560,-7.645623
0.536500,-2.461321,-9.049636
0.537000,3.154441,-4.837595
0.537500,-1.057381,-3.433581
0.538000,1.750501,-17.473720
0.538500,0.346560,-17.473720
0.539000,7.366263,-10.453650
0.539500,-9.481025,-11.857664
0.540000,1.750501,-14.665692
0.540500,3.154441,-16.069706
0.541000,3.154441,-17.473720
0.541500,3.154441,-20.281748
0.542000,0.346560,-17.473720
0.542500,1.750501,-18.877734
0.543000,4.558382,-23.089776
0.543500,3.154441,-18.877734
0.544000,7.366263,-28.705832
0.544500,8.770204,-21.685762
0.545000,-5.269203,-23.089776
0.545500,11.578085,-23.089776
0.546000,0.346560,-20.281748
0.546500,1.750501,-20.281748
0.547000,4.558382,-20.281748
0.547500,4.558382,-20.281748
0.548000,4.558382,-20.281748
0.548500,4.558382,-16.069706
0.549000,3.154441,-16.069706
0.549500,3.154441,-24.493790
0.550000,8.770204,-14.665692
0.550500,-2.461321,-13.261678
0.551000,7.366263,-11.857664
0.551500,10.174145,-13.261678
0.552000,-5.269203,-16.069706
0.552500,-1.057381,-11.857664
0.553000,-1.057381,-11.857664
0.553500,0.346560,-11.857664
0.554000,0.346560,-16.069706
0.554500,-1.057381,-21.685762
0.555000,1.750501,-10.453650
0.555500,0.346560,-10.453650
0.556000,0.346560,-18.877734
0.556500,12.982026,-17.473720
0.557000,-8.077084,-20.281748
0.557500,3.154441,-21.685762
0.558000,0.346560,-23.089776
0.558500,-1.057381,-23.089776
0.559000,1.750501,-21.685762
0.559500,0.346560,-27.301818
0.560000,1.750501,-23.089776
0.560500,3.154441,-35.725901
0.561000,7.366263,-27.301818
0.561500,-5.269203,-27.301818
0.562000,10.174145,-24.493790
0.562500,7.366263,-24.493790
0.563000,-1.057381,-25.897804
0.563500,0.346560,-27.301818
0.564000,1.750501,-23.089776
0.564500,-1.057381,-20.281748
0.565000,0.346560,-23.089776
0.565500,0.346560,-28.705832
0.566000,0.346560,-11.857664
0.566500,0.346560,-16.069706
0.567000,0.346560,-21.685762
0.567500,10.174145,-17.473720
0.568000,-9.481025,-17.473720
0.568500,-1.057381,-17.473720
0.569000,-2.461321,-17.473720
0.569500,-2.461321,-17.473720
0.570000,-3.865262,-17.473720
0.570500,-2.461321,-20.281748
0.571000,-2.461321,-13.261678
0.571500,-2.461321,-23.089776
0.572000,-2.461321,-21.685762
0.572500,-1.057381,-18.877734
0.573000,-9.481025,-20.281748
0.573500,17.193848,-20.281748
0.574000,-6.673143,-23.089776
0.574500,0.346560,-21.685762
0.575000,0.346560,-24.493790
0.575500,-1.057381,-21.685762
0.576000,1.750501,-24.493790
0.576500,3.154441,-24.493790
0.577000,4.558382,-16.069706
0.577500,3.154441,-17.473720
0.578000,1.750501,-30.109846
0.578500,10.174145,-27.301818
0.579000,-5.269203,-24.493790
0.579500,3.154441,-23.089776
0.580000,3.154441,-24.493790
0.580500,3.154441,-23.089776
0.581000,4.558382,-18.877734
0.581500,1.750501,-23.089776
0.582000,1.750501,-17.473720
0.582500,3.154441,-25.897804
0.583000,8.770204,-17.473720
0.583500,3.154441,-4.837595
0.584000,4.558382,-24.493790
0.584500,-8.077084,-16.069706
0.585000,12.982026,-13.261678
0.585500,1.750501,-14.665692
0.586000,-1.057381,-18.877734
0.586500,-2.461321,-17.473720
0.587000,0.346560,-17.473720
0.587500,0.346560,-14.665692
0.588000,0.346560,-24.493790
0.588500,0.346560,-9.049636
0.589000,-1.057381,-6.241609
0.589500,-5.269203,-17.473720
0.590000,14.385967,-21.685762
0.590500,-1.057381,-18.877734
0.591000,-2.461321,-20.281748
0.591500,0.346560,-20.281748
0.592000,0.346560,-23.089776
0.592500,1.750501,-23.089776
0.593000,1.750501,-24.493790
0.593500,1.750501,-31.513859
0.594000,3.154441,-28.705832
0.594500,3.154441,-11.857664
0.595000,0.346560,-32.917873
0.595500,8.770204,-27.301818
0.596000,0.346560,-27.301818
0.596500,-1.057381,-25.897804
0.597000,0.346560,-23.089776
0.597500,1.750501,-21.685762
0.598000,3.154441,-23.089776
0.598500,-1.057381,-24.493790
0.599000,0.346560,-21.685762
0.599500,3.154441,-20.281748
0.600000,1.750501,-9.049636
0.600500,3.154441,-23.089776
0.601000,4.558382,-14.665692
0.601500,15.789907,-13.261678
0.602000,-8.077084,-11.857664
0.602500,-1.057381,-14.665692
0.603000,-1.057381,-16.069706
0.603500,-1.057381,-13.261678
0.604000,-1.057381,-14.665692
0.604500,-2.461321,-14.665692
0.605000,-1.057381,-6.241609
0.605500,-1.057381,-20.281748
0.606000,-3.865262,-3.433581
0.606500,-2.461321,-17.473720
0.607000,-8.077084,-17.473720
0.607500,-3.865262,-18.877734
0.608000,-1.057381,-18.877734
0.608500,-3.865262,-21.685762
0.609000,-5.269203,-21.685762
0.609500,-2.461321,-20.281748
0.610000,-2.461321,-28.705832
0.610500,0.346560,-17.473720
0.611000,-1.057381,-20.281748
0.611500,1.750501,-27.301818
0.612000,-5.269203,-23.089776
0.612500,-5.269203,-23.089776
0.613000,-1.057381,-24.493790
0.613500,0.346560,-23.089776
0.614000,-3.865262,-20.281748
0.614500,-1.057381,-20.281748
0.615000,0.346560,-20.281748
0.615500,-2.461321,-20.281748
0.616000,-3.865262,-9.049636
0.616500,0.346560,-23.089776
0.617000,-10.884965,-16.069706
0.617500,-10.884965,-13.261678
0.618000,14.385967,-13.261678
0.618500,-1.057381,-13.261678
0.619000,-3.865262,-14.665692
0.619500,-5.269203,-11.857664
0.620000,-5.269203,-11.857664
0.620500,-3.865262,-11.857664
0.621000,-2.461321,-20.281748
0.621500,-1.057381,2.182475
0.622000,-1.057381,-17.473720
0.622500,1.750501,-14.665692
0.623000,-10.884965,-16.069706
0.623500,-2.461321,-17.473720
0.624000,-2.461321,-17.473720
0.624500,0.346560,-18.877734
0.625000,-3.865262,-18.877734
0.625500,-5.269203,-17.473720
0.626000,-2.461321,-18.877734
0.626500,-1.057381,-28.705832
0.627000,1.750501,-20.281748
0.627500,3.154441,-11.857664
0.628000,0.346560,-27.301818
0.628500,3.154441,-20.281748
0.629000,-6.673143,-21.685762
0.629500,-5.269203,-20.281748
0.630000,0.346560,-17.473720
0.630500,0.346560,-18.877734
0.631000,1.750501,-18.877734
0.631500,0.346560,-16.069706
0.632000,0.346560,-14.665692
0.632500,3.154441,-17.473720
0.633000,-1.057381,-17.473720
0.633500,-2.461321,-10.453650
0.634000,15.789907,-9.049636
0.634500,-8.077084,-9.049636
0.635000,0.346560,-9.049636
0.635500,-2.461321,-7.645623
0.636000,-3.865262,-13.261678
0.636500,-2.461321,-7.645623
0.637000,-3.865262,-9.049636
0.637500,-3.865262,-13.261678
0.638000,-2.461321,-14.665692
0.638500,-5.269203,-0.625553
0.639000,-9.481025,-11.857664
0.639500,-10.884965,-10.453650
0.640000,11.578085,-16.069706
0.640500,-8.077084,-16.069706
0.641000,-2.461321,-16.069706
0.641500,-2.461321,-17.473720
0.642000,-3.865262,-16.069706
0.642500,-2.461321,-20.281748
0.643000,-2.461321,-17.473720
0.643500,-3.865262,-20.281748
0.644000,4.558382,-20.281748
0.644500,-5.269203,-18.877734
0.645000,10.174145,-18.877734
0.645500,3.154441,-17.473720
0.646000,-2.461321,-20.281748
0.646500,1.750501,-18.877734
0.647000,-1.057381,-16.069706
0.647500,0.346560,-14.665692
0.648000,1.750501,-14.665692
0.648500,0.346560,-18.877734
0.649000,1.750501,-20.281748
0.649500,3.154441,-10.453650
0.650000,5.962323,-10.453650
0.650500,-9.481025,-10.453650
0.651000,1.750501,-7.645623
0.651500,1.750501,-6.241609
0.652000,1.750501,-6.241609
0.652500,1.750501,-6.241609
0.653000,1.750501,-7.645623
0.653500,-2.461321,-6.241609
0.654000,0.346560,-7.645623
0.654500,1.750501,-9.049636
0.655000,1.750501,3.586489
0.655500,-8.077084,-6.241609
0.656000,-9.481025,-10.453650
0.656500,15.789907,-11.857664
0.657000,3.154441,-10.453650
0.657500,1.750501,-11.857664
0.658000,1.750501,-11.857664
0.658500,-1.057381,-16.069706
0.659000,1.750501,-14.665692
0.659500,1.750501,-11.857664
0.660000,3.154441,-21.685762
0.660500,4.558382,-16.069706
0.661000,7.366263,-16.069706
0.661500,0.346560,-17.473720
0.662000,-1.057381,-17.473720
0.662500,8.770204,-20.281748
0.663000,7.366263,-16.069706
0.663500,3.154441,-16.069706
0.664000,3.154441,-13.261678
0.664500,1.750501,-14.665692
0.665000,3.154441,-13.261678
0.665500,4.558382,-0.625553
0.666000,0.346560,-16.069706
0.666500,4.558382,-13.261678
0.667000,1.750501,-9.049636
0.667500,-3.865262,-9.049636
0.668000,3.154441,-6.241609
0.668500,0.346560,-6.241609
0.669000,0.346560,-7.645623
0.669500,3.154441,-6.241609
0.670000,0.346560,-3.433581
0.670500,0.346560,-7.645623
0.671000,1.750501,-0.625553
0.671500,3.154441,-0.625553
0.672000,-1.057381,0.778461
0.672500,0.346560,-14.665692
0.673000,1.750501,-9.049636
0.673500,-10.884965,-10.453650
0.674000,0.346560,-13.261678
0.674500,1.750501,-13.261678
0.675000,0.346560,-14.665692
0.675500,0.346560,-16.069706
0.676000,1.750501,-14.665692
0.676500,3.154441,-18.877734
0.677000,4.558382,-21.685762
0.677500,7.366263,-3.433581
0.678000,3.154441,-21.685762
0.678500,20.001729,-16.069706
0.679000,-2.461321,-17.473720
0.679500,3.154441,-16.069706
0.680000,1.750501,-14.665692
0.680500,5.962323,-14.665692
0.681000,1.750501,-14.665692
0.681500,4.558382,-14.665692
0.682000,4.558382,-13.261678
0.682500,7.366263,-3.433581
0.683000,3.154441,-18.877734
0.683500,8.770204,-9.049636
0.684000,-5.269203,-7.645623
0.684500,21.405670,-9.049636
0.685000,4.558382,-6.241609
0.685500,1.750501,-7.645623
0.686000,0.346560,-6.241609
0.686500,0.346560,-10.453650
0.687000,3.154441,-13.261678
0.687500,3.154441,-11.857664
0.688000,3.154441,4.990503
0.688500,-1.057381,-13.261678
0.689000,14.385967,-10.453650
0.689500,11.578085,-11.857664
0.690000,-1.057381,-14.665692
0.690500,3.154441,-14.665692
0.691000,3.154441,-14.665692
0.691500,3.154441,-14.665692
0.692000,0.346560,-14.665692
0.692500,5.962323,-16.069706
0.693000,7.366263,-4.837595
0.693500,4.558382,-17.473720
0.694000,4.558382,-21.685762
0.694500,10.174145,-17.473720
0.695000,-2.461321,-17.473720
0.695500,0.346560,-14.665692
0.696000,3.154441,-16.069706
0.696500,4.558382,-16.069706
0.697000,5.962323,-13.261678
0.697500,5.962323,-10.453650
0.698000,4.558382,-13.261678
0.698500,1.750501,-6.241609
0.699000,1.750501,-11.857664
0.699500,0.346560,-13.261678
0.700000,4.558382,-9.049636
0.700500,17.193848,-6.241609
0.701000,-5.269203,-6.241609
0.701500,1.750501,-6.241609
0.702000,1.750501,-6.241609
0.702500,0.346560,-4.837595
0.703000,1.750501,-6.241609
0.703500,-1.057381,-6.241609
0.704000,-1.057381,-4.837595
0.704500,-1.057381,3.586489
0.705000,0.346560,-10.453650
0.705500,-2.461321,7.798531
0.706000,14.385967,-6.241609
0.706500,-3.865262,-9.049636
0.707000,0.346560,-7.645623
0.707500,4.558382,-13.261678
0.708000,1.750501,-11.857664
0.708500,-1.057381,-11.857664
0.709000,0.346560,-16.069706
0.709500,0.346560,-16.069706
0.710000,0.346560,-4.837595
0.710500,0.346560,-23.089776
0.711000,4.558382,-16.069706
0.711500,-1.057381,-17.473720
0.712000,0.346560,-16.069706
0.712500,1.750501,-18.877734
0.713000,0.346560,-18.877734
0.713500,1.750501,-16.069706
0.714000,0.346560,-14.665692
0.714500,0.346560,-13.261678
0.715000,-2.461321,-10.453650
0.715500,0.346560,-20.281748
0.716000,1.750501,2.182475
0.716500,0.346560,-11.857664
0.717000,12.982026,-6.241609
0.717500,7.366263,-4.837595
0.718000,-8.077084,-6.241609
0.718500,-2.461321,-4.837595
0.719000,-1.057381,-6.241609
0.719500,-1.057381,-3.433581
0.720000,-3.865262,-10.453650
0.720500,-3.865262,-2.029567
0.721000,-2.461321,-6.241609
0.721500,-2.461321,-13.261678
0.722000,-5.269203,-6.241609
0.722500,0.346560,-6.241609
0.723000,-9.481025,-7.645623
0.723500,-1.057381,-9.049636
0.724000,0.346560,-10.453650
0.724500,1.750501,-10.453650
0.725000,0.346560,-11.857664
0.725500,-1.057381,-13.261678
0.726000,-1.057381,-16.069706
0.726500,0.346560,-17.473720
0.727000,-2.461321,-20.281748
0.727500,4.558382,-16.069706
0.728000,-8.077084,-16.069706
0.728500,8.770204,-14.665692
0.729000,8.770204,-14.665692
0.729500,0.346560,-14.665692
0.730000,1.750501,-10.453650
0.730500,-2.461321,-10.453650
0.731000,-1.057381,-9.049636
0.731500,-2.461321,-10.453650
0.732000,0.346560,-9.049636
0.732500,-1.057381,3.586489
0.733000,-1.057381,-16.069706
0.733500,-12.288906,-3.433581
0.734000,14.385967,-6.241609
0.734500,-1.057381,-4.837595
0.735000,-8.077084,-4.837595
0.735500,-2.461321,-0.625553
0.736000,-3.865262,-3.433581
0.736500,-6.673143,-2.029567
0.737000,-5.269203,-3.433581
0.737500,-3.865262,0.778461
0.738000,-6.673143,-0.625553
0.738500,-2.461321,-7.645623
0.739000,-5.269203,-2.029567
0.739500,-9.481025,-6.241609
0.740000,11.578085,-6.241609
0.740500,-3.865262,-7.645623
0.741000,-3.865262,-9.049636
0.741500,-2.461321,-9.049636
0.742000,-3.865262,-9.049636
0.742500,-3.865262,-11.857664
0.743000,-1.057381,-9.049636
0.743500,-1.057381,-18.877734
0.744000,-5.269203,-9.049636
0.744500,7.366263,-11.857664
0.745000,-2.461321,-11.857664
0.745500,-3.865262,-11.857664
0.746000,-2.461321,-14.665692
0.746500,-2.461321,-10.453650
0.747000,0.346560,-9.049636
0.747500,-1.057381,-9.049636
0.748000,0.346560,-4.837595
0.748500,-5.269203,-13.261678
0.749000,-6.673143,-9.049636
0.749500,1.750501,-2.029567
0.750000,-12.288906,0.778461
0.750500,4.558382,0.778461
0.751000,-1.057381,3.586489
0.751500,-3.865262,0.778461
0.752000,-6.673143,0.778461
0.752500,-5.269203,0.778461
0.753000,-5.269203,2.182475
0.753500,-5.269203,2.182475
0.754000,-5.269203,-6.241609
0.754500,-2.461321,13.414586
0.755000,0.346560,-6.241609
0.755500,-15.096787,0.778461
0.756000,8.770204,-3.433581
0.756500,-5.269203,-4.837595
0.757000,-3.865262,-3.433581
0.757500,-5.269203,-3.433581
0.758000,-5.269203,-6.241609
0.758500,-3.865262,-7.645623
0.759000,-3.865262,-4.837595
0.759500,-3.865262,-16.069706
0.760000,-2.461321,3.586489
0.760500,-10.884965,-6.241609
0.761000,10.174145,-10.453650
0.761500,-1.057381,-7.645623
0.762000,-6.673143,-9.049636
0.762500,-2.461321,-7.645623
0.763000,-2.461321,-11.857664
0.763500,-3.865262,-7.645623
0.764000,-1.057381,-6.241609
0.764500,-5.269203,-11.857664
0.765000,-3.865262,10.606559
0.765500,-5.269203,-6.241609
0.766000,-2.461321,-0.625553
0.766500,-12.288906,-0.625553
0.767000,-5.269203,2.182475
0.767500,-3.865262,0.778461
0.768000,-3.865262,0.778461
0.768500,-2.461321,2.182475
0.769000,-6.673143,2.182475
0.769500,-8.077084,6.394517
0.770000,-6.673143,-7.645623
0.770500,-3.865262,9.202545
0.771000,-6.673143,0.778461
0.771500,-5.269203,0.778461
0.772000,-10.884965,0.778461
0.772500,-12.288906,-0.625553
0.773000,-5.269203,-2.029567
0.773500,-3.865262,-0.625553
0.774000,-3.865262,-4.837595
0.774500,-1.057381,-2.029567
0.775000,-5.269203,-6.241609
0.775500,-3.865262,-6.241609
0.776000,-2.461321,-17.473720
0.776500,-5.269203,-11.857664
0.777000,1.750501,-7.645623
0.777500,-6.673143,-6.241609
0.778000,-3.865262,-7.645623
0.778500,-3.865262,-7.645623
0.779000,-3.865262,-7.645623
0.779500,-3.865262,-10.453650
0.780000,-3.865262,-6.241609
0.780500,-3.865262,-7.645623
0.781000,-3.865262,-7.645623
0.781500,-2.461321,-7.645623
0.782000,-5.269203,7.798531
0.782500,-8.077084,-9.049636
0.783000,-15.096787,-2.029567
0.783500,10.174145,0.778461
0.784000,-10.884965,0.778461
0.784500,-8.077084,2.182475
0.785000,-6.673143,2.182475
0.785500,-5.269203,2.182475
0.786000,-9.481025,3.586489
0.786500,-8.077084,-0.625553
0.787000,-8.077084,17.626628
0.787500,-10.884965,-2.029567
0.788000,-6.673143,2.182475
0.788500,-16.500728,0.778461
0.789000,-9.481025,0.778461
0.789500,-12.288906,0.778461
0.790000,-6.673143,-0.625553
0.790500,-6.673143,-0.625553
0.791000,-6.673143,-3.433581
0.791500,-5.269203,-6.241609
0.792000,-6.673143,-2.029567
0.792500,-8.077084,-18.877734
0.793000,-3.865262,-4.837595
0.793500,-15.096787,-7.645623
0.794000,10.174145,-6.241609
0.794500,-10.884965,-4.837595
0.795000,-3.865262,-6.241609
0.795500,-5.269203,-9.049636
0.796000,-6.673143,-6.241609
0.796500,-5.269203,-6.241609
0.797000,-6.673143,-6.241609
0.797500,-5.269203,6.394517
0.798000,-6.673143,-7.645623
0.798500,-10.884965,-2.029567
0.799000,-12.288906,-2.029567
0.799500,0.346560,0.778461
0.800000,-8.077084,3.586489
0.800500,-8.077084,0.778461
0.801000,-10.884965,3.586489
0.801500,-8.077084,3.586489
0.802000,-5.269203,4.990503
0.802500,-9.481025,2.182475
0.803000,-13.692847,14.818600
0.803500,-10.884965,4.990503
0.804000,-12.288906,3.586489
0.804500,3.154441,4.990503
0.805000,-17.904669,2.182475
0.805500,-8.077084,2.182475
0.806000,-8.077084,2.182475
0.806500,-6.673143,0.778461
0.807000,-9.481025,-2.029567
0.807500,-9.481025,0.778461
0.808000,-8.077084,-9.049636
0.808500,-10.884965,-4.837595
0.809000,-3.865262,-6.241609
0.809500,-17.904669,-4.837595
0.810000,-10.884965,-7.645623
0.810500,-5.269203,-7.645623
0.811000,-5.269203,-6.241609
0.811500,-5.269203,-9.049636
0.812000,-5.269203,-9.049636
0.812500,-5.269203,-7.645623
0.813000,-6.673143,-17.473720
0.813500,-5.269203,4.990503
0.814000,-8.077084,-3.433581
0.814500,-8.077084,-9.049636
0.815000,-6.673143,-4.837595
0.815500,4.558382,-3.433581
0.816000,-8.077084,-3.433581
0.816500,-6.673143,-2.029567
0.817000,-8.077084,0.778461
0.817500,-6.673143,2.182475
0.818000,-8.077084,0.778461
0.818500,-9.481025,2.182475
0.819000,-9.481025,13.414586
0.819500,-8.077084,13.414586
0.820000,-13.692847,2.182475
0.820500,-17.904669,2.182475
0.821000,5.962323,0.778461
0.821500,-8.077084,-0.625553
0.822000,-9.481025,-0.625553
0.822500,-12.288906,-0.625553
0.823000,-8.077084,0.778461
0.823500,-6.673143,-9.049636
0.824000,-8.077084,6.394517
0.824500,-5.269203,2.182475
0.825000,-3.865262,-4.837595
0.825500,-16.500728,-7.645623
0.826000,-5.269203,-9.049636
0.826500,-6.673143,-9.049636
0.827000,-8.077084,-9.049636
0.827500,-5.269203,-6.241609
0.828000,-8.077084,-6.241609
0.828500,-3.865262,-10.453650
0.829000,-5.269203,-7.645623
0.829500,-6.673143,-16.069706
0.830000,-5.269203,-16.069706
0.830500,-8.077084,-6.241609
0.831000,-12.288906,-7.645623
0.831500,8.770204,-6.241609
0.832000,-6.673143,-3.433581
0.832500,-6.673143,-3.433581
0.833000,-8.077084,-2.029567
0.833500,-9.481025,0.778461
0.834000,-10.884965,-0.625553
0.834500,-8.077084,13.414586
0.835000,-8.077084,-3.433581
0.835500,-9.481025,0.778461
0.836000,-19.308609,0.778461
0.836500,-2.461321,0.778461
0.837000,-12.288906,0.778461
0.837500,-12.288906,4.990503
0.838000,-10.884965,-2.029567
0.838500,-9.481025,0.778461
0.839000,-10.884965,-2.029567
0.839500,-10.884965,-4.837595
0.840000,-10.884965,4.990503
0.840500,-9.481025,-6.241609
0.841000,-9.481025,-6.241609
0.841500,-17.904669,-6.241609
0.842000,-10.884965,-7.645623
0.842500,-9.481025,-10.453650
0.843000,-8.077084,-9.049636
0.843500,-13.692847,-9.049636
0.844000,-8.077084,-7.645623
0.844500,-8.077084,-14.665692
0.845000,-9.481025,-11.857664
0.845500,-5.269203,4.990503
0.846000,-10.884965,-9.049636
0.846500,4.558382,-11.857664
0.847000,-12.288906,-7.645623
0.847500,-8.077084,-4.837595
0.848000,-8.077084,-6.241609
0.848500,-6.673143,-4.837595
0.849000,-6.673143,-3.433581
0.849500,-8.077084,-3.433581
0.850000,-10.884965,-10.453650
0.850500,-10.884965,9.202545
0.851000,-5.269203,0.778461
0.851500,-15.096787,2.182475
0.852000,-13.692847,0.778461
0.852500,3.154441,3.586489
0.853000,-9.481025,3.586489
0.853500,-9.481025,3.586489
0.854000,-8.077084,4.990503
0.854500,-6.673143,3.586489
0.855000,-9.481025,4.990503
0.855500,-8.077084,-4.837595
0.856000,-8.077084,3.586489
0.856500,-13.692847,-3.433581
0.857000,-6.673143,-0.625553
0.857500,1.750501,-6.241609
0.858000,-12.288906,-7.645623
0.858500,-6.673143,-6.241609
0.859000,-8.077084,-9.049636
0.859500,-6.673143,-9.049636
0.860000,-5.269203,-9.049636
0.860500,-3.865262,0.778461
0.861000,-2.461321,-10.453650
0.861500,-3.865262,-13.261678
0.862000,-2.461321,-10.453650
0.862500,0.346560,-10.453650
0.863000,-9.481025,-11.857664
0.863500,-6.673143,-10.453650
0.864000,-5.269203,-10.453650
0.864500,-5.269203,-10.453650
0.865000,-6.673143,-10.453650
0.865500,-6.673143,-6.241609
0.866000,-6.673143,-16.069706
0.866500,-9.481025,-7.645623
0.867000,-3.865262,-4.837595
0.867500,-16.500728,-2.029567
0.868000,-3.865262,-4.837595
0.868500,-9.481025,-0.625553
0.869000,-9.481025,-3.433581
0.869500,-8.077084,-0.625553
0.870000,-9.481025,-3.433581
0.870500,-10.884965,-4.837595
0.871000,-6.673143,-13.261678
0.871500,-8.077084,4.990503
0.872000,-8.077084,0.778461
0.872500,-6.673143,-9.049636
0.873000,1.750501,-6.241609
0.873500,-16.500728,-7.645623
0.874000,-5.269203,-10.453650
0.874500,-8.077084,-7.645623
0.875000,-8.077084,-11.857664
0.875500,-6.673143,-13.261678
0.876000,-6.673143,-13.261678
0.876500,-5.269203,-13.261678
0.877000,-9.481025,-20.281748
0.877500,-1.057381,-13.261678
0.878000,-16.500728,-11.857664
0.878500,8.770204,-13.261678
0.879000,-6.673143,-16.069706
0.879500,-5.269203,-14.665692
0.880000,-6.673143,-13.261678
0.880500,-5.269203,-11.857664
0.881000,-5.269203,-13.261678
0.881500,-6.673143,-20.281748
0.882000,-3.865262,2.182475
0.882500,-6.673143,-10.453650
0.883000,-5.269203,-11.857664
0.883500,3.154441,-6.241609
0.884000,-15.096787,-6.241609
0.884500,-5.269203,-7.645623
0.885000,-6.673143,-7.645623
0.885500,-9.481025,-4.837595
0.886000,-6.673143,-4.837595
0.886500,-6.673143,-6.241609
0.887000,-9.481025,-4.837595
0.887500,-8.077084,-10.453650
0.888000,-8.077084,2.182475
0.888500,-5.269203,-4.837595
0.889000,-10.884965,-6.241609
0.889500,-10.884965,-7.645623
0.890000,-8.077084,-9.049636
0.890500,-6.673143,-9.049636
0.891000,-5.269203,-10.453650
0.891500,-6.673143,-9.049636
0.892000,-8.077084,-11.857664
0.892500,-8.077084,-10.453650
0.893000,-5.269203,-18.877734
0.893500,-2.461321,-11.857664
0.894000,-6.673143,-11.857664
0.894500,-2.461321,-11.857664
0.895000,-10.884965,-11.857664
0.895500,-2.461321,-13.261678
0.896000,-5.269203,-11.857664
0.896500,-3.865262,-11.857664
0.897000,-5.269203,-10.453650
0.897500,-2.461321,-13.261678
0.898000,-3.865262,-10.453650
0.898500,-5.269203,-18.877734
0.899000,-2.461321,2.182475
0.899500,-15.096787,-6.241609
0.900000,-15.096787,-7.645623
0.900500,11.578085,-6.241609
0.901000,-5.269203,-6.241609
0.901500,-5.269203,-4.837595
0.902000,-5.269203,-2.029567
0.902500,-10.884965,-3.433581
0.903000,-8.077084,-6.241609
0.903500,-10.884965,-0.625553
0.904000,-8.077084,-13.261678
0.904500,-5.269203,-4.837595
0.905000,-3.865262,-4.837595
0.905500,-15.096787,-3.433581
0.906000,-6.673143,-4.837595
0.906500,-5.269203,-10.453650
0.907000,-6.673143,-9.049636
0.907500,-6.673143,-9.049636
0.908000,-6.673143,-13.261678
0.908500,-5.269203,-10.453650
0.909000,-6.673143,-20.281748
0.909500,-5.269203,-16.069706
0.910000,-3.865262,-13.261678
0.910500,-1.057381,-13.261678
0.911000,-3.865262,-11.857664
0.911500,-5.269203,-11.857664
0.912000,-1.057381,-14.665692
0.912500,-1.057381,-13.261678
0.913000,-2.461321,-13.261678
0.913500,-3.865262,-10.453650
0.914000,-5.269203,-9.049636
0.914500,-3.865262,-17.473720
0.915000,-5.269203,3.586489
0.915500,-6.673143,-11.857664
0.916000,-3.865262,-7.645623
0.916500,-12.288906,-4.837595
0.917000,8.770204,-4.837595
0.917500,-5.269203,-2.029567
0.918000,-5.269203,-0.625553
0.918500,-3.865262,-0.625553
0.919000,-5.269203,2.182475
0.919500,-5.269203,-0.625553
0.920000,-5.269203,-0.625553
0.920500,-6.673143,7.798531
0.921000,-3.865262,10.606559
0.921500,-12.288906,-0.625553
0.922000,-16.500728,0.778461
0.922500,10.174145,-3.433581
0.923000,-12.288906,-3.433581
0.923500,-5.269203,-3.433581
0.924000,-2.461321,-4.837595
0.924500,-3.865262,-6.241609
0.925000,-6.673143,-9.049636
0.925500,-5.269203,-6.241609
0.926000,-6.673143,-11.857664
0.926500,-3.865262,-7.645623
0.927000,-13.692847,-6.241609
0.927500,11.578085,-10.453650
0.928000,-12.288906,-7.645623
0.928500,-3.865262,-7.645623
0.929000,-3.865262,-7.645623
0.929500,-1.057381,-7.645623
0.930000,-3.865262,-6.241609
0.930500,-3.865262,-7.645623
0.931000,-3.865262,9.202545
0.931500,-6.673143,-9.049636
0.932000,-6.673143,-3.433581
0.932500,-15.096787,-2.029567
0.933000,8.770204,-0.625553
0.933500,-12.288906,2.182475
0.934000,-5.269203,0.778461
0.934500,-8.077084,4.990503
0.935000,-8.077084,2.182475
0.935500,-8.077084,3.586489
0.936000,-8.077084,-4.837595
0.936500,-8.077084,6.394517
0.937000,-5.269203,2.182475
0.937500,-8.077084,-3.433581
0.938000,-16.500728,6.394517
0.938500,-17.904669,3.586489
0.939000,-8.077084,0.778461
0.939500,-9.481025,0.778461
0.940000,-8.077084,2.182475
0.940500,-9.481025,0.778461
0.941000,-9.481025,-2.029567
0.941500,-10.884965,6.394517
0.942000,-9.481025,9.202545
0.942500,-9.481025,-13.261678
0.943000,-15.096787,-4.837595
0.943500,3.154441,-4.837595
0.944000,-15.096787,-4.837595
0.944500,-8.077084,-6.241609
0.945000,-5.269203,-2.029567
0.945500,-6.673143,-6.241609
0.946000,-5.269203,-2.029567
0.946500,-6.673143,-13.261678
0.947000,-6.673143,7.798531
0.947500,-5.269203,-2.029567
0.948000,-16.500728,-2.029567
0.948500,7.366263,-0.625553
0.949000,-12.288906,2.182475
0.949500,-6.673143,4.990503
0.950000,-8.077084,4.990503
0.950500,-9.481025,6.394517
0.951000,-6.673143,3.586489
0.951500,-9.481025,7.798531
0.952000,-6.673143,-3.433581
0.952500,-8.077084,20.434656
0.953000,-6.673143,-0.625553
0.953500,-17.904669,6.394517
0.954000,4.558382,7.798531
0.954500,-9.481025,4.990503
0.955000,-8.077084,4.990503
0.955500,-8.077084,4.990503
0.956000,-9.481025,4.990503
0.956500,-9.481025,-6.241609
0.957000,-8.077084,17.626628
0.957500,-6.673143,10.606559
0.958000,-5.269203,-6.241609
0.958500,-9.481025,-2.029567
0.959000,0.346560,-4.837595
0.959500,-10.884965,-4.837595
0.960000,-8.077084,-4.837595
0.960500,-5.269203,-6.241609
0.961000,-5.269203,-4.837595
0.961500,-5.269203,-0.625553
0.962000,-3.865262,-13.261678
0.962500,-3.865262,10.606559
0.963000,-3.865262,-10.453650
0.963500,-15.096787,-4.837595
0.964000,10.174145,-3.433581
0.964500,-15.096787,-2.029567
0.965000,-6.673143,-0.625553
0.965500,-3.865262,0.778461
0.966000,-5.269203,0.778461
0.966500,-5.269203,0.778461
0.967000,-3.865262,3.586489
0.967500,-5.269203,-3.433581
0.968000,-3.865262,17.626628
0.968500,-9.481025,-3.433581
0.969000,7.366263,3.586489
0.969500,-16.500728,3.586489
0.970000,-9.481025,4.990503
0.970500,-8.077084,3.586489
0.971000,-6.673143,4.990503
0.971500,-6.673143,0.778461
0.972000,-9.481025,4.990503
0.972500,-6.673143,3.586489
0.973000,-10.884965,4.990503
0.973500,-8.077084,-3.433581
0.974000,-8.077084,10.606559
0.974500,-8.077084,-3.433581
0.975000,-10.884965,-4.837595
0.975500,-6.673143,-6.241609
0.976000,-8.077084,-6.241609
0.976500,-6.673143,-6.241609
0.977000,-5.269203,-10.453650
0.977500,-3.865262,-9.049636
0.978000,-3.865262,-16.069706
0.978500,-3.865262,3.586489
0.979000,-5.269203,-16.069706
0.979500,-8.077084,-7.645623
0.980000,3.154441,-6.241609
0.980500,-9.481025,-4.837595
0.981000,-5.269203,-6.241609
0.981500,-8.077084,-2.029567
0.982000,-8.077084,-3.433581
0.982500,-2.461321,-0.625553
0.983000,-5.269203,2.182475
0.983500,-2.461321,0.778461
0.984000,-5.269203,3.586489
0.984500,1.750501,-0.625553
0.985000,1.750501,0.778461
0.985500,-13.692847,0.778461
0.986000,-12.288906,0.778461
0.986500,-10.884965,3.586489
0.987000,-6.673143,2.182475
0.987500,-6.673143,-0.625553
0.988000,-8.077084,2.182475
0.988500,-6.673143,-4.837595
0.989000,-8.077084,-6.241609
0.989500,-10.884965,-3.433581
0.990000,-3.865262,-4.837595
0.990500,-3.865262,-4.837595
0.991000,-10.884965,-10.453650
0.991500,-5.269203,-7.645623
0.992000,-5.269203,-9.049636
0.992500,-5.269203,-10.453650
0.993000,-3.865262,-10.453650
0.993500,-1.057381,-17.473720
0.994000,-2.461321,-10.453650
0.994500,-5.269203,-10.453650
0.995000,0.346560,-11.857664
0.995500,1.750501,-14.665692
0.996000,-9.481025,-16.069706
0.996500,-6.673143,-13.261678
0.997000,-5.269203,-11.857664
0.997500,-3.865262,-10.453650
0.998000,-3.865262,-6.241609
0.998500,-3.865262,-10.453650
0.999000,-3.865262,-4.837595
0.999500,-2.461321,-10.453650
1.000000,-5.269203,-10.453650
1.000500,10.174145,-3.433581
1.001000,12.982026,-2.029567
1.001500,-10.884965,-0.625553
1.002000,-5.269203,-3.433581
1.002500,-5.269203,-3.433581
1.003000,-6.673143,-0.625553
1.003500,-3.865262,0.778461
1.004000,-5.269203,-2.029567
1.004500,-5.269203,6.394517
1.005000,-5.269203,-6.241609
1.005500,-5.269203,-2.029567
1.006000,11.578085,-3.433581
1.006500,-9.481025,-4.837595
1.007000,-3.865262,-6.241609
1.007500,-3.865262,-6.241609
1.008000,-3.865262,-6.241609
1.008500,-5.269203,-9.049636
1.009000,-6.673143,-9.049636
1.009500,-2.461321,-10.453650
1.010000,-1.057381,-16.069706
1.010500,0.346560,0.778461
1.011000,0.346560,-16.069706
1.011500,-10.884965,-11.857664
1.012000,14.385967,-11.857664
1.012500,-1.057381,-14.665692
1.013000,-1.057381,-13.261678
1.013500,-1.057381,-10.453650
1.014000,0.346560,-11.857664
1.014500,-1.057381,-6.241609
1.015000,-2.461321,-4.837595
1.015500,-3.865262,-13.261678
1.016000,-2.461321,-4.837595
1.016500,1.750501,-3.433581
1.017000,12.982026,-3.433581
1.017500,-5.269203,-2.029567
1.018000,-2.461321,-0.625553
1.018500,-3.865262,-4.837595
1.019000,-1.057381,-0.625553
1.019500,0.346560,-0.625553
1.020000,-1.057381,2.182475
1.020500,-2.461321,2.182475
1.021000,-2.461321,6.394517
1.021500,-2.461321,-4.837595
1.022000,1.750501,-2.029567
1.022500,-9.481025,-0.625553
1.023000,0.346560,-2.029567
1.023500,-1.057381,-4.837595
1.024000,0.346560,-6.241609
1.024500,-2.461321,-7.645623
1.025000,-2.461321,-9.049636
1.025500,-1.057381,-14.665692
1.026000,-3.865262,-3.433581
1.026500,3.154441,-6.241609
1.027000,-6.673143,-16.069706
1.027500,-8.077084,-16.069706
1.028000,4.558382,-14.665692
1.028500,0.346560,-14.665692
1.029000,0.346560,-18.877734
1.029500,-1.057381,-18.877734
1.030000,-1.057381,-16.069706
1.030500,-1.057381,-13.261678
1.031000,0.346560,-14.665692
1.031500,0.346560,-10.453650
1.032000,-6.673143,-10.453650
1.032500,0.346560,-10.453650
1.033000,4.558382,-10.453650
1.033500,-3.865262,-7.645623
1.034000,-1.057381,-6.241609
1.034500,-2.461321,-6.241609
1.035000,0.346560,-7.645623
1.035500,0.346560,-3.433581
1.036000,-2.461321,-10.453650
1.036500,-5.269203,-0.625553
1.037000,-1.057381,-3.433581
1.037500,-9.481025,-2.029567
1.038000,4.558382,-2.029567
1.038500,-2.461321,-4.837595
1.039000,-1.057381,-4.837595
1.039500,0.346560,-7.645623
1.040000,-1.057381,-6.241609
1.040500,-1.057381,-10.453650
1.041000,-1.057381,-7.645623
1.041500,-2.461321,-14.665692
1.042000,-1.057381,-17.473720
1.042500,-8.077084,-14.665692
1.043000,8.770204,-16.069706
1.043500,0.346560,-18.877734
1.044000,1.750501,-17.473720
1.044500,1.750501,-20.281748
1.045000,4.558382,-17.473720
1.045500,3.154441,-20.281748
1.046000,1.750501,-24.493790
1.046500,3.154441,-7.645623
1.047000,-1.057381,-21.685762
1.047500,7.366263,-17.473720
1.048000,-6.673143,-14.665692
1.048500,0.346560,-14.665692
1.049000,0.346560,-11.857664
1.049500,0.346560,-10.453650
1.050000,1.750501,-6.241609
1.050500,0.346560,-6.241609
1.051000,3.154441,-3.433581
1.051500,1.750501,6.394517
1.052000,0.346560,6.394517
1.052500,-12.288906,-4.837595
1.053000,-8.077084,-4.837595
1.053500,11.578085,-6.241609
1.054000,-1.057381,-6.241609
1.054500,-1.057381,-4.837595
1.055000,-1.057381,-6.241609
1.055500,-1.057381,-6.241609
1.056000,0.346560,-9.049636
1.056500,0.346560,-7.645623
1.057000,1.750501,-9.049636
1.057500,-5.269203,-11.857664
1.058000,3.154441,-16.069706
1.058500,7.366263,-16.069706
1.059000,-5.269203,-16.069706
1.059500,0.346560,-17.473720
1.060000,3.154441,-16.069706
1.060500,4.558382,-16.069706
1.061000,4.558382,-21.685762
1.061500,3.154441,-16.069706
1.062000,3.154441,-20.281748
1.062500,7.366263,-23.089776
1.063000,3.154441,-17.473720
1.063500,-1.057381,-17.473720
1.064000,15.789907,-18.877734
1.064500,4.558382,-16.069706
1.065000,1.750501,-13.261678
1.065500,1.750501,-11.857664
1.066000,1.750501,-11.857664
1.066500,0.346560,-10.453650
1.067000,4.558382,0.778461
1.067500,0.346560,-7.645623
1.068000,1.750501,-11.857664
1.068500,-1.057381,-6.241609
1.069000,-5.269203,-9.049636
1.069500,-2.461321,-7.645623
1.070000,1.750501,-7.645623
1.070500,-1.057381,-6.241609
1.071000,0.346560,-4.837595
1.071500,0.346560,-6.241609
1.072000,3.154441,-2.029567
1.072500,-1.057381,-11.857664
1.073000,1.750501,-14.665692
1.073500,3.154441,-10.453650
1.074000,-8.077084,-10.453650
1.074500,17.193848,-13.261678
1.075000,3.154441,-16.069706
1.075500,4.558382,-17.473720
1.076000,4.558382,-20.281748
1.076500,3.154441,-20.281748
1.077000,3.154441,-21.685762
1.077500,3.154441,-28.705832
1.078000,8.770204,-10.453650
1.078500,1.750501,-27.301818
1.079000,10.174145,-24.493790
1.079500,0.346560,-21.685762
1.080000,3.154441,-20.281748
1.080500,4.558382,-18.877734
1.081000,1.750501,-18.877734
1.081500,3.154441,-18.877734
1.082000,3.154441,-17.473720
1.082500,3.154441,-11.857664
1.083000,3.154441,-23.089776
1.083500,4.558382,-0.625553
1.084000,-6.673143,-13.261678
1.084500,-6.673143,-10.453650
1.085000,0.346560,-9.049636
1.085500,0.346560,-10.453650
1.086000,-1.057381,-13.261678
1.086500,-3.865262,-13.261678
1.087000,0.346560,-16.069706
1.087500,-3.865262,-10.453650
1.088000,-2.461321,-21.685762
1.088500,1.750501,-6.241609
1.089000,-2.461321,-18.877734
1.089500,1.750501,-20.281748
1.090000,14.385967,-21.685762
1.090500,-9.481025,-21.685762
1.091000,1.750501,-23.089776
1.091500,-2.461321,-24.493790
1.092000,-1.057381,-25.897804
1.092500,3.154441,-27.301818
1.093000,3.154441,-27.301818
1.093500,3.154441,-32.917873
1.094000,3.154441,-24.493790
1.094500,7.366263,-34.321887
1.095000,5.962323,-32.917873
1.095500,-5.269203,-31.513859
1.096000,3.154441,-31.513859
1.096500,0.346560,-31.513859
1.097000,0.346560,-30.109846
1.097500,1.750501,-30.109846
1.098000,0.346560,-28.705832
1.098500,-1.057381,-24.493790
1.099000,3.154441,-32.917873
1.099500,0.346560,-10.453650
1.100000,0.346560,-21.685762
1.100500,10.174145,-20.281748
1.101000,4.558382,-20.281748
1.101500,-5.269203,-17.473720
1.102000,-2.461321,-17.473720
1.102500,-1.057381,-18.877734
1.103000,-2.461321,-17.473720
1.103500,-3.865262,-18.877734
1.104000,-2.461321,-16.069706
1.104500,3.154441,-11.857664
1.105000,1.750501,-14.665692
1.105500,0.346560,-23.089776
1.106000,-5.269203,-23.089776
1.106500,-1.057381,-21.685762
1.107000,1.750501,-24.493790
1.107500,0.346560,-23.089776
1.108000,1.750501,-25.897804
1.108500,4.558382,-25.897804
1.109000,1.750501,-24.493790
1.109500,3.154441,-37.129915
1.110000,3.154441,-16.069706
1.110500,1.750501,-35.725901
1.111000,10.174145,-27.301818
1.111500,1.750501,-30.109846
1.112000,4.558382,-28.705832
1.112500,7.366263,-30.109846
1.113000,7.366263,-28.705832
1.113500,4.558382,-28.705832
1.114000,3.154441,-24.493790
1.114500,8.770204,-31.513859
1.115000,5.962323,-20.281748
1.115500,7.366263,-23.089776
1.116000,0.346560,-20.281748
1.116500,10.174145,-20.281748
1.117000,7.366263,-18.877734
1.117500,0.346560,-20.281748
1.118000,4.558382,-17.473720
1.118500,3.154441,-14.665692
1.119000,0.346560,-16.069706
1.119500,3.154441,-17.473720
1.120000,3.154441,-24.493790
1.120500,3.154441,-3.433581
1.121000,7.366263,-13.261678
1.121500,-3.865262,-11.857664
1.122000,7.366263,-14.665692
1.122500,14.385967,-14.665692
1.123000,3.154441,-13.261678
1.123500,3.154441,-16.069706
1.124000,7.366263,-16.069706
1.124500,5.962323,-20.281748
1.125000,3.154441,-18.877734
1.125500,3.154441,-23.089776
1.126000,3.154441,-14.665692
1.126500,1.750501,-21.685762
1.127000,15.789907,-21.685762
1.127500,0.346560,-21.685762
1.128000,7.366263,-23.089776
1.128500,7.366263,-21.685762
1.129000,10.174145,-23.089776
1.129500,10.174145,-21.685762
1.130000,5.962323,-18.877734
1.130500,10.174145,-16.069706
1.131000,8.770204,-27.301818
1.131500,8.770204,-16.069706
1.132000,14.385967,-16.069706
1.132500,-3.865262,-16.069706
1.133000,10.174145,-13.261678
1.133500,8.770204,-11.857664
1.134000,8.770204,-10.453650
1.134500,5.962323,-7.645623
1.135000,3.154441,-6.241609
1.135500,4.558382,-16.069706
1.136000,8.770204,2.182475
1.136500,4.558382,-14.665692
1.137000,11.578085,-10.453650
1.137500,-2.461321,-9.049636
1.138000,21.405670,-10.453650
1.138500,10.174145,-9.049636
1.139000,8.770204,-10.453650
1.139500,7.366263,-13.261678
1.140000,7.366263,-13.261678
1.140500,7.366263,-11.857664
1.141000,8.770204,-21.685762
1.141500,4.558382,-9.049636
1.142000,8.770204,-27.301818
1.142500,4.558382,-16.069706
1.143000,17.193848,-18.877734
1.143500,4.558382,-20.281748
1.144000,11.578085,-23.089776
1.144500,14.385967,-20.281748
1.145000,10.174145,-20.281748
1.145500,11.578085,-21.685762
1.146000,10.174145,-21.685762
1.146500,10.174145,-23.089776
1.147000,7.366263,-14.665692
1.147500,10.174145,-21.685762
1.148000,18.597788,-16.069706
1.148500,4.558382,-14.665692
1.149000,7.366263,-14.665692
1.149500,10.174145,-13.261678
1.150000,10.174145,-10.453650
1.150500,11.578085,-9.049636
1.151000,11.578085,-11.857664
1.151500,10.174145,3.586489
1.152000,11.578085,2.182475
1.152500,11.578085,-16.069706
1.153000,-1.057381,-9.049636
1.153500,20.001729,-10.453650
1.154000,8.770204,-7.645623
1.154500,10.174145,-11.857664
1.155000,7.366263,-11.857664
1.155500,10.174145,-11.857664
1.156000,10.174145,-13.261678
1.156500,10.174145,-9.049636
1.157000,10.174145,-17.473720
1.157500,15.789907,-17.473720
1.158000,3.154441,-17.473720
1.158500,20.001729,-21.685762
1.159000,7.366263,-20.281748
1.159500,11.578085,-21.685762
1.160000,14.385967,-21.685762
1.160500,14.385967,-20.281748
1.161000,18.597788,-23.089776
1.161500,14.385967,-24.493790
1.162000,14.385967,-25.897804
1.162500,15.789907,-10.453650
1.163000,11.578085,-28.705832
1.163500,17.193848,-24.493790
1.164000,10.174145,-20.281748
1.164500,14.385967,-20.281748
1.165000,10.174145,-20.281748
1.165500,11.578085,-20.281748
1.166000,11.578085,-17.473720
1.166500,12.982026,-13.261678
1.167000,11.578085,-16.069706
1.167500,11.578085,-23.089776
1.168000,8.770204,-2.029567
1.168500,14.385967,-21.685762
1.169000,-2.461321,-14.665692
1.169500,21.405670,-16.069706
1.170000,0.346560,-14.665692
1.170500,8.770204,-16.069706
1.171000,10.174145,-14.665692
1.171500,11.578085,-14.665692
1.172000,8.770204,-17.473720
1.172500,11.578085,-18.877734
1.173000,12.982026,-14.665692
1.173500,8.770204,-24.493790
1.174000,12.982026,-24.493790
1.174500,20.001729,-24.493790
1.175000,3.154441,-25.897804
1.175500,10.174145,-24.493790
1.176000,11.578085,-25.897804
1.176500,12.982026,-24.493790
1.177000,11.578085,-28.705832
1.177500,12.982026,-25.897804
1.178000,14.385967,-32.917873
1.178500,14.385967,-13.261678
1.179000,11.578085,-32.917873
1.179500,17.193848,-24.493790
1.180000,3.154441,-24.493790
1.180500,12.982026,-24.493790
1.181000,11.578085,-23.089776
1.181500,10.174145,-24.493790
1.182000,11.578085,-23.089776
1.182500,10.174145,-20.281748
1.183000,14.385967,-27.301818
1.183500,11.578085,-10.453650
1.184000,11.578085,-21.685762
1.184500,0.346560,-16.069706
1.185000,18.597788,-16.069706
1.185500,3.154441,-16.069706
1.186000,4.558382,-16.069706
1.186500,4.558382,-16.069706
1.187000,7.366263,-16.069706
1.187500,8.770204,-16.069706
1.188000,7.366263,-11.857664
1.188500,8.770204,-21.685762
1.189000,7.366263,-13.261678
1.189500,14.385967,-20.281748
1.190000,-1.057381,-16.069706
1.190500,14.385967,-17.473720
1.191000,7.366263,-21.685762
1.191500,8.770204,-23.089776
1.192000,7.366263,-24.493790
1.192500,7.366263,-24.493790
1.193000,8.770204,-23.089776
1.193500,8.770204,-34.321887
1.194000,12.982026,-13.261678
1.194500,8.770204,-28.705832
1.195000,15.789907,-23.089776
1.195500,0.346560,-24.493790
1.196000,11.578085,-25.897804
1.196500,10.174145,-23.089776
1.197000,10.174145,-21.685762
1.197500,10.174145,-23.089776
1.198000,11.578085,-20.281748
1.198500,8.770204,-18.877734
1.199000,14.385967,-23.089776
1.199500,11.578085,-2.029567
1.200000,10.174145,-20.281748
1.200500,14.385967,-11.857664
1.201000,1.750501,-10.453650
1.201500,11.578085,-11.857664
1.202000,8.770204,-9.049636
1.202500,10.174145,-11.857664
1.203000,7.366263,-10.453650
1.203500,7.366263,-6.241609
1.204000,5.962323,-10.453650
1.204500,10.174145,-20.281748
1.205000,11.578085,-11.857664
1.205500,-2.461321,-13.261678
1.206000,21.405670,-13.261678
1.206500,3.154441,-13.261678
1.207000,1.750501,-17.473720
1.207500,11.578085,-17.473720
1.208000,11.578085,-17.473720
1.208500,7.366263,-17.473720
1.209000,8.770204,-23.089776
1.209500,7.366263,-6.241609
1.210000,10.174145,-30.109846
1.210500,8.770204,-21.685762
1.211000,25.617492,-23.089776
1.211500,3.154441,-20.281748
1.212000,11.578085,-23.089776
1.212500,12.982026,-21.685762
1.213000,12.982026,-23.089776
1.213500,12.982026,-18.877734
1.214000,14.385967,-20.281748
1.214500,11.578085,-20.281748
1.215000,10.174145,-11.857664
1.215500,4.558382,-17.473720
1.216000,18.597788,-14.665692
1.216500,12.982026,-11.857664
1.217000,10.174145,-11.857664
1.217500,11.578085,-10.453650
1.218000,11.578085,-7.645623
1.218500,8.770204,-10.453650
1.219000,10.174145,-11.857664
1.219500,10.174145,-11.857664
1.220000,8.770204,-4.837595
1.220500,7.366263,-14.665692
1.221000,8.770204,-10.453650
1.221500,4.558382,-9.049636
1.222000,10.174145,-10.453650
1.222500,11.578085,-14.665692
1.223000,10.174145,-13.261678
1.223500,14.385967,-13.261678
1.224000,12.982026,-11.857664
1.224500,10.174145,-18.877734
1.225000,14.385967,-6.241609
1.225500,8.770204,-27.301818
1.226000,17.193848,-20.281748
1.226500,4.558382,-18.877734
1.227000,12.982026,-20.281748
1.227500,17.193848,-20.281748
1.228000,15.789907,-21.685762
1.228500,17.193848,-21.685762
1.229000,14.385967,-18.877734
1.229500,17.193848,-24.493790
1.230000,14.385967,-24.493790
1.230500,15.789907,-20.281748
1.231000,17.193848,-20.281748
1.231500,3.154441,-13.261678
1.232000,14.385967,-14.665692
1.232500,14.385967,-13.261678
1.233000,14.385967,-11.857664
1.233500,14.385967,-10.453650
1.234000,11.578085,-10.453650
1.234500,14.385967,-17.473720
1.235000,11.578085,0.778461
1.235500,11.578085,-13.261678
1.236000,10.174145,-9.049636
1.236500,10.174145,-7.645623
1.237000,14.385967,-9.049636
1.237500,12.982026,-6.241609
1.238000,12.982026,-9.049636
1.238500,14.385967,-9.049636
1.239000,11.578085,-10.453650
1.239500,11.578085,-10.453650
1.240000,11.578085,-11.857664
1.240500,15.789907,-16.069706
1.241000,8.770204,-13.261678
1.241500,17.193848,-14.665692
1.242000,17.193848,-16.069706
1.242500,10.174145,-18.877734
1.243000,14.385967,-20.281748
1.243500,14.385967,-18.877734
1.244000,17.193848,-18.877734
1.244500,14.385967,-21.685762
1.245000,15.789907,-13.261678
1.245500,15.789907,-24.493790
1.246000,12.982026,-18.877734
1.246500,14.385967,-16.069706
1.247000,18.597788,-17.473720
1.247500,15.789907,-16.069706
1.248000,12.982026,-17.473720
1.248500,15.789907,-14.665692
1.249000,12.982026,-13.261678
1.249500,15.789907,-13.261678
1.250000,15.789907,0.778461
1.250500,15.789907,-16.069706
1.251000,11.578085,3.586489
1.251500,24.213551,-6.241609
1.252000,3.154441,-6.241609
1.252500,11.578085,-9.049636
1.253000,10.174145,-7.645623
1.253500,14.385967,-6.241609
1.254000,11.578085,-7.645623
1.254500,12.982026,-4.837595
1.255000,10.174145,-14.665692
1.255500,12.982026,-10.453650
1.256000,14.385967,-9.049636
1.256500,0.346560,-9.049636
1.257000,20.001729,-10.453650
1.257500,12.982026,-11.857664
1.258000,14.385967,-13.261678
1.258500,12.982026,-13.261678
1.259000,14.385967,-13.261678
1.259500,18.597788,-11.857664
1.260000,12.982026,-24.493790
1.260500,15.789907,-4.837595
1.261000,14.385967,-21.685762
1.261500,17.193848,-18.877734
1.262000,8.770204,-13.261678
1.262500,15.789907,-16.069706
1.263000,15.789907,-14.665692
1.263500,15.789907,-16.069706
1.264000,15.789907,-13.261678
1.264500,14.385967,-11.857664
1.265000,12.982026,-17.473720
1.265500,14.385967,-2.029567
1.266000,15.789907,-6.241609
1.266500,10.174145,-7.645623
1.267000,11.578085,-6.241609
1.267500,28.425373,-4.837595
1.268000,4.558382,-3.433581
1.268500,14.385967,-3.433581
1.269000,11.578085,-4.837595
1.269500,4.558382,-3.433581
1.270000,8.770204,-6.241609
1.270500,8.770204,0.778461
1.271000,11.578085,-13.261678
1.271500,11.578085,6.394517
1.272000,0.346560,-2.029567
1.272500,1.750501,-6.241609
1.273000,15.789907,-7.645623
1.273500,11.578085,-9.049636
1.274000,11.578085,-9.049636
1.274500,12.982026,-4.837595
1.275000,10.174145,-9.049636
1.275500,11.578085,-11.857664
1.276000,14.385967,-13.261678
1.276500,12.982026,-10.453650
1.277000,11.578085,-10.453650
1.277500,14.385967,-13.261678
1.278000,24.213551,-10.453650
1.278500,8.770204,-11.857664
1.279000,10.174145,-10.453650
1.279500,11.578085,-11.857664
1.280000,10.174145,-10.453650
1.280500,11.578085,-11.857664
1.281000,11.578085,-16.069706
1.281500,11.578085,3.586489
1.282000,8.770204,-13.261678
1.282500,14.385967,-7.645623
1.283000,-3.865262,-6.241609
1.283500,-1.057381,-3.433581
1.284000,10.174145,-6.241609
1.284500,8.770204,-4.837595
1.285000,8.770204,-0.625553
1.285500,4.558382,-6.241609
1.286000,3.154441,-0.625553
1.286500,3.154441,-11.857664
1.287000,7.366263,7.798531
1.287500,3.154441,-10.453650
1.288000,20.001729,-2.029567
1.288500,0.346560,-3.433581
1.289000,1.750501,-6.241609
1.289500,7.366263,-6.241609
1.290000,7.366263,-6.241609
1.290500,8.770204,-6.241609
1.291000,4.558382,-6.241609
1.291500,8.770204,-17.473720
1.292000,4.558382,-17.473720
1.292500,1.750501,-13.261678
1.293000,0.346560,-16.069706
1.293500,7.366263,-13.261678
1.294000,11.578085,-11.857664
1.294500,8.770204,-11.857664
1.295000,4.558382,-14.665692
1.295500,4.558382,-13.261678
1.296000,1.750501,-11.857664
1.296500,3.154441,-11.857664
1.297000,1.750501,-20.281748
1.297500,3.154441,-10.453650
1.298000,3.154441,-16.069706
1.298500,-6.673143,-6.241609
1.299000,-1.057381,-6.241609
1.299500,1.750501,-4.837595
1.300000,1.750501,-4.837595
1.300500,1.750501,-2.029567
1.301000,1.750501,-0.625553
1.301500,0.346560,-0.625553
1.302000,-5.269203,-4.837595
1.302500,0.346560,-2.029567
1.303000,-13.692847,-0.625553
1.303500,10.174145,-2.029567
1.304000,-8.077084,-0.625553
1.304500,-6.673143,0.778461
1.305000,-3.865262,-0.625553
1.305500,-5.269203,-0.625553
1.306000,-2.461321,-6.241609
1.306500,-3.865262,-2.029567
1.307000,-5.269203,-11.857664
1.307500,-3.865262,2.182475
1.308000,-1.057381,-9.049636
1.308500,-12.288906,-9.049636
1.309000,4.558382,-10.453650
1.309500,-1.057381,-9.049636
1.310000,-5.269203,-10.453650
1.310500,0.346560,-9.049636
1.311000,1.750501,-7.645623
1.311500,-1.057381,-10.453650
1.312000,0.346560,-13.261678
1.312500,-2.461321,-6.241609
1.313000,0.346560,-17.473720
1.313500,-10.884965,-9.049636
1.314000,12.982026,-10.453650
1.314500,-9.481025,-7.645623
1.315000,-1.057381,-6.241609
1.315500,-3.865262,-3.433581
1.316000,-3.865262,-3.433581
1.316500,-5.269203,-0.625553
1.317000,-2.461321,-0.625553
1.317500,-2.461321,2.182475
1.318000,-5.269203,2.182475
1.318500,-6.673143,-2.029567
1.319000,-10.884965,-0.625553
1.319500,-6.673143,0.778461
1.320000,-10.884965,-2.029567
1.320500,-9.481025,-2.029567
1.321000,-8.077084,-0.625553
1.321500,-5.269203,0.778461
1.322000,-5.269203,0.778461
1.322500,-5.269203,-3.433581
1.323000,-5.269203,-10.453650
1.323500,-5.269203,6.394517
1.324000,-6.673143,-10.453650
1.324500,8.770204,-7.645623
1.325000,-13.692847,-10.453650
1.325500,-3.865262,-9.049636
1.326000,-5.269203,-10.453650
1.326500,-3.865262,-10.453650
1.327000,-2.461321,-11.857664
1.327500,-5.269203,-9.049636
1.328000,-5.269203,-21.685762
1.328500,-3.865262,-20.281748
1.329000,-2.461321,0.778461
1.329500,-10.884965,-14.665692
1.330000,-9.481025,-13.261678
1.330500,1.750501,-11.857664
1.331000,-10.884965,-10.453650
1.331500,-8.077084,-10.453650
1.332000,-8.077084,-7.645623
1.332500,-6.673143,-7.645623
1.333000,-6.673143,-4.837595
1.333500,-3.865262,-10.453650
1.334000,-3.865262,-2.029567
1.334500,-5.269203,-7.645623
1.335000,-13.692847,-4.837595
1.335500,3.154441,-3.433581
1.336000,-13.692847,-4.837595
1.336500,-6.673143,-6.241609
1.337000,-8.077084,-4.837595
1.337500,-6.673143,-2.029567
1.338000,-8.077084,-9.049636
1.338500,-5.269203,-4.837595
1.339000,-5.269203,-16.069706
1.339500,-3.865262,-10.453650
1.340000,-13.692847,-11.857664
1.340500,8.770204,-11.857664
1.341000,-9.481025,-13.261678
1.341500,-6.673143,-13.261678
1.342000,-5.269203,-16.069706
1.342500,-3.865262,-14.665692
1.343000,-5.269203,-18.877734
1.343500,-3.865262,-21.685762
1.344000,-5.269203,-20.281748
1.344500,-3.865262,-11.857664
1.345000,-5.269203,-23.089776
1.345500,-6.673143,-18.877734
1.346000,-6.673143,-20.281748
1.346500,-5.269203,-21.685762
1.347000,-5.269203,-20.281748
1.347500,-6.673143,-18.877734
1.348000,-3.865262,-17.473720
1.348500,-5.269203,-14.665692
1.349000,-3.865262,-23.089776
1.349500,-6.673143,-7.645623
1.350000,-2.461321,-13.261678
1.350500,-16.500728,-13.261678
1.351000,7.366263,-10.453650
1.351500,8.770204,-10.453650
1.352000,-8.077084,-7.645623
1.352500,-6.673143,-9.049636
1.353000,-8.077084,-9.049636
1.353500,-9.481025,-9.049636
1.354000,-8.077084,-10.453650
1.354500,-6.673143,-7.645623
1.355000,-9.481025,-14.665692
1.355500,-9.481025,-11.857664
1.356000,-1.057381,-11.857664
1.356500,-13.692847,-17.473720
1.357000,-6.673143,-16.069706
1.357500,-5.269203,-18.877734
1.358000,-5.269203,-18.877734
1.358500,-6.673143,-20.281748
1.359000,-5.269203,-20.281748
1.359500,-5.269203,-21.685762
1.360000,-2.461321,-18.877734
1.360500,-2.461321,-18.877734
1.361000,-5.269203,-17.473720
1.361500,-6.673143,-24.493790
1.362000,-1.057381,-21.685762
1.362500,8.770204,-21.685762
1.363000,-8.077084,-23.089776
1.363500,-2.461321,-23.089776
1.364000,-2.461321,-20.281748
1.364500,-5.269203,-17.473720
1.365000,-3.865262,-21.685762
1.365500,-3.865262,-13.261678
1.366000,-3.865262,-6.241609
1.366500,-5.269203,-23.089776
1.367000,-1.057381,-17.473720
1.367500,-13.692847,-17.473720
1.368000,1.750501,-16.069706
1.368500,-6.673143,-16.069706
1.369000,-3.865262,-14.665692
1.369500,-5.269203,-14.665692
1.370000,-5.269203,-14.665692
1.370500,-5.269203,-13.261678
1.371000,-5.269203,-10.453650
1.371500,-9.481025,-23.089776
1.372000,-3.865262,-4.837595
1.372500,-8.077084,-21.685762
1.373000,-2.461321,-21.685762
1.373500,-5.269203,-20.281748
1.374000,-8.077084,-20.281748
1.374500,-2.461321,-21.685762
1.375000,-3.865262,-21.685762
1.375500,-5.269203,-25.897804
1.376000,-3.865262,-24.493790
1.376500,-5.269203,-23.089776
1.377000,-5.269203,-35.725901
1.377500,0.346560,-17.473720
1.378000,-1.057381,-24.493790
1.378500,-2.461321,-32.917873
1.379000,12.982026,-28.705832
1.379500,-10.884965,-28.705832
1.380000,-1.057381,-27.301818
1.380500,-1.057381,-27.301818
1.381000,-2.461321,-27.301818
1.381500,-3.865262,-27.301818
1.382000,-3.865262,-27.301818
1.382500,-3.865262,-24.493790
1.383000,-1.057381,-27.301818
1.383500,-2.461321,-7.645623
1.384000,-5.269203,-27.301818
1.384500,0.346560,-17.473720
1.385000,-5.269203,-17.473720
1.385500,-6.673143,-18.877734
1.386000,-5.269203,-18.877734
1.386500,-5.269203,-16.069706
1.387000,-3.865262,-17.473720
1.387500,-2.461321,-20.281748
1.388000,-5.269203,-16.069706
1.388500,-3.865262,-23.089776
1.389000,-3.865262,-16.069706
1.389500,-1.057381,-21.685762
1.390000,-6.673143,-21.685762
1.390500,0.346560,-23.089776
1.391000,4.558382,-24.493790
1.391500,-5.269203,-27.301818
1.392000,-2.461321,-25.897804
1.392500,-3.865262,-28.705832
1.393000,-2.461321,-28.705832
1.393500,-3.865262,-28.705832
1.394000,0.346560,-31.513859
1.394500,4.558382,-38.533929
1.395000,-1.057381,-30.109846
1.395500,3.154441,-30.109846
1.396000,15.789907,-31.513859
1.396500,-3.865262,-30.109846
1.397000,-1.057381,-30.109846
1.397500,-1.057381,-27.301818
1.398000,-1.057381,-27.301818
1.398500,-1.057381,-28.705832
1.399000,0.346560,-24.493790
1.399500,-1.057381,-21.685762
1.400000,-1.057381,-20.281748
1.400500,-1.057381,-13.261678
1.401000,-5.269203,-23.089776
1.401500,-1.057381,-18.877734
1.402000,3.154441,-18.877734
1.402500,-8.077084,-18.877734
1.403000,-3.865262,-20.281748
1.403500,-3.865262,-18.877734
1.404000,-5.269203,-20.281748
1.404500,-3.865262,-21.685762
1.405000,-5.269203,-21.685762
1.405500,-3.865262,-23.089776
1.406000,-2.461321,-14.665692
1.406500,-2.461321,-25.897804
1.407000,-5.269203,-27.301818
1.407500,10.174145,-24.493790
1.408000,-1.057381,-28.705832
1.408500,-5.269203,-30.109846
1.409000,-2.461321,-30.109846
1.409500,-2.461321,-30.109846
1.410000,-1.057381,-30.109846
1.410500,0.346560,-30.109846
1.411000,0.346560,-30.109846
1.411500,-3.865262,-28.705832
1.412000,-5.269203,-28.705832
1.412500,0.346560,-28.705832
1.413000,1.750501,-27.301818
1.413500,-2.461321,-25.897804
1.414000,-1.057381,-24.493790
1.414500,0.346560,-23.089776
1.415000,-1.057381,-23.089776
1.415500,-2.461321,-30.109846
1.416000,0.346560,-7.645623
1.416500,-2.461321,-24.493790
1.417000,1.750501,-18.877734
1.417500,-10.884965,-18.877734
1.418000,-10.884965,-16.069706
1.418500,-5.269203,-14.665692
1.419000,-2.461321,-16.069706
1.419500,-5.269203,-16.069706
1.420000,-5.269203,-18.877734
1.420500,-2.461321,-11.857664
1.421000,-3.865262,-24.493790
1.421500,-1.057381,-6.241609
1.422000,-5.269203,-20.281748
1.422500,0.346560,-18.877734
1.423000,-1.057381,-18.877734
1.423500,-2.461321,-17.473720
1.424000,0.346560,-20.281748
1.424500,-1.057381,-21.685762
1.425000,0.346560,-23.089776
1.425500,0.346560,-25.897804
1.426000,0.346560,-23.089776
1.426500,1.750501,-25.897804
1.427000,0.346560,-32.917873
1.427500,-1.057381,-23.089776
1.428000,7.366263,-32.917873
1.428500,-5.269203,-24.493790
1.429000,3.154441,-24.493790
1.429500,3.154441,-27.301818
1.430000,0.346560,-24.493790
1.430500,0.346560,-23.089776
1.431000,0.346560,-21.685762
1.431500,3.154441,-25.897804
1.432000,1.750501,-20.281748
1.432500,-1.057381,-7.645623
1.433000,0.346560,-24.493790
1.433500,15.789907,-16.069706
1.434000,-5.269203,-16.069706
1.434500,-1.057381,-17.473720
1.435000,0.346560,-16.069706
1.435500,-1.057381,-17.473720
1.436000,-2.461321,-16.069706
1.436500,-2.461321,-16.069706
1.437000,-2.461321,-14.665692
1.437500,0.346560,-3.433581
1.438000,0.346560,-18.877734
1.438500,0.346560,-20.281748
1.439000,15.789907,-16.069706
1.439500,-5.269203,-17.473720
1.440000,1.750501,-20.281748
1.440500,0.346560,-20.281748
1.441000,0.346560,-20.281748
1.441500,-1.057381,-27.301818
1.442000,0.346560,-18.877734
1.442500,1.750501,-30.109846
1.443000,1.750501,-23.089776
1.443500,3.154441,-17.473720
1.444000,10.174145,-24.493790
1.444500,7.366263,-24.493790
1.445000,7.366263,-24.493790
1.445500,3.154441,-21.685762
1.446000,1.750501,-24.493790
1.446500,1.750501,-21.685762
1.447000,3.154441,-23.089776
1.447500,3.154441,-23.089776
1.448000,3.154441,-20.281748
1.448500,3.154441,-23.089776
1.449000,0.346560,-21.685762
1.449500,0.346560,-17.473720
1.450000,-5.269203,-17.473720
1.450500,0.346560,-16.069706
1.451000,0.346560,-16.069706
1.451500,-1.057381,-16.069706
1.452000,0.346560,-14.665692
1.452500,-3.865262,-14.665692
1.453000,-1.057381,-18.877734
1.453500,-1.057381,-7.645623
1.454000,-5.269203,-23.089776
1.454500,-1.057381,-13.261678
1.455000,-10.884965,-17.473720
1.455500,14.385967,-17.473720
1.456000,-2.461321,-16.069706
1.456500,-1.057381,-20.281748
1.457000,-2.461321,-21.685762
1.457500,-2.461321,-21.685762
1.458000,-3.865262,-21.685762
1.458500,0.346560,-24.493790
1.459000,-2.461321,-16.069706
1.459500,0.346560,-28.705832
1.460000,1.750501,-27.301818
1.460500,-3.865262,-23.089776
1.461000,3.154441,-23.089776
1.461500,1.750501,-25.897804
1.462000,-1.057381,-24.493790
1.462500,1.750501,-23.089776
1.463000,0.346560,-23.089776
1.463500,1.750501,-24.493790
1.464000,-1.057381,-23.089776
1.464500,-1.057381,-30.109846
1.465000,0.346560,-21.685762
1.465500,-1.057381,-20.281748
1.466000,7.366263,-20.281748
1.466500,-6.673143,-16.069706
1.467000,-1.057381,-17.473720
1.467500,0.346560,-18.877734
1.468000,-1.057381,-14.665692
1.468500,-5.269203,-17.473720
1.469000,-3.865262,-16.069706
1.469500,-2.461321,-20.281748
1.470000,-2.461321,-7.645623
1.470500,-6.673143,-21.685762
1.471000,8.770204,-16.069706
1.471500,11.578085,-13.261678
1.472000,-9.481025,-14.665692
1.472500,-3.865262,-17.473720
1.473000,-3.865262,-18.877734
1.473500,-1.057381,-17.473720
1.474000,-3.865262,-16.069706
1.474500,-1.057381,-24.493790
1.475000,-1.057381,-21.685762
1.475500,-3.865262,-30.109846
1.476000,1.750501,-27.301818
1.476500,-9.481025,-27.301818
1.477000,12.982026,-25.897804
1.477500,-6.673143,-24.493790
1.478000,0.346560,-27.301818
1.478500,0.346560,-25.897804
1.479000,-1.057381,-24.493790
1.479500,1.750501,-27.301818
1.480000,-1.057381,-25.897804
1.480500,-2.461321,-21.685762
1.481000,-1.057381,-27.301818
1.481500,-2.461321,-21.685762
1.482000,-10.884965,-17.473720
1.482500,11.578085,-20.281748
1.483000,-5.269203,-16.069706
1.483500,-3.865262,-17.473720
1.484000,-2.461321,-16.069706
1.484500,-1.057381,-14.665692
1.485000,-2.461321,-14.665692
1.485500,-5.269203,-13.261678
1.486000,-6.673143,-9.049636
1.486500,-5.269203,-23.089776
1.487000,-3.865262,-14.665692
1.487500,-3.865262,-11.857664
1.488000,-8.077084,-13.261678
1.488500,10.174145,-11.857664
1.489000,-10.884965,-16.069706
1.489500,-3.865262,-16.069706
1.490000,-6.673143,-17.473720
1.490500,-3.865262,-14.665692
1.491000,-5.269203,-21.685762
1.491500,-3.865262,-18.877734
1.492000,-5.269203,-18.877734
1.492500,-2.461321,-25.897804
1.493000,-3.865262,-23.089776
1.493500,-9.481025,-21.685762
1.494000,11.578085,-20.281748
1.494500,-1.057381,-23.089776
1.495000,0.346560,-24.493790
1.495500,-1.057381,-24.493790
1.496000,-2.461321,-24.493790
1.496500,-2.461321,-21.685762
1.497000,-3.865262,-30.109846
1.497500,-1.057381,-9.049636
1.498000,0.346560,-27.301818
1.498500,-3.865262,-21.685762
1.499000,3.154441,-17.473720
1.499500,-5.269203,-17.473720
1.500000,-8.077084,-16.069706
1.500500,-2.461321,-13.261678
1.501000,-5.269203,-11.857664
1.501500,-5.269203,-13.261678
1.502000,-6.673143,-13.261678
1.502500,-5.269203,-10.453650
1.503000,-6.673143,-20.281748
1.503500,-3.865262,-16.069706
1.504000,-2.461321,-13.261678
1.504500,-16.500728,-13.261678
1.505000,10.174145,-13.261678
1.505500,-10.884965,-11.857664
1.506000,-3.865262,-16.069706
1.506500,-3.865262,-17.473720
1.507000,-3.865262,-11.857664
1.507500,-3.865262,-18.877734
1.508000,-3.865262,-25.897804
1.508500,-2.461321,-9.049636
1.509000,-5.269203,-24.493790
1.509500,0.346560,-20.281748
1.510000,-9.481025,-20.281748
1.510500,-2.461321,-21.685762
1.511000,-1.057381,-20.281748
1.511500,0.346560,-21.685762
1.512000,-2.461321,-21.685762
1.512500,0.346560,-23.089776
1.513000,-1.057381,-18.877734
1.513500,0.346560,-16.069706
1.514000,0.346560,-4.837595
1.514500,-2.461321,-21.685762
1.515000,-1.057381,-14.665692
1.515500,-10.884965,-13.261678
1.516000,-2.461321,-14.665692
1.516500,-1.057381,-13.261678
1.517000,-1.057381,-10.453650
1.517500,-1.057381,-10.453650
1.518000,-3.865262,-10.453650
1.518500,-3.865262,-10.453650
1.519000,-5.269203,-3.433581
1.519500,-5.269203,-0.625553
1.520000,-8.077084,-10.453650
1.520500,-3.865262,-9.049636
1.521000,3.154441,-9.049636
1.521500,-6.673143,-7.645623
1.522000,-2.461321,-10.453650
1.522500,-5.269203,-10.453650
1.523000,-2.461321,-10.453650
1.523500,-3.865262,-14.665692
1.524000,-3.865262,-11.857664
1.524500,-1.057381,-20.281748
1.525000,-2.461321,-20.281748
1.525500,-2.461321,-16.069706
1.526000,-5.269203,-21.685762
1.526500,-8.077084,-20.281748
1.527000,-1.057381,-16.069706
1.527500,-1.057381,-13.261678
1.528000,-2.461321,-17.473720
1.528500,-1.057381,-17.473720
1.529000,-5.269203,-14.665692
1.529500,-3.865262,-23.089776
1.530000,-1.057381,-11.857664
1.530500,-3.865262,-17.473720
1.531000,-2.461321,-16.069706
1.531500,-2.461321,-11.857664
1.532000,-5.269203,-13.261678
1.532500,-5.269203,-11.857664
1.533000,-2.461321,-10.453650
1.533500,-3.865262,-9.049636
1.534000,-5.269203,-4.837595
1.534500,-6.673143,-10.453650
1.535000,-5.269203,-2.029567
1.535500,-6.673143,-4.837595
1.536000,-5.269203,-9.049636
1.536500,-13.692847,-6.241609
1.537000,-12.288906,-7.645623
1.537500,-6.673143,-6.241609
1.538000,-6.673143,-7.645623
1.538500,-6.673143,-10.453650
1.539000,-8.077084,-13.261678
1.539500,-6.673143,-10.453650
1.540000,-6.673143,-21.685762
1.540500,-5.269203,0.778461
1.541000,-5.269203,-21.685762
1.541500,-2.461321,-14.665692
1.542000,-10.884965,-16.069706
1.542500,-12.288906,-16.069706
1.543000,-5.269203,-17.473720
1.543500,-5.269203,-17.473720
1.544000,-5.269203,-14.665692
1.544500,-3.865262,-21.685762
1.545000,-6.673143,-18.877734
1.545500,-5.269203,-20.281748
1.546000,-8.077084,-13.261678
1.546500,-5.269203,-18.877734
1.547000,-10.884965,-16.069706
1.547500,-6.673143,-16.069706
1.548000,-5.269203,-16.069706
1.548500,-6.673143,-13.261678
1.549000,-8.077084,-13.261678
1.549500,-6.673143,-13.261678
1.550000,-8.077084,-10.453650
1.550500,-8.077084,-10.453650
1.551000,-6.673143,-13.261678
1.551500,-8.077084,2.182475
1.552000,-9.481025,-13.261678
1.552500,-8.077084,-7.645623
1.553000,-17.904669,-9.049636
1.553500,-16.500728,-7.645623
1.554000,-8.077084,-9.049636
1.554500,-9.481025,-9.049636
1.555000,-8.077084,-9.049636
1.555500,-9.481025,-11.857664
1.556000,-12.288906,-11.857664
1.556500,-10.884965,-20.281748
1.557000,-10.884965,-21.685762
1.557500,-8.077084,-11.857664
1.558000,-17.904669,-20.281748
1.558500,-1.057381,-17.473720
1.559000,-15.096787,-16.069706
1.559500,-8.077084,-20.281748
1.560000,-8.077084,-17.473720
1.560500,-5.269203,-18.877734
1.561000,-5.269203,-20.281748
1.561500,-9.481025,-20.281748
1.562000,-6.673143,-17.473720
1.562500,-10.884965,-17.473720
1.563000,-8.077084,-17.473720
1.563500,-3.865262,-17.473720
1.564000,-10.884965,-16.069706
1.564500,-12.288906,-10.453650
1.565000,-10.884965,-13.261678
1.565500,-12.288906,-11.857664
1.566000,-8.077084,-10.453650
1.566500,-10.884965,-14.665692
1.567000,-10.884965,-2.029567
1.567500,-9.481025,-9.049636
1.568000,-22.116491,-7.645623
1.568500,-1.057381,-10.453650
1.569000,-19.308609,-9.049636
1.569500,-13.692847,-9.049636
1.570000,-12.288906,-6.241609
1.570500,-12.288906,-6.241609
1.571000,-15.096787,-6.241609
1.571500,-12.288906,-6.241609
1.572000,-13.692847,-10.453650
1.572500,-12.288906,-11.857664
1.573000,-12.288906,-10.453650
1.573500,-17.904669,-11.857664
1.574000,-12.288906,-13.261678
1.574500,-13.692847,-16.069706
1.575000,-12.288906,-16.069706
1.575500,-10.884965,-18.877734
1.576000,-10.884965,-17.473720
1.576500,-8.077084,-16.069706
1.577000,-8.077084,-17.473720
1.577500,-9.481025,-9.049636
1.578000,-5.269203,-21.685762
1.578500,-10.884965,-23.089776
1.579000,-9.481025,-18.877734
1.579500,-13.692847,-17.473720
1.580000,-8.077084,-18.877734
1.580500,-9.481025,-16.069706
1.581000,-10.884965,-14.665692
1.581500,-10.884965,-13.261678
1.582000,-10.884965,-13.261678
1.582500,-12.288906,-21.685762
1.583000,-12.288906,0.778461
1.583500,-13.692847,-17.473720
1.584000,-9.481025,-10.453650
1.584500,-19.308609,-11.857664
1.585000,-1.057381,-10.453650
1.585500,-15.096787,-10.453650
1.586000,-16.500728,-10.453650
1.586500,-15.096787,-9.049636
1.587000,-16.500728,-10.453650
1.587500,-15.096787,-11.857664
1.588000,-12.288906,-11.857664
1.588500,-13.692847,-11.857664
1.589000,-10.884965,-16.069706
1.589500,-23.520431,-16.069706
1.590000,-16.500728,-14.665692
1.590500,-10.884965,-16.069706
1.591000,-8.077084,-17.473720
1.591500,-12.288906,-18.877734
1.592000,-12.288906,-24.493790
1.592500,-10.884965,-20.281748
1.593000,-8.077084,-27.301818
1.593500,-6.673143,-16.069706
1.594000,-8.077084,-23.089776
1.594500,-5.269203,-24.493790
1.595000,-2.461321,-23.089776
1.595500,-9.481025,-24.493790
1.596000,-8.077084,-23.089776
1.596500,-8.077084,-21.685762
1.597000,-10.884965,-23.089776
1.597500,-10.884965,-21.685762
1.598000,-8.077084,-18.877734
1.598500,-9.481025,-14.665692
1.599000,-9.481025,-24.493790
1.599500,-9.481025,-2.029567
1.600000,-19.308609,-16.069706
1.600500,-16.500728,-10.453650
1.601000,4.558382,-11.857664
1.601500,-16.500728,-13.261678
1.602000,-8.077084,-11.857664
1.602500,-9.481025,-10.453650
1.603000,-10.884965,-9.049636
1.603500,-12.288906,-11.857664
1.604000,-12.288906,-7.645623
1.604500,-9.481025,-17.473720
1.605000,-9.481025,2.182475
1.605500,-8.077084,-13.261678
1.606000,-16.500728,-11.857664
1.606500,4.558382,-13.261678
1.607000,-13.692847,-16.069706
1.607500,-8.077084,-17.473720
1.608000,-8.077084,-17.473720
1.608500,-8.077084,-18.877734
1.609000,-8.077084,-24.493790
1.609500,-5.269203,-20.281748
1.610000,-6.673143,-30.109846
1.610500,-3.865262,-23.089776
1.611000,-13.692847,-21.685762
1.611500,11.578085,-23.089776
1.612000,-10.884965,-21.685762
1.612500,-3.865262,-25.897804
1.613000,-3.865262,-23.089776
1.613500,-2.461321,-18.877734
1.614000,-3.865262,-21.685762
1.614500,-3.865262,-16.069706
1.615000,-5.269203,-27.301818
1.615500,-2.461321,-18.877734
1.616000,-2.461321,-13.261678
1.616500,-10.884965,-17.473720
1.617000,-3.865262,-13.261678
1.617500,-3.865262,-13.261678
1.618000,-5.269203,-11.857664
1.618500,-3.865262,-14.665692
1.619000,-6.673143,-13.261678
1.619500,-6.673143,-11.857664
1.620000,-8.077084,-20.281748
1.620500,-8.077084,-0.625553
1.621000,-6.673143,-0.625553
1.621500,-13.692847,-13.261678
1.622000,-15.096787,-14.665692
1.622500,4.558382,-14.665692
1.623000,-5.269203,-16.069706
1.623500,-6.673143,-23.089776
1.624000,-5.269203,-17.473720
1.624500,-8.077084,-21.685762
1.625000,-6.673143,-21.685762
1.625500,-5.269203,-31.513859
1.626000,-5.269203,-30.109846
1.626500,-2.461321,-24.493790
1.627000,-16.500728,-23.089776
1.627500,8.770204,-25.897804
1.628000,-3.865262,-24.493790
1.628500,-5.269203,-24.493790
1.629000,-1.057381,-25.897804
1.629500,-3.865262,-23.089776
1.630000,-5.269203,-27.301818
1.630500,-5.269203,-21.685762
1.631000,-6.673143,-28.705832
1.631500,-3.865262,-21.685762
1.632000,-1.057381,-20.281748
1.632500,-15.096787,-17.473720
1.633000,-5.269203,-17.473720
1.633500,-2.461321,-16.069706
1.634000,-2.461321,-16.069706
1.634500,-5.269203,-14.665692
1.635000,-6.673143,-13.261678
1.635500,-5.269203,-23.089776
1.636000,-8.077084,-14.665692
1.636500,-2.461321,-17.473720
1.637000,-16.500728,-16.069706
1.637500,8.770204,-13.261678
1.638000,-13.692847,-14.665692
1.638500,-5.269203,-16.069706
1.639000,-6.673143,-16.069706
1.639500,-5.269203,-18.877734
1.640000,-6.673143,-21.685762
1.640500,-6.673143,-23.089776
1.641000,-3.865262,-11.857664
1.641500,-3.865262,-30.109846
1.642000,-8.077084,-24.493790
1.642500,-1.057381,-25.897804
1.643000,-10.884965,-27.301818
1.643500,-1.057381,-27.301818
1.644000,-1.057381,-24.493790
1.644500,-2.461321,-28.705832
1.645000,-1.057381,-30.109846
1.645500,-2.461321,-27.301818
1.646000,-2.461321,-27.301818
1.646500,0.346560,-25.897804
1.647000,-1.057381,-31.513859
1.647500,-3.865262,-31.513859
1.648000,-9.481025,-23.089776
1.648500,11.578085,-23.089776
1.649000,-10.884965,-21.685762
1.649500,-3.865262,-21.685762
1.650000,-3.865262,-21.685762
1.650500,-2.461321,-16.069706
1.651000,-2.461321,-14.665692
1.651500,-2.461321,-24.493790
1.652000,-3.865262,-13.261678
1.652500,-6.673143,-11.857664
1.653000,-5.269203,-23.089776
1.653500,10.174145,-18.877734
1.654000,11.578085,-18.877734
1.654500,-13.692847,-14.665692
1.655000,-3.865262,-17.473720
1.655500,-3.865262,-17.473720
1.656000,-3.865262,-17.473720
1.656500,-5.269203,-20.281748
1.657000,-3.865262,-20.281748
1.657500,-1.057381,-20.281748
1.658000,-3.865262,-27.301818
1.658500,-8.077084,-24.493790
1.659000,11.578085,-23.089776
1.659500,-9.481025,-25.897804
1.660000,-2.461321,-23.089776
1.660500,-1.057381,-25.897804
1.661000,0.346560,-27.301818
1.661500,-2.461321,-27.301818
1.662000,-1.057381,-24.493790
1.662500,0.346560,-23.089776
1.663000,-3.865262,-27.301818
1.663500,1.750501,-27.301818
1.664000,-12.288906,-23.089776
1.664500,0.346560,-23.089776
1.665000,-5.269203,-20.281748
1.665500,-5.269203,-20.281748
1.666000,-2.461321,-17.473720
1.666500,-5.269203,-16.069706
1.667000,-2.461321,-16.069706
1.667500,-5.269203,-11.857664
1.668000,-3.865262,-21.685762
1.668500,-6.673143,-7.645623
1.669000,-8.077084,-13.261678
1.669500,1.750501,-10.453650
1.670000,0.346560,-13.261678
1.670500,-8.077084,-11.857664
1.671000,-9.481025,-13.261678
1.671500,-8.077084,-11.857664
1.672000,-6.673143,-10.453650
1.672500,-8.077084,-13.261678
1.673000,-8.077084,-14.665692
1.673500,-6.673143,-17.473720
1.674000,-5.269203,-23.089776
1.674500,-8.077084,-18.877734
1.675000,-2.461321,-20.281748
1.675500,-13.692847,-21.685762
1.676000,-5.269203,-21.685762
1.676500,-3.865262,-23.089776
1.677000,-2.461321,-20.281748
1.677500,-3.865262,-20.281748
1.678000,-3.865262,-21.685762
1.678500,-2.461321,-30.109846
1.679000,-2.461321,-11.857664
1.679500,-1.057381,-9.049636
1.680000,-5.269203,-27.301818
1.680500,12.982026,-21.685762
1.681000,-10.884965,-16.069706
1.681500,-5.269203,-17.473720
1.682000,-6.673143,-14.665692
1.682500,-5.269203,-16.069706
1.683000,-3.865262,-14.665692
1.683500,-5.269203,-10.453650
1.684000,-3.865262,-9.049636
1.684500,-5.269203,-16.069706
1.685000,-1.057381,-11.857664
1.685500,-15.096787,-10.453650
1.686000,1.750501,-10.453650
1.686500,-5.269203,-11.857664
1.687000,-6.673143,-9.049636
1.687500,-6.673143,-9.049636
1.688000,-6.673143,-10.453650
1.688500,-5.269203,-10.453650
1.689000,-3.865262,-13.261678
1.689500,-3.865262,-13.261678
1.690000,-3.865262,-23.089776
1.690500,-9.481025,-21.685762
1.691000,11.578085,-18.877734
1.691500,8.770204,-18.877734
1.692000,-13.692847,-21.685762
1.692500,-6.673143,-20.281748
1.693000,-5.269203,-21.685762
1.693500,-5.269203,-21.685762
1.694000,-3.865262,-23.089776
1.694500,-3.865262,-20.281748
1.695000,-3.865262,-23.089776
1.695500,-5.269203,-27.301818
1.696000,-5.269203,-23.089776
1.696500,-13.692847,-21.685762
1.697000,10.174145,-18.877734
1.697500,-13.692847,-18.877734
1.698000,-5.269203,-16.069706
1.698500,-5.269203,-14.665692
1.699000,-5.269203,-16.069706
1.699500,-5.269203,-13.261678
1.700000,-8.077084,-6.241609
1.700500,-6.673143,-17.473720
1.701000,-3.865262,-4.837595
1.701500,-15.096787,-10.453650
1.702000,-12.288906,-14.665692
1.702500,-15.096787,-11.857664
1.703000,-9.481025,-9.049636
1.703500,-8.077084,-9.049636
1.704000,-10.884965,-7.645623
1.704500,-6.673143,-7.645623
1.705000,-6.673143,-9.049636
1.705500,-10.884965,-11.857664
1.706000,-8.077084,-10.453650
1.706500,-10.884965,-18.877734
1.707000,-5.269203,-13.261678
1.707500,-17.904669,-14.665692
1.708000,0.346560,-16.069706
1.708500,3.154441,-16.069706
1.709000,-8.077084,-18.877734
1.709500,-6.673143,-17.473720
1.710000,-6.673143,-17.473720
1.710500,-5.269203,-18.877734
1.711000,-5.269203,-17.473720
1.711500,-5.269203,-23.089776
1.712000,-3.865262,-4.837595
1.712500,-8.077084,-27.301818
1.713000,-1.057381,-14.665692
1.713500,-12.288906,-16.069706
1.714000,-8.077084,-13.261678
1.714500,-6.673143,-11.857664
1.715000,-5.269203,-11.857664
1.715500,-5.269203,-9.049636
1.716000,-8.077084,-9.049636
1.716500,-5.269203,-7.645623
1.717000,-6.673143,-9.049636
1.717500,-6.673143,-10.453650
1.718000,-6.673143,-3.433581
1.718500,-17.904669,-6.241609
1.719000,3.154441,-6.241609
1.719500,-12.288906,-2.029567
1.720000,-10.884965,-6.241609
1.720500,-8.077084,-3.433581
1.721000,-8.077084,-4.837595
1.721500,-8.077084,-4.837595
1.722000,-9.481025,-0.625553
1.722500,-6.673143,-16.069706
1.723000,-5.269203,-2.029567
1.723500,-9.481025,-11.857664
1.724000,-5.269203,-14.665692
1.724500,-8.077084,-14.665692
1.725000,1.750501,-14.665692
1.725500,-16.500728,-13.261678
1.726000,-9.481025,-14.665692
1.726500,-3.865262,-13.261678
1.727000,-5.269203,-14.665692
1.727500,-2.461321,-14.665692
1.728000,-2.461321,-11.857664
1.728500,-8.077084,-21.685762
1.729000,-3.865262,-13.261678
1.729500,-13.692847,-13.261678
1.730000,8.770204,-16.069706
1.730500,-8.077084,-10.453650
1.731000,-5.269203,-13.261678
1.731500,-3.865262,-11.857664
1.732000,-5.269203,-10.453650
1.732500,-8.077084,-10.453650
1.733000,-5.269203,-7.645623
1.733500,-5.269203,-3.433581
1.734000,-9.481025,-11.857664
1.734500,-5.269203,-4.837595
1.735000,-17.904669,-6.241609
1.735500,0.346560,-3.433581
1.736000,-5.269203,-4.837595
1.736500,-8.077084,-2.029567
1.737000,-9.481025,-4.837595
1.737500,-6.673143,-6.241609
1.738000,-5.269203,-2.029567
1.738500,-6.673143,-6.241609
1.739000,-5.269203,-3.433581
1.739500,-6.673143,-9.049636
1.740000,-5.269203,-14.665692
1.740500,-13.692847,-10.453650
1.741000,10.174145,-13.261678
1.741500,-8.077084,-10.453650
1.742000,-5.269203,-14.665692
1.742500,-5.269203,-11.857664
1.743000,-3.865262,-16.069706
1.743500,-3.865262,-17.473720
1.744000,-1.057381,-13.261678
1.744500,-1.057381,-21.685762
1.745000,-3.865262,-2.029567
1.745500,-2.461321,-2.029567
1.746000,0.346560,-21.685762
1.746500,-13.692847,-16.069706
1.747000,11.578085,-11.857664
1.747500,-10.884965,-10.453650
1.748000,-1.057381,-9.049636
1.748500,-2.461321,-9.049636
1.749000,-2.461321,-6.241609
1.749500,-1.057381,-9.049636
1.750000,-2.461321,-4.837595
1.750500,-1.057381,-13.261678
1.751000,0.346560,-4.837595
1.751500,0.346560,-4.837595
1.752000,-15.096787,-4.837595
1.752500,-12.288906,-3.433581
1.753000,-5.269203,-4.837595
1.753500,-5.269203,-4.837595
1.754000,-3.865262,-3.433581
1.754500,-5.269203,-6.241609
1.755000,-5.269203,-4.837595
1.755500,-2.461321,-9.049636
1.756000,-1.057381,-13.261678
1.756500,0.346560,-6.241609
1.757000,-12.288906,-11.857664
1.757500,11.578085,-10.453650
1.758000,-10.884965,-10.453650
1.758500,-2.461321,-13.261678
1.759000,-2.461321,-11.857664
1.759500,-3.865262,-14.665692
1.760000,0.346560,-17.473720
1.760500,0.346560,-18.877734
1.761000,0.346560,-18.877734
1.761500,-2.461321,-4.837595
1.762000,-1.057381,-24.493790
1.762500,14.385967,-16.069706
1.763000,14.385967,-14.665692
1.763500,-6.673143,-13.261678
1.764000,-2.461321,-13.261678
1.764500,-3.865262,-11.857664
1.765000,-1.057381,-10.453650
1.765500,-1.057381,-10.453650
1.766000,-2.461321,-10.453650
1.766500,-1.057381,2.182475
1.767000,-3.865262,-13.261678
1.767500,1.750501,-6.241609
1.768000,-15.096787,-4.837595
1.768500,-3.865262,-6.241609
1.769000,-8.077084,-6.241609
1.769500,-5.269203,-4.837595
1.770000,-5.269203,-2.029567
1.770500,-5.269203,-2.029567
1.771000,-3.865262,-6.241609
1.771500,-5.269203,-3.433581
1.772000,-5.269203,-14.665692
1.772500,-3.865262,-6.241609
1.773000,-10.884965,-10.453650
1.773500,-1.057381,-9.049636
1.774000,0.346560,-11.857664
1.774500,-8.077084,-13.261678
1.775000,-5.269203,-16.069706
1.775500,-6.673143,-14.665692
1.776000,-5.269203,-17.473720
1.776500,-2.461321,-18.877734
1.777000,-5.269203,-20.281748
1.777500,0.346560,-21.685762
1.778000,-2.461321,-4.837595
1.778500,1.750501,-16.069706
1.779000,-12.288906,-18.877734
1.779500,-2.461321,-16.069706
1.780000,-2.461321,-16.069706
1.780500,-3.865262,-13.261678
1.781000,-1.057381,-14.665692
1.781500,-2.461321,-14.665692
1.782000,-1.057381,-11.857664
1.782500,-5.269203,-6.241609
1.783000,-1.057381,-11.857664
1.783500,-5.269203,-7.645623
1.784000,-2.461321,-7.645623
1.784500,-5.269203,-7.645623
1.785000,-6.673143,-7.645623
1.785500,-3.865262,-7.645623
1.786000,-5.269203,-6.241609
1.786500,-5.269203,-6.241609
1.787000,-6.673143,-10.453650
1.787500,-5.269203,-3.433581
1.788000,-3.865262,-4.837595
1.788500,-5.269203,-16.069706
1.789000,-5.269203,-9.049636
1.789500,0.346560,-11.857664
1.790000,11.578085,-13.261678
1.790500,-6.673143,-11.857664
1.791000,-3.865262,-11.857664
1.791500,-5.269203,-14.665692
1.792000,-5.269203,-17.473720
1.792500,-5.269203,-14.665692
1.793000,-5.269203,-16.069706
1.793500,-1.057381,-6.241609
1.794000,-3.865262,-13.261678
1.794500,-2.461321,-18.877734
1.795000,-1.057381,-13.261678
1.795500,-3.865262,-16.069706
1.796000,8.770204,-16.069706
1.796500,-3.865262,-16.069706
1.797000,-5.269203,-16.069706
1.797500,-5.269203,-10.453650
1.798000,-2.461321,-11.857664
1.798500,-1.057381,-11.857664
1.799000,-5.269203,-10.453650
1.799500,-5.269203,-16.069706
1.800000,-3.865262,-6.241609
1.800500,-12.288906,-9.049636
1.801000,10.174145,-9.049636
1.801500,-12.288906,-4.837595
1.802000,-5.269203,-4.837595
1.802500,-5.269203,-7.645623
1.803000,-5.269203,-6.241609
1.803500,-6.673143,-4.837595
1.804000,-6.673143,-14.665692
1.804500,-3.865262,4.990503
1.805000,-5.269203,-10.453650
1.805500,-3.865262,-10.453650
1.806000,-1.057381,-10.453650
1.806500,-6.673143,-10.453650
1.807000,-5.269203,-10.453650
1.807500,-3.865262,-11.857664
1.808000,-5.269203,-13.261678
1.808500,-3.865262,-20.281748
1.809000,-3.865262,-18.877734
1.809500,-2.461321,-20.281748
1.810000,-3.865262,-16.069706
1.810500,-3.865262,-27.301818
1.811000,-5.269203,-6.241609
1.811500,0.346560,-20.281748
1.812000,-10.884965,-20.281748
1.812500,-3.865262,-20.281748
1.813000,-5.269203,-18.877734
1.813500,0.346560,-20.281748
1.814000,-2.461321,-18.877734
1.814500,-2.461321,-17.473720
1.815000,-2.461321,-16.069706
1.815500,-3.865262,-20.281748
1.816000,-1.057381,0.778461
1.816500,-1.057381,-20.281748
1.817000,-1.057381,-10.453650
1.817500,-12.288906,-10.453650
1.818000,-3.865262,-10.453650
1.818500,-3.865262,-10.453650
1.819000,-5.269203,-10.453650
1.819500,-5.269203,-10.453650
1.820000,-6.673143,-9.049636
1.820500,-5.269203,-17.473720
1.821000,-3.865262,-3.433581
1.821500,-2.461321,-9.049636
1.822000,-2.461321,-14.665692
1.822500,-6.673143,-11.857664
1.823000,1.750501,-13.261678
1.823500,-9.481025,-13.261678
1.824000,-1.057381,-14.665692
1.824500,-1.057381,-16.069706
1.825000,-1.057381,-17.473720
1.825500,-1.057381,-17.473720
1.826000,-3.865262,-18.877734
1.826500,0.346560,-24.493790
1.827000,0.346560,-7.645623
1.827500,0.346560,-24.493790
1.828000,15.789907,-21.685762
1.828500,-8.077084,-17.473720
1.829000,0.346560,-18.877734
1.829500,0.346560,-21.685762
1.830000,0.346560,-18.877734
1.830500,-1.057381,-16.069706
1.831000,-1.057381,-16.069706
1.831500,-1.057381,-16.069706
1.832000,-2.461321,-20.281748
1.832500,-1.057381,0.778461
1.833000,-2.461321,-20.281748
1.833500,1.750501,-10.453650
1.834000,-12.288906,-10.453650
1.834500,-12.288906,-9.049636
1.835000,-2.461321,-9.049636
1.835500,-1.057381,-9.049636
1.836000,-2.461321,-4.837595
1.836500,-5.269203,-10.453650
1.837000,-5.269203,-10.453650
1.837500,-6.673143,-10.453650
1.838000,-2.461321,-3.433581
1.838500,-3.865262,-14.665692
1.839000,-8.077084,-11.857664
1.839500,7.366263,-14.665692
1.840000,-10.884965,-14.665692
1.840500,-2.461321,-14.665692
1.841000,-5.269203,-16.069706
1.841500,-1.057381,-16.069706
1.842000,-3.865262,-17.473720
1.842500,-5.269203,-14.665692
1.843000,-3.865262,-17.473720
1.843500,-3.865262,-21.685762
1.844000,0.346560,-4.837595
1.844500,-1.057381,-23.089776
1.845000,-12.288906,-17.473720
1.845500,12.982026,-16.069706
1.846000,-5.269203,-16.069706
1.846500,-5.269203,-17.473720
1.847000,-5.269203,-13.261678
1.847500,-5.269203,-16.069706
1.848000,-2.461321,-10.453650
1.848500,-3.865262,-11.857664
1.849000,-5.269203,-17.473720
1.849500,-3.865262,-14.665692
1.850000,0.346560,-6.241609
1.850500,-12.288906,-7.645623
1.851000,10.174145,-6.241609
1.851500,-9.481025,-6.241609
1.852000,-6.673143,-6.241609
1.852500,-8.077084,-4.837595
1.853000,-6.673143,-7.645623
1.853500,-8.077084,-3.433581
1.854000,-8.077084,-7.645623
1.854500,-8.077084,-9.049636
1.855000,-5.269203,-9.049636
1.855500,-6.673143,-6.241609
1.856000,-10.884965,-7.645623
1.856500,4.558382,-9.049636
1.857000,-12.288906,-11.857664
1.857500,-5.269203,-14.665692
1.858000,-3.865262,-14.665692
1.858500,-5.269203,-16.069706
1.859000,-6.673143,-18.877734
1.859500,-5.269203,-16.069706
1.860000,-8.077084,-24.493790
1.860500,-5.269203,-24.493790
1.861000,0.346560,-18.877734
1.861500,-10.884965,-17.473720
1.862000,10.174145,-16.069706
1.862500,-8.077084,-17.473720
1.863000,-6.673143,-18.877734
1.863500,-1.057381,-16.069706
1.864000,-6.673143,-16.069706
1.864500,-5.269203,-14.665692
1.865000,-5.269203,-14.665692
1.865500,-6.673143,-9.049636
1.866000,-2.461321,-17.473720
1.866500,-2.461321,-13.261678
1.867000,-3.865262,-7.645623
1.867500,10.174145,-7.645623
1.868000,-10.884965,-7.645623
1.868500,-5.269203,-11.857664
1.869000,-5.269203,-9.049636
1.869500,-3.865262,-6.241609
1.870000,-3.865262,-10.453650
1.870500,-2.461321,-10.453650
1.871000,-3.865262,2.182475
1.871500,-5.269203,-10.453650
1.872000,-6.673143,-9.049636
1.872500,-3.865262,-10.453650
1.873000,10.174145,-11.857664
1.873500,-8.077084,-10.453650
1.874000,-2.461321,-10.453650
1.874500,-2.461321,-14.665692
1.875000,-3.865262,-14.665692
1.875500,-3.865262,-18.877734
1.876000,-1.057381,-20.281748
1.876500,-1.057381,-10.453650
1.877000,3.154441,-25.897804
1.877500,0.346560,-17.473720
1.878000,-2.461321,-18.877734
1.878500,14.385967,-20.281748
1.879000,0.346560,-18.877734
1.879500,3.154441,-20.281748
1.880000,3.154441,-17.473720
1.880500,1.750501,-20.281748
1.881000,1.750501,-14.665692
1.881500,1.750501,-23.089776
1.882000,1.750501,-21.685762
1.882500,1.750501,-14.665692
1.883000,0.346560,-11.857664
1.883500,17.193848,-10.453650
1.884000,-6.673143,-6.241609
1.884500,0.346560,-4.837595
1.885000,0.346560,-7.645623
1.885500,1.750501,-6.241609
1.886000,0.346560,-6.241609
1.886500,-1.057381,-6.241609
1.887000,3.154441,-11.857664
1.887500,0.346560,4.990503
1.888000,-1.057381,-9.049636
1.888500,15.789907,-10.453650
1.889000,-5.269203,-9.049636
1.889500,4.558382,-7.645623
1.890000,1.750501,-11.857664
1.890500,1.750501,-13.261678
1.891000,1.750501,-14.665692
1.891500,3.154441,-13.261678
1.892000,1.750501,-20.281748
1.892500,1.750501,-10.453650
1.893000,4.558382,-20.281748
1.893500,7.366263,-17.473720
1.894000,-2.461321,-17.473720
1.894500,0.346560,-16.069706
1.895000,7.366263,-14.665692
1.895500,10.174145,-16.069706
1.896000,8.770204,-16.069706
1.896500,4.558382,-20.281748
1.897000,7.366263,-16.069706
1.897500,8.770204,-14.665692
1.898000,7.366263,0.778461
1.898500,3.154441,-20.281748
1.899000,10.174145,-10.453650
1.899500,-5.269203,-9.049636
1.900000,17.193848,-6.241609
1.900500,7.366263,-6.241609
1.901000,3.154441,-6.241609
1.901500,1.750501,-6.241609
1.902000,1.750501,-4.837595
1.902500,0.346560,-2.029567
1.903000,1.750501,-6.241609
1.903500,-2.461321,-3.433581
1.904000,1.750501,2.182475
1.904500,-2.461321,3.586489
1.905000,-2.461321,-6.241609
1.905500,17.193848,-9.049636
1.906000,-3.865262,-7.645623
1.906500,1.750501,-6.241609
1.907000,-1.057381,-9.049636
1.907500,0.346560,-10.453650
1.908000,3.154441,-13.261678
1.908500,0.346560,-11.857664
1.909000,0.346560,-23.089776
1.909500,3.154441,-10.453650
1.910000,3.154441,-13.261678
1.910500,7.366263,-21.685762
1.911000,0.346560,-17.473720
1.911500,17.193848,-17.473720
1.912000,-3.865262,-16.069706
1.912500,3.154441,-20.281748
1.913000,3.154441,-17.473720
1.913500,4.558382,-16.069706
1.914000,4.558382,-14.665692
1.914500,4.558382,-21.685762
1.915000,4.558382,-9.049636
1.915500,4.558382,-7.645623
1.916000,4.558382,-14.665692
1.916500,4.558382,-10.453650
1.917000,11.578085,-9.049636
1.917500,-5.269203,-9.049636
1.918000,-1.057381,-9.049636
1.918500,0.346560,-9.049636
1.919000,-1.057381,-6.241609
1.919500,-1.057381,-6.241609
1.920000,-1.057381,-6.241609
1.920500,0.346560,-4.837595
1.921000,0.346560,4.990503
1.921500,3.154441,-13.261678
1.922000,-1.057381,-10.453650
1.922500,15.789907,-10.453650
1.923000,-3.865262,-10.453650
1.923500,1.750501,-11.857664
1.924000,1.750501,-11.857664
1.924500,0.346560,-14.665692
1.925000,1.750501,-14.665692
1.925500,1.750501,-20.281748
1.926000,1.750501,-20.281748
1.926500,0.346560,-17.473720
1.927000,7.366263,-25.897804
1.927500,3.154441,-18.877734
1.928000,11.578085,-21.685762
1.928500,1.750501,-23.089776
1.929000,3.154441,-23.089776
1.929500,1.750501,-18.877734
1.930000,7.366263,-18.877734
1.930500,7.366263,-18.877734
1.931000,3.154441,-16.069706
1.931500,1.750501,-17.473720
1.932000,4.558382,-17.473720
1.932500,1.750501,-0.625553
1.933000,1.750501,-18.877734
1.933500,7.366263,-11.857664
1.934000,-3.865262,-10.453650
1.934500,1.750501,-6.241609
1.935000,0.346560,-10.453650
1.935500,0.346560,-6.241609
1.936000,0.346560,-9.049636
1.936500,-1.057381,-10.453650
1.937000,-1.057381,-7.645623
1.937500,-2.461321,-13.261678
1.938000,-2.461321,-9.049636
1.938500,-1.057381,-11.857664
1.939000,0.346560,-10.453650
1.939500,-10.884965,-10.453650
1.940000,15.789907,-10.453650
1.940500,-2.461321,-13.261678
1.941000,0.346560,-13.261678
1.941500,-1.057381,-16.069706
1.942000,-1.057381,-18.877734
1.942500,-1.057381,-16.069706
1.943000,1.750501,-16.069706
1.943500,3.154441,-16.069706
1.944000,3.154441,-25.897804
1.944500,-1.057381,-21.685762
1.945000,3.154441,-10.453650
1.945500,5.962323,-20.281748
1.946000,-5.269203,-20.281748
1.946500,-1.057381,-18.877734
1.947000,0.346560,-18.877734
1.947500,0.346560,-13.261678
1.948000,-1.057381,-16.069706
1.948500,-1.057381,-10.453650
1.949000,-1.057381,-10.453650
1.949500,-2.461321,-18.877734
1.950000,0.346560,-7.645623
1.950500,-6.673143,-6.241609
1.951000,-3.865262,-4.837595
1.951500,15.789907,-4.837595
1.952000,-5.269203,-6.241609
1.952500,-2.461321,-4.837595
1.953000,-3.865262,-6.241609
1.953500,-5.269203,-3.433581
1.954000,-3.865262,-4.837595
1.954500,-3.865262,-6.241609
1.955000,-1.057381,-4.837595
1.955500,-5.269203,4.990503
1.956000,-3.865262,-16.069706
1.956500,-12.288906,-10.453650
1.957000,8.770204,-11.857664
1.957500,-10.884965,-11.857664
1.958000,-3.865262,-14.665692
1.958500,-1.057381,-16.069706
1.959000,-2.461321,-16.069706
1.959500,-3.865262,-20.281748
1.960000,-2.461321,-16.069706
1.960500,0.346560,-4.837595
1.961000,-5.269203,-21.685762
1.961500,1.750501,-16.069706
1.962000,-8.077084,-18.877734
1.962500,1.750501,-16.069706
1.963000,4.558382,-16.069706
1.963500,0.346560,-16.069706
1.964000,1.750501,-16.069706
1.964500,-1.057381,-10.453650
1.965000,-2.461321,-11.857664
1.965500,-1.057381,-10.453650
1.966000,0.346560,-13.261678
1.966500,0.346560,-10.453650
1.967000,1.750501,-4.837595
1.967500,-8.077084,-6.241609
1.968000,1.750501,-6.241609
1.968500,-5.269203,-7.645623
1.969000,-5.269203,-4.837595
1.969500,-3.865262,-6.241609
1.970000,-3.865262,-7.645623
1.970500,-5.269203,-4.837595
1.971000,-5.269203,-11.857664
1.971500,-2.461321,4.990503
1.972000,-2.461321,4.990503
1.972500,-12.288906,-10.453650
1.973000,-12.288906,-10.453650
1.973500,8.770204,-11.857664
1.974000,-2.461321,-11.857664
1.974500,0.346560,-14.665692
1.975000,0.346560,-14.665692
1.975500,-2.461321,-17.473720
1.976000,-3.865262,-16.069706
1.976500,0.346560,-20.281748
1.977000,1.750501,-18.877734
1.977500,0.346560,-25.897804
1.978000,0.346560,-23.089776
1.978500,4.558382,-17.473720
1.979000,-9.481025,-18.877734
1.979500,-6.673143,-18.877734
1.980000,-1.057381,-17.473720
1.980500,-1.057381,-17.473720
1.981000,-1.057381,-16.069706
1.981500,-2.461321,-14.665692
1.982000,-2.461321,-11.857664
1.982500,-2.461321,-11.857664
1.983000,-2.461321,-3.433581
1.983500,-2.461321,-14.665692
1.984000,0.346560,-10.453650
1.984500,-12.288906,-6.241609
1.985000,11.578085,-4.837595
1.985500,-9.481025,-6.241609
1.986000,-2.461321,-6.241609
1.986500,-5.269203,-7.645623
1.987000,-6.673143,-3.433581
1.987500,-5.269203,-6.241609
1.988000,-8.077084,-4.837595
1.988500,-6.673143,-14.665692
1.989000,-3.865262,4.990503
1.989500,-5.269203,-6.241609
1.990000,-9.481025,-11.857664
1.990500,-5.269203,-9.049636
1.991000,3.154441,-11.857664
1.991500,-13.692847,-14.665692
1.992000,-3.865262,-13.261678
1.992500,-6.673143,-16.069706
1.993000,-5.269203,-17.473720
1.993500,-2.461321,-14.665692
1.994000,-2.461321,-17.473720
1.994500,-5.269203,-17.473720
1.995000,-2.461321,-17.473720
1.995500,-2.461321,-16.069706
1.996000,0.346560,-16.069706
1.996500,-9.481025,-16.069706
1.997000,-12.288906,-14.665692
1.997500,-3.865262,-14.665692
1.998000,-2.461321,-13.261678
1.998500,-3.865262,-11.857664
1.999000,-5.269203,-11.857664
1.999500,-2.461321,-7.645623
2.000000,-2.461321,-16.069706
2.000500,-1.057381,3.586489
2.001000,-3.865262,0.778461
2.001500,-6.673143,-10.453650
2.002000,7.366263,-3.433581
2.002500,-10.884965,-2.029567
2.003000,-8.077084,-3.433581
2.003500,-6.673143,-3.433581
2.004000,-5.269203,-0.625553
2.004500,-5.269203,-2.029567
2.005000,-5.269203,-0.625553
2.005500,-6.673143,-11.857664
2.006000,-1.057381,3.586489
2.006500,-5.269203,-9.049636
2.007000,-1.057381,-10.453650
2.007500,-13.692847,-10.453650
2.008000,-3.865262,-10.453650
2.008500,-6.673143,-11.857664
2.009000,-8.077084,-16.069706
2.009500,-3.865262,-11.857664
2.010000,-5.269203,-13.261678
2.010500,-3.865262,-16.069706
2.011000,-3.865262,-13.261678
2.011500,-2.461321,-6.241609
2.012000,-2.461321,-3.433581
2.012500,-5.269203,-13.261678
2.013000,-8.077084,-11.857664
2.013500,10.174145,-14.665692
2.014000,-10.884965,-14.665692
2.014500,-5.269203,-10.453650
2.015000,-3.865262,-9.049636
2.015500,-5.269203,-7.645623
2.016000,-2.461321,-10.453650
2.016500,-3.865262,-0.625553
2.017000,-3.865262,-11.857664
2.017500,-1.057381,-4.837595
2.018000,-5.269203,3.586489
2.018500,-6.673143,-0.625553
2.019000,-15.096787,-0.625553
2.019500,-10.884965,-2.029567
2.020000,-6.673143,-2.029567
2.020500,-6.673143,-2.029567
2.021000,-5.269203,-2.029567
2.021500,-5.269203,-2.029567
2.022000,-8.077084,-4.837595
2.022500,-5.269203,-4.837595
2.023000,-5.269203,-10.453650
2.023500,-5.269203,-6.241609
2.024000,-5.269203,-10.453650
2.024500,-10.884965,-10.453650
2.025000,-5.269203,-13.261678
2.025500,-2.461321,-14.665692
2.026000,-3.865262,-16.069706
2.026500,-3.865262,-13.261678
2.027000,-1.057381,-10.453650
2.027500,-1.057381,-21.685762
2.028000,0.346560,-23.089776
2.028500,3.154441,-4.837595
2.029000,3.154441,-16.069706
2.029500,-8.077084,-14.665692
2.030000,4.558382,-13.261678
2.030500,0.346560,-13.261678
2.031000,-2.461321,-11.857664
2.031500,0.346560,-10.453650
2.032000,-2.461321,-9.049636
2.032500,-1.057381,-9.049636
2.033000,0.346560,-4.837595
2.033500,-3.865262,-14.665692
2.034000,-3.865262,-11.857664
2.034500,-5.269203,-0.625553
2.035000,-2.461321,-0.625553
2.035500,-5.269203,-3.433581
2.036000,-10.884965,-3.433581
2.036500,7.366263,-3.433581
2.037000,-3.865262,-2.029567
2.037500,-3.865262,-3.433581
2.038000,-3.865262,-2.029567
2.038500,-3.865262,-2.029567
2.039000,-5.269203,-6.241609
2.039500,-1.057381,-6.241609
2.040000,-3.865262,-0.625553
2.040500,-5.269203,2.182475
2.041000,-3.865262,-16.069706
2.041500,-9.481025,-13.261678
2.042000,12.982026,-10.453650
2.042500,-2.461321,-10.453650
