	Time	Channel 1	Channel 2	Channel 3	Channel 4
0	0.0	-10.448	-0.704081632653	-1.03783783784	1.26353887399
1	0.0005	-1.976	0.726530612245	1.84864864865	1.26353887399
2	0.001	2.26	2.15714285714	-11.1405405405	2.67104557641
3	0.0015	13.556	3.58775510204	-5.36756756757	4.07855227882
4	0.002	-0.564	0.726530612245	0.405405405405	-0.143967828418
5	0.0025	2.26	5.01836734694	0.405405405405	2.67104557641
6	0.003	2.26	0.726530612245	20.6108108108	-2.95898123324
7	0.0035	2.26	12.1714285714	-1.03783783784	-2.95898123324
8	0.004	-6.212	5.01836734694	3.29189189189	1.26353887399
9	0.0045	0.848	2.15714285714	-5.36756756757	2.67104557641
10	0.005	0.848	9.31020408163	3.29189189189	-0.143967828418
11	0.0055	17.792	2.15714285714	1.84864864865	-1.55147453083
12	0.006	-3.388	0.726530612245	3.29189189189	-8.5890080429
13	0.0065	-1.976	0.726530612245	-3.92432432432	-11.4040214477
14	0.007	0.848	6.44897959184	3.29189189189	-12.8115281501
15	0.0075	-3.388	16.4632653061	4.73513513514	-11.4040214477
16	0.008	-3.388	13.6020408163	1.84864864865	-12.8115281501
17	0.0085	-11.86	3.58775510204	0.405405405405	-15.626541555
18	0.009	-3.388	-0.704081632653	1.84864864865	-24.0715817694
19	0.0095	-3.388	3.58775510204	-8.25405405405	-17.0340482574
20	0.01	-0.564	-0.704081632653	-11.1405405405	-21.2565683646
21	0.0105	-0.564	-15.0102040816	0.405405405405	-14.2190348525
22	0.011	2.26	-15.0102040816	3.29189189189	-15.626541555
23	0.0115	-0.564	-6.42653061224	-1.03783783784	-15.626541555
24	0.012	-10.448	-6.42653061224	-1.03783783784	-5.77399463807
25	0.0125	-0.564	-3.56530612245	-1.03783783784	-15.626541555
26	0.013	-0.564	2.15714285714	7.62162162162	-18.4415549598
27	0.0135	0.848	-2.13469387755	-1.03783783784	-17.0340482574
28	0.014	2.26	-7.85714285714	1.84864864865	-15.626541555
29	0.0145	5.084	-2.13469387755	-1.03783783784	-15.626541555
30	0.015	19.204	2.15714285714	-1.03783783784	-11.4040214477
31	0.0155	3.672	2.15714285714	3.29189189189	4.07855227882
32	0.016	0.848	2.15714285714	3.29189189189	-11.4040214477
33	0.0165	2.26	-7.85714285714	3.29189189189	-7.18150134048
34	0.017	2.26	20.7551020408	-1.03783783784	-2.95898123324
35	0.0175	0.848	2.15714285714	-1.03783783784	1.26353887399
36	0.018	-11.86	0.726530612245	0.405405405405	1.26353887399
37	0.0185	-3.388	0.726530612245	3.29189189189	-0.143967828418
38	0.019	-3.388	-2.13469387755	6.17837837838	-9.99651474531
39	0.0195	-4.8	-2.13469387755	-5.36756756757	-1.55147453083
40	0.02	-3.388	19.3244897959	3.29189189189	-1.55147453083
41	0.0205	-3.388	0.726530612245	4.73513513514	-2.95898123324
42	0.021	-3.388	0.726530612245	4.73513513514	-4.36648793566
43	0.0215	-9.036	2.15714285714	6.17837837838	6.89356568365
44	0.022	0.848	-0.704081632653	20.6108108108	-14.2190348525
45	0.0225	-1.976	0.726530612245	20.6108108108	-17.0340482574
46	0.023	3.672	-7.85714285714	3.29189189189	-21.2565683646
47	0.0235	0.848	-6.42653061224	1.84864864865	-21.2565683646
48	0.024	13.556	2.15714285714	3.29189189189	-21.2565683646
49	0.0245	-7.624	2.15714285714	3.29189189189	-15.626541555
50	0.025	-0.564	2.15714285714	1.84864864865	-15.626541555
51	0.0255	-1.976	2.15714285714	0.405405405405	-24.0715817694
52	0.026	-0.564	6.44897959184	0.405405405405	-25.4790884718
53	0.0265	-0.564	5.01836734694	0.405405405405	-26.8865951743
54	0.027	16.38	2.15714285714	-1.03783783784	-25.4790884718
55	0.0275	-4.8	5.01836734694	-2.48108108108	-21.2565683646
56	0.028	0.848	3.58775510204	3.29189189189	-12.8115281501
57	0.0285	2.26	0.726530612245	-1.03783783784	-22.664075067
58	0.029	3.672	-10.7183673469	1.84864864865	-25.4790884718
59	0.0295	2.26	-6.42653061224	3.29189189189	-28.2941018767
60	0.03	3.672	0.726530612245	0.405405405405	-25.4790884718
61	0.0305	-9.036	0.726530612245	-2.48108108108	-24.0715817694
62	0.031	-0.564	0.726530612245	0.405405405405	-29.7016085791
63	0.0315	-4.8	2.15714285714	-5.36756756757	-24.0715817694
64	0.032	-7.624	0.726530612245	-8.25405405405	-19.8490616622
65	0.0325	-7.624	5.01836734694	-1.03783783784	-18.4415549598
66	0.033	-4.8	2.15714285714	-1.03783783784	-15.626541555
67	0.0335	7.908	2.15714285714	1.84864864865	-11.4040214477
68	0.034	-6.212	0.726530612245	1.84864864865	-18.4415549598
69	0.0345	-1.976	0.726530612245	-8.25405405405	-15.626541555
70	0.035	0.848	3.58775510204	-5.36756756757	-8.5890080429
71	0.0355	-0.564	20.7551020408	1.84864864865	-7.18150134048
72	0.036	-0.564	-6.42653061224	4.73513513514	-4.36648793566
73	0.0365	14.968	2.15714285714	1.84864864865	-15.626541555
74	0.037	-0.564	2.15714285714	1.84864864865	-18.4415549598
75	0.0375	0.848	-0.704081632653	1.84864864865	-0.143967828418
76	0.038	0.848	3.58775510204	7.62162162162	-11.4040214477
77	0.0385	-0.564	15.0326530612	4.73513513514	-12.8115281501
78	0.039	-4.8	-0.704081632653	3.29189189189	-15.626541555
79	0.0395	20.616	0.726530612245	1.84864864865	-28.2941018767
80	0.04	-3.388	0.726530612245	-1.03783783784	-28.2941018767
81	0.0405	-0.564	-0.704081632653	-2.48108108108	-4.36648793566
82	0.041	0.848	0.726530612245	-1.03783783784	-21.2565683646
83	0.0415	0.848	-2.13469387755	0.405405405405	-18.4415549598
84	0.042	0.848	-3.56530612245	3.29189189189	-18.4415549598
85	0.0425	2.26	3.58775510204	0.405405405405	-15.626541555
86	0.043	-1.976	2.15714285714	-1.03783783784	-17.0340482574
87	0.0435	5.084	2.15714285714	-14.027027027	-15.626541555
88	0.044	5.084	-2.13469387755	-6.81081081081	-12.8115281501
89	0.0445	5.084	5.01836734694	-11.1405405405	-15.626541555
90	0.045	2.26	0.726530612245	-1.03783783784	-11.4040214477
91	0.0455	-6.212	-0.704081632653	0.405405405405	-12.8115281501
92	0.046	-4.8	-0.704081632653	0.405405405405	-15.626541555
93	0.0465	2.26	2.15714285714	1.84864864865	-11.4040214477
94	0.047	0.848	5.01836734694	-2.48108108108	-9.99651474531
95	0.0475	0.848	-9.28775510204	-3.92432432432	-7.18150134048
96	0.048	-0.564	-6.42653061224	-1.03783783784	-8.5890080429
97	0.0485	12.144	3.58775510204	-1.03783783784	-19.8490616622
98	0.049	-6.212	3.58775510204	-1.03783783784	-17.0340482574
99	0.0495	-4.8	2.15714285714	-2.48108108108	6.89356568365
100	0.05	-6.212	6.44897959184	-1.03783783784	-2.95898123324
101	0.0505	-6.212	-12.1489795918	-1.03783783784	-1.55147453083
102	0.051	-7.624	-7.85714285714	-1.03783783784	-1.55147453083
103	0.0515	-1.976	-10.7183673469	-1.03783783784	-0.143967828418
104	0.052	-4.8	0.726530612245	-1.03783783784	-9.99651474531
105	0.0525	-3.388	2.15714285714	-5.36756756757	-0.143967828418
106	0.053	-0.564	2.15714285714	-5.36756756757	-1.55147453083
107	0.0535	0.848	0.726530612245	-5.36756756757	-1.55147453083
108	0.054	-0.564	2.15714285714	3.29189189189	-1.55147453083
109	0.0545	2.26	2.15714285714	4.73513513514	-5.77399463807
110	0.055	-6.212	2.15714285714	-1.03783783784	-4.36648793566
111	0.0555	0.848	0.726530612245	0.405405405405	-5.77399463807
112	0.056	0.848	3.58775510204	-2.48108108108	-9.99651474531
113	0.0565	0.848	16.4632653061	0.405405405405	-9.99651474531
114	0.057	-3.388	0.726530612245	0.405405405405	-7.18150134048
115	0.0575	-14.684	0.726530612245	1.84864864865	-12.8115281501
116	0.058	17.792	0.726530612245	-2.48108108108	-17.0340482574
117	0.0585	-1.976	2.15714285714	-3.92432432432	-15.626541555
118	0.059	-1.976	0.726530612245	-1.03783783784	-12.8115281501
119	0.0595	-0.564	-3.56530612245	-1.03783783784	-17.0340482574
120	0.06	-1.976	13.6020408163	3.29189189189	-18.4415549598
121	0.0605	-10.448	2.15714285714	3.29189189189	-14.2190348525
122	0.061	-6.212	0.726530612245	0.405405405405	-18.4415549598
123	0.0615	3.672	0.726530612245	-8.25405405405	-15.626541555
124	0.062	5.084	0.726530612245	-9.6972972973	-18.4415549598
125	0.0625	3.672	-4.99591836735	0.405405405405	-15.626541555
126	0.063	2.26	-4.99591836735	1.84864864865	-15.626541555
127	0.0635	12.144	0.726530612245	0.405405405405	-15.626541555
128	0.064	-10.448	3.58775510204	0.405405405405	-5.77399463807
129	0.0645	-1.976	2.15714285714	-1.03783783784	-17.0340482574
130	0.065	-6.212	2.15714285714	-8.25405405405	-14.2190348525
131	0.0655	-6.212	-3.56530612245	-3.92432432432	-14.2190348525
132	0.066	-3.388	3.58775510204	-1.03783783784	-12.8115281501
133	0.0665	10.732	-0.704081632653	-1.03783783784	-12.8115281501
134	0.067	-16.096	-3.56530612245	-1.03783783784	-8.5890080429
135	0.0675	-3.388	-2.13469387755	0.405405405405	5.48605898123
136	0.068	-1.976	0.726530612245	11.9513513514	-9.99651474531
137	0.0685	0.848	2.15714285714	1.84864864865	-8.5890080429
138	0.069	-0.564	0.726530612245	1.84864864865	-5.77399463807
139	0.0695	17.792	-0.704081632653	1.84864864865	-4.36648793566
140	0.07	-6.212	3.58775510204	4.73513513514	-4.36648793566
141	0.0705	0.848	2.15714285714	4.73513513514	-18.4415549598
142	0.071	0.848	2.15714285714	-3.92432432432	-12.8115281501
143	0.0715	0.848	5.01836734694	-3.92432432432	-12.8115281501
144	0.072	-0.564	2.15714285714	1.84864864865	-17.0340482574
145	0.0725	-3.388	3.58775510204	3.29189189189	-21.2565683646
146	0.073	-7.624	2.15714285714	4.73513513514	-18.4415549598
147	0.0735	0.848	3.58775510204	14.8378378378	-21.2565683646
148	0.074	0.848	-0.704081632653	3.29189189189	-21.2565683646
149	0.0745	0.848	-4.99591836735	3.29189189189	-21.2565683646
150	0.075	2.26	-7.85714285714	0.405405405405	-18.4415549598
151	0.0755	-3.388	0.726530612245	0.405405405405	-18.4415549598
152	0.076	-0.564	2.15714285714	1.84864864865	-2.95898123324
153	0.0765	-3.388	0.726530612245	3.29189189189	-1.55147453083
154	0.077	-0.564	0.726530612245	3.29189189189	-25.4790884718
155	0.0775	-1.976	-6.42653061224	1.84864864865	-18.4415549598
156	0.078	-1.976	17.893877551	3.29189189189	-17.0340482574
157	0.0785	-4.8	2.15714285714	3.29189189189	-15.626541555
158	0.079	-7.624	0.726530612245	6.17837837838	-21.2565683646
159	0.0795	-0.564	3.58775510204	0.405405405405	-19.8490616622
160	0.08	-1.976	2.15714285714	-8.25405405405	-18.4415549598
161	0.0805	0.848	5.01836734694	1.84864864865	-11.4040214477
162	0.081	0.848	17.893877551	0.405405405405	-9.99651474531
163	0.0815	-1.976	0.726530612245	-1.03783783784	-5.77399463807
164	0.082	-9.036	0.726530612245	1.84864864865	-2.95898123324
165	0.0825	-3.388	-0.704081632653	-1.03783783784	-9.99651474531
166	0.083	-3.388	0.726530612245	10.5081081081	2.67104557641
167	0.0835	-1.976	-0.704081632653	-6.81081081081	4.07855227882
168	0.084	0.848	-0.704081632653	-6.81081081081	6.89356568365
169	0.0845	-0.564	-2.13469387755	-1.03783783784	4.07855227882
170	0.085	10.732	0.726530612245	-1.03783783784	-5.77399463807
171	0.0855	-0.564	0.726530612245	0.405405405405	2.67104557641
172	0.086	-0.564	0.726530612245	3.29189189189	1.26353887399
173	0.0865	-0.564	0.726530612245	16.2810810811	2.67104557641
174	0.087	0.848	-6.42653061224	0.405405405405	-0.143967828418
175	0.0875	0.848	13.6020408163	1.84864864865	-1.55147453083
176	0.088	3.672	0.726530612245	3.29189189189	-1.55147453083
177	0.0885	-4.8	0.726530612245	0.405405405405	-2.95898123324
178	0.089	-1.976	3.58775510204	6.17837837838	-7.18150134048
179	0.0895	-3.388	-0.704081632653	-3.92432432432	-2.95898123324
180	0.09	-1.976	19.3244897959	1.84864864865	-7.18150134048
181	0.0905	-1.976	-0.704081632653	0.405405405405	-7.18150134048
182	0.091	-11.86	2.15714285714	-1.03783783784	-9.99651474531
183	0.0915	-0.564	0.726530612245	0.405405405405	-17.0340482574
184	0.092	-0.564	3.58775510204	-2.48108108108	-17.0340482574
185	0.0925	-0.564	2.15714285714	-3.92432432432	-9.99651474531
186	0.093	-1.976	-3.56530612245	-3.92432432432	-12.8115281501
187	0.0935	0.848	0.726530612245	-1.03783783784	-14.2190348525
188	0.094	-14.684	0.726530612245	-1.03783783784	-9.99651474531
189	0.0945	-1.976	0.726530612245	3.29189189189	-22.664075067
190	0.095	0.848	-0.704081632653	4.73513513514	-18.4415549598
191	0.0955	2.26	-0.704081632653	-6.81081081081	-14.2190348525
192	0.096	-3.388	-2.13469387755	-1.03783783784	-11.4040214477
193	0.0965	-4.8	0.726530612245	-1.03783783784	-9.99651474531
194	0.097	-1.976	0.726530612245	0.405405405405	-15.626541555
195	0.0975	-6.212	2.15714285714	3.29189189189	-9.99651474531
196	0.098	-3.388	-2.13469387755	-6.81081081081	-8.5890080429
197	0.0985	-3.388	2.15714285714	0.405405405405	-11.4040214477
198	0.099	-0.564	5.01836734694	0.405405405405	-8.5890080429
199	0.0995	-4.8	-0.704081632653	-1.03783783784	-5.77399463807
200	0.1	-13.272	0.726530612245	0.405405405405	-2.95898123324
201	0.1005	0.848	0.726530612245	-2.48108108108	-9.99651474531
202	0.101	-3.388	-0.704081632653	0.405405405405	12.5235924933
203	0.1015	-1.976	-0.704081632653	0.405405405405	-0.143967828418
204	0.102	0.848	5.01836734694	3.29189189189	-1.55147453083
205	0.1025	-3.388	3.58775510204	-1.03783783784	-1.55147453083
206	0.103	-11.86	2.15714285714	0.405405405405	-2.95898123324
207	0.1035	0.848	2.15714285714	3.29189189189	4.07855227882
208	0.104	0.848	0.726530612245	4.73513513514	15.3386058981
209	0.1045	0.848	-0.704081632653	1.84864864865	-1.55147453083
210	0.105	2.26	-0.704081632653	1.84864864865	-0.143967828418
211	0.1055	-0.564	-4.99591836735	0.405405405405	-4.36648793566
212	0.106	-3.388	2.15714285714	3.29189189189	-0.143967828418
213	0.1065	3.672	0.726530612245	3.29189189189	1.26353887399
214	0.107	-0.564	0.726530612245	6.17837837838	-5.77399463807
215	0.1075	-1.976	0.726530612245	-3.92432432432	-4.36648793566
216	0.108	0.848	-10.7183673469	1.84864864865	-5.77399463807
217	0.1085	3.672	20.7551020408	1.84864864865	-8.5890080429
218	0.109	-7.624	2.15714285714	3.29189189189	-7.18150134048
219	0.1095	-10.448	0.726530612245	3.29189189189	5.48605898123
220	0.11	-3.388	2.15714285714	0.405405405405	-12.8115281501
221	0.1105	-0.564	3.58775510204	0.405405405405	-17.0340482574
222	0.111	-1.976	-9.28775510204	-6.81081081081	-8.5890080429
223	0.1115	2.26	-6.42653061224	-1.03783783784	-9.99651474531
224	0.112	16.38	-2.13469387755	0.405405405405	-18.4415549598
225	0.1125	-1.976	0.726530612245	1.84864864865	-7.18150134048
226	0.113	-1.976	5.01836734694	-2.48108108108	2.67104557641
227	0.1135	-0.564	3.58775510204	4.73513513514	-8.5890080429
228	0.114	-0.564	13.6020408163	-2.48108108108	-7.18150134048
229	0.1145	0.848	-0.704081632653	-1.03783783784	-1.55147453083
230	0.115	-11.86	2.15714285714	-1.03783783784	1.26353887399
231	0.1155	-0.564	0.726530612245	-1.03783783784	-5.77399463807
232	0.116	-0.564	-0.704081632653	-11.1405405405	-8.5890080429
233	0.1165	-0.564	0.726530612245	-5.36756756757	4.07855227882
234	0.117	-0.564	0.726530612245	0.405405405405	4.07855227882
235	0.1175	-1.976	5.01836734694	0.405405405405	8.30107238606
236	0.118	-10.448	-2.13469387755	1.84864864865	15.3386058981
237	0.1185	-6.212	2.15714285714	0.405405405405	11.1160857909
238	0.119	-0.564	0.726530612245	-8.25405405405	11.1160857909
239	0.1195	-1.976	2.15714285714	-6.81081081081	4.07855227882
240	0.12	-3.388	-6.42653061224	1.84864864865	5.48605898123
241	0.1205	-3.388	-4.99591836735	-1.03783783784	5.48605898123
242	0.121	-9.036	-0.704081632653	0.405405405405	5.48605898123
243	0.1215	-3.388	-0.704081632653	1.84864864865	6.89356568365
244	0.122	-0.564	-0.704081632653	3.29189189189	22.3761394102
245	0.1225	-0.564	2.15714285714	17.7243243243	6.89356568365
246	0.123	-0.564	-7.85714285714	-1.03783783784	9.70857908847
247	0.1235	-0.564	-4.99591836735	0.405405405405	5.48605898123
248	0.124	-4.8	5.01836734694	0.405405405405	5.48605898123
249	0.1245	-7.624	2.15714285714	-1.03783783784	4.07855227882
250	0.125	0.848	0.726530612245	1.84864864865	5.48605898123
251	0.1255	-1.976	3.58775510204	14.8378378378	-1.55147453083
252	0.126	0.848	-10.7183673469	1.84864864865	-1.55147453083
253	0.1265	3.672	-10.7183673469	1.84864864865	-5.77399463807
254	0.127	7.908	-0.704081632653	-1.03783783784	-4.36648793566
255	0.1275	24.852	-0.704081632653	3.29189189189	-2.95898123324
256	0.128	2.26	2.15714285714	4.73513513514	-12.8115281501
257	0.1285	3.672	2.15714285714	-6.81081081081	-1.55147453083
258	0.129	0.848	2.15714285714	1.84864864865	-0.143967828418
259	0.1295	2.26	9.31020408163	0.405405405405	-1.55147453083
260	0.13	0.848	3.58775510204	0.405405405405	-1.55147453083
261	0.1305	-4.8	6.44897959184	0.405405405405	-1.55147453083
262	0.131	-3.388	3.58775510204	-1.03783783784	-8.5890080429
263	0.1315	-3.388	2.15714285714	-9.6972972973	-0.143967828418
264	0.132	-3.388	5.01836734694	-1.03783783784	2.67104557641
265	0.1325	-3.388	-13.5795918367	0.405405405405	4.07855227882
266	0.133	-0.564	-2.13469387755	0.405405405405	6.89356568365
267	0.1335	12.144	-7.85714285714	3.29189189189	8.30107238606
268	0.134	-3.388	-6.42653061224	3.29189189189	15.3386058981
269	0.1345	-1.976	-10.7183673469	-1.03783783784	12.5235924933
270	0.135	-0.564	-4.99591836735	-3.92432432432	11.1160857909
271	0.1355	2.26	3.58775510204	0.405405405405	8.30107238606
272	0.136	-0.564	-0.704081632653	0.405405405405	12.5235924933
273	0.1365	-6.212	2.15714285714	3.29189189189	12.5235924933
274	0.137	7.908	0.726530612245	3.29189189189	4.07855227882
275	0.1375	3.672	2.15714285714	1.84864864865	-1.55147453083
276	0.138	3.672	2.15714285714	-3.92432432432	2.67104557641
277	0.1385	2.26	0.726530612245	0.405405405405	-0.143967828418
278	0.139	0.848	15.0326530612	3.29189189189	-0.143967828418
279	0.1395	-0.564	-3.56530612245	3.29189189189	-2.95898123324
280	0.14	13.556	3.58775510204	3.29189189189	-9.99651474531
281	0.1405	-3.388	0.726530612245	0.405405405405	-14.2190348525
282	0.141	-7.624	0.726530612245	1.84864864865	-15.626541555
283	0.1415	-3.388	-0.704081632653	1.84864864865	-7.18150134048
284	0.142	-4.8	7.87959183673	4.73513513514	-8.5890080429
285	0.1425	-1.976	-2.13469387755	0.405405405405	-7.18150134048
286	0.143	-3.388	-2.13469387755	0.405405405405	-5.77399463807
287	0.1435	-1.976	0.726530612245	-1.03783783784	-11.4040214477
288	0.144	0.848	-0.704081632653	-8.25405405405	-12.8115281501
289	0.1445	-0.564	3.58775510204	-9.6972972973	-2.95898123324
290	0.145	-1.976	19.3244897959	-2.48108108108	-1.55147453083
291	0.1455	-3.388	0.726530612245	-1.03783783784	-2.95898123324
292	0.146	-11.86	0.726530612245	3.29189189189	-1.55147453083
293	0.1465	-10.448	0.726530612245	-2.48108108108	13.9310991957
294	0.147	-0.564	0.726530612245	-1.03783783784	13.9310991957
295	0.1475	-1.976	0.726530612245	-1.03783783784	-2.95898123324
296	0.148	-0.564	-6.42653061224	-1.03783783784	-1.55147453083
297	0.1485	0.848	-9.28775510204	-1.03783783784	-0.143967828418
298	0.149	-0.564	0.726530612245	0.405405405405	-0.143967828418
299	0.1495	-0.564	3.58775510204	-6.81081081081	20.9686327078
300	0.15	-0.564	2.15714285714	-1.03783783784	22.3761394102
301	0.1505	0.848	2.15714285714	9.06486486486	2.67104557641
302	0.151	0.848	-4.99591836735	1.84864864865	4.07855227882
303	0.1515	5.084	-0.704081632653	0.405405405405	8.30107238606
304	0.152	-10.448	0.726530612245	1.84864864865	12.5235924933
305	0.1525	-4.8	-2.13469387755	1.84864864865	19.5611260054
306	0.153	3.672	2.15714285714	6.17837837838	19.5611260054
307	0.1535	0.848	-2.13469387755	4.73513513514	6.89356568365
308	0.154	0.848	-4.99591836735	3.29189189189	5.48605898123
309	0.1545	0.848	-4.99591836735	6.17837837838	2.67104557641
310	0.155	-1.976	0.726530612245	3.29189189189	-0.143967828418
311	0.1555	0.848	3.58775510204	1.84864864865	8.30107238606
312	0.156	-1.976	-0.704081632653	1.84864864865	8.30107238606
313	0.1565	0.848	0.726530612245	4.73513513514	-4.36648793566
314	0.157	-0.564	6.44897959184	-1.03783783784	-5.77399463807
315	0.1575	-4.8	-2.13469387755	1.84864864865	-5.77399463807
316	0.158	-14.684	2.15714285714	0.405405405405	-8.5890080429
317	0.1585	0.848	-2.13469387755	1.84864864865	-18.4415549598
318	0.159	0.848	0.726530612245	-1.03783783784	6.89356568365
319	0.1595	3.672	5.01836734694	14.8378378378	-12.8115281501
320	0.16	0.848	3.58775510204	0.405405405405	-11.4040214477
321	0.1605	-0.564	-4.99591836735	1.84864864865	-12.8115281501
322	0.161	-9.036	2.15714285714	1.84864864865	-9.99651474531
323	0.1615	0.848	2.15714285714	3.29189189189	-7.18150134048
324	0.162	-0.564	0.726530612245	0.405405405405	-8.5890080429
325	0.1625	0.848	0.726530612245	-8.25405405405	-18.4415549598
326	0.163	0.848	15.0326530612	-1.03783783784	-15.626541555
327	0.1635	-0.564	-2.13469387755	1.84864864865	-12.8115281501
328	0.164	-14.684	0.726530612245	1.84864864865	-9.99651474531
329	0.1645	-3.388	0.726530612245	0.405405405405	-0.143967828418
330	0.165	-0.564	3.58775510204	0.405405405405	-1.55147453083
331	0.1655	-4.8	-2.13469387755	-1.03783783784	-8.5890080429
332	0.166	-1.976	-10.7183673469	0.405405405405	-7.18150134048
333	0.1665	-4.8	17.893877551	0.405405405405	-2.95898123324
334	0.167	-6.212	17.893877551	0.405405405405	-1.55147453083
335	0.1675	-10.448	2.15714285714	1.84864864865	15.3386058981
336	0.168	-3.388	0.726530612245	0.405405405405	20.9686327078
337	0.1685	-1.976	0.726530612245	0.405405405405	2.67104557641
338	0.169	-1.976	6.44897959184	3.29189189189	11.1160857909
339	0.1695	-4.8	9.31020408163	1.84864864865	9.70857908847
340	0.17	0.848	2.15714285714	4.73513513514	9.70857908847
341	0.1705	-4.8	2.15714285714	4.73513513514	16.7461126005
342	0.171	0.848	0.726530612245	6.17837837838	8.30107238606
343	0.1715	2.26	0.726530612245	0.405405405405	-2.95898123324
344	0.172	2.26	-2.13469387755	-3.92432432432	1.26353887399
345	0.1725	0.848	0.726530612245	-1.03783783784	-1.55147453083
346	0.173	3.672	0.726530612245	0.405405405405	-5.77399463807
347	0.1735	-7.624	5.01836734694	1.84864864865	-2.95898123324
348	0.174	-1.976	2.15714285714	3.29189189189	-21.2565683646
349	0.1745	2.26	0.726530612245	-6.81081081081	-9.99651474531
350	0.175	-1.976	-0.704081632653	-5.36756756757	-9.99651474531
351	0.1755	-0.564	5.01836734694	-2.48108108108	-11.4040214477
352	0.176	2.26	5.01836734694	0.405405405405	-11.4040214477
353	0.1765	-3.388	3.58775510204	-1.03783783784	11.1160857909
354	0.177	-0.564	2.15714285714	-8.25405405405	-7.18150134048
355	0.1775	-0.564	0.726530612245	11.9513513514	-7.18150134048
356	0.178	0.848	3.58775510204	4.73513513514	-7.18150134048
357	0.1785	-0.564	-3.56530612245	0.405405405405	-2.95898123324
358	0.179	5.084	0.726530612245	-1.03783783784	-1.55147453083
359	0.1795	-7.624	0.726530612245	0.405405405405	-2.95898123324
360	0.18	5.084	2.15714285714	-2.48108108108	5.48605898123
361	0.1805	-0.564	5.01836734694	-5.36756756757	-5.77399463807
362	0.181	-1.976	9.31020408163	0.405405405405	4.07855227882
363	0.1815	-1.976	0.726530612245	-2.48108108108	12.5235924933
364	0.182	-13.272	5.01836734694	1.84864864865	8.30107238606
365	0.1825	-1.976	2.15714285714	-1.03783783784	-1.55147453083
366	0.183	-1.976	2.15714285714	-3.92432432432	26.5986595174
367	0.1835	-1.976	0.726530612245	16.2810810811	5.48605898123
368	0.184	-1.976	-6.42653061224	-1.03783783784	1.26353887399
369	0.1845	0.848	3.58775510204	0.405405405405	2.67104557641
370	0.185	-4.8	0.726530612245	3.29189189189	4.07855227882
371	0.1855	-0.564	0.726530612245	6.17837837838	-7.18150134048
372	0.186	0.848	0.726530612245	-9.6972972973	-1.55147453083
373	0.1865	0.848	5.01836734694	-8.25405405405	-1.55147453083
374	0.187	2.26	19.3244897959	3.29189189189	-1.55147453083
375	0.1875	-0.564	3.58775510204	4.73513513514	-1.55147453083
376	0.188	-9.036	0.726530612245	3.29189189189	-2.95898123324
377	0.1885	-7.624	5.01836734694	6.17837837838	-4.36648793566
378	0.189	0.848	0.726530612245	20.6108108108	-8.5890080429
379	0.1895	-0.564	-0.704081632653	1.84864864865	-9.99651474531
380	0.19	-0.564	-7.85714285714	3.29189189189	-11.4040214477
381	0.1905	-0.564	-9.28775510204	0.405405405405	-12.8115281501
382	0.191	-0.564	0.726530612245	-1.03783783784	-14.2190348525
383	0.1915	-0.564	0.726530612245	-1.03783783784	4.07855227882
384	0.192	-0.564	-0.704081632653	4.73513513514	4.07855227882
385	0.1925	-0.564	3.58775510204	22.0540540541	-11.4040214477
386	0.193	-3.388	-7.85714285714	0.405405405405	-12.8115281501
387	0.1935	0.848	-10.7183673469	1.84864864865	-11.4040214477
388	0.194	16.38	-0.704081632653	-1.03783783784	-8.5890080429
389	0.1945	-7.624	-0.704081632653	0.405405405405	-5.77399463807
390	0.195	0.848	2.15714285714	1.84864864865	4.07855227882
391	0.1955	0.848	0.726530612245	1.84864864865	-9.99651474531
392	0.196	0.848	-6.42653061224	-1.03783783784	-7.18150134048
393	0.1965	7.908	-7.85714285714	1.84864864865	-5.77399463807
394	0.197	-0.564	-7.85714285714	0.405405405405	-4.36648793566
395	0.1975	-0.564	-0.704081632653	1.84864864865	-11.4040214477
396	0.198	-1.976	0.726530612245	3.29189189189	-4.36648793566
397	0.1985	-3.388	2.15714285714	-5.36756756757	-4.36648793566
398	0.199	-4.8	9.31020408163	0.405405405405	-2.95898123324
399	0.1995	-6.212	-0.704081632653	0.405405405405	-1.55147453083
400	0.2	-16.096	2.15714285714	0.405405405405	-0.143967828418
401	0.2005	0.848	3.58775510204	3.29189189189	-7.18150134048
402	0.201	-3.388	0.726530612245	-8.25405405405	2.67104557641
403	0.2015	-0.564	-2.13469387755	-3.92432432432	4.07855227882
404	0.202	0.848	19.3244897959	0.405405405405	4.07855227882
405	0.2025	-4.8	0.726530612245	0.405405405405	-1.55147453083
406	0.203	-11.86	2.15714285714	3.29189189189	4.07855227882
407	0.2035	0.848	0.726530612245	0.405405405405	-7.18150134048
408	0.204	2.26	0.726530612245	-1.03783783784	-8.5890080429
409	0.2045	0.848	2.15714285714	-1.03783783784	1.26353887399
410	0.205	3.672	13.6020408163	1.84864864865	-4.36648793566
411	0.2055	2.26	-2.13469387755	-1.03783783784	-4.36648793566
412	0.206	-4.8	3.58775510204	1.84864864865	-5.77399463807
413	0.2065	3.672	2.15714285714	4.73513513514	-9.99651474531
414	0.207	0.848	0.726530612245	3.29189189189	-12.8115281501
415	0.2075	-1.976	-0.704081632653	-2.48108108108	-12.8115281501
416	0.208	0.848	17.893877551	1.84864864865	-11.4040214477
417	0.2085	-1.976	0.726530612245	0.405405405405	-9.99651474531
418	0.209	-11.86	2.15714285714	-1.03783783784	-8.5890080429
419	0.2095	-7.624	3.58775510204	-1.03783783784	-0.143967828418
420	0.21	0.848	5.01836734694	1.84864864865	-1.55147453083
421	0.2105	2.26	-0.704081632653	-1.03783783784	-12.8115281501
422	0.211	0.848	-9.28775510204	-1.03783783784	-12.8115281501
423	0.2115	0.848	-4.99591836735	-1.03783783784	-12.8115281501
424	0.212	3.672	-0.704081632653	0.405405405405	-12.8115281501
425	0.2125	-3.388	-0.704081632653	0.405405405405	2.67104557641
426	0.213	-1.976	0.726530612245	-2.48108108108	1.26353887399
427	0.2135	-4.8	0.726530612245	17.7243243243	-12.8115281501
428	0.214	-4.8	-7.85714285714	-1.03783783784	-8.5890080429
429	0.2145	0.848	-10.7183673469	-1.03783783784	-8.5890080429
430	0.215	-1.976	0.726530612245	-1.03783783784	-2.95898123324
431	0.2155	9.32	-0.704081632653	-3.92432432432	-2.95898123324
432	0.216	-1.976	2.15714285714	-2.48108108108	4.07855227882
433	0.2165	0.848	3.58775510204	-12.5837837838	-1.55147453083
434	0.217	2.26	-9.28775510204	-2.48108108108	2.67104557641
435	0.2175	2.26	-9.28775510204	-1.03783783784	6.89356568365
436	0.218	-0.564	2.15714285714	-1.03783783784	15.3386058981
437	0.2185	0.848	0.726530612245	0.405405405405	23.7836461126
438	0.219	0.848	0.726530612245	1.84864864865	22.3761394102
439	0.2195	0.848	0.726530612245	-3.92432432432	18.1536193029
440	0.22	-0.564	6.44897959184	-1.03783783784	20.9686327078
441	0.2205	-0.564	2.15714285714	1.84864864865	20.9686327078
442	0.221	-7.624	2.15714285714	-1.03783783784	20.9686327078
443	0.2215	23.44	2.15714285714	0.405405405405	18.1536193029
444	0.222	0.848	0.726530612245	-8.25405405405	18.1536193029
445	0.2225	7.908	0.726530612245	-6.81081081081	15.3386058981
446	0.223	5.084	0.726530612245	-1.03783783784	12.5235924933
447	0.2235	5.084	0.726530612245	0.405405405405	11.1160857909
448	0.224	9.32	-2.13469387755	-1.03783783784	-0.143967828418
449	0.2245	-1.976	2.15714285714	-1.03783783784	6.89356568365
450	0.225	-0.564	0.726530612245	-8.25405405405	4.07855227882
451	0.2255	-1.976	5.01836734694	-2.48108108108	2.67104557641
452	0.226	-0.564	20.7551020408	-2.48108108108	-0.143967828418
453	0.2265	-4.8	-0.704081632653	0.405405405405	4.07855227882
454	0.227	-17.508	0.726530612245	0.405405405405	4.07855227882
455	0.2275	-17.508	0.726530612245	1.84864864865	19.5611260054
456	0.228	-3.388	2.15714285714	3.29189189189	-0.143967828418
457	0.2285	2.26	2.15714285714	14.8378378378	-0.143967828418
458	0.229	0.848	0.726530612245	0.405405405405	-0.143967828418
459	0.2295	-0.564	13.6020408163	-2.48108108108	-4.36648793566
460	0.23	13.556	5.01836734694	0.405405405405	-5.77399463807
461	0.2305	-0.564	5.01836734694	-1.03783783784	-5.77399463807
462	0.231	6.496	0.726530612245	17.7243243243	-12.8115281501
463	0.2315	-1.976	2.15714285714	13.3945945946	-14.2190348525
464	0.232	-1.976	-3.56530612245	-1.03783783784	-17.0340482574
465	0.2325	-10.448	2.15714285714	-1.03783783784	-19.8490616622
466	0.233	2.26	2.15714285714	-1.03783783784	-21.2565683646
467	0.2335	-7.624	0.726530612245	0.405405405405	-29.7016085791
468	0.234	-1.976	-2.13469387755	-1.03783783784	-29.7016085791
469	0.2345	-3.388	3.58775510204	1.84864864865	-35.3316353887
470	0.235	-3.388	19.3244897959	1.84864864865	-39.554155496
471	0.2355	-4.8	2.15714285714	4.73513513514	-45.1841823056
472	0.236	-16.096	2.15714285714	0.405405405405	-45.1841823056
473	0.2365	-13.272	0.726530612245	1.84864864865	-39.554155496
474	0.237	-0.564	5.01836734694	24.9405405405	-59.2592493298
475	0.2375	-0.564	2.15714285714	24.9405405405	-67.7042895442
476	0.238	-3.388	-4.99591836735	6.17837837838	-69.1117962466
477	0.2385	-4.8	0.726530612245	3.29189189189	-77.5568364611
478	0.239	9.32	0.726530612245	4.73513513514	-83.1868632708
479	0.2395	-4.8	0.726530612245	1.84864864865	-97.2619302949
480	0.24	-4.8	3.58775510204	3.29189189189	-97.2619302949
481	0.2405	-3.388	7.87959183673	6.17837837838	-98.6694369973
482	0.241	-4.8	20.7551020408	4.73513513514	-108.521983914
483	0.2415	-6.212	-0.704081632653	7.62162162162	-112.744504021
484	0.242	-16.096	0.726530612245	9.06486486486	-118.374530831
485	0.2425	-11.86	0.726530612245	7.62162162162	-129.63458445
486	0.243	-3.388	0.726530612245	24.9405405405	-135.26461126
487	0.2435	-1.976	-2.13469387755	7.62162162162	-140.89463807
488	0.244	-1.976	-4.99591836735	7.62162162162	-143.709651475
489	0.2445	-6.212	0.726530612245	7.62162162162	-146.524664879
490	0.245	0.848	0.726530612245	9.06486486486	-157.784718499
491	0.2455	-3.388	0.726530612245	6.17837837838	-159.192225201
492	0.246	-3.388	0.726530612245	7.62162162162	-149.339678284
493	0.2465	-3.388	6.44897959184	4.73513513514	-156.377211796
494	0.247	-3.388	-12.1489795918	6.17837837838	-156.377211796
495	0.2475	-3.388	-12.1489795918	11.9513513514	-157.784718499
496	0.248	16.38	0.726530612245	4.73513513514	-162.007238606
497	0.2485	-1.976	2.15714285714	6.17837837838	-157.784718499
498	0.249	-4.8	3.58775510204	4.73513513514	-143.709651475
499	0.2495	-3.388	-3.56530612245	9.06486486486	-149.339678284
500	0.25	-0.564	2.15714285714	9.06486486486	-147.932171582
501	0.2505	3.672	0.726530612245	11.9513513514	-149.339678284
502	0.251	-14.684	2.15714285714	14.8378378378	-146.524664879
503	0.2515	-4.8	-0.704081632653	13.3945945946	-152.154691689
504	0.252	-3.388	-2.13469387755	9.06486486486	-149.339678284
505	0.2525	-0.564	-4.99591836735	14.8378378378	-140.89463807
506	0.253	0.848	-0.704081632653	13.3945945946	-139.487131367
507	0.2535	-4.8	-0.704081632653	13.3945945946	-142.302144772
508	0.254	-4.8	-7.85714285714	11.9513513514	-138.079624665
509	0.2545	-1.976	-4.99591836735	16.2810810811	-152.154691689
510	0.255	-1.976	-4.99591836735	0.405405405405	-145.117158177
511	0.2555	0.848	0.726530612245	11.9513513514	-140.89463807
512	0.256	-1.976	3.58775510204	14.8378378378	-139.487131367
513	0.2565	-3.388	0.726530612245	13.3945945946	-142.302144772
514	0.257	-13.272	-0.704081632653	13.3945945946	-139.487131367
515	0.2575	-0.564	2.15714285714	14.8378378378	-149.339678284
516	0.258	0.848	-0.704081632653	27.827027027	-133.857104558
517	0.2585	0.848	0.726530612245	0.405405405405	-131.042091153
518	0.259	0.848	16.4632653061	9.06486486486	-126.819571046
519	0.2595	0.848	2.15714285714	11.9513513514	-125.412064343
520	0.26	-1.976	2.15714285714	9.06486486486	-124.004557641
521	0.2605	2.26	0.726530612245	9.06486486486	-126.819571046
522	0.261	0.848	-0.704081632653	14.8378378378	-125.412064343
523	0.2615	3.672	0.726530612245	22.0540540541	-118.374530831
524	0.262	0.848	-3.56530612245	9.06486486486	-118.374530831
525	0.2625	2.26	2.15714285714	7.62162162162	-114.152010724
526	0.263	14.968	0.726530612245	7.62162162162	-115.559517426
527	0.2635	-6.212	-0.704081632653	4.73513513514	-105.706970509
528	0.264	0.848	0.726530612245	-5.36756756757	-93.0394101877
529	0.2645	-3.388	3.58775510204	9.06486486486	-86.0018766756
530	0.265	-1.976	17.893877551	7.62162162162	-84.5943699732
531	0.2655	-4.8	-0.704081632653	4.73513513514	-73.3343163539
532	0.266	-11.86	-2.13469387755	4.73513513514	-67.7042895442
533	0.2665	-9.036	0.726530612245	4.73513513514	-49.4067024129
534	0.267	2.26	2.15714285714	22.0540540541	-62.0742627346
535	0.2675	2.26	-2.13469387755	22.0540540541	-56.4442359249
536	0.268	2.26	-10.7183673469	3.29189189189	-52.2217158177
537	0.2685	2.26	-0.704081632653	6.17837837838	-46.591689008
538	0.269	-10.448	-0.704081632653	3.29189189189	-47.9991957105
539	0.2695	-4.8	-2.13469387755	4.73513513514	-47.9991957105
540	0.27	2.26	0.726530612245	6.17837837838	-40.9616621984
541	0.2705	2.26	-2.13469387755	3.29189189189	-38.1466487936
542	0.271	2.26	17.893877551	4.73513513514	-36.7391420912
543	0.2715	-1.976	-10.7183673469	4.73513513514	-38.1466487936
544	0.272	12.144	-2.13469387755	1.84864864865	-35.3316353887
545	0.2725	-0.564	0.726530612245	4.73513513514	-28.2941018767
546	0.273	0.848	0.726530612245	4.73513513514	-31.1091152815
547	0.2735	0.848	-9.28775510204	0.405405405405	-29.7016085791
548	0.274	0.848	17.893877551	1.84864864865	-29.7016085791
549	0.2745	2.26	3.58775510204	1.84864864865	-28.2941018767
550	0.275	9.32	0.726530612245	3.29189189189	-25.4790884718
551	0.2755	2.26	0.726530612245	7.62162162162	-17.0340482574
552	0.276	2.26	0.726530612245	4.73513513514	-18.4415549598
553	0.2765	2.26	6.44897959184	-1.03783783784	-17.0340482574
554	0.277	0.848	13.6020408163	1.84864864865	-15.626541555
555	0.2775	-14.684	-0.704081632653	0.405405405405	-15.626541555
556	0.278	17.792	0.726530612245	0.405405405405	-12.8115281501
557	0.2785	-0.564	0.726530612245	0.405405405405	-17.0340482574
558	0.279	-1.976	0.726530612245	-6.81081081081	-7.18150134048
559	0.2795	-1.976	3.58775510204	-2.48108108108	-5.77399463807
560	0.28	-0.564	-6.42653061224	-2.48108108108	-2.95898123324
561	0.2805	-4.8	-0.704081632653	-1.03783783784	-0.143967828418
562	0.281	2.26	-0.704081632653	-2.48108108108	-5.77399463807
563	0.2815	-6.212	0.726530612245	1.84864864865	6.89356568365
564	0.282	-1.976	-3.56530612245	0.405405405405	4.07855227882
565	0.2825	-1.976	-2.13469387755	14.8378378378	11.1160857909
566	0.283	-3.388	-6.42653061224	-2.48108108108	12.5235924933
567	0.2835	-3.388	0.726530612245	-2.48108108108	16.7461126005
568	0.284	2.26	-0.704081632653	0.405405405405	18.1536193029
569	0.2845	-4.8	0.726530612245	-1.03783783784	22.3761394102
570	0.285	-0.564	0.726530612245	3.29189189189	25.191152815
571	0.2855	3.672	-2.13469387755	-1.03783783784	20.9686327078
572	0.286	0.848	2.15714285714	0.405405405405	23.7836461126
573	0.2865	-3.388	2.15714285714	1.84864864865	26.5986595174
574	0.287	3.672	0.726530612245	0.405405405405	26.5986595174
575	0.2875	0.848	0.726530612245	4.73513513514	13.9310991957
576	0.288	-0.564	2.15714285714	-12.5837837838	22.3761394102
577	0.2885	-0.564	0.726530612245	-11.1405405405	22.3761394102
578	0.289	2.26	-6.42653061224	0.405405405405	20.9686327078
579	0.2895	0.848	-6.42653061224	-1.03783783784	20.9686327078
580	0.29	-3.388	0.726530612245	0.405405405405	20.9686327078
581	0.2905	-6.212	-0.704081632653	1.84864864865	15.3386058981
582	0.291	-4.8	0.726530612245	-6.81081081081	19.5611260054
583	0.2915	-3.388	2.15714285714	-9.6972972973	16.7461126005
584	0.292	-1.976	20.7551020408	0.405405405405	19.5611260054
585	0.2925	-3.388	-6.42653061224	1.84864864865	20.9686327078
586	0.293	5.084	-6.42653061224	0.405405405405	15.3386058981
587	0.2935	0.848	0.726530612245	0.405405405405	6.89356568365
588	0.294	0.848	-0.704081632653	1.84864864865	32.2286863271
589	0.2945	0.848	0.726530612245	14.8378378378	19.5611260054
590	0.295	5.084	-3.56530612245	-2.48108108108	20.9686327078
591	0.2955	2.26	-3.56530612245	-1.03783783784	22.3761394102
592	0.296	-6.212	-0.704081632653	0.405405405405	25.191152815
593	0.2965	-3.388	-0.704081632653	-1.03783783784	33.6361930295
594	0.297	2.26	-3.56530612245	0.405405405405	15.3386058981
595	0.2975	-0.564	-2.13469387755	-8.25405405405	26.5986595174
596	0.298	-1.976	3.58775510204	-8.25405405405	29.4136729223
597	0.2985	-3.388	3.58775510204	-1.03783783784	32.2286863271
598	0.299	-13.272	-2.13469387755	-2.48108108108	33.6361930295
599	0.2995	-9.036	0.726530612245	-3.92432432432	35.0436997319
600	0.3	-1.976	-0.704081632653	0.405405405405	43.4887399464
601	0.3005	-1.976	2.15714285714	7.62162162162	40.6737265416
602	0.301	-1.976	-10.7183673469	0.405405405405	42.081233244
603	0.3015	0.848	22.1857142857	0.405405405405	43.4887399464
604	0.302	-11.86	3.58775510204	0.405405405405	43.4887399464
605	0.3025	20.616	2.15714285714	3.29189189189	43.4887399464
606	0.303	-0.564	0.726530612245	-1.03783783784	54.7487935657
607	0.3035	3.672	-0.704081632653	1.84864864865	44.8962466488
608	0.304	2.26	2.15714285714	0.405405405405	43.4887399464
609	0.3045	0.848	-6.42653061224	0.405405405405	37.8587131367
610	0.305	3.672	2.15714285714	-1.03783783784	35.0436997319
611	0.3055	2.26	0.726530612245	0.405405405405	51.9337801609
612	0.306	0.848	-0.704081632653	-1.03783783784	49.118766756
613	0.3065	0.848	0.726530612245	-2.48108108108	28.0061662198
614	0.307	2.26	-2.13469387755	-5.36756756757	30.8211796247
615	0.3075	2.26	0.726530612245	-1.03783783784	32.2286863271
616	0.308	5.084	2.15714285714	-1.03783783784	30.8211796247
617	0.3085	-3.388	-0.704081632653	-1.03783783784	30.8211796247
618	0.309	2.26	0.726530612245	-1.03783783784	29.4136729223
619	0.3095	3.672	2.15714285714	-1.03783783784	22.3761394102
620	0.31	3.672	-9.28775510204	0.405405405405	30.8211796247
621	0.3105	2.26	5.01836734694	-1.03783783784	26.5986595174
622	0.311	2.26	0.726530612245	-1.03783783784	29.4136729223
623	0.3115	9.32	0.726530612245	-3.92432432432	32.2286863271
624	0.312	0.848	0.726530612245	0.405405405405	26.5986595174
625	0.3125	-4.8	-0.704081632653	-1.03783783784	26.5986595174
626	0.313	-9.036	0.726530612245	7.62162162162	30.8211796247
627	0.3135	-4.8	15.0326530612	-3.92432432432	32.2286863271
628	0.314	-4.8	19.3244897959	-2.48108108108	32.2286863271
629	0.3145	-16.096	-0.704081632653	-3.92432432432	35.0436997319
630	0.315	-4.8	0.726530612245	-6.81081081081	26.5986595174
631	0.3155	-3.388	0.726530612245	-6.81081081081	37.8587131367
632	0.316	-3.388	0.726530612245	-6.81081081081	42.081233244
633	0.3165	-0.564	-12.1489795918	-6.81081081081	43.4887399464
634	0.317	3.672	0.726530612245	-5.36756756757	43.4887399464
635	0.3175	-13.272	-0.704081632653	-2.48108108108	49.118766756
636	0.318	2.26	2.15714285714	3.29189189189	61.7863270777
637	0.3185	2.26	0.726530612245	3.29189189189	40.6737265416
638	0.319	3.672	3.58775510204	-8.25405405405	46.3037533512
639	0.3195	0.848	13.6020408163	3.29189189189	43.4887399464
640	0.32	-0.564	0.726530612245	0.405405405405	43.4887399464
641	0.3205	0.848	3.58775510204	-1.03783783784	40.6737265416
642	0.321	0.848	0.726530612245	1.84864864865	39.2662198391
643	0.3215	3.672	0.726530612245	-1.03783783784	33.6361930295
644	0.322	-0.564	0.726530612245	3.29189189189	39.2662198391
645	0.3225	2.26	0.726530612245	1.84864864865	40.6737265416
646	0.323	-1.976	0.726530612245	-1.03783783784	37.8587131367
647	0.3235	14.968	0.726530612245	-2.48108108108	32.2286863271
648	0.324	0.848	-2.13469387755	-2.48108108108	46.3037533512
649	0.3245	-0.564	2.15714285714	16.2810810811	30.8211796247
650	0.325	-0.564	-2.13469387755	19.1675675676	29.4136729223
651	0.3255	0.848	0.726530612245	-1.03783783784	32.2286863271
652	0.326	2.26	2.15714285714	-1.03783783784	33.6361930295
653	0.3265	19.204	0.726530612245	-1.03783783784	35.0436997319
654	0.327	-7.624	2.15714285714	-1.03783783784	33.6361930295
655	0.3275	0.848	0.726530612245	16.2810810811	30.8211796247
656	0.328	0.848	0.726530612245	-1.03783783784	29.4136729223
657	0.3285	0.848	2.15714285714	-3.92432432432	29.4136729223
658	0.329	0.848	2.15714285714	-2.48108108108	28.0061662198
659	0.3295	20.616	0.726530612245	-2.48108108108	22.3761394102
660	0.33	0.848	2.15714285714	-2.48108108108	26.5986595174
661	0.3305	0.848	-0.704081632653	-12.5837837838	26.5986595174
662	0.331	0.848	2.15714285714	-12.5837837838	35.0436997319
663	0.3315	-0.564	5.01836734694	-2.48108108108	35.0436997319
664	0.332	-6.212	-0.704081632653	-1.03783783784	36.4512064343
665	0.3325	-11.86	-0.704081632653	-3.92432432432	37.8587131367
666	0.333	-0.564	0.726530612245	-2.48108108108	33.6361930295
667	0.3335	-1.976	0.726530612245	-6.81081081081	42.081233244
668	0.334	0.848	0.726530612245	-8.25405405405	33.6361930295
669	0.3345	0.848	0.726530612245	-1.03783783784	42.081233244
670	0.335	0.848	-3.56530612245	3.29189189189	42.081233244
671	0.3355	-1.976	-0.704081632653	-1.03783783784	43.4887399464
672	0.336	10.732	-0.704081632653	-1.03783783784	36.4512064343
673	0.3365	3.672	-2.13469387755	3.29189189189	43.4887399464
674	0.337	0.848	-0.704081632653	0.405405405405	43.4887399464
675	0.3375	3.672	-9.28775510204	0.405405405405	42.081233244
676	0.338	2.26	-3.56530612245	-1.03783783784	42.081233244
677	0.3385	-4.8	2.15714285714	-1.03783783784	39.2662198391
678	0.339	0.848	3.58775510204	0.405405405405	43.4887399464
679	0.3395	2.26	2.15714285714	-9.6972972973	35.0436997319
680	0.34	3.672	2.15714285714	19.1675675676	32.2286863271
681	0.3405	0.848	-10.7183673469	-1.03783783784	32.2286863271
682	0.341	2.26	-6.42653061224	0.405405405405	33.6361930295
683	0.3415	7.908	-0.704081632653	-2.48108108108	32.2286863271
684	0.342	16.38	-0.704081632653	0.405405405405	30.8211796247
685	0.3425	2.26	0.726530612245	-1.03783783784	49.118766756
686	0.343	2.26	0.726530612245	14.8378378378	32.2286863271
687	0.3435	-0.564	-6.42653061224	-1.03783783784	36.4512064343
688	0.344	0.848	-6.42653061224	0.405405405405	37.8587131367
689	0.3445	5.084	0.726530612245	1.84864864865	37.8587131367
690	0.345	-11.86	2.15714285714	1.84864864865	43.4887399464
691	0.3455	-0.564	2.15714285714	0.405405405405	54.7487935657
692	0.346	-0.564	0.726530612245	1.84864864865	29.4136729223
693	0.3465	0.848	-4.99591836735	-1.03783783784	37.8587131367
694	0.347	0.848	-6.42653061224	-1.03783783784	40.6737265416
695	0.3475	-3.388	-0.704081632653	-2.48108108108	36.4512064343
696	0.348	17.792	3.58775510204	-1.03783783784	32.2286863271
697	0.3485	0.848	0.726530612245	-3.92432432432	35.0436997319
698	0.349	-0.564	2.15714285714	-11.1405405405	47.7112600536
699	0.3495	3.672	2.15714285714	-3.92432432432	49.118766756
700	0.35	5.084	-2.13469387755	-2.48108108108	51.9337801609
701	0.3505	-0.564	-0.704081632653	-1.03783783784	50.5262734584
702	0.351	16.38	0.726530612245	-1.03783783784	53.3412868633
703	0.3515	10.732	-0.704081632653	-6.81081081081	47.7112600536
704	0.352	3.672	-2.13469387755	1.84864864865	51.9337801609
705	0.3525	-0.564	0.726530612245	-1.03783783784	49.118766756
706	0.353	-1.976	-3.56530612245	1.84864864865	47.7112600536
707	0.3535	5.084	-4.99591836735	4.73513513514	46.3037533512
708	0.354	19.204	6.44897959184	0.405405405405	39.2662198391
709	0.3545	-3.388	3.58775510204	-11.1405405405	40.6737265416
710	0.355	-6.212	3.58775510204	14.8378378378	35.0436997319
711	0.3555	-7.624	-0.704081632653	11.9513513514	33.6361930295
712	0.356	-4.8	3.58775510204	0.405405405405	29.4136729223
713	0.3565	-9.036	-2.13469387755	-1.03783783784	26.5986595174
714	0.357	7.908	-3.56530612245	0.405405405405	25.191152815
715	0.3575	-0.564	-6.42653061224	-9.6972972973	23.7836461126
716	0.358	0.848	-4.99591836735	-9.6972972973	20.9686327078
717	0.3585	3.672	-3.56530612245	1.84864864865	20.9686327078
718	0.359	5.084	-10.7183673469	-1.03783783784	22.3761394102
719	0.3595	3.672	2.15714285714	-2.48108108108	20.9686327078
720	0.36	22.028	2.15714285714	-1.03783783784	25.191152815
721	0.3605	0.848	2.15714285714	3.29189189189	25.191152815
722	0.361	-0.564	5.01836734694	13.3945945946	23.7836461126
723	0.3615	2.26	3.58775510204	-1.03783783784	23.7836461126
724	0.362	2.26	17.893877551	-1.03783783784	26.5986595174
725	0.3625	-3.388	0.726530612245	-2.48108108108	26.5986595174
726	0.363	-6.212	0.726530612245	-1.03783783784	29.4136729223
727	0.3635	0.848	0.726530612245	-2.48108108108	30.8211796247
728	0.364	-1.976	3.58775510204	14.8378378378	28.0061662198
729	0.3645	0.848	3.58775510204	-1.03783783784	29.4136729223
730	0.365	-4.8	-6.42653061224	-2.48108108108	26.5986595174
731	0.3655	-3.388	-3.56530612245	-1.03783783784	29.4136729223
732	0.366	9.32	0.726530612245	-2.48108108108	35.0436997319
733	0.3665	0.848	2.15714285714	3.29189189189	39.2662198391
734	0.367	0.848	0.726530612245	-3.92432432432	32.2286863271
735	0.3675	-0.564	-7.85714285714	-1.03783783784	32.2286863271
736	0.368	-0.564	-4.99591836735	-1.03783783784	35.0436997319
737	0.3685	0.848	3.58775510204	0.405405405405	32.2286863271
738	0.369	12.144	-0.704081632653	4.73513513514	25.191152815
739	0.3695	-3.388	0.726530612245	0.405405405405	32.2286863271
740	0.37	-0.564	0.726530612245	-1.03783783784	30.8211796247
741	0.3705	0.848	5.01836734694	1.84864864865	30.8211796247
742	0.371	0.848	-3.56530612245	3.29189189189	30.8211796247
743	0.3715	-9.036	0.726530612245	3.29189189189	26.5986595174
744	0.372	-1.976	0.726530612245	0.405405405405	22.3761394102
745	0.3725	2.26	-0.704081632653	-9.6972972973	20.9686327078
746	0.373	7.908	3.58775510204	-12.5837837838	20.9686327078
747	0.3735	0.848	2.15714285714	-9.6972972973	19.5611260054
748	0.374	0.848	-0.704081632653	-2.48108108108	19.5611260054
749	0.3745	-1.976	0.726530612245	0.405405405405	20.9686327078
750	0.375	-0.564	2.15714285714	1.84864864865	29.4136729223
751	0.3755	2.26	2.15714285714	-3.92432432432	18.1536193029
752	0.376	2.26	2.15714285714	-3.92432432432	15.3386058981
753	0.3765	0.848	15.0326530612	1.84864864865	12.5235924933
754	0.377	-0.564	0.726530612245	1.84864864865	15.3386058981
755	0.3775	-10.448	2.15714285714	-1.03783783784	13.9310991957
756	0.378	-0.564	2.15714285714	0.405405405405	1.26353887399
757	0.3785	-1.976	2.15714285714	-1.03783783784	2.67104557641
758	0.379	-1.976	2.15714285714	-6.81081081081	6.89356568365
759	0.3795	-4.8	6.44897959184	-1.03783783784	13.9310991957
760	0.38	-1.976	0.726530612245	-1.03783783784	12.5235924933
761	0.3805	0.848	3.58775510204	-1.03783783784	4.07855227882
762	0.381	-3.388	-0.704081632653	-1.03783783784	13.9310991957
763	0.3815	-3.388	-0.704081632653	-2.48108108108	22.3761394102
764	0.382	-3.388	0.726530612245	7.62162162162	13.9310991957
765	0.3825	-0.564	0.726530612245	-1.03783783784	13.9310991957
766	0.383	-1.976	6.44897959184	-2.48108108108	16.7461126005
767	0.3835	2.26	2.15714285714	0.405405405405	16.7461126005
768	0.384	-6.212	0.726530612245	-1.03783783784	29.4136729223
769	0.3845	0.848	2.15714285714	-1.03783783784	13.9310991957
770	0.385	-0.564	2.15714285714	-3.92432432432	22.3761394102
771	0.3855	-0.564	0.726530612245	-2.48108108108	20.9686327078
772	0.386	-1.976	-4.99591836735	0.405405405405	22.3761394102
773	0.3865	-3.388	2.15714285714	1.84864864865	23.7836461126
774	0.387	7.908	5.01836734694	1.84864864865	30.8211796247
775	0.3875	3.672	2.15714285714	3.29189189189	26.5986595174
776	0.388	0.848	-2.13469387755	1.84864864865	18.1536193029
777	0.3885	0.848	-10.7183673469	0.405405405405	15.3386058981
778	0.389	2.26	-9.28775510204	-2.48108108108	12.5235924933
779	0.3895	2.26	-3.56530612245	-1.03783783784	11.1160857909
780	0.39	0.848	2.15714285714	0.405405405405	-2.95898123324
781	0.3905	0.848	3.58775510204	-11.1405405405	13.9310991957
782	0.391	0.848	0.726530612245	-9.6972972973	4.07855227882
783	0.3915	0.848	16.4632653061	1.84864864865	5.48605898123
784	0.392	-1.976	-2.13469387755	0.405405405405	5.48605898123
785	0.3925	-6.212	2.15714285714	-2.48108108108	1.26353887399
786	0.393	-4.8	0.726530612245	-2.48108108108	16.7461126005
787	0.3935	-0.564	0.726530612245	-1.03783783784	19.5611260054
788	0.394	-0.564	0.726530612245	13.3945945946	-0.143967828418
789	0.3945	0.848	0.726530612245	-2.48108108108	-0.143967828418
790	0.395	-0.564	3.58775510204	1.84864864865	-0.143967828418
791	0.3955	17.792	0.726530612245	0.405405405405	-9.99651474531
792	0.396	-0.564	0.726530612245	-1.03783783784	2.67104557641
793	0.3965	0.848	3.58775510204	3.29189189189	18.1536193029
794	0.397	-1.976	-0.704081632653	-2.48108108108	2.67104557641
795	0.3975	2.26	-0.704081632653	-1.03783783784	-0.143967828418
796	0.398	-0.564	-3.56530612245	0.405405405405	4.07855227882
797	0.3985	-0.564	0.726530612245	0.405405405405	-2.95898123324
798	0.399	0.848	0.726530612245	1.84864864865	-4.36648793566
799	0.3995	-0.564	0.726530612245	-12.5837837838	4.07855227882
800	0.4	0.848	3.58775510204	-12.5837837838	6.89356568365
801	0.4005	0.848	-6.42653061224	-1.03783783784	11.1160857909
802	0.401	2.26	-4.99591836735	-1.03783783784	12.5235924933
803	0.4015	14.968	-2.13469387755	0.405405405405	13.9310991957
804	0.402	-6.212	0.726530612245	0.405405405405	16.7461126005
805	0.4025	0.848	-0.704081632653	-2.48108108108	8.30107238606
806	0.403	-0.564	0.726530612245	-5.36756756757	9.70857908847
807	0.4035	-0.564	-7.85714285714	-1.03783783784	12.5235924933
808	0.404	5.084	-0.704081632653	3.29189189189	5.48605898123
809	0.4045	23.44	0.726530612245	1.84864864865	8.30107238606
810	0.405	-4.8	-0.704081632653	1.84864864865	5.48605898123
811	0.4055	6.496	-0.704081632653	11.9513513514	5.48605898123
812	0.406	3.672	0.726530612245	9.06486486486	2.67104557641
813	0.4065	3.672	2.15714285714	0.405405405405	-1.55147453083
814	0.407	0.848	-0.704081632653	0.405405405405	-2.95898123324
815	0.4075	13.556	0.726530612245	1.84864864865	-12.8115281501
816	0.408	-0.564	0.726530612245	1.84864864865	-12.8115281501
817	0.4085	0.848	0.726530612245	-9.6972972973	-7.18150134048
818	0.409	0.848	3.58775510204	0.405405405405	-4.36648793566
819	0.4095	-0.564	-12.1489795918	-1.03783783784	-1.55147453083
820	0.41	3.672	0.726530612245	-2.48108108108	-1.55147453083
821	0.4105	-14.684	0.726530612245	0.405405405405	1.26353887399
822	0.411	-16.096	0.726530612245	-1.03783783784	12.5235924933
823	0.4115	-6.212	0.726530612245	-8.25405405405	-2.95898123324
824	0.412	-4.8	5.01836734694	0.405405405405	-2.95898123324
825	0.4125	-6.212	-6.42653061224	-1.03783783784	-1.55147453083
826	0.413	-1.976	-10.7183673469	0.405405405405	1.26353887399
827	0.4135	14.968	-0.704081632653	-1.03783783784	1.26353887399
828	0.414	-10.448	3.58775510204	-1.03783783784	20.9686327078
829	0.4145	0.848	0.726530612245	-11.1405405405	-0.143967828418
830	0.415	-1.976	5.01836734694	-2.48108108108	2.67104557641
831	0.4155	-0.564	-12.1489795918	-3.92432432432	4.07855227882
832	0.416	0.848	-7.85714285714	-1.03783783784	5.48605898123
833	0.4165	19.204	0.726530612245	-2.48108108108	6.89356568365
834	0.417	-1.976	2.15714285714	-2.48108108108	15.3386058981
835	0.4175	0.848	2.15714285714	-14.027027027	13.9310991957
836	0.418	-1.976	6.44897959184	-5.36756756757	15.3386058981
837	0.4185	-1.976	-6.42653061224	-2.48108108108	16.7461126005
838	0.419	3.672	-4.99591836735	-1.03783783784	19.5611260054
839	0.4195	6.496	-0.704081632653	0.405405405405	18.1536193029
840	0.42	-4.8	3.58775510204	-1.03783783784	19.5611260054
841	0.4205	3.672	-0.704081632653	1.84864864865	15.3386058981
842	0.421	-0.564	2.15714285714	-5.36756756757	18.1536193029
843	0.4215	0.848	0.726530612245	0.405405405405	15.3386058981
844	0.422	0.848	-6.42653061224	1.84864864865	12.5235924933
845	0.4225	-0.564	3.58775510204	3.29189189189	8.30107238606
846	0.423	17.792	0.726530612245	3.29189189189	2.67104557641
847	0.4235	2.26	3.58775510204	3.29189189189	-4.36648793566
848	0.424	-1.976	2.15714285714	-8.25405405405	4.07855227882
849	0.4245	0.848	3.58775510204	1.84864864865	5.48605898123
850	0.425	0.848	20.7551020408	-1.03783783784	9.70857908847
851	0.4255	-1.976	-0.704081632653	-2.48108108108	13.9310991957
852	0.426	-10.448	-0.704081632653	-1.03783783784	8.30107238606
853	0.4265	2.26	0.726530612245	-3.92432432432	1.26353887399
854	0.427	0.848	0.726530612245	-2.48108108108	4.07855227882
855	0.4275	2.26	3.58775510204	-5.36756756757	11.1160857909
856	0.428	-1.976	-0.704081632653	0.405405405405	11.1160857909
857	0.4285	5.084	-4.99591836735	0.405405405405	8.30107238606
858	0.429	19.204	0.726530612245	0.405405405405	4.07855227882
859	0.4295	-1.976	0.726530612245	-1.03783783784	13.9310991957
860	0.43	-1.976	3.58775510204	17.7243243243	8.30107238606
861	0.4305	-1.976	3.58775510204	14.8378378378	12.5235924933
862	0.431	-1.976	0.726530612245	-1.03783783784	8.30107238606
863	0.4315	-9.036	2.15714285714	-1.03783783784	11.1160857909
864	0.432	0.848	3.58775510204	0.405405405405	13.9310991957
865	0.4325	-4.8	0.726530612245	-1.03783783784	6.89356568365
866	0.433	2.26	0.726530612245	-12.5837837838	15.3386058981
867	0.4335	-1.976	5.01836734694	-3.92432432432	19.5611260054
868	0.434	-3.388	-7.85714285714	-5.36756756757	20.9686327078
869	0.4345	0.848	-2.13469387755	-1.03783783784	23.7836461126
870	0.435	10.732	-0.704081632653	0.405405405405	16.7461126005
871	0.4355	-1.976	2.15714285714	3.29189189189	19.5611260054
872	0.436	0.848	0.726530612245	19.1675675676	22.3761394102
873	0.4365	0.848	-2.13469387755	0.405405405405	25.191152815
874	0.437	5.084	-6.42653061224	3.29189189189	25.191152815
875	0.4375	3.672	0.726530612245	1.84864864865	25.191152815
876	0.438	19.204	2.15714285714	1.84864864865	23.7836461126
877	0.4385	-6.212	0.726530612245	1.84864864865	20.9686327078
878	0.439	0.848	2.15714285714	14.8378378378	15.3386058981
879	0.4395	0.848	3.58775510204	1.84864864865	15.3386058981
880	0.44	0.848	5.01836734694	-1.03783783784	12.5235924933
881	0.4405	0.848	-3.56530612245	0.405405405405	15.3386058981
882	0.441	0.848	0.726530612245	0.405405405405	15.3386058981
883	0.4415	-1.976	0.726530612245	1.84864864865	4.07855227882
884	0.442	0.848	0.726530612245	4.73513513514	8.30107238606
885	0.4425	-1.976	5.01836734694	-3.92432432432	11.1160857909
886	0.443	-4.8	13.6020408163	-1.03783783784	6.89356568365
887	0.4435	-0.564	-0.704081632653	-1.03783783784	8.30107238606
888	0.444	-7.624	2.15714285714	1.84864864865	-4.36648793566
889	0.4445	-4.8	2.15714285714	3.29189189189	2.67104557641
890	0.445	-0.564	0.726530612245	20.6108108108	11.1160857909
891	0.4455	-0.564	-0.704081632653	-8.25405405405	8.30107238606
892	0.446	0.848	20.7551020408	0.405405405405	11.1160857909
893	0.4465	-3.388	20.7551020408	0.405405405405	8.30107238606
894	0.447	-11.86	2.15714285714	0.405405405405	15.3386058981
895	0.4475	0.848	0.726530612245	0.405405405405	4.07855227882
896	0.448	-0.564	3.58775510204	9.06486486486	13.9310991957
897	0.4485	-0.564	0.726530612245	-1.03783783784	15.3386058981
898	0.449	-3.388	6.44897959184	-2.48108108108	16.7461126005
899	0.4495	0.848	-0.704081632653	-1.03783783784	19.5611260054
900	0.45	-4.8	2.15714285714	0.405405405405	4.07855227882
901	0.4505	-0.564	0.726530612245	6.17837837838	12.5235924933
902	0.451	-0.564	0.726530612245	19.1675675676	20.9686327078
903	0.4515	-0.564	2.15714285714	-8.25405405405	22.3761394102
904	0.452	-0.564	17.893877551	0.405405405405	20.9686327078
905	0.4525	-0.564	0.726530612245	3.29189189189	23.7836461126
906	0.453	-7.624	0.726530612245	1.84864864865	23.7836461126
907	0.4535	-6.212	2.15714285714	4.73513513514	35.0436997319
908	0.454	3.672	9.31020408163	9.06486486486	22.3761394102
909	0.4545	0.848	0.726530612245	1.84864864865	20.9686327078
910	0.455	0.848	9.31020408163	1.84864864865	19.5611260054
911	0.4555	2.26	6.44897959184	1.84864864865	18.1536193029
912	0.456	3.672	2.15714285714	1.84864864865	12.5235924933
913	0.4565	-3.388	0.726530612245	4.73513513514	19.5611260054
914	0.457	0.848	0.726530612245	0.405405405405	13.9310991957
915	0.4575	0.848	5.01836734694	0.405405405405	12.5235924933
916	0.458	0.848	13.6020408163	1.84864864865	13.9310991957
917	0.4585	-3.388	9.31020408163	3.29189189189	11.1160857909
918	0.459	-10.448	-9.28775510204	1.84864864865	9.70857908847
919	0.4595	-1.976	-4.99591836735	4.73513513514	-4.36648793566
920	0.46	0.848	-0.704081632653	-5.36756756757	-1.55147453083
921	0.4605	0.848	-0.704081632653	3.29189189189	8.30107238606
922	0.461	-0.564	13.6020408163	-1.03783783784	8.30107238606
923	0.4615	2.26	3.58775510204	0.405405405405	8.30107238606
924	0.462	10.732	-0.704081632653	-1.03783783784	12.5235924933
925	0.4625	-1.976	0.726530612245	4.73513513514	5.48605898123
926	0.463	-0.564	0.726530612245	4.73513513514	6.89356568365
927	0.4635	2.26	-6.42653061224	0.405405405405	12.5235924933
928	0.464	-0.564	19.3244897959	0.405405405405	12.5235924933
929	0.4645	-1.976	19.3244897959	-1.03783783784	12.5235924933
930	0.465	-4.8	3.58775510204	3.29189189189	12.5235924933
931	0.4655	-6.212	0.726530612245	-1.03783783784	15.3386058981
932	0.466	-1.976	2.15714285714	9.06486486486	6.89356568365
933	0.4665	-4.8	-2.13469387755	13.3945945946	13.9310991957
934	0.467	-3.388	16.4632653061	-1.03783783784	15.3386058981
935	0.4675	-6.212	-0.704081632653	0.405405405405	15.3386058981
936	0.468	-9.036	0.726530612245	-1.03783783784	15.3386058981
937	0.4685	-0.564	2.15714285714	-1.03783783784	23.7836461126
938	0.469	-0.564	0.726530612245	16.2810810811	15.3386058981
939	0.4695	-0.564	2.15714285714	-1.03783783784	18.1536193029
940	0.47	2.26	-4.99591836735	0.405405405405	15.3386058981
941	0.4705	7.908	2.15714285714	1.84864864865	13.9310991957
942	0.471	20.616	3.58775510204	3.29189189189	1.26353887399
943	0.4715	0.848	3.58775510204	-6.81081081081	11.1160857909
944	0.472	-1.976	0.726530612245	-6.81081081081	11.1160857909
945	0.4725	-1.976	2.15714285714	3.29189189189	6.89356568365
946	0.473	2.26	-3.56530612245	0.405405405405	6.89356568365
947	0.4735	-6.212	3.58775510204	-1.03783783784	4.07855227882
948	0.474	13.556	0.726530612245	4.73513513514	2.67104557641
949	0.4745	0.848	5.01836734694	0.405405405405	6.89356568365
950	0.475	2.26	6.44897959184	20.6108108108	-2.95898123324
951	0.4755	2.26	0.726530612245	14.8378378378	-0.143967828418
952	0.476	2.26	22.1857142857	-1.03783783784	-0.143967828418
953	0.4765	-0.564	3.58775510204	-1.03783783784	1.26353887399
954	0.477	-4.8	2.15714285714	0.405405405405	-8.5890080429
955	0.4775	0.848	3.58775510204	1.84864864865	-7.18150134048
956	0.478	0.848	2.15714285714	-1.03783783784	5.48605898123
957	0.4785	-1.976	-4.99591836735	-1.03783783784	-1.55147453083
958	0.479	0.848	13.6020408163	-2.48108108108	-2.95898123324
959	0.4795	-4.8	7.87959183673	0.405405405405	-0.143967828418
960	0.48	-10.448	-0.704081632653	1.84864864865	15.3386058981
961	0.4805	-3.388	5.01836734694	3.29189189189	-7.18150134048
962	0.481	-3.388	2.15714285714	-9.6972972973	-7.18150134048
963	0.4815	-6.212	3.58775510204	-11.1405405405	4.07855227882
964	0.482	-3.388	15.0326530612	-1.03783783784	2.67104557641
965	0.4825	-4.8	-6.42653061224	-1.03783783784	5.48605898123
966	0.483	3.672	-0.704081632653	0.405405405405	13.9310991957
967	0.4835	-0.564	0.726530612245	1.84864864865	16.7461126005
968	0.484	0.848	0.726530612245	3.29189189189	6.89356568365
969	0.4845	3.672	-7.85714285714	-2.48108108108	6.89356568365
970	0.485	3.672	-6.42653061224	0.405405405405	6.89356568365
971	0.4855	10.732	0.726530612245	3.29189189189	12.5235924933
972	0.486	23.44	2.15714285714	3.29189189189	13.9310991957
973	0.4865	3.672	5.01836734694	3.29189189189	2.67104557641
974	0.487	2.26	5.01836734694	-1.03783783784	-0.143967828418
975	0.4875	5.084	5.01836734694	4.73513513514	8.30107238606
976	0.488	5.084	10.7408163265	3.29189189189	4.07855227882
977	0.4885	9.32	3.58775510204	3.29189189189	4.07855227882
978	0.489	9.32	5.01836734694	3.29189189189	2.67104557641
979	0.4895	5.084	5.01836734694	-3.92432432432	-2.95898123324
980	0.49	2.26	5.01836734694	-1.03783783784	4.07855227882
981	0.4905	0.848	5.01836734694	-5.36756756757	5.48605898123
982	0.491	2.26	-10.7183673469	-2.48108108108	4.07855227882
983	0.4915	2.26	-2.13469387755	1.84864864865	6.89356568365
984	0.492	17.792	-3.56530612245	-1.03783783784	-4.36648793566
985	0.4925	-0.564	-2.13469387755	-1.03783783784	-4.36648793566
986	0.493	-4.8	-0.704081632653	-9.6972972973	2.67104557641
987	0.4935	-4.8	0.726530612245	-1.03783783784	-4.36648793566
988	0.494	-3.388	10.7408163265	-1.03783783784	-5.77399463807
989	0.4945	-4.8	-4.99591836735	-1.03783783784	-8.5890080429
990	0.495	0.848	-0.704081632653	-1.03783783784	-1.55147453083
991	0.4955	-0.564	-0.704081632653	0.405405405405	-9.99651474531
992	0.496	-0.564	-0.704081632653	-8.25405405405	-4.36648793566
993	0.4965	-0.564	2.15714285714	1.84864864865	-0.143967828418
994	0.497	0.848	16.4632653061	-1.03783783784	2.67104557641
995	0.4975	-0.564	-9.28775510204	0.405405405405	1.26353887399
996	0.498	14.968	0.726530612245	-2.48108108108	-0.143967828418
997	0.4985	2.26	0.726530612245	-2.48108108108	-0.143967828418
998	0.499	2.26	2.15714285714	-8.25405405405	6.89356568365
999	0.4995	-0.564	2.15714285714	-2.48108108108	8.30107238606
1000	0.5	-1.976	19.3244897959	0.405405405405	6.89356568365
1001	0.5005	3.672	-6.42653061224	-3.92432432432	12.5235924933
1002	0.501	19.204	2.15714285714	-2.48108108108	6.89356568365
1003	0.5015	-6.212	3.58775510204	-1.03783783784	13.9310991957
1004	0.502	-4.8	2.15714285714	1.84864864865	9.70857908847
1005	0.5025	-6.212	2.15714285714	16.2810810811	8.30107238606
1006	0.503	-4.8	2.15714285714	1.84864864865	8.30107238606
1007	0.5035	-14.684	-0.704081632653	3.29189189189	8.30107238606
1008	0.504	13.556	-2.13469387755	1.84864864865	6.89356568365
1009	0.5045	-1.976	-0.704081632653	-1.03783783784	-1.55147453083
1010	0.505	-0.564	2.15714285714	-5.36756756757	4.07855227882
1011	0.5055	-0.564	0.726530612245	1.84864864865	2.67104557641
1012	0.506	0.848	17.893877551	0.405405405405	2.67104557641
1013	0.5065	-0.564	2.15714285714	1.84864864865	-1.55147453083
1014	0.507	-10.448	0.726530612245	0.405405405405	1.26353887399
1015	0.5075	2.26	3.58775510204	1.84864864865	-7.18150134048
1016	0.508	2.26	2.15714285714	19.1675675676	-8.5890080429
1017	0.5085	-1.976	6.44897959184	-1.03783783784	-7.18150134048
1018	0.509	0.848	20.7551020408	-1.03783783784	-8.5890080429
1019	0.5095	0.848	0.726530612245	-1.03783783784	-5.77399463807
1020	0.51	-10.448	3.58775510204	1.84864864865	-7.18150134048
1021	0.5105	0.848	2.15714285714	0.405405405405	-15.626541555
1022	0.511	-1.976	0.726530612245	-1.03783783784	-15.626541555
1023	0.5115	-0.564	0.726530612245	-2.48108108108	-9.99651474531
1024	0.512	0.848	7.87959183673	-1.03783783784	-7.18150134048
1025	0.5125	-1.976	16.4632653061	0.405405405405	-4.36648793566
1026	0.513	-7.624	0.726530612245	1.84864864865	-4.36648793566
1027	0.5135	-7.624	-0.704081632653	-1.03783783784	-4.36648793566
1028	0.514	-0.564	0.726530612245	13.3945945946	-2.95898123324
1029	0.5145	-0.564	0.726530612245	-1.03783783784	-1.55147453083
1030	0.515	-1.976	3.58775510204	-1.03783783784	-1.55147453083
1031	0.5155	-0.564	-3.56530612245	-3.92432432432	2.67104557641
1032	0.516	-1.976	0.726530612245	-1.03783783784	1.26353887399
1033	0.5165	-3.388	0.726530612245	-1.03783783784	-0.143967828418
1034	0.517	-1.976	0.726530612245	-11.1405405405	4.07855227882
1035	0.5175	0.848	-0.704081632653	-5.36756756757	6.89356568365
1036	0.518	3.672	20.7551020408	-1.03783783784	8.30107238606
1037	0.5185	-0.564	0.726530612245	1.84864864865	12.5235924933
1038	0.519	-14.684	0.726530612245	1.84864864865	12.5235924933
1039	0.5195	-0.564	0.726530612245	4.73513513514	2.67104557641
1040	0.52	3.672	-0.704081632653	16.2810810811	4.07855227882
1041	0.5205	3.672	0.726530612245	-1.03783783784	4.07855227882
1042	0.521	2.26	-7.85714285714	0.405405405405	4.07855227882
1043	0.5215	5.084	-9.28775510204	3.29189189189	5.48605898123
1044	0.522	14.968	0.726530612245	1.84864864865	-2.95898123324
1045	0.5225	-1.976	0.726530612245	0.405405405405	5.48605898123
1046	0.523	2.26	0.726530612245	-5.36756756757	2.67104557641
1047	0.5235	-0.564	-2.13469387755	7.62162162162	-2.95898123324
1048	0.524	-1.976	3.58775510204	16.2810810811	-4.36648793566
1049	0.5245	-0.564	-4.99591836735	3.29189189189	-8.5890080429
1050	0.525	-6.212	-0.704081632653	3.29189189189	-7.18150134048
1051	0.5255	9.32	-0.704081632653	0.405405405405	-8.5890080429
1052	0.526	-0.564	2.15714285714	6.17837837838	-5.77399463807
1053	0.5265	0.848	2.15714285714	-1.03783783784	-4.36648793566
1054	0.527	-0.564	-2.13469387755	1.84864864865	-5.77399463807
1055	0.5275	0.848	5.01836734694	0.405405405405	-5.77399463807
1056	0.528	0.848	-3.56530612245	0.405405405405	-2.95898123324
1057	0.5285	0.848	3.58775510204	0.405405405405	-5.77399463807
1058	0.529	2.26	0.726530612245	3.29189189189	-7.18150134048
1059	0.5295	0.848	3.58775510204	16.2810810811	-7.18150134048
1060	0.53	2.26	3.58775510204	-1.03783783784	-5.77399463807
1061	0.5305	-0.564	-6.42653061224	1.84864864865	-2.95898123324
1062	0.531	3.672	2.15714285714	0.405405405405	-1.55147453083
1063	0.5315	20.616	-0.704081632653	3.29189189189	-9.99651474531
1064	0.532	0.848	-0.704081632653	4.73513513514	-2.95898123324
1065	0.5325	-1.976	0.726530612245	17.7243243243	6.89356568365
1066	0.533	0.848	-7.85714285714	0.405405405405	8.30107238606
1067	0.5335	0.848	15.0326530612	1.84864864865	8.30107238606
1068	0.534	0.848	0.726530612245	1.84864864865	11.1160857909
1069	0.5345	-4.8	0.726530612245	1.84864864865	15.3386058981
1070	0.535	-0.564	0.726530612245	-6.81081081081	4.07855227882
1071	0.5355	0.848	2.15714285714	4.73513513514	11.1160857909
1072	0.536	-3.388	2.15714285714	3.29189189189	11.1160857909
1073	0.5365	-1.976	-2.13469387755	3.29189189189	12.5235924933
1074	0.537	-10.448	0.726530612245	1.84864864865	12.5235924933
1075	0.5375	-1.976	0.726530612245	4.73513513514	20.9686327078
1076	0.538	0.848	0.726530612245	6.17837837838	18.1536193029
1077	0.5385	2.26	2.15714285714	4.73513513514	11.1160857909
1078	0.539	0.848	-10.7183673469	1.84864864865	11.1160857909
1079	0.5395	0.848	13.6020408163	1.84864864865	12.5235924933
1080	0.54	-3.388	0.726530612245	-1.03783783784	15.3386058981
1081	0.5405	-11.86	0.726530612245	3.29189189189	-1.55147453083
1082	0.541	-4.8	-0.704081632653	0.405405405405	-4.36648793566
1083	0.5415	-4.8	0.726530612245	-11.1405405405	-1.55147453083
1084	0.542	-4.8	0.726530612245	-1.03783783784	2.67104557641
1085	0.5425	-1.976	19.3244897959	-1.03783783784	4.07855227882
1086	0.543	-3.388	-9.28775510204	-1.03783783784	-0.143967828418
1087	0.5435	16.38	3.58775510204	-2.48108108108	-7.18150134048
1088	0.544	-0.564	-0.704081632653	0.405405405405	-5.77399463807
1089	0.5445	0.848	0.726530612245	1.84864864865	19.5611260054
1090	0.545	-0.564	-3.56530612245	0.405405405405	5.48605898123
1091	0.5455	0.848	2.15714285714	1.84864864865	4.07855227882
1092	0.546	3.672	-6.42653061224	-1.03783783784	5.48605898123
1093	0.5465	-3.388	-4.99591836735	0.405405405405	4.07855227882
1094	0.547	2.26	-0.704081632653	0.405405405405	-2.95898123324
1095	0.5475	-1.976	3.58775510204	1.84864864865	-0.143967828418
1096	0.548	3.672	2.15714285714	14.8378378378	4.07855227882
1097	0.5485	0.848	-12.1489795918	0.405405405405	4.07855227882
1098	0.549	5.084	-0.704081632653	1.84864864865	8.30107238606
1099	0.5495	-10.448	3.58775510204	-1.03783783784	15.3386058981
1100	0.55	-9.036	2.15714285714	1.84864864865	13.9310991957
1101	0.5505	2.26	2.15714285714	1.84864864865	4.07855227882
1102	0.551	3.672	2.15714285714	-6.81081081081	15.3386058981
1103	0.5515	-3.388	-3.56530612245	-2.48108108108	16.7461126005
1104	0.552	0.848	-0.704081632653	4.73513513514	19.5611260054
1105	0.5525	-10.448	-2.13469387755	6.17837837838	19.5611260054
1106	0.553	-11.86	-2.13469387755	6.17837837838	30.8211796247
1107	0.5535	-3.388	-2.13469387755	4.73513513514	16.7461126005
1108	0.554	-1.976	0.726530612245	6.17837837838	18.1536193029
1109	0.5545	-1.976	-10.7183673469	3.29189189189	13.9310991957
1110	0.555	2.26	-9.28775510204	4.73513513514	15.3386058981
1111	0.5555	5.084	2.15714285714	3.29189189189	8.30107238606
1112	0.556	20.616	-0.704081632653	3.29189189189	-1.55147453083
1113	0.5565	-0.564	2.15714285714	4.73513513514	-2.95898123324
1114	0.557	-0.564	0.726530612245	-6.81081081081	4.07855227882
1115	0.5575	-0.564	2.15714285714	-6.81081081081	1.26353887399
1116	0.558	-1.976	16.4632653061	1.84864864865	-2.95898123324
1117	0.5585	-7.624	2.15714285714	1.84864864865	-5.77399463807
1118	0.559	17.792	5.01836734694	3.29189189189	-9.99651474531
1119	0.5595	0.848	0.726530612245	0.405405405405	-11.4040214477
1120	0.56	-0.564	0.726530612245	-8.25405405405	-7.18150134048
1121	0.5605	-0.564	-3.56530612245	-1.03783783784	-9.99651474531
1122	0.561	-0.564	6.44897959184	3.29189189189	-11.4040214477
1123	0.5615	0.848	0.726530612245	-1.03783783784	-11.4040214477
1124	0.562	-6.212	-0.704081632653	1.84864864865	-12.8115281501
1125	0.5625	-0.564	0.726530612245	1.84864864865	-17.0340482574
1126	0.563	-0.564	0.726530612245	17.7243243243	-11.4040214477
1127	0.5635	-0.564	-0.704081632653	0.405405405405	-11.4040214477
1128	0.564	-0.564	-13.5795918367	0.405405405405	-7.18150134048
1129	0.5645	3.672	-0.704081632653	0.405405405405	-2.95898123324
1130	0.565	-13.272	-2.13469387755	0.405405405405	-1.55147453083
1131	0.5655	-7.624	0.726530612245	0.405405405405	18.1536193029
1132	0.566	-0.564	3.58775510204	3.29189189189	-4.36648793566
1133	0.5665	2.26	2.15714285714	-3.92432432432	2.67104557641
1134	0.567	0.848	10.7408163265	-5.36756756757	1.26353887399
1135	0.5675	-0.564	6.44897959184	-1.03783783784	2.67104557641
1136	0.568	-10.448	7.87959183673	0.405405405405	6.89356568365
1137	0.5685	-4.8	2.15714285714	0.405405405405	16.7461126005
1138	0.569	0.848	5.01836734694	-8.25405405405	2.67104557641
1139	0.5695	-0.564	2.15714285714	17.7243243243	4.07855227882
1140	0.57	2.26	-12.1489795918	1.84864864865	8.30107238606
1141	0.5705	3.672	-10.7183673469	1.84864864865	6.89356568365
1142	0.571	10.732	-6.42653061224	1.84864864865	6.89356568365
1143	0.5715	2.26	-7.85714285714	1.84864864865	19.5611260054
1144	0.572	0.848	-6.42653061224	3.29189189189	16.7461126005
1145	0.5725	-0.564	-2.13469387755	13.3945945946	5.48605898123
1146	0.573	0.848	-6.42653061224	1.84864864865	2.67104557641
1147	0.5735	3.672	3.58775510204	-1.03783783784	-1.55147453083
1148	0.574	12.144	3.58775510204	4.73513513514	2.67104557641
1149	0.5745	-0.564	-2.13469387755	1.84864864865	-0.143967828418
1150	0.575	3.672	0.726530612245	4.73513513514	13.9310991957
1151	0.5755	3.672	-0.704081632653	0.405405405405	-0.143967828418
1152	0.576	0.848	0.726530612245	-2.48108108108	-2.95898123324
1153	0.5765	5.084	-6.42653061224	0.405405405405	2.67104557641
1154	0.577	19.204	-0.704081632653	0.405405405405	4.07855227882
1155	0.5775	-7.624	0.726530612245	-1.03783783784	18.1536193029
1156	0.578	-3.388	-0.704081632653	-6.81081081081	-1.55147453083
1157	0.5785	-1.976	0.726530612245	-9.6972972973	-1.55147453083
1158	0.579	-4.8	20.7551020408	1.84864864865	4.07855227882
1159	0.5795	-9.036	0.726530612245	1.84864864865	4.07855227882
1160	0.58	-17.508	2.15714285714	-1.03783783784	4.07855227882
1161	0.5805	-13.272	-0.704081632653	0.405405405405	18.1536193029
1162	0.581	-1.976	0.726530612245	3.29189189189	1.26353887399
1163	0.5815	-4.8	0.726530612245	4.73513513514	6.89356568365
1164	0.582	-3.388	-0.704081632653	0.405405405405	4.07855227882
1165	0.5825	0.848	-4.99591836735	1.84864864865	11.1160857909
1166	0.583	-3.388	0.726530612245	-1.03783783784	12.5235924933
1167	0.5835	-3.388	-0.704081632653	1.84864864865	12.5235924933
1168	0.584	3.672	0.726530612245	4.73513513514	19.5611260054
1169	0.5845	3.672	-2.13469387755	0.405405405405	13.9310991957
1170	0.585	5.084	-2.13469387755	-1.03783783784	11.1160857909
1171	0.5855	7.908	-4.99591836735	4.73513513514	11.1160857909
1172	0.586	10.732	0.726530612245	3.29189189189	8.30107238606
1173	0.5865	5.084	-0.704081632653	-1.03783783784	25.191152815
1174	0.587	3.672	-0.704081632653	1.84864864865	20.9686327078
1175	0.5875	5.084	0.726530612245	4.73513513514	8.30107238606
1176	0.588	5.084	2.15714285714	6.17837837838	8.30107238606
1177	0.5885	0.848	-0.704081632653	0.405405405405	4.07855227882
1178	0.589	-9.036	0.726530612245	0.405405405405	2.67104557641
1179	0.5895	14.968	-2.13469387755	3.29189189189	-2.95898123324
1180	0.59	0.848	0.726530612245	3.29189189189	5.48605898123
1181	0.5905	-3.388	0.726530612245	14.8378378378	-5.77399463807
1182	0.591	-4.8	-2.13469387755	14.8378378378	-2.95898123324
1183	0.5915	-3.388	-3.56530612245	0.405405405405	-1.55147453083
1184	0.592	-0.564	-2.13469387755	-1.03783783784	-0.143967828418
1185	0.5925	-7.624	0.726530612245	0.405405405405	13.9310991957
1186	0.593	-3.388	-0.704081632653	3.29189189189	-2.95898123324
1187	0.5935	-0.564	3.58775510204	16.2810810811	-4.36648793566
1188	0.594	-1.976	-3.56530612245	20.6108108108	-0.143967828418
1189	0.5945	-0.564	0.726530612245	-2.48108108108	1.26353887399
1190	0.595	0.848	-0.704081632653	-1.03783783784	4.07855227882
1191	0.5955	-10.448	-0.704081632653	-1.03783783784	8.30107238606
1192	0.596	-4.8	-2.13469387755	1.84864864865	-0.143967828418
1193	0.5965	-3.388	-2.13469387755	19.1675675676	5.48605898123
1194	0.597	-3.388	-0.704081632653	-8.25405405405	4.07855227882
1195	0.5975	-3.388	2.15714285714	-9.6972972973	2.67104557641
1196	0.598	-4.8	0.726530612245	-1.03783783784	6.89356568365
1197	0.5985	-10.448	0.726530612245	0.405405405405	8.30107238606
1198	0.599	-11.86	0.726530612245	1.84864864865	6.89356568365
1199	0.5995	-0.564	2.15714285714	20.6108108108	4.07855227882
1200	0.6	0.848	0.726530612245	1.84864864865	5.48605898123
1201	0.6005	0.848	-10.7183673469	0.405405405405	6.89356568365
1202	0.601	2.26	-3.56530612245	0.405405405405	11.1160857909
1203	0.6015	3.672	0.726530612245	3.29189189189	8.30107238606
1204	0.602	9.32	2.15714285714	1.84864864865	8.30107238606
1205	0.6025	0.848	2.15714285714	-2.48108108108	22.3761394102
1206	0.603	3.672	0.726530612245	0.405405405405	8.30107238606
1207	0.6035	10.732	0.726530612245	11.9513513514	8.30107238606
1208	0.604	3.672	-6.42653061224	3.29189189189	8.30107238606
1209	0.6045	-0.564	3.58775510204	4.73513513514	6.89356568365
1210	0.605	5.084	0.726530612245	0.405405405405	2.67104557641
1211	0.6055	-3.388	-0.704081632653	0.405405405405	-1.55147453083
1212	0.606	2.26	3.58775510204	6.17837837838	-1.55147453083
1213	0.6065	-0.564	3.58775510204	0.405405405405	-2.95898123324
1214	0.607	-3.388	3.58775510204	4.73513513514	-2.95898123324
1215	0.6075	-0.564	-2.13469387755	3.29189189189	-2.95898123324
1216	0.608	2.26	3.58775510204	4.73513513514	-7.18150134048
1217	0.6085	-4.8	0.726530612245	3.29189189189	-7.18150134048
1218	0.609	-3.388	0.726530612245	1.84864864865	5.48605898123
1219	0.6095	-3.388	2.15714285714	0.405405405405	-7.18150134048
1220	0.61	-0.564	0.726530612245	0.405405405405	-7.18150134048
1221	0.6105	-1.976	-0.704081632653	3.29189189189	-2.95898123324
1222	0.611	-10.448	2.15714285714	3.29189189189	-7.18150134048
1223	0.6115	-0.564	0.726530612245	4.73513513514	-7.18150134048
1224	0.612	0.848	0.726530612245	16.2810810811	-8.5890080429
1225	0.6125	-1.976	-0.704081632653	-2.48108108108	-8.5890080429
1226	0.613	-0.564	-10.7183673469	1.84864864865	-8.5890080429
1227	0.6135	2.26	0.726530612245	1.84864864865	-8.5890080429
1228	0.614	17.792	0.726530612245	1.84864864865	-7.18150134048
1229	0.6145	-10.448	2.15714285714	3.29189189189	-5.77399463807
1230	0.615	-3.388	0.726530612245	16.2810810811	-8.5890080429
1231	0.6155	-3.388	-3.56530612245	-5.36756756757	-7.18150134048
1232	0.616	-4.8	-0.704081632653	-2.48108108108	-4.36648793566
1233	0.6165	0.848	-2.13469387755	-2.48108108108	-2.95898123324
1234	0.617	10.732	-4.99591836735	0.405405405405	-5.77399463807
1235	0.6175	-4.8	-2.13469387755	0.405405405405	4.07855227882
1236	0.618	3.672	0.726530612245	0.405405405405	4.07855227882
1237	0.6185	5.084	-2.13469387755	-1.03783783784	2.67104557641
1238	0.619	-0.564	7.87959183673	3.29189189189	-0.143967828418
1239	0.6195	2.26	-4.99591836735	1.84864864865	4.07855227882
1240	0.62	-4.8	-9.28775510204	4.73513513514	-0.143967828418
1241	0.6205	14.968	0.726530612245	3.29189189189	-1.55147453083
1242	0.621	-0.564	-0.704081632653	1.84864864865	-11.4040214477
1243	0.6215	2.26	-2.13469387755	4.73513513514	-8.5890080429
1244	0.622	-0.564	-4.99591836735	3.29189189189	-11.4040214477
1245	0.6225	0.848	0.726530612245	4.73513513514	-12.8115281501
1246	0.623	-4.8	3.58775510204	1.84864864865	-11.4040214477
1247	0.6235	13.556	2.15714285714	1.84864864865	-17.0340482574
1248	0.624	0.848	2.15714285714	1.84864864865	-14.2190348525
1249	0.6245	0.848	0.726530612245	0.405405405405	-22.664075067
1250	0.625	-1.976	-6.42653061224	0.405405405405	-14.2190348525
1251	0.6255	2.26	0.726530612245	-1.03783783784	-14.2190348525
1252	0.626	2.26	2.15714285714	-1.03783783784	-14.2190348525
1253	0.6265	17.792	2.15714285714	0.405405405405	-15.626541555
1254	0.627	-0.564	2.15714285714	1.84864864865	1.26353887399
1255	0.6275	2.26	3.58775510204	0.405405405405	-22.664075067
1256	0.628	0.848	0.726530612245	4.73513513514	-12.8115281501
1257	0.6285	2.26	7.87959183673	4.73513513514	-15.626541555
1258	0.629	3.672	3.58775510204	-1.03783783784	-14.2190348525
1259	0.6295	-1.976	0.726530612245	-1.03783783784	-18.4415549598
1260	0.63	0.848	0.726530612245	-2.48108108108	-17.0340482574
1261	0.6305	2.26	0.726530612245	6.17837837838	-9.99651474531
1262	0.631	2.26	0.726530612245	-5.36756756757	-5.77399463807
1263	0.6315	-0.564	5.01836734694	0.405405405405	-4.36648793566
1264	0.632	3.672	2.15714285714	-1.03783783784	-7.18150134048
1265	0.6325	7.908	0.726530612245	-2.48108108108	-7.18150134048
1266	0.633	-4.8	0.726530612245	-3.92432432432	11.1160857909
1267	0.6335	-3.388	0.726530612245	16.2810810811	-1.55147453083
1268	0.634	0.848	-2.13469387755	13.3945945946	-0.143967828418
1269	0.6345	-0.564	19.3244897959	0.405405405405	2.67104557641
1270	0.635	-4.8	-3.56530612245	-1.03783783784	1.26353887399
1271	0.6355	-16.096	0.726530612245	-1.03783783784	1.26353887399
1272	0.636	-3.388	2.15714285714	1.84864864865	-8.5890080429
1273	0.6365	0.848	-0.704081632653	0.405405405405	15.3386058981
1274	0.637	0.848	3.58775510204	4.73513513514	1.26353887399
1275	0.6375	2.26	22.1857142857	3.29189189189	-0.143967828418
1276	0.638	-1.976	-6.42653061224	0.405405405405	-1.55147453083
1277	0.6385	5.084	2.15714285714	1.84864864865	-0.143967828418
1278	0.639	0.848	0.726530612245	-1.03783783784	18.1536193029
1279	0.6395	-0.564	0.726530612245	-1.03783783784	15.3386058981
1280	0.64	-3.388	3.58775510204	17.7243243243	-2.95898123324
1281	0.6405	-3.388	-12.1489795918	-1.03783783784	-5.77399463807
1282	0.641	-1.976	-9.28775510204	1.84864864865	-7.18150134048
1283	0.6415	2.26	2.15714285714	0.405405405405	-8.5890080429
1284	0.642	20.616	-0.704081632653	1.84864864865	-8.5890080429
1285	0.6425	-1.976	0.726530612245	4.73513513514	-11.4040214477
1286	0.643	-1.976	-3.56530612245	4.73513513514	-12.8115281501
1287	0.6435	-1.976	-0.704081632653	7.62162162162	-14.2190348525
1288	0.644	3.672	-4.99591836735	-1.03783783784	-11.4040214477
1289	0.6445	5.084	2.15714285714	-2.48108108108	-12.8115281501
1290	0.645	10.732	2.15714285714	-2.48108108108	-15.626541555
1291	0.6455	-6.212	5.01836734694	-1.03783783784	-11.4040214477
1292	0.646	-0.564	5.01836734694	6.17837837838	-7.18150134048
1293	0.6465	2.26	2.15714285714	-1.03783783784	-2.95898123324
1294	0.647	0.848	-6.42653061224	-1.03783783784	-4.36648793566
1295	0.6475	2.26	-10.7183673469	-1.03783783784	-2.95898123324
1296	0.648	6.496	-0.704081632653	-2.48108108108	-1.55147453083
1297	0.6485	16.38	-2.13469387755	-1.03783783784	-1.55147453083
1298	0.649	0.848	-4.99591836735	-5.36756756757	4.07855227882
1299	0.6495	-3.388	-3.56530612245	6.17837837838	6.89356568365
1300	0.65	-4.8	-0.704081632653	-1.03783783784	11.1160857909
1301	0.6505	-3.388	-3.56530612245	1.84864864865	11.1160857909
1302	0.651	-4.8	-2.13469387755	0.405405405405	13.9310991957
1303	0.6515	0.848	2.15714285714	0.405405405405	19.5611260054
1304	0.652	-1.976	3.58775510204	3.29189189189	6.89356568365
1305	0.6525	0.848	-0.704081632653	-11.1405405405	12.5235924933
1306	0.653	0.848	6.44897959184	-5.36756756757	12.5235924933
1307	0.6535	0.848	20.7551020408	3.29189189189	11.1160857909
1308	0.654	-0.564	-4.99591836735	3.29189189189	8.30107238606
1309	0.6545	20.616	0.726530612245	4.73513513514	11.1160857909
1310	0.655	-7.624	-2.13469387755	3.29189189189	11.1160857909
1311	0.6555	5.084	0.726530612245	4.73513513514	-1.55147453083
1312	0.656	0.848	3.58775510204	-2.48108108108	5.48605898123
1313	0.6565	0.848	-2.13469387755	3.29189189189	2.67104557641
1314	0.657	0.848	0.726530612245	-1.03783783784	-0.143967828418
1315	0.6575	3.672	2.15714285714	1.84864864865	-4.36648793566
1316	0.658	-4.8	0.726530612245	1.84864864865	-1.55147453083
1317	0.6585	0.848	3.58775510204	4.73513513514	-2.95898123324
1318	0.659	0.848	-2.13469387755	4.73513513514	-5.77399463807
1319	0.6595	-0.564	-10.7183673469	-1.03783783784	-8.5890080429
1320	0.66	-0.564	6.44897959184	-2.48108108108	-5.77399463807
1321	0.6605	-11.86	0.726530612245	-1.03783783784	-4.36648793566
1322	0.661	0.848	3.58775510204	0.405405405405	-8.5890080429
1323	0.6615	0.848	0.726530612245	-8.25405405405	-9.99651474531
1324	0.662	-0.564	-2.13469387755	3.29189189189	-12.8115281501
1325	0.6625	-0.564	-4.99591836735	1.84864864865	-11.4040214477
1326	0.663	2.26	16.4632653061	1.84864864865	-7.18150134048
1327	0.6635	-13.272	5.01836734694	-2.48108108108	-1.55147453083
1328	0.664	-4.8	2.15714285714	1.84864864865	5.48605898123
1329	0.6645	0.848	2.15714285714	-9.6972972973	-2.95898123324
1330	0.665	-3.388	6.44897959184	6.17837837838	-2.95898123324
1331	0.6655	-1.976	2.15714285714	-5.36756756757	4.07855227882
1332	0.666	-0.564	7.87959183673	-1.03783783784	2.67104557641
1333	0.6665	0.848	13.6020408163	-1.03783783784	4.07855227882
1334	0.667	-9.036	0.726530612245	-1.03783783784	12.5235924933
1335	0.6675	-0.564	0.726530612245	0.405405405405	-1.55147453083
1336	0.668	0.848	0.726530612245	0.405405405405	4.07855227882
1337	0.6685	2.26	0.726530612245	-6.81081081081	11.1160857909
1338	0.669	2.26	-3.56530612245	-8.25405405405	12.5235924933
1339	0.6695	9.32	0.726530612245	1.84864864865	13.9310991957
1340	0.67	13.556	0.726530612245	0.405405405405	13.9310991957
1341	0.6705	0.848	2.15714285714	1.84864864865	20.9686327078
1342	0.671	5.084	5.01836734694	11.9513513514	15.3386058981
1343	0.6715	3.672	-0.704081632653	4.73513513514	15.3386058981
1344	0.672	0.848	0.726530612245	-3.92432432432	6.89356568365
1345	0.6725	5.084	-0.704081632653	-1.03783783784	5.48605898123
1346	0.673	3.672	0.726530612245	3.29189189189	-0.143967828418
1347	0.6735	-9.036	2.15714285714	3.29189189189	8.30107238606
1348	0.674	-4.8	0.726530612245	-1.03783783784	1.26353887399
1349	0.6745	-1.976	-0.704081632653	9.06486486486	1.26353887399
1350	0.675	-1.976	-6.42653061224	0.405405405405	-0.143967828418
1351	0.6755	3.672	-7.85714285714	0.405405405405	1.26353887399
1352	0.676	-0.564	0.726530612245	0.405405405405	2.67104557641
1353	0.6765	16.38	0.726530612245	3.29189189189	1.26353887399
1354	0.677	3.672	5.01836734694	1.84864864865	19.5611260054
1355	0.6775	2.26	5.01836734694	17.7243243243	5.48605898123
1356	0.678	0.848	2.15714285714	16.2810810811	1.26353887399
1357	0.6785	0.848	20.7551020408	0.405405405405	1.26353887399
1358	0.679	2.26	2.15714285714	-1.03783783784	6.89356568365
1359	0.6795	-14.684	2.15714285714	3.29189189189	11.1160857909
1360	0.68	-3.388	-0.704081632653	0.405405405405	-2.95898123324
1361	0.6805	-4.8	-0.704081632653	-12.5837837838	-0.143967828418
1362	0.681	-4.8	-0.704081632653	-1.03783783784	4.07855227882
1363	0.6815	-6.212	16.4632653061	-1.03783783784	4.07855227882
1364	0.682	-7.624	-2.13469387755	-2.48108108108	6.89356568365
1365	0.6825	-16.096	0.726530612245	0.405405405405	6.89356568365
1366	0.683	-1.976	0.726530612245	4.73513513514	4.07855227882
1367	0.6835	-0.564	2.15714285714	16.2810810811	11.1160857909
1368	0.684	-3.388	10.7408163265	1.84864864865	8.30107238606
1369	0.6845	-1.976	-6.42653061224	0.405405405405	8.30107238606
1370	0.685	0.848	-3.56530612245	0.405405405405	5.48605898123
1371	0.6855	20.616	6.44897959184	0.405405405405	6.89356568365
1372	0.686	-4.8	6.44897959184	-1.03783783784	11.1160857909
1373	0.6865	3.672	2.15714285714	-5.36756756757	18.1536193029
1374	0.687	-0.564	3.58775510204	1.84864864865	8.30107238606
1375	0.6875	-0.564	20.7551020408	4.73513513514	2.67104557641
1376	0.688	-4.8	-10.7183673469	1.84864864865	-0.143967828418
1377	0.6885	16.38	-3.56530612245	1.84864864865	-7.18150134048
1378	0.689	0.848	-6.42653061224	3.29189189189	-5.77399463807
1379	0.6895	-0.564	-4.99591836735	-6.81081081081	-5.77399463807
1380	0.69	0.848	0.726530612245	0.405405405405	-7.18150134048
1381	0.6905	3.672	17.893877551	1.84864864865	-11.4040214477
1382	0.691	-1.976	2.15714285714	0.405405405405	-8.5890080429
1383	0.6915	5.084	5.01836734694	0.405405405405	-7.18150134048
1384	0.692	2.26	0.726530612245	3.29189189189	-12.8115281501
1385	0.6925	-0.564	0.726530612245	3.29189189189	-18.4415549598
1386	0.693	2.26	5.01836734694	-9.6972972973	-7.18150134048
1387	0.6935	-0.564	16.4632653061	-1.03783783784	-8.5890080429
1388	0.694	-1.976	-6.42653061224	0.405405405405	-4.36648793566
1389	0.6945	10.732	0.726530612245	0.405405405405	-8.5890080429
1390	0.695	-0.564	0.726530612245	-1.03783783784	-7.18150134048
1391	0.6955	-3.388	-0.704081632653	0.405405405405	-5.77399463807
1392	0.696	-1.976	-10.7183673469	-3.92432432432	2.67104557641
1393	0.6965	-1.976	-9.28775510204	-3.92432432432	4.07855227882
1394	0.697	0.848	-0.704081632653	-3.92432432432	4.07855227882
1395	0.6975	16.38	-2.13469387755	-1.03783783784	6.89356568365
1396	0.698	-0.564	-0.704081632653	0.405405405405	25.191152815
1397	0.6985	-3.388	-0.704081632653	3.29189189189	8.30107238606
1398	0.699	-1.976	0.726530612245	14.8378378378	11.1160857909
1399	0.6995	-0.564	13.6020408163	-1.03783783784	16.7461126005
1400	0.7	0.848	9.31020408163	-1.03783783784	20.9686327078
1401	0.7005	7.908	2.15714285714	-1.03783783784	20.9686327078
1402	0.701	3.672	0.726530612245	-1.03783783784	33.6361930295
1403	0.7015	5.084	3.58775510204	20.6108108108	22.3761394102
1404	0.702	2.26	9.31020408163	0.405405405405	22.3761394102
1405	0.7025	0.848	22.1857142857	-1.03783783784	19.5611260054
1406	0.703	2.26	-6.42653061224	1.84864864865	16.7461126005
1407	0.7035	13.556	-0.704081632653	4.73513513514	8.30107238606
1408	0.704	-0.564	3.58775510204	3.29189189189	9.70857908847
1409	0.7045	-0.564	2.15714285714	1.84864864865	4.07855227882
1410	0.705	-0.564	-9.28775510204	0.405405405405	4.07855227882
1411	0.7055	2.26	-0.704081632653	1.84864864865	6.89356568365
1412	0.706	0.848	0.726530612245	1.84864864865	6.89356568365
1413	0.7065	-10.448	2.15714285714	3.29189189189	22.3761394102
1414	0.707	-1.976	0.726530612245	3.29189189189	25.191152815
1415	0.7075	-0.564	2.15714285714	19.1675675676	6.89356568365
1416	0.708	-3.388	0.726530612245	16.2810810811	5.48605898123
1417	0.7085	0.848	10.7408163265	-2.48108108108	5.48605898123
1418	0.709	0.848	2.15714285714	-1.03783783784	5.48605898123
1419	0.7095	-1.976	0.726530612245	0.405405405405	8.30107238606
1420	0.71	-0.564	0.726530612245	-6.81081081081	5.48605898123
1421	0.7105	3.672	0.726530612245	16.2810810811	2.67104557641
1422	0.711	0.848	-0.704081632653	19.1675675676	5.48605898123
1423	0.7115	5.084	-3.56530612245	1.84864864865	5.48605898123
1424	0.712	5.084	0.726530612245	-1.03783783784	5.48605898123
1425	0.7125	-9.036	0.726530612245	-1.03783783784	6.89356568365
1426	0.713	0.848	0.726530612245	-1.03783783784	-2.95898123324
1427	0.7135	0.848	-0.704081632653	-6.81081081081	-1.55147453083
1428	0.714	2.26	5.01836734694	-9.6972972973	2.67104557641
1429	0.7145	0.848	13.6020408163	-1.03783783784	5.48605898123
1430	0.715	0.848	-6.42653061224	4.73513513514	5.48605898123
1431	0.7155	-3.388	-10.7183673469	1.84864864865	8.30107238606
1432	0.716	-3.388	-0.704081632653	-1.03783783784	4.07855227882
1433	0.7165	-4.8	2.15714285714	0.405405405405	8.30107238606
1434	0.717	-3.388	-0.704081632653	0.405405405405	16.7461126005
1435	0.7175	0.848	5.01836734694	4.73513513514	15.3386058981
1436	0.718	3.672	2.15714285714	3.29189189189	18.1536193029
1437	0.7185	16.38	2.15714285714	1.84864864865	8.30107238606
1438	0.719	-0.564	2.15714285714	-1.03783783784	15.3386058981
1439	0.7195	-0.564	3.58775510204	-1.03783783784	33.6361930295
1440	0.72	0.848	5.01836734694	3.29189189189	19.5611260054
1441	0.7205	-0.564	17.893877551	1.84864864865	18.1536193029
1442	0.721	-0.564	-7.85714285714	3.29189189189	13.9310991957
1443	0.7215	20.616	0.726530612245	3.29189189189	2.67104557641
1444	0.722	3.672	-0.704081632653	4.73513513514	-1.55147453083
1445	0.7225	2.26	-2.13469387755	0.405405405405	23.7836461126
1446	0.723	0.848	0.726530612245	17.7243243243	4.07855227882
1447	0.7235	2.26	-4.99591836735	0.405405405405	2.67104557641
1448	0.724	2.26	-3.56530612245	0.405405405405	1.26353887399
1449	0.7245	-4.8	-0.704081632653	3.29189189189	4.07855227882
1450	0.725	5.084	0.726530612245	1.84864864865	15.3386058981
1451	0.7255	3.672	-0.704081632653	20.6108108108	4.07855227882
1452	0.726	5.084	0.726530612245	19.1675675676	1.26353887399
1453	0.7265	5.084	-4.99591836735	0.405405405405	2.67104557641
1454	0.727	0.848	9.31020408163	3.29189189189	5.48605898123
1455	0.7275	7.908	-0.704081632653	-1.03783783784	5.48605898123
1456	0.728	-4.8	0.726530612245	4.73513513514	12.5235924933
1457	0.7285	-0.564	-2.13469387755	4.73513513514	-1.55147453083
1458	0.729	-4.8	-4.99591836735	-6.81081081081	6.89356568365
1459	0.7295	-7.624	0.726530612245	-8.25405405405	6.89356568365
1460	0.73	-4.8	3.58775510204	4.73513513514	4.07855227882
1461	0.7305	-6.212	0.726530612245	-1.03783783784	2.67104557641
1462	0.731	10.732	2.15714285714	-1.03783783784	4.07855227882
1463	0.7315	-3.388	0.726530612245	3.29189189189	6.89356568365
1464	0.732	-0.564	-0.704081632653	11.9513513514	6.89356568365
1465	0.7325	-0.564	-9.28775510204	1.84864864865	15.3386058981
1466	0.733	0.848	-6.42653061224	1.84864864865	13.9310991957
1467	0.7335	19.204	0.726530612245	1.84864864865	15.3386058981
1468	0.734	-7.624	0.726530612245	0.405405405405	18.1536193029
1469	0.7345	0.848	0.726530612245	0.405405405405	5.48605898123
1470	0.735	0.848	3.58775510204	-5.36756756757	16.7461126005
1471	0.7355	2.26	0.726530612245	-3.92432432432	13.9310991957
1472	0.736	0.848	9.31020408163	-1.03783783784	13.9310991957
1473	0.7365	-3.388	-6.42653061224	0.405405405405	12.5235924933
1474	0.737	12.144	0.726530612245	3.29189189189	12.5235924933
1475	0.7375	0.848	-0.704081632653	4.73513513514	6.89356568365
1476	0.738	3.672	2.15714285714	-1.03783783784	5.48605898123
1477	0.7385	0.848	0.726530612245	13.3945945946	2.67104557641
1478	0.739	-0.564	-2.13469387755	4.73513513514	4.07855227882
1479	0.7395	-4.8	0.726530612245	1.84864864865	2.67104557641
1480	0.74	-0.564	-0.704081632653	-1.03783783784	-0.143967828418
1481	0.7405	0.848	2.15714285714	3.29189189189	2.67104557641
1482	0.741	-0.564	0.726530612245	1.84864864865	-1.55147453083
1483	0.7415	-1.976	-7.85714285714	-3.92432432432	-2.95898123324
1484	0.742	0.848	0.726530612245	0.405405405405	-4.36648793566
1485	0.7425	0.848	-0.704081632653	-1.03783783784	-4.36648793566
1486	0.743	-11.86	-2.13469387755	1.84864864865	-1.55147453083
1487	0.7435	3.672	0.726530612245	3.29189189189	-7.18150134048
1488	0.744	0.848	0.726530612245	13.3945945946	-0.143967828418
1489	0.7445	2.26	3.58775510204	0.405405405405	-2.95898123324
1490	0.745	-1.976	17.893877551	-1.03783783784	-1.55147453083
1491	0.7455	-1.976	-6.42653061224	1.84864864865	1.26353887399
1492	0.746	16.38	2.15714285714	1.84864864865	-9.99651474531
1493	0.7465	-1.976	-0.704081632653	0.405405405405	-2.95898123324
1494	0.747	-0.564	0.726530612245	-9.6972972973	4.07855227882
1495	0.7475	-0.564	3.58775510204	1.84864864865	4.07855227882
1496	0.748	-1.976	15.0326530612	0.405405405405	4.07855227882
1497	0.7485	-0.564	2.15714285714	-2.48108108108	6.89356568365
1498	0.749	5.084	2.15714285714	-1.03783783784	8.30107238606
1499	0.7495	0.848	0.726530612245	0.405405405405	4.07855227882
1500	0.75	0.848	0.726530612245	-11.1405405405	15.3386058981
1501	0.7505	-3.388	0.726530612245	-9.6972972973	18.1536193029
1502	0.751	3.672	17.893877551	0.405405405405	20.9686327078
1503	0.7515	3.672	-6.42653061224	1.84864864865	22.3761394102
1504	0.752	14.968	0.726530612245	3.29189189189	23.7836461126
1505	0.7525	-1.976	-0.704081632653	3.29189189189	19.5611260054
1506	0.753	5.084	0.726530612245	-3.92432432432	20.9686327078
1507	0.7535	7.908	3.58775510204	3.29189189189	20.9686327078
1508	0.754	5.084	-10.7183673469	3.29189189189	20.9686327078
1509	0.7545	7.908	-0.704081632653	4.73513513514	20.9686327078
1510	0.755	-10.448	-3.56530612245	4.73513513514	22.3761394102
1511	0.7555	-1.976	0.726530612245	4.73513513514	11.1160857909
1512	0.756	-3.388	0.726530612245	1.84864864865	5.48605898123
1513	0.7565	-6.212	-3.56530612245	3.29189189189	11.1160857909
1514	0.757	-4.8	5.01836734694	3.29189189189	8.30107238606
1515	0.7575	-4.8	-4.99591836735	1.84864864865	6.89356568365
1516	0.758	-4.8	-0.704081632653	1.84864864865	-2.95898123324
1517	0.7585	-1.976	0.726530612245	-2.48108108108	-0.143967828418
1518	0.759	3.672	2.15714285714	-2.48108108108	2.67104557641
1519	0.7595	3.672	0.726530612245	-1.03783783784	1.26353887399
1520	0.76	2.26	15.0326530612	0.405405405405	2.67104557641
1521	0.7605	2.26	-7.85714285714	1.84864864865	4.07855227882
1522	0.761	20.616	2.15714285714	3.29189189189	-7.18150134048
1523	0.7615	2.26	2.15714285714	0.405405405405	4.07855227882
1524	0.762	0.848	-2.13469387755	1.84864864865	-1.55147453083
1525	0.7625	-1.976	0.726530612245	17.7243243243	-4.36648793566
1526	0.763	-4.8	-4.99591836735	-1.03783783784	-2.95898123324
1527	0.7635	-0.564	-7.85714285714	0.405405405405	-1.55147453083
1528	0.764	-6.212	2.15714285714	1.84864864865	-2.95898123324
1529	0.7645	3.672	2.15714285714	0.405405405405	-0.143967828418
1530	0.765	-4.8	0.726530612245	-1.03783783784	2.67104557641
1531	0.7655	-0.564	0.726530612245	1.84864864865	-1.55147453083
1532	0.766	-0.564	0.726530612245	-6.81081081081	2.67104557641
1533	0.7665	0.848	3.58775510204	1.84864864865	4.07855227882
1534	0.767	5.084	-3.56530612245	1.84864864865	8.30107238606
1535	0.7675	-1.976	-0.704081632653	1.84864864865	8.30107238606
1536	0.768	-1.976	-0.704081632653	-1.03783783784	-1.55147453083
1537	0.7685	0.848	-0.704081632653	-3.92432432432	4.07855227882
1538	0.769	-0.564	0.726530612245	-3.92432432432	5.48605898123
1539	0.7695	0.848	19.3244897959	3.29189189189	4.07855227882
1540	0.77	3.672	-9.28775510204	-1.03783783784	2.67104557641
1541	0.7705	20.616	0.726530612245	4.73513513514	-0.143967828418
1542	0.771	0.848	2.15714285714	4.73513513514	4.07855227882
1543	0.7715	-0.564	0.726530612245	19.1675675676	-1.55147453083
1544	0.772	-1.976	0.726530612245	17.7243243243	-2.95898123324
1545	0.7725	0.848	-0.704081632653	1.84864864865	-7.18150134048
1546	0.773	-0.564	10.7408163265	-1.03783783784	-4.36648793566
1547	0.7735	3.672	2.15714285714	1.84864864865	-14.2190348525
1548	0.774	-3.388	2.15714285714	0.405405405405	-5.77399463807
1549	0.7745	2.26	0.726530612245	0.405405405405	-1.55147453083
1550	0.775	-1.976	0.726530612245	3.29189189189	-9.99651474531
1551	0.7755	-1.976	7.87959183673	0.405405405405	-12.8115281501
1552	0.776	-3.388	-3.56530612245	0.405405405405	-7.18150134048
1553	0.7765	-9.036	0.726530612245	-1.03783783784	-5.77399463807
1554	0.777	-6.212	-0.704081632653	4.73513513514	-8.5890080429
1555	0.7775	0.848	-0.704081632653	-8.25405405405	-5.77399463807
1556	0.778	-0.564	-0.704081632653	1.84864864865	-5.77399463807
1557	0.7785	-0.564	3.58775510204	0.405405405405	-2.95898123324
1558	0.779	-1.976	0.726530612245	0.405405405405	-2.95898123324
1559	0.7795	-11.86	0.726530612245	1.84864864865	-5.77399463807
1560	0.78	-10.448	2.15714285714	3.29189189189	12.5235924933
1561	0.7805	0.848	0.726530612245	-1.03783783784	-12.8115281501
1562	0.781	-0.564	0.726530612245	-3.92432432432	-7.18150134048
1563	0.7815	-3.388	-4.99591836735	-5.36756756757	-7.18150134048
1564	0.782	-0.564	-2.13469387755	-1.03783783784	-2.95898123324
1565	0.7825	10.732	0.726530612245	-1.03783783784	-8.5890080429
1566	0.783	-4.8	0.726530612245	-1.03783783784	-2.95898123324
1567	0.7835	0.848	0.726530612245	-2.48108108108	-2.95898123324
1568	0.784	-0.564	-2.13469387755	-12.5837837838	-0.143967828418
1569	0.7845	-3.388	-9.28775510204	-1.03783783784	4.07855227882
1570	0.785	-1.976	-10.7183673469	3.29189189189	1.26353887399
1571	0.7855	-0.564	0.726530612245	3.29189189189	2.67104557641
1572	0.786	-0.564	-2.13469387755	1.84864864865	12.5235924933
1573	0.7865	0.848	-0.704081632653	6.17837837838	1.26353887399
1574	0.787	0.848	-0.704081632653	-1.03783783784	2.67104557641
1575	0.7875	0.848	-9.28775510204	1.84864864865	-1.55147453083
1576	0.788	7.908	-2.13469387755	0.405405405405	-2.95898123324
1577	0.7885	-10.448	2.15714285714	0.405405405405	-0.143967828418
1578	0.789	-3.388	3.58775510204	0.405405405405	8.30107238606
1579	0.7895	3.672	0.726530612245	-8.25405405405	-4.36648793566
1580	0.79	2.26	3.58775510204	0.405405405405	-4.36648793566
1581	0.7905	5.084	20.7551020408	1.84864864865	-9.99651474531
1582	0.791	0.848	-7.85714285714	1.84864864865	-12.8115281501
1583	0.7915	7.908	-7.85714285714	0.405405405405	-12.8115281501
1584	0.792	0.848	0.726530612245	-1.03783783784	-19.8490616622
1585	0.7925	-3.388	3.58775510204	-1.03783783784	-12.8115281501
1586	0.793	-1.976	0.726530612245	-9.6972972973	-12.8115281501
1587	0.7935	-3.388	2.15714285714	-6.81081081081	-9.99651474531
1588	0.794	-0.564	17.893877551	0.405405405405	-12.8115281501
1589	0.7945	-6.212	-0.704081632653	0.405405405405	-11.4040214477
1590	0.795	-13.272	-0.704081632653	-1.03783783784	-12.8115281501
1591	0.7955	-4.8	5.01836734694	1.84864864865	-5.77399463807
1592	0.796	-3.388	0.726530612245	-2.48108108108	-12.8115281501
1593	0.7965	-1.976	3.58775510204	-5.36756756757	-9.99651474531
1594	0.797	-4.8	0.726530612245	1.84864864865	-11.4040214477
1595	0.7975	-10.448	0.726530612245	1.84864864865	-12.8115281501
1596	0.798	-9.036	-2.13469387755	-1.03783783784	-11.4040214477
1597	0.7985	-0.564	0.726530612245	-5.36756756757	-18.4415549598
1598	0.799	-4.8	0.726530612245	-1.03783783784	-9.99651474531
1599	0.7995	-1.976	-9.28775510204	-6.81081081081	-8.5890080429
1600	0.8	-3.388	-4.99591836735	-1.03783783784	-5.77399463807
1601	0.8005	3.672	-4.99591836735	0.405405405405	-4.36648793566
1602	0.801	0.848	6.44897959184	0.405405405405	-2.95898123324
1603	0.8015	-1.976	5.01836734694	-2.48108108108	8.30107238606
1604	0.802	3.672	5.01836734694	-1.03783783784	-1.55147453083
1605	0.8025	0.848	9.31020408163	0.405405405405	-2.95898123324
1606	0.803	2.26	-7.85714285714	3.29189189189	-1.55147453083
1607	0.8035	22.028	-3.56530612245	4.73513513514	-11.4040214477
1608	0.804	3.672	-7.85714285714	0.405405405405	-11.4040214477
1609	0.8045	3.672	-6.42653061224	-2.48108108108	-2.95898123324
1610	0.805	0.848	-10.7183673469	1.84864864865	-4.36648793566
1611	0.8055	2.26	-3.56530612245	4.73513513514	-7.18150134048
1612	0.806	2.26	-2.13469387755	1.84864864865	-7.18150134048
1613	0.8065	16.38	0.726530612245	0.405405405405	-15.626541555
1614	0.807	0.848	2.15714285714	0.405405405405	-18.4415549598
1615	0.8075	-0.564	3.58775510204	-8.25405405405	-7.18150134048
1616	0.808	0.848	2.15714285714	0.405405405405	-8.5890080429
1617	0.8085	0.848	17.893877551	1.84864864865	-12.8115281501
1618	0.809	0.848	-0.704081632653	3.29189189189	-14.2190348525
1619	0.8095	-1.976	2.15714285714	1.84864864865	-15.626541555
1620	0.81	-6.212	0.726530612245	1.84864864865	-0.143967828418
1621	0.8105	-0.564	0.726530612245	9.06486486486	-11.4040214477
1622	0.811	-3.388	0.726530612245	4.73513513514	-8.5890080429
1623	0.8115	-1.976	15.0326530612	0.405405405405	-9.99651474531
1624	0.812	-14.684	0.726530612245	1.84864864865	-12.8115281501
1625	0.8125	17.792	2.15714285714	4.73513513514	-21.2565683646
1626	0.813	-3.388	5.01836734694	4.73513513514	-18.4415549598
1627	0.8135	-1.976	2.15714285714	17.7243243243	-8.5890080429
1628	0.814	-1.976	-7.85714285714	0.405405405405	-8.5890080429
1629	0.8145	0.848	20.7551020408	-1.03783783784	-8.5890080429
1630	0.815	0.848	-0.704081632653	1.84864864865	-9.99651474531
1631	0.8155	-9.036	3.58775510204	4.73513513514	-9.99651474531
1632	0.816	2.26	2.15714285714	1.84864864865	2.67104557641
1633	0.8165	0.848	2.15714285714	1.84864864865	-17.0340482574
1634	0.817	7.908	-10.7183673469	0.405405405405	-9.99651474531
1635	0.8175	5.084	-9.28775510204	-1.03783783784	-9.99651474531
1636	0.818	6.496	-4.99591836735	0.405405405405	-12.8115281501
1637	0.8185	20.616	-3.56530612245	3.29189189189	-19.8490616622
1638	0.819	0.848	-3.56530612245	1.84864864865	-19.8490616622
1639	0.8195	0.848	-0.704081632653	-3.92432432432	-11.4040214477
1640	0.82	2.26	-3.56530612245	1.84864864865	-12.8115281501
1641	0.8205	0.848	10.7408163265	1.84864864865	-14.2190348525
1642	0.821	0.848	-4.99591836735	1.84864864865	-12.8115281501
1643	0.8215	0.848	0.726530612245	3.29189189189	-7.18150134048
1644	0.822	0.848	0.726530612245	1.84864864865	-18.4415549598
1645	0.8225	3.672	-0.704081632653	-3.92432432432	-9.99651474531
1646	0.823	3.672	3.58775510204	1.84864864865	-17.0340482574
1647	0.8235	0.848	15.0326530612	3.29189189189	-18.4415549598
1648	0.824	-4.8	0.726530612245	3.29189189189	-17.0340482574
1649	0.8245	-13.272	3.58775510204	3.29189189189	-15.626541555
1650	0.825	-0.564	0.726530612245	7.62162162162	-24.0715817694
1651	0.8255	-1.976	3.58775510204	13.3945945946	-18.4415549598
1652	0.826	-1.976	-3.56530612245	19.1675675676	-19.8490616622
1653	0.8265	-0.564	-10.7183673469	-1.03783783784	-18.4415549598
1654	0.827	5.084	0.726530612245	0.405405405405	-17.0340482574
1655	0.8275	-7.624	2.15714285714	-1.03783783784	-14.2190348525
1656	0.828	-6.212	-0.704081632653	1.84864864865	-12.8115281501
1657	0.8285	-0.564	2.15714285714	20.6108108108	-18.4415549598
1658	0.829	0.848	-0.704081632653	0.405405405405	-18.4415549598
1659	0.8295	2.26	-9.28775510204	-1.03783783784	-15.626541555
1660	0.83	0.848	17.893877551	3.29189189189	-15.626541555
1661	0.8305	-11.86	3.58775510204	3.29189189189	-12.8115281501
1662	0.831	-10.448	0.726530612245	6.17837837838	-12.8115281501
1663	0.8315	-7.624	0.726530612245	3.29189189189	-24.0715817694
1664	0.832	-7.624	0.726530612245	-6.81081081081	-14.2190348525
1665	0.8325	-9.036	2.15714285714	-8.25405405405	-15.626541555
1666	0.833	-4.8	7.87959183673	0.405405405405	-12.8115281501
1667	0.8335	-3.388	-0.704081632653	-1.03783783784	-12.8115281501
1668	0.834	13.556	-0.704081632653	1.84864864865	-12.8115281501
1669	0.8345	0.848	0.726530612245	-1.03783783784	-19.8490616622
1670	0.835	-0.564	2.15714285714	-8.25405405405	-8.5890080429
1671	0.8355	0.848	3.58775510204	3.29189189189	-8.5890080429
1672	0.836	0.848	-6.42653061224	1.84864864865	-7.18150134048
1673	0.8365	-0.564	-6.42653061224	1.84864864865	-5.77399463807
1674	0.837	10.732	0.726530612245	0.405405405405	-8.5890080429
1675	0.8375	3.672	3.58775510204	3.29189189189	-15.626541555
1676	0.838	3.672	2.15714285714	-2.48108108108	-8.5890080429
1677	0.8385	2.26	-6.42653061224	3.29189189189	-8.5890080429
1678	0.839	3.672	2.15714285714	4.73513513514	-9.99651474531
1679	0.8395	7.908	0.726530612245	0.405405405405	-12.8115281501
1680	0.84	-0.564	3.58775510204	0.405405405405	-2.95898123324
1681	0.8405	3.672	-0.704081632653	-1.03783783784	-1.55147453083
1682	0.841	-0.564	5.01836734694	19.1675675676	-15.626541555
1683	0.8415	0.848	-0.704081632653	16.2810810811	-14.2190348525
1684	0.842	-0.564	-6.42653061224	1.84864864865	-11.4040214477
1685	0.8425	-3.388	3.58775510204	0.405405405405	-12.8115281501
1686	0.843	3.672	-0.704081632653	0.405405405405	-12.8115281501
1687	0.8435	-3.388	0.726530612245	-6.81081081081	-12.8115281501
1688	0.844	-4.8	2.15714285714	3.29189189189	-14.2190348525
1689	0.8445	-1.976	-7.85714285714	-1.03783783784	-18.4415549598
1690	0.845	-3.388	13.6020408163	1.84864864865	-18.4415549598
1691	0.8455	-13.272	2.15714285714	-1.03783783784	-14.2190348525
1692	0.846	-3.388	5.01836734694	0.405405405405	-14.2190348525
1693	0.8465	3.672	3.58775510204	-8.25405405405	-25.4790884718
1694	0.847	2.26	3.58775510204	1.84864864865	-22.664075067
1695	0.8475	0.848	5.01836734694	-2.48108108108	-25.4790884718
1696	0.848	0.848	-3.56530612245	0.405405405405	-22.664075067
1697	0.8485	5.084	0.726530612245	-1.03783783784	-22.664075067
1698	0.849	20.616	-0.704081632653	3.29189189189	-29.7016085791
1699	0.8495	-0.564	-0.704081632653	1.84864864865	-25.4790884718
1700	0.85	-1.976	-0.704081632653	-5.36756756757	-24.0715817694
1701	0.8505	0.848	-2.13469387755	3.29189189189	-12.8115281501
1702	0.851	0.848	5.01836734694	1.84864864865	-11.4040214477
1703	0.8515	3.672	-0.704081632653	-1.03783783784	-11.4040214477
1704	0.852	0.848	-0.704081632653	1.84864864865	5.48605898123
1705	0.8525	2.26	-2.13469387755	-2.48108108108	8.30107238606
1706	0.853	0.848	2.15714285714	19.1675675676	-8.5890080429
1707	0.8535	-0.564	-0.704081632653	1.84864864865	-8.5890080429
1708	0.854	-1.976	-4.99591836735	4.73513513514	-11.4040214477
1709	0.8545	-16.096	0.726530612245	4.73513513514	-12.8115281501
1710	0.855	10.732	2.15714285714	-1.03783783784	-17.0340482574
1711	0.8555	-3.388	2.15714285714	-11.1405405405	-15.626541555
1712	0.856	2.26	5.01836734694	-11.1405405405	-15.626541555
1713	0.8565	-0.564	3.58775510204	-3.92432432432	-14.2190348525
1714	0.857	0.848	-3.56530612245	0.405405405405	-15.626541555
1715	0.8575	-4.8	-0.704081632653	0.405405405405	-12.8115281501
1716	0.858	-0.564	0.726530612245	-1.03783783784	-11.4040214477
1717	0.8585	-0.564	2.15714285714	14.8378378378	-11.4040214477
1718	0.859	-3.388	-0.704081632653	-8.25405405405	-2.95898123324
1719	0.8595	-0.564	-0.704081632653	-6.81081081081	-1.55147453083
1720	0.86	-0.564	-6.42653061224	0.405405405405	-4.36648793566
1721	0.8605	-3.388	-6.42653061224	1.84864864865	-7.18150134048
1722	0.861	7.908	0.726530612245	3.29189189189	-0.143967828418
1723	0.8615	-0.564	0.726530612245	3.29189189189	-11.4040214477
1724	0.862	0.848	-0.704081632653	0.405405405405	-7.18150134048
1725	0.8625	2.26	-0.704081632653	0.405405405405	-7.18150134048
1726	0.863	0.848	-7.85714285714	0.405405405405	-7.18150134048
1727	0.8635	-0.564	0.726530612245	0.405405405405	-5.77399463807
1728	0.864	-6.212	0.726530612245	-1.03783783784	-9.99651474531
1729	0.8645	0.848	2.15714285714	0.405405405405	-8.5890080429
1730	0.865	-1.976	6.44897959184	11.9513513514	-8.5890080429
1731	0.8655	-1.976	-7.85714285714	0.405405405405	-7.18150134048
1732	0.866	0.848	-6.42653061224	-2.48108108108	-2.95898123324
1733	0.8665	3.672	2.15714285714	1.84864864865	-1.55147453083
1734	0.867	16.38	-2.13469387755	3.29189189189	1.26353887399
1735	0.8675	-1.976	0.726530612245	-2.48108108108	-0.143967828418
1736	0.868	-1.976	3.58775510204	-3.92432432432	-4.36648793566
1737	0.8685	-1.976	-10.7183673469	-1.03783783784	1.26353887399
1738	0.869	0.848	-4.99591836735	1.84864864865	-2.95898123324
1739	0.8695	3.672	0.726530612245	-1.03783783784	-4.36648793566
1740	0.87	-9.036	2.15714285714	1.84864864865	8.30107238606
1741	0.8705	2.26	2.15714285714	1.84864864865	-12.8115281501
1742	0.871	2.26	3.58775510204	-3.92432432432	-8.5890080429
1743	0.8715	2.26	7.87959183673	0.405405405405	-9.99651474531
1744	0.872	0.848	-3.56530612245	1.84864864865	-12.8115281501
1745	0.8725	-7.624	3.58775510204	0.405405405405	-12.8115281501
1746	0.873	-3.388	3.58775510204	1.84864864865	-4.36648793566
1747	0.8735	-0.564	-0.704081632653	1.84864864865	-28.2941018767
1748	0.874	-0.564	0.726530612245	-6.81081081081	-18.4415549598
1749	0.8745	-0.564	5.01836734694	-6.81081081081	-18.4415549598
1750	0.875	-3.388	3.58775510204	1.84864864865	-19.8490616622
1751	0.8755	-6.212	2.15714285714	-1.03783783784	-19.8490616622
1752	0.876	-6.212	3.58775510204	0.405405405405	-22.664075067
1753	0.8765	0.848	2.15714285714	3.29189189189	-29.7016085791
1754	0.877	0.848	3.58775510204	-3.92432432432	-24.0715817694
1755	0.8775	2.26	13.6020408163	-1.03783783784	-24.0715817694
1756	0.878	0.848	-0.704081632653	1.84864864865	-19.8490616622
1757	0.8785	-9.036	0.726530612245	0.405405405405	-19.8490616622
1758	0.879	7.908	-0.704081632653	0.405405405405	-24.0715817694
1759	0.8795	0.848	0.726530612245	-1.03783783784	-7.18150134048
1760	0.88	-0.564	3.58775510204	14.8378378378	-21.2565683646
1761	0.8805	-1.976	0.726530612245	17.7243243243	-18.4415549598
1762	0.881	-1.976	16.4632653061	-2.48108108108	-19.8490616622
1763	0.8815	-3.388	0.726530612245	-1.03783783784	-17.0340482574
1764	0.882	-9.036	3.58775510204	-1.03783783784	-17.0340482574
1765	0.8825	-1.976	2.15714285714	1.84864864865	-15.626541555
1766	0.883	2.26	3.58775510204	3.29189189189	-18.4415549598
1767	0.8835	-0.564	3.58775510204	4.73513513514	-9.99651474531
1768	0.884	-1.976	0.726530612245	-1.03783783784	-11.4040214477
1769	0.8845	3.672	2.15714285714	4.73513513514	-12.8115281501
1770	0.885	12.144	0.726530612245	1.84864864865	-18.4415549598
1771	0.8855	-1.976	0.726530612245	0.405405405405	-5.77399463807
1772	0.886	2.26	6.44897959184	-6.81081081081	-9.99651474531
1773	0.8865	-1.976	3.58775510204	0.405405405405	-4.36648793566
1774	0.887	2.26	-7.85714285714	1.84864864865	-5.77399463807
1775	0.8875	7.908	2.15714285714	4.73513513514	-9.99651474531
1776	0.888	20.616	2.15714285714	3.29189189189	-19.8490616622
1777	0.8885	-1.976	0.726530612245	1.84864864865	-12.8115281501
1778	0.889	0.848	3.58775510204	-9.6972972973	-17.0340482574
1779	0.8895	2.26	0.726530612245	6.17837837838	-15.626541555
1780	0.89	-0.564	22.1857142857	3.29189189189	-21.2565683646
1781	0.8905	-0.564	17.893877551	-1.03783783784	-19.8490616622
1782	0.891	-11.86	-0.704081632653	-1.03783783784	-17.0340482574
1783	0.8915	-0.564	-2.13469387755	1.84864864865	-24.0715817694
1784	0.892	-0.564	2.15714285714	1.84864864865	-24.0715817694
1785	0.8925	2.26	2.15714285714	-2.48108108108	-18.4415549598
1786	0.893	3.672	0.726530612245	3.29189189189	-18.4415549598
1787	0.8935	10.732	-0.704081632653	-1.03783783784	-21.2565683646
1788	0.894	22.028	2.15714285714	0.405405405405	-22.664075067
1789	0.8945	2.26	2.15714285714	-1.03783783784	-17.0340482574
1790	0.895	0.848	2.15714285714	-5.36756756757	-24.0715817694
1791	0.8955	0.848	0.726530612245	-9.6972972973	-17.0340482574
1792	0.896	-1.976	7.87959183673	-1.03783783784	-15.626541555
1793	0.8965	0.848	5.01836734694	0.405405405405	-12.8115281501
1794	0.897	10.732	0.726530612245	-1.03783783784	-21.2565683646
1795	0.8975	-3.388	0.726530612245	-2.48108108108	-8.5890080429
1796	0.898	-0.564	7.87959183673	16.2810810811	-12.8115281501
1797	0.8985	-0.564	9.31020408163	14.8378378378	-11.4040214477
1798	0.899	-1.976	7.87959183673	-1.03783783784	-7.18150134048
1799	0.8995	-1.976	6.44897959184	-3.92432432432	-8.5890080429
1800	0.9	13.556	2.15714285714	-1.03783783784	-12.8115281501
1801	0.9005	0.848	2.15714285714	0.405405405405	-11.4040214477
1802	0.901	0.848	-0.704081632653	-1.03783783784	-7.18150134048
1803	0.9015	3.672	-9.28775510204	0.405405405405	-0.143967828418
1804	0.902	3.672	-0.704081632653	1.84864864865	-0.143967828418
1805	0.9025	9.32	-9.28775510204	1.84864864865	-1.55147453083
1806	0.903	17.792	-7.85714285714	1.84864864865	-5.77399463807
1807	0.9035	2.26	-9.28775510204	-8.25405405405	-4.36648793566
1808	0.904	-0.564	-0.704081632653	19.1675675676	-7.18150134048
1809	0.9045	0.848	-2.13469387755	17.7243243243	-5.77399463807
1810	0.905	-1.976	-3.56530612245	0.405405405405	-5.77399463807
1811	0.9055	-1.976	0.726530612245	3.29189189189	-9.99651474531
1812	0.906	13.556	0.726530612245	1.84864864865	-12.8115281501
1813	0.9065	-3.388	0.726530612245	0.405405405405	-9.99651474531
1814	0.907	-4.8	-0.704081632653	4.73513513514	-8.5890080429
1815	0.9075	-1.976	-10.7183673469	-1.03783783784	-12.8115281501
1816	0.908	-0.564	-6.42653061224	0.405405405405	-12.8115281501
1817	0.9085	0.848	2.15714285714	0.405405405405	-12.8115281501
1818	0.909	19.204	0.726530612245	-1.03783783784	-21.2565683646
1819	0.9095	-1.976	0.726530612245	-1.03783783784	-17.0340482574
1820	0.91	0.848	0.726530612245	-9.6972972973	-11.4040214477
1821	0.9105	-1.976	3.58775510204	-1.03783783784	-9.99651474531
1822	0.911	-0.564	19.3244897959	0.405405405405	-9.99651474531
1823	0.9115	-11.86	2.15714285714	0.405405405405	-8.5890080429
1824	0.912	17.792	-2.13469387755	-1.03783783784	-5.77399463807
1825	0.9125	-0.564	0.726530612245	-2.48108108108	-14.2190348525
1826	0.913	0.848	2.15714285714	-5.36756756757	-2.95898123324
1827	0.9135	-1.976	-2.13469387755	-1.03783783784	-2.95898123324
1828	0.914	-0.564	0.726530612245	-1.03783783784	-7.18150134048
1829	0.9145	3.672	2.15714285714	-1.03783783784	-5.77399463807
1830	0.915	16.38	-2.13469387755	-1.03783783784	-5.77399463807
1831	0.9155	-0.564	-2.13469387755	-1.03783783784	13.9310991957
1832	0.916	-1.976	2.15714285714	-5.36756756757	-4.36648793566
1833	0.9165	-0.564	-10.7183673469	-1.03783783784	-1.55147453083
1834	0.917	2.26	-4.99591836735	0.405405405405	-1.55147453083
1835	0.9175	5.084	0.726530612245	3.29189189189	-0.143967828418
1836	0.918	-6.212	0.726530612245	1.84864864865	-1.55147453083
1837	0.9185	2.26	2.15714285714	-1.03783783784	-4.36648793566
1838	0.919	0.848	2.15714285714	-1.03783783784	-5.77399463807
1839	0.9195	5.084	10.7408163265	4.73513513514	-0.143967828418
1840	0.92	3.672	-0.704081632653	4.73513513514	-1.55147453083
1841	0.9205	-10.448	0.726530612245	3.29189189189	-0.143967828418
1842	0.921	-3.388	-0.704081632653	6.17837837838	5.48605898123
1843	0.9215	-0.564	0.726530612245	7.62162162162	-11.4040214477
1844	0.922	-0.564	2.15714285714	19.1675675676	-8.5890080429
1845	0.9225	-1.976	2.15714285714	4.73513513514	-11.4040214477
1846	0.923	-4.8	6.44897959184	4.73513513514	-12.8115281501
1847	0.9235	0.848	0.726530612245	1.84864864865	-14.2190348525
1848	0.924	-7.624	2.15714285714	1.84864864865	-11.4040214477
1849	0.9245	-3.388	2.15714285714	17.7243243243	-17.0340482574
1850	0.925	-3.388	2.15714285714	22.0540540541	-12.8115281501
1851	0.9255	-0.564	-7.85714285714	0.405405405405	-11.4040214477
1852	0.926	3.672	-7.85714285714	1.84864864865	-9.99651474531
1853	0.9265	17.792	0.726530612245	1.84864864865	-14.2190348525
1854	0.927	3.672	2.15714285714	3.29189189189	-17.0340482574
1855	0.9275	5.084	-2.13469387755	-5.36756756757	-9.99651474531
1856	0.928	7.908	2.15714285714	0.405405405405	-14.2190348525
1857	0.9285	5.084	0.726530612245	3.29189189189	-15.626541555
1858	0.929	2.26	-2.13469387755	0.405405405405	-14.2190348525
1859	0.9295	-7.624	-0.704081632653	1.84864864865	-25.4790884718
1860	0.93	-0.564	-2.13469387755	4.73513513514	-21.2565683646
1861	0.9305	-0.564	0.726530612245	16.2810810811	-14.2190348525
1862	0.931	-6.212	0.726530612245	-5.36756756757	-12.8115281501
1863	0.9315	-7.624	10.7408163265	-2.48108108108	-15.626541555
1864	0.932	-4.8	2.15714285714	-1.03783783784	-12.8115281501
1865	0.9325	7.908	2.15714285714	1.84864864865	-11.4040214477
1866	0.933	-10.448	-0.704081632653	-1.03783783784	-18.4415549598
1867	0.9335	-6.212	2.15714285714	-5.36756756757	-12.8115281501
1868	0.934	-4.8	2.15714285714	0.405405405405	-9.99651474531
1869	0.9345	-3.388	15.0326530612	1.84864864865	-8.5890080429
1870	0.935	-3.388	0.726530612245	1.84864864865	-11.4040214477
1871	0.9355	-13.272	2.15714285714	1.84864864865	-17.0340482574
1872	0.936	-0.564	-0.704081632653	1.84864864865	-18.4415549598
1873	0.9365	-0.564	-0.704081632653	-3.92432432432	-12.8115281501
1874	0.937	2.26	0.726530612245	-5.36756756757	-5.77399463807
1875	0.9375	3.672	13.6020408163	0.405405405405	-5.77399463807
1876	0.938	-0.564	2.15714285714	3.29189189189	-4.36648793566
1877	0.9385	0.848	0.726530612245	1.84864864865	-12.8115281501
1878	0.939	-6.212	-0.704081632653	-1.03783783784	-9.99651474531
1879	0.9395	0.848	0.726530612245	4.73513513514	-11.4040214477
1880	0.94	2.26	-0.704081632653	3.29189189189	-12.8115281501
1881	0.9405	3.672	0.726530612245	4.73513513514	-17.0340482574
1882	0.941	-0.564	-0.704081632653	3.29189189189	-15.626541555
1883	0.9415	0.848	3.58775510204	1.84864864865	-17.0340482574
1884	0.942	-1.976	2.15714285714	0.405405405405	-25.4790884718
1885	0.9425	0.848	-0.704081632653	7.62162162162	-17.0340482574
1886	0.943	2.26	-0.704081632653	1.84864864865	-17.0340482574
1887	0.9435	2.26	13.6020408163	-1.03783783784	-19.8490616622
1888	0.944	-1.976	-2.13469387755	0.405405405405	-15.626541555
1889	0.9445	16.38	0.726530612245	1.84864864865	-15.626541555
1890	0.945	-3.388	-0.704081632653	0.405405405405	-22.664075067
1891	0.9455	0.848	-0.704081632653	-1.03783783784	-18.4415549598
1892	0.946	-0.564	5.01836734694	0.405405405405	-18.4415549598
1893	0.9465	-0.564	5.01836734694	0.405405405405	-19.8490616622
1894	0.947	-4.8	-0.704081632653	0.405405405405	-15.626541555
1895	0.9475	-13.272	0.726530612245	1.84864864865	-17.0340482574
1896	0.948	-3.388	-0.704081632653	-1.03783783784	-22.664075067
1897	0.9485	-3.388	0.726530612245	-6.81081081081	-14.2190348525
1898	0.949	-3.388	-0.704081632653	-6.81081081081	-9.99651474531
1899	0.9495	-0.564	-6.42653061224	0.405405405405	-9.99651474531
1900	0.95	-3.388	3.58775510204	1.84864864865	-11.4040214477
1901	0.9505	-4.8	2.15714285714	-1.03783783784	-9.99651474531
1902	0.951	-6.212	2.15714285714	0.405405405405	-11.4040214477
1903	0.9515	0.848	2.15714285714	1.84864864865	2.67104557641
1904	0.952	0.848	2.15714285714	-1.03783783784	-5.77399463807
1905	0.9525	0.848	6.44897959184	-1.03783783784	-4.36648793566
1906	0.953	0.848	2.15714285714	-1.03783783784	-4.36648793566
1907	0.9535	-9.036	5.01836734694	3.29189189189	-4.36648793566
1908	0.954	0.848	2.15714285714	3.29189189189	-7.18150134048
1909	0.9545	5.084	2.15714285714	1.84864864865	-8.5890080429
1910	0.955	0.848	2.15714285714	-3.92432432432	-12.8115281501
1911	0.9555	-0.564	23.6163265306	1.84864864865	-8.5890080429
1912	0.956	-1.976	-0.704081632653	-1.03783783784	-9.99651474531
1913	0.9565	-10.448	2.15714285714	-1.03783783784	-11.4040214477
1914	0.957	3.672	3.58775510204	-1.03783783784	-11.4040214477
1915	0.9575	-0.564	2.15714285714	3.29189189189	-2.95898123324
1916	0.958	-0.564	2.15714285714	7.62162162162	-11.4040214477
1917	0.9585	0.848	2.15714285714	14.8378378378	-15.626541555
1918	0.959	0.848	-3.56530612245	0.405405405405	-15.626541555
1919	0.9595	0.848	2.15714285714	3.29189189189	-15.626541555
1920	0.96	16.38	3.58775510204	0.405405405405	-17.0340482574
1921	0.9605	0.848	3.58775510204	-2.48108108108	-0.143967828418
1922	0.961	0.848	2.15714285714	20.6108108108	-15.626541555
1923	0.9615	-0.564	0.726530612245	19.1675675676	-15.626541555
1924	0.962	0.848	-7.85714285714	4.73513513514	-12.8115281501
1925	0.9625	3.672	0.726530612245	-1.03783783784	-17.0340482574
1926	0.963	-13.272	0.726530612245	-1.03783783784	-2.95898123324
1927	0.9635	-0.564	0.726530612245	4.73513513514	-18.4415549598
1928	0.964	-0.564	0.726530612245	1.84864864865	-22.664075067
1929	0.9645	-1.976	0.726530612245	-6.81081081081	-12.8115281501
1930	0.965	-1.976	13.6020408163	-2.48108108108	-11.4040214477
1931	0.9655	-1.976	9.31020408163	-1.03783783784	-8.5890080429
1932	0.966	5.084	2.15714285714	-1.03783783784	-8.5890080429
1933	0.9665	0.848	2.15714285714	-2.48108108108	-4.36648793566
1934	0.967	0.848	3.58775510204	7.62162162162	-8.5890080429
1935	0.9675	0.848	2.15714285714	13.3945945946	-8.5890080429
1936	0.968	0.848	-2.13469387755	4.73513513514	-7.18150134048
1937	0.9685	5.084	-0.704081632653	4.73513513514	-5.77399463807
1938	0.969	-7.624	-0.704081632653	3.29189189189	-5.77399463807
1939	0.9695	-0.564	0.726530612245	4.73513513514	-9.99651474531
1940	0.97	2.26	2.15714285714	13.3945945946	-7.18150134048
1941	0.9705	0.848	2.15714285714	0.405405405405	-7.18150134048
1942	0.971	0.848	-3.56530612245	-2.48108108108	-9.99651474531
1943	0.9715	0.848	9.31020408163	1.84864864865	-12.8115281501
1944	0.972	7.908	0.726530612245	1.84864864865	-18.4415549598
1945	0.9725	-3.388	3.58775510204	0.405405405405	-5.77399463807
1946	0.973	-0.564	5.01836734694	-2.48108108108	-11.4040214477
1947	0.9735	2.26	3.58775510204	10.5081081081	-15.626541555
1948	0.974	-0.564	0.726530612245	-1.03783783784	-14.2190348525
1949	0.9745	0.848	-3.56530612245	0.405405405405	-14.2190348525
1950	0.975	-4.8	2.15714285714	0.405405405405	-9.99651474531
1951	0.9755	13.556	0.726530612245	3.29189189189	-21.2565683646
1952	0.976	-0.564	0.726530612245	-6.81081081081	-9.99651474531
1953	0.9765	2.26	5.01836734694	-9.6972972973	-12.8115281501
1954	0.977	0.848	-0.704081632653	-3.92432432432	-9.99651474531
1955	0.9775	-0.564	13.6020408163	-2.48108108108	-8.5890080429
1956	0.978	0.848	0.726530612245	-2.48108108108	-11.4040214477
1957	0.9785	-4.8	0.726530612245	3.29189189189	-9.99651474531
1958	0.979	0.848	0.726530612245	3.29189189189	8.30107238606
1959	0.9795	0.848	2.15714285714	4.73513513514	-12.8115281501
1960	0.98	-1.976	-6.42653061224	-2.48108108108	-8.5890080429
1961	0.9805	-0.564	17.893877551	-2.48108108108	-5.77399463807
1962	0.981	-1.976	0.726530612245	-1.03783783784	-2.95898123324
1963	0.9815	-10.448	2.15714285714	3.29189189189	-14.2190348525
