	Time	Channel 1	Channel 2	Channel 3	Channel 4
0	0.0	0.62	-2.43846153846	-5.51875	18.6136363636
1	0.0005	4.94	-3.89615384615	4.609375	18.6136363636
2	0.001	-0.82	0.476923076923	1.715625	15.7909090909
3	0.0015	-2.26	0.476923076923	3.1625	14.3795454545
4	0.002	-0.82	-9.72692307692	1.715625	15.7909090909
5	0.0025	-5.14	4.85	-5.51875	12.9681818182
6	0.003	-6.58	1.93461538462	7.503125	11.5568181818
7	0.0035	-3.7	0.476923076923	1.715625	7.32272727273
8	0.004	-0.82	3.39230769231	4.609375	4.5
9	0.0045	-2.26	3.39230769231	3.1625	7.32272727273
10	0.005	-12.34	0.476923076923	1.715625	11.5568181818
11	0.0055	-8.02	1.93461538462	0.26875	7.32272727273
12	0.006	0.62	-8.26923076923	3.1625	12.9681818182
13	0.0065	0.62	-3.89615384615	0.26875	11.5568181818
14	0.007	4.94	1.93461538462	-1.178125	5.91136363636
15	0.0075	12.14	1.93461538462	-1.178125	7.32272727273
16	0.008	-0.82	1.93461538462	-8.4125	3.08863636364
17	0.0085	-0.82	3.39230769231	4.609375	1.67727272727
18	0.009	2.06	1.93461538462	1.715625	7.32272727273
19	0.0095	0.62	9.22307692308	4.609375	14.3795454545
20	0.01	-0.82	1.93461538462	0.26875	14.3795454545
21	0.0105	-10.9	3.39230769231	-2.625	17.2022727273
22	0.011	-13.78	0.476923076923	0.26875	29.9045454545
23	0.0115	0.62	-0.980769230769	13.290625	17.2022727273
24	0.012	0.62	-0.980769230769	-1.178125	15.7909090909
25	0.0125	0.62	-11.1846153846	-1.178125	14.3795454545
26	0.013	2.06	-9.72692307692	-1.178125	18.6136363636
27	0.0135	13.58	1.93461538462	-1.178125	14.3795454545
28	0.014	-2.26	-2.43846153846	-1.178125	12.9681818182
29	0.0145	0.62	0.476923076923	1.715625	27.0818181818
30	0.015	-0.82	0.476923076923	7.503125	18.6136363636
31	0.0155	-2.26	-11.1846153846	1.715625	20.025
32	0.016	0.62	-9.72692307692	3.1625	18.6136363636
33	0.0165	2.06	0.476923076923	4.609375	18.6136363636
34	0.017	-3.7	0.476923076923	1.715625	24.2590909091
35	0.0175	-0.82	0.476923076923	-4.071875	8.73409090909
36	0.018	-0.82	0.476923076923	7.503125	18.6136363636
37	0.0185	0.62	-0.980769230769	16.184375	8.73409090909
38	0.019	2.06	-8.26923076923	1.715625	11.5568181818
39	0.0195	0.62	1.93461538462	1.715625	3.08863636364
40	0.02	20.78	0.476923076923	1.715625	-8.20227272727
41	0.0205	-5.14	0.476923076923	-1.178125	-1.14545454545
42	0.021	-2.26	1.93461538462	-1.178125	-3.96818181818
43	0.0215	-0.82	6.30769230769	0.26875	4.5
44	0.022	-3.7	22.3423076923	-1.178125	5.91136363636
45	0.0225	-2.26	-0.980769230769	3.1625	3.08863636364
46	0.023	-10.9	1.93461538462	-1.178125	5.91136363636
47	0.0235	-6.58	1.93461538462	4.609375	8.73409090909
48	0.024	0.62	0.476923076923	13.290625	10.1454545455
49	0.0245	-0.82	-0.980769230769	-1.178125	8.73409090909
50	0.025	0.62	-9.72692307692	1.715625	7.32272727273
51	0.0255	0.62	4.85	0.26875	11.5568181818
52	0.026	7.82	-0.980769230769	-1.178125	8.73409090909
53	0.0265	-5.14	1.93461538462	3.1625	11.5568181818
54	0.027	0.62	0.476923076923	-1.178125	4.5
55	0.0275	-0.82	0.476923076923	-8.4125	12.9681818182
56	0.028	-0.82	0.476923076923	0.26875	14.3795454545
57	0.0285	-2.26	-9.72692307692	-1.178125	17.2022727273
58	0.029	2.06	0.476923076923	0.26875	18.6136363636
59	0.0295	17.9	0.476923076923	-1.178125	22.8477272727
60	0.03	-5.14	1.93461538462	-1.178125	15.7909090909
61	0.0305	-2.26	1.93461538462	-5.51875	21.4363636364
62	0.031	-2.26	0.476923076923	-2.625	24.2590909091
63	0.0315	-0.82	13.5961538462	0.26875	22.8477272727
64	0.032	-0.82	3.39230769231	1.715625	22.8477272727
65	0.0325	7.82	0.476923076923	0.26875	24.2590909091
66	0.033	3.5	0.476923076923	1.715625	24.2590909091
67	0.0335	-2.26	0.476923076923	-1.178125	17.2022727273
68	0.034	-2.26	0.476923076923	-2.625	20.025
69	0.0345	-0.82	-5.35384615385	4.609375	20.025
70	0.035	-0.82	-6.81153846154	4.609375	12.9681818182
71	0.0355	-0.82	-0.980769230769	0.26875	7.32272727273
72	0.036	13.58	0.476923076923	1.715625	7.32272727273
73	0.0365	-2.26	0.476923076923	-1.178125	20.025
74	0.037	0.62	1.93461538462	16.184375	0.265909090909
75	0.0375	0.62	-2.43846153846	8.95	4.5
76	0.038	-0.82	17.9692307692	-1.178125	1.67727272727
77	0.0385	3.5	-2.43846153846	-1.178125	4.5
78	0.039	-10.9	-0.980769230769	0.26875	3.08863636364
79	0.0395	-0.82	1.93461538462	1.715625	4.5
80	0.04	-2.26	1.93461538462	13.290625	-2.55681818182
81	0.0405	0.62	1.93461538462	-2.625	-1.14545454545
82	0.041	-2.26	-5.35384615385	-1.178125	-1.14545454545
83	0.0415	0.62	6.30769230769	3.1625	-1.14545454545
84	0.042	3.5	3.39230769231	0.26875	-6.79090909091
85	0.0425	-8.02	0.476923076923	0.26875	14.3795454545
86	0.043	0.62	1.93461538462	-1.178125	0.265909090909
87	0.0435	-0.82	0.476923076923	0.26875	0.265909090909
88	0.044	0.62	-0.980769230769	-1.178125	4.5
89	0.0445	-0.82	-8.26923076923	-1.178125	4.5
90	0.045	0.62	0.476923076923	-1.178125	4.5
91	0.0455	19.34	1.93461538462	-4.071875	4.5
92	0.046	-12.34	0.476923076923	-1.178125	12.9681818182
93	0.0465	-3.7	0.476923076923	0.26875	12.9681818182
94	0.047	-3.7	0.476923076923	17.63125	8.73409090909
95	0.0475	-2.26	-9.72692307692	-1.178125	8.73409090909
96	0.048	-5.14	19.4269230769	-1.178125	8.73409090909
97	0.0485	-12.34	3.39230769231	-1.178125	11.5568181818
98	0.049	-10.9	0.476923076923	3.1625	3.08863636364
99	0.0495	-0.82	0.476923076923	-9.859375	4.5
100	0.05	0.62	1.93461538462	-9.859375	8.73409090909
101	0.0505	-0.82	-6.81153846154	-1.178125	5.91136363636
102	0.051	3.5	-8.26923076923	0.26875	5.91136363636
103	0.0515	-2.26	0.476923076923	3.1625	4.5
104	0.052	-8.02	0.476923076923	1.715625	11.5568181818
105	0.0525	-2.26	0.476923076923	0.26875	-3.96818181818
106	0.053	-0.82	0.476923076923	-2.625	-1.14545454545
107	0.0535	-3.7	4.85	1.715625	-3.96818181818
108	0.054	-2.26	10.6807692308	-1.178125	-3.96818181818
109	0.0545	-5.14	-0.980769230769	1.715625	-3.96818181818
110	0.055	-8.02	0.476923076923	0.26875	-3.96818181818
111	0.0555	0.62	0.476923076923	4.609375	-6.79090909091
112	0.056	-0.82	4.85	20.525	-5.37954545455
113	0.0565	2.06	-0.980769230769	19.078125	-3.96818181818
114	0.057	2.06	-6.81153846154	3.1625	-3.96818181818
115	0.0575	2.06	1.93461538462	0.26875	-6.79090909091
116	0.058	19.34	3.39230769231	-1.178125	-3.96818181818
117	0.0585	-10.9	0.476923076923	0.26875	-1.14545454545
118	0.059	-0.82	3.39230769231	16.184375	-2.55681818182
119	0.0595	-0.82	4.85	-1.178125	-2.55681818182
120	0.06	-0.82	-11.1846153846	0.26875	-3.96818181818
121	0.0605	-5.14	-5.35384615385	-1.178125	-2.55681818182
122	0.061	0.62	-5.35384615385	1.715625	-3.96818181818
123	0.0615	-2.26	-0.980769230769	-1.178125	-1.14545454545
124	0.062	0.62	0.476923076923	3.1625	7.32272727273
125	0.0625	0.62	0.476923076923	19.078125	-1.14545454545
126	0.063	-0.82	-12.6423076923	0.26875	-1.14545454545
127	0.0635	-0.82	15.0538461538	0.26875	3.08863636364
128	0.064	-9.46	1.93461538462	0.26875	1.67727272727
129	0.0645	3.5	-0.980769230769	1.715625	3.08863636364
130	0.065	-0.82	0.476923076923	-2.625	-1.14545454545
131	0.0655	0.62	-0.980769230769	11.84375	4.5
132	0.066	-3.7	-0.980769230769	0.26875	3.08863636364
133	0.0665	-0.82	-8.26923076923	1.715625	3.08863636364
134	0.067	0.62	0.476923076923	4.609375	0.265909090909
135	0.0675	19.34	0.476923076923	0.26875	-11.025
136	0.068	-0.82	-0.980769230769	-1.178125	-5.37954545455
137	0.0685	0.62	0.476923076923	-8.4125	-2.55681818182
138	0.069	0.62	-2.43846153846	-1.178125	-6.79090909091
139	0.0695	0.62	1.93461538462	6.05625	-6.79090909091
140	0.07	-2.26	-5.35384615385	3.1625	-6.79090909091
141	0.0705	-3.7	1.93461538462	0.26875	-9.61363636364
142	0.071	17.9	0.476923076923	1.715625	-20.9045454545
143	0.0715	-0.82	0.476923076923	6.05625	-13.8477272727
144	0.072	0.62	1.93461538462	11.84375	-13.8477272727
145	0.0725	-0.82	-6.81153846154	1.715625	-16.6704545455
146	0.073	-0.82	13.5961538462	1.715625	-12.4363636364
147	0.0735	-2.26	1.93461538462	0.26875	-9.61363636364
148	0.074	-12.34	0.476923076923	0.26875	-8.20227272727
149	0.0745	-10.9	3.39230769231	-1.178125	-11.025
150	0.075	-0.82	0.476923076923	-11.30625	-6.79090909091
151	0.0755	-0.82	-2.43846153846	-4.071875	-6.79090909091
152	0.076	0.62	-9.72692307692	-1.178125	-3.96818181818
153	0.0765	-0.82	10.6807692308	-1.178125	-1.14545454545
154	0.077	-2.26	0.476923076923	-2.625	1.67727272727
155	0.0775	-12.34	1.93461538462	-2.625	-2.55681818182
156	0.078	-2.26	3.39230769231	-1.178125	-9.61363636364
157	0.0785	-0.82	0.476923076923	-6.965625	18.6136363636
158	0.079	-3.7	1.93461538462	-1.178125	1.67727272727
159	0.0795	-2.26	-11.1846153846	-1.178125	5.91136363636
160	0.08	2.06	-9.72692307692	1.715625	11.5568181818
161	0.0805	16.46	0.476923076923	0.26875	1.67727272727
162	0.081	0.62	0.476923076923	1.715625	22.8477272727
163	0.0815	-0.82	0.476923076923	4.609375	36.9613636364
164	0.082	-0.82	-2.43846153846	20.525	20.025
165	0.0825	-0.82	-9.72692307692	1.715625	22.8477272727
166	0.083	0.62	17.9692307692	3.1625	18.6136363636
167	0.0835	-10.9	1.93461538462	1.715625	25.6704545455
168	0.084	-8.02	3.39230769231	4.609375	38.3727272727
169	0.0845	2.06	-0.980769230769	3.1625	34.1386363636
170	0.085	2.06	0.476923076923	-1.178125	21.4363636364
171	0.0855	0.62	-9.72692307692	-1.178125	20.025
172	0.086	-0.82	16.5115384615	-1.178125	14.3795454545
173	0.0865	-3.7	15.0538461538	-1.178125	12.9681818182
174	0.087	-10.9	-0.980769230769	3.1625	22.8477272727
175	0.0875	-0.82	1.93461538462	3.1625	18.6136363636
176	0.088	-3.7	0.476923076923	4.609375	-3.96818181818
177	0.0885	-0.82	1.93461538462	-5.51875	-1.14545454545
178	0.089	0.62	17.9692307692	0.26875	-2.55681818182
179	0.0895	-0.82	-2.43846153846	1.715625	-5.37954545455
180	0.09	7.82	1.93461538462	3.1625	-1.14545454545
181	0.0905	-8.02	1.93461538462	4.609375	0.265909090909
182	0.091	0.62	3.39230769231	13.290625	3.08863636364
183	0.0915	-0.82	1.93461538462	11.84375	3.08863636364
184	0.092	-0.82	4.85	-1.178125	4.5
185	0.0925	-10.9	0.476923076923	-1.178125	4.5
186	0.093	16.46	0.476923076923	-1.178125	1.67727272727
187	0.0935	-2.26	-0.980769230769	-2.625	1.67727272727
188	0.094	-0.82	0.476923076923	-1.178125	20.025
189	0.0945	-0.82	-0.980769230769	16.184375	5.91136363636
190	0.095	-0.82	-11.1846153846	0.26875	8.73409090909
191	0.0955	-2.26	17.9692307692	-2.625	11.5568181818
192	0.096	-15.22	0.476923076923	-1.178125	15.7909090909
193	0.0965	-12.34	-0.980769230769	1.715625	1.67727272727
194	0.097	0.62	-2.43846153846	-9.859375	17.2022727273
195	0.0975	-2.26	-2.43846153846	-4.071875	17.2022727273
196	0.098	-0.82	-11.1846153846	0.26875	18.6136363636
197	0.0985	0.62	-8.26923076923	1.715625	17.2022727273
198	0.099	3.5	0.476923076923	1.715625	15.7909090909
199	0.0995	-3.7	0.476923076923	0.26875	22.8477272727
200	0.1	-0.82	-0.980769230769	1.715625	8.73409090909
201	0.1005	0.62	0.476923076923	-1.178125	11.5568181818
202	0.101	-2.26	1.93461538462	-5.51875	12.9681818182
203	0.1015	-2.26	-5.35384615385	3.1625	8.73409090909
204	0.102	0.62	0.476923076923	0.26875	4.5
205	0.1025	-10.9	1.93461538462	1.715625	3.08863636364
206	0.103	-6.58	0.476923076923	-1.178125	-1.14545454545
207	0.1035	2.06	0.476923076923	-1.178125	-5.37954545455
208	0.104	-0.82	1.93461538462	-9.859375	-2.55681818182
209	0.1045	-0.82	17.9692307692	1.715625	-1.14545454545
210	0.105	-6.58	-9.72692307692	0.26875	-5.37954545455
211	0.1055	3.5	1.93461538462	-1.178125	-3.96818181818
212	0.106	-2.26	0.476923076923	-1.178125	7.32272727273
213	0.1065	-2.26	1.93461538462	-5.51875	-8.20227272727
214	0.107	-2.26	1.93461538462	7.503125	-2.55681818182
215	0.1075	-0.82	0.476923076923	0.26875	-2.55681818182
216	0.108	-0.82	-8.26923076923	0.26875	1.67727272727
217	0.1085	0.62	1.93461538462	4.609375	4.5
218	0.109	19.34	1.93461538462	-1.178125	3.08863636364
219	0.1095	-2.26	1.93461538462	-2.625	20.025
220	0.11	-0.82	1.93461538462	-1.178125	20.025
221	0.1105	-0.82	-0.980769230769	11.84375	5.91136363636
222	0.111	0.62	0.476923076923	-2.625	5.91136363636
223	0.1115	0.62	-6.81153846154	-2.625	8.73409090909
224	0.112	-13.78	-0.980769230769	0.26875	8.73409090909
225	0.1125	-5.14	0.476923076923	3.1625	10.1454545455
226	0.113	-0.82	1.93461538462	-1.178125	5.91136363636
227	0.1135	-2.26	0.476923076923	6.05625	15.7909090909
228	0.114	0.62	1.93461538462	11.84375	14.3795454545
229	0.1145	-2.26	-6.81153846154	0.26875	14.3795454545
230	0.115	-5.14	0.476923076923	1.715625	14.3795454545
231	0.1155	-6.58	-0.980769230769	3.1625	17.2022727273
232	0.116	-8.02	-2.43846153846	3.1625	17.2022727273
233	0.1165	0.62	0.476923076923	3.1625	4.5
234	0.117	0.62	-0.980769230769	-8.4125	12.9681818182
235	0.1175	-2.26	1.93461538462	-4.071875	10.1454545455
236	0.118	-0.82	-0.980769230769	0.26875	11.5568181818
237	0.1185	-12.34	-0.980769230769	3.1625	4.5
238	0.119	-0.82	-2.43846153846	0.26875	7.32272727273
239	0.1195	0.62	-0.980769230769	-4.071875	0.265909090909
240	0.12	-0.82	1.93461538462	-2.625	-1.14545454545
241	0.1205	0.62	1.93461538462	8.95	-1.14545454545
242	0.121	0.62	7.76538461538	1.715625	-1.14545454545
243	0.1215	-0.82	0.476923076923	0.26875	-5.37954545455
244	0.122	-2.26	0.476923076923	-1.178125	-5.37954545455
245	0.1225	0.62	1.93461538462	0.26875	-2.55681818182
246	0.123	-3.7	1.93461538462	1.715625	11.5568181818
247	0.1235	-2.26	1.93461538462	17.63125	-6.79090909091
248	0.124	-0.82	-5.35384615385	0.26875	-6.79090909091
249	0.1245	-0.82	-6.81153846154	1.715625	-5.37954545455
250	0.125	-0.82	1.93461538462	0.26875	-5.37954545455
251	0.1255	-8.02	-0.980769230769	0.26875	-1.14545454545
252	0.126	-0.82	-0.980769230769	-1.178125	-12.4363636364
253	0.1265	-0.82	3.39230769231	-11.30625	-3.96818181818
254	0.127	-0.82	4.85	-1.178125	-1.14545454545
255	0.1275	0.62	-11.1846153846	-1.178125	1.67727272727
256	0.128	3.5	-2.43846153846	-1.178125	4.5
257	0.1285	-13.78	1.93461538462	-1.178125	14.3795454545
258	0.129	-0.82	0.476923076923	0.26875	7.32272727273
259	0.1295	-2.26	0.476923076923	-12.753125	22.8477272727
260	0.13	-2.26	3.39230769231	-8.4125	17.2022727273
261	0.1305	-2.26	-8.26923076923	-2.625	21.4363636364
262	0.131	-0.82	-2.43846153846	-1.178125	21.4363636364
263	0.1315	-13.78	-2.43846153846	-1.178125	17.2022727273
264	0.132	-3.7	1.93461538462	4.609375	21.4363636364
265	0.1325	0.62	-0.980769230769	3.1625	5.91136363636
266	0.133	0.62	-0.980769230769	6.05625	3.08863636364
267	0.1335	0.62	-5.35384615385	3.1625	11.5568181818
268	0.134	2.06	3.39230769231	3.1625	11.5568181818
269	0.1345	-0.82	-6.81153846154	4.609375	5.91136363636
270	0.135	-6.58	-2.43846153846	-1.178125	7.32272727273
271	0.1355	0.62	0.476923076923	1.715625	4.5
272	0.136	-2.26	0.476923076923	0.26875	20.025
273	0.1365	2.06	3.39230769231	13.290625	4.5
274	0.137	-2.26	-2.43846153846	-1.178125	3.08863636364
275	0.1375	0.62	-5.35384615385	-1.178125	3.08863636364
276	0.138	0.62	3.39230769231	-1.178125	3.08863636364
277	0.1385	-8.02	0.476923076923	0.26875	15.7909090909
278	0.139	-0.82	0.476923076923	0.26875	-13.8477272727
279	0.1395	0.62	1.93461538462	-11.30625	-2.55681818182
280	0.14	-0.82	4.85	1.715625	1.67727272727
281	0.1405	-0.82	9.22307692308	0.26875	1.67727272727
282	0.141	2.06	-0.980769230769	-1.178125	-1.14545454545
283	0.1415	2.06	1.93461538462	3.1625	-3.96818181818
284	0.142	-6.58	0.476923076923	-2.625	12.9681818182
285	0.1425	0.62	3.39230769231	-6.965625	-2.55681818182
286	0.143	-2.26	4.85	17.63125	-1.14545454545
287	0.1435	0.62	-11.1846153846	-1.178125	1.67727272727
288	0.144	0.62	-6.81153846154	1.715625	0.265909090909
289	0.1445	3.5	0.476923076923	3.1625	0.265909090909
290	0.145	17.9	0.476923076923	0.26875	1.67727272727
291	0.1455	0.62	0.476923076923	-9.859375	1.67727272727
292	0.146	-0.82	1.93461538462	-2.625	1.67727272727
293	0.1465	-0.82	0.476923076923	-8.4125	12.9681818182
294	0.147	-0.82	13.5961538462	0.26875	12.9681818182
295	0.1475	-0.82	0.476923076923	0.26875	11.5568181818
296	0.148	-12.34	0.476923076923	1.715625	14.3795454545
297	0.1485	-0.82	-0.980769230769	-2.625	4.5
298	0.149	2.06	0.476923076923	-1.178125	27.0818181818
299	0.1495	-0.82	0.476923076923	14.7375	4.5
300	0.15	0.62	-8.26923076923	1.715625	7.32272727273
301	0.1505	2.06	4.85	4.609375	4.5
302	0.151	3.5	-6.81153846154	3.1625	4.5
303	0.1515	15.02	0.476923076923	0.26875	-1.14545454545
304	0.152	2.06	0.476923076923	0.26875	3.08863636364
305	0.1525	2.06	4.85	20.525	-2.55681818182
306	0.153	2.06	-0.980769230769	19.078125	-8.20227272727
307	0.1535	0.62	-11.1846153846	-1.178125	-6.79090909091
308	0.154	2.06	22.3423076923	1.715625	-5.37954545455
309	0.1545	-10.9	1.93461538462	1.715625	-3.96818181818
310	0.155	-10.9	1.93461538462	0.26875	-11.025
311	0.1555	-0.82	1.93461538462	-1.178125	-13.8477272727
312	0.156	-2.26	3.39230769231	-8.4125	-15.2590909091
313	0.1565	-0.82	6.30769230769	-4.071875	-8.20227272727
314	0.157	2.06	1.93461538462	-1.178125	-11.025
315	0.1575	-3.7	3.39230769231	0.26875	-9.61363636364
316	0.158	-12.34	4.85	3.1625	-12.4363636364
317	0.1585	-0.82	1.93461538462	-1.178125	-16.6704545455
318	0.159	0.62	1.93461538462	0.26875	0.265909090909
319	0.1595	2.06	0.476923076923	6.05625	-13.8477272727
320	0.16	-0.82	-3.89615384615	0.26875	-9.61363636364
321	0.1605	0.62	6.30769230769	1.715625	-6.79090909091
322	0.161	-2.26	-0.980769230769	-1.178125	-8.20227272727
323	0.1615	-12.34	-0.980769230769	0.26875	-6.79090909091
324	0.162	2.06	0.476923076923	3.1625	-11.025
325	0.1625	-0.82	1.93461538462	7.503125	-6.79090909091
326	0.163	-0.82	0.476923076923	-1.178125	-2.55681818182
327	0.1635	0.62	-0.980769230769	-1.178125	-2.55681818182
328	0.164	-2.26	1.93461538462	-1.178125	0.265909090909
329	0.1645	-10.9	-0.980769230769	-1.178125	0.265909090909
330	0.165	16.46	0.476923076923	-2.625	1.67727272727
331	0.1655	-0.82	0.476923076923	-4.071875	-5.37954545455
332	0.166	2.06	0.476923076923	17.63125	0.265909090909
333	0.1665	-0.82	-2.43846153846	1.715625	1.67727272727
334	0.167	2.06	-0.980769230769	0.26875	3.08863636364
335	0.1675	6.38	0.476923076923	0.26875	0.265909090909
336	0.168	10.7	0.476923076923	0.26875	-3.96818181818
337	0.1685	-3.7	1.93461538462	1.715625	10.1454545455
338	0.169	0.62	0.476923076923	3.1625	-1.14545454545
339	0.1695	0.62	0.476923076923	14.7375	0.265909090909
340	0.17	-0.82	1.93461538462	3.1625	-2.55681818182
341	0.1705	0.62	-2.43846153846	-1.178125	-3.96818181818
342	0.171	-0.82	1.93461538462	0.26875	-6.79090909091
343	0.1715	2.06	1.93461538462	-2.625	11.5568181818
344	0.172	-2.26	1.93461538462	-11.30625	-6.79090909091
345	0.1725	0.62	1.93461538462	-2.625	-8.20227272727
346	0.173	-2.26	1.93461538462	1.715625	-6.79090909091
347	0.1735	-0.82	4.85	3.1625	-5.37954545455
348	0.174	-3.7	0.476923076923	3.1625	-5.37954545455
349	0.1745	13.58	1.93461538462	1.715625	-3.96818181818
350	0.175	-12.34	0.476923076923	3.1625	-5.37954545455
351	0.1755	-0.82	0.476923076923	16.184375	-6.79090909091
352	0.176	-0.82	-0.980769230769	-1.178125	-8.20227272727
353	0.1765	-0.82	-11.1846153846	0.26875	-8.20227272727
354	0.177	-0.82	-3.89615384615	-1.178125	-8.20227272727
355	0.1775	15.02	0.476923076923	-1.178125	-11.025
356	0.178	-5.14	0.476923076923	-1.178125	0.265909090909
357	0.1785	-2.26	1.93461538462	0.26875	7.32272727273
358	0.179	2.06	0.476923076923	4.609375	-11.025
359	0.1795	0.62	-9.72692307692	1.715625	-2.55681818182
360	0.18	0.62	-5.35384615385	-1.178125	-1.14545454545
361	0.1805	4.94	1.93461538462	1.715625	0.265909090909
362	0.181	2.06	0.476923076923	3.1625	-1.14545454545
363	0.1815	-5.14	1.93461538462	7.503125	4.5
364	0.182	-0.82	0.476923076923	21.971875	0.265909090909
365	0.1825	0.62	-0.980769230769	-1.178125	1.67727272727
366	0.183	-0.82	-5.35384615385	4.609375	0.265909090909
367	0.1835	0.62	0.476923076923	3.1625	0.265909090909
368	0.184	-10.9	-0.980769230769	7.503125	3.08863636364
369	0.1845	-8.02	0.476923076923	7.503125	15.7909090909
370	0.185	0.62	0.476923076923	3.1625	11.5568181818
371	0.1855	0.62	1.93461538462	7.503125	7.32272727273
372	0.186	2.06	3.39230769231	11.84375	-3.96818181818
373	0.1865	0.62	0.476923076923	0.26875	-5.37954545455
374	0.187	0.62	-8.26923076923	4.609375	-6.79090909091
375	0.1875	17.9	0.476923076923	6.05625	-18.0818181818
376	0.188	-2.26	0.476923076923	1.715625	-13.8477272727
377	0.1885	-0.82	0.476923076923	-2.625	-11.025
378	0.189	0.62	3.39230769231	14.7375	-12.4363636364
379	0.1895	-0.82	3.39230769231	3.1625	-12.4363636364
380	0.19	2.06	-9.72692307692	6.05625	-11.025
381	0.1905	2.06	1.93461538462	4.609375	-6.79090909091
382	0.191	13.58	4.85	1.715625	-11.025
383	0.1915	-8.02	1.93461538462	3.1625	5.91136363636
384	0.192	-2.26	3.39230769231	6.05625	15.7909090909
385	0.1925	2.06	0.476923076923	19.078125	-1.14545454545
386	0.193	0.62	-9.72692307692	0.26875	0.265909090909
387	0.1935	3.5	0.476923076923	0.26875	-1.14545454545
388	0.194	-9.46	-0.980769230769	-1.178125	-2.55681818182
389	0.1945	3.5	0.476923076923	-1.178125	0.265909090909
390	0.195	-0.82	0.476923076923	1.715625	-3.96818181818
391	0.1955	-0.82	1.93461538462	-4.071875	-1.14545454545
392	0.196	0.62	-0.980769230769	0.26875	-1.14545454545
393	0.1965	2.06	16.5115384615	-1.178125	1.67727272727
394	0.197	-5.14	0.476923076923	3.1625	8.73409090909
395	0.1975	-12.34	0.476923076923	1.715625	15.7909090909
396	0.198	-2.26	0.476923076923	4.609375	17.2022727273
397	0.1985	-0.82	0.476923076923	3.1625	24.2590909091
398	0.199	0.62	-0.980769230769	14.7375	11.5568181818
399	0.1995	0.62	-8.26923076923	0.26875	8.73409090909
400	0.2	3.5	-9.72692307692	1.715625	8.73409090909
401	0.2005	4.94	-3.89615384615	0.26875	11.5568181818
402	0.201	-0.82	0.476923076923	3.1625	11.5568181818
403	0.2015	0.62	1.93461538462	-1.178125	1.67727272727
404	0.202	0.62	0.476923076923	-1.178125	20.025
405	0.2025	0.62	1.93461538462	1.715625	3.08863636364
406	0.203	-0.82	17.9692307692	-1.178125	0.265909090909
407	0.2035	-3.7	-5.35384615385	0.26875	-1.14545454545
408	0.204	-3.7	-0.980769230769	0.26875	-5.37954545455
409	0.2045	0.62	1.93461538462	3.1625	-18.0818181818
410	0.205	0.62	1.93461538462	-1.178125	7.32272727273
411	0.2055	0.62	1.93461538462	14.7375	-11.025
412	0.206	0.62	-6.81153846154	1.715625	-8.20227272727
413	0.2065	0.62	6.30769230769	1.715625	-8.20227272727
414	0.207	3.5	0.476923076923	1.715625	-6.79090909091
415	0.2075	-12.34	0.476923076923	3.1625	-2.55681818182
416	0.208	-3.7	1.93461538462	3.1625	-6.79090909091
417	0.2085	2.06	1.93461538462	-6.965625	-12.4363636364
418	0.209	-0.82	1.93461538462	-9.859375	-8.20227272727
419	0.2095	0.62	3.39230769231	0.26875	-6.79090909091
420	0.21	-2.26	-5.35384615385	-1.178125	-8.20227272727
421	0.2105	-3.7	1.93461538462	0.26875	-8.20227272727
422	0.211	17.9	-0.980769230769	-1.178125	-18.0818181818
423	0.2115	-2.26	1.93461538462	0.26875	-1.14545454545
424	0.212	-2.26	1.93461538462	14.7375	-6.79090909091
425	0.2125	0.62	1.93461538462	-5.51875	-2.55681818182
426	0.213	-0.82	6.30769230769	-1.178125	3.08863636364
427	0.2135	2.06	-5.35384615385	1.715625	3.08863636364
428	0.214	-3.7	0.476923076923	-1.178125	7.32272727273
429	0.2145	-10.9	0.476923076923	-1.178125	20.025
430	0.215	0.62	0.476923076923	-12.753125	4.5
431	0.2155	0.62	0.476923076923	0.26875	4.5
432	0.216	-2.26	3.39230769231	0.26875	1.67727272727
433	0.2165	-0.82	-5.35384615385	0.26875	1.67727272727
434	0.217	-0.82	0.476923076923	1.715625	0.265909090909
435	0.2175	17.9	-0.980769230769	4.609375	-6.79090909091
436	0.218	2.06	-0.980769230769	-2.625	-12.4363636364
437	0.2185	-0.82	0.476923076923	-8.4125	-8.20227272727
438	0.219	0.62	4.85	-2.625	-6.79090909091
439	0.2195	-0.82	16.5115384615	1.715625	-8.20227272727
440	0.22	-5.14	-2.43846153846	3.1625	-3.96818181818
441	0.2205	-10.9	1.93461538462	0.26875	-9.61363636364
442	0.221	-0.82	0.476923076923	1.715625	3.08863636364
443	0.2215	0.62	0.476923076923	0.26875	11.5568181818
444	0.222	-2.26	0.476923076923	14.7375	-6.79090909091
445	0.2225	-0.82	1.93461538462	0.26875	-3.96818181818
446	0.223	-0.82	-8.26923076923	1.715625	-6.79090909091
447	0.2235	2.06	0.476923076923	0.26875	-11.025
448	0.224	19.34	1.93461538462	1.715625	-18.0818181818
449	0.2245	-5.14	0.476923076923	1.715625	1.67727272727
450	0.225	-0.82	1.93461538462	8.95	-5.37954545455
451	0.2255	-0.82	-0.980769230769	16.184375	-11.025
452	0.226	0.62	-12.6423076923	0.26875	-8.20227272727
453	0.2265	-0.82	0.476923076923	0.26875	-9.61363636364
454	0.227	20.78	0.476923076923	1.715625	-8.20227272727
455	0.2275	-8.02	1.93461538462	-2.625	0.265909090909
456	0.228	-0.82	0.476923076923	11.84375	-6.79090909091
457	0.2285	-0.82	4.85	-4.071875	-1.14545454545
458	0.229	-2.26	-2.43846153846	-4.071875	0.265909090909
459	0.2295	0.62	0.476923076923	0.26875	0.265909090909
460	0.23	-3.7	0.476923076923	-1.178125	5.91136363636
461	0.2305	-10.9	0.476923076923	0.26875	22.8477272727
462	0.231	-2.26	-0.980769230769	0.26875	7.32272727273
463	0.2315	-0.82	0.476923076923	16.184375	14.3795454545
464	0.232	0.62	1.93461538462	-1.178125	15.7909090909
465	0.2325	-3.7	0.476923076923	1.715625	17.2022727273
466	0.233	2.06	-0.980769230769	0.26875	18.6136363636
467	0.2335	0.62	-0.980769230769	0.26875	14.3795454545
468	0.234	0.62	-0.980769230769	1.715625	3.08863636364
469	0.2345	-2.26	1.93461538462	6.05625	7.32272727273
470	0.235	-0.82	-2.43846153846	-1.178125	7.32272727273
471	0.2355	-0.82	4.85	-1.178125	7.32272727273
472	0.236	2.06	-5.35384615385	0.26875	4.5
473	0.2365	0.62	1.93461538462	1.715625	0.265909090909
474	0.237	19.34	-0.980769230769	3.1625	-12.4363636364
475	0.2375	-2.26	3.39230769231	4.609375	-8.20227272727
476	0.238	-0.82	1.93461538462	0.26875	-5.37954545455
477	0.2385	0.62	0.476923076923	13.290625	-3.96818181818
478	0.239	2.06	-8.26923076923	3.1625	-1.14545454545
479	0.2395	0.62	1.93461538462	0.26875	0.265909090909
480	0.24	16.46	1.93461538462	0.26875	0.265909090909
481	0.2405	-2.26	0.476923076923	0.26875	-1.14545454545
482	0.241	0.62	0.476923076923	1.715625	3.08863636364
483	0.2415	0.62	-0.980769230769	-4.071875	1.67727272727
484	0.242	-0.82	-5.35384615385	0.26875	3.08863636364
485	0.2425	-2.26	0.476923076923	0.26875	1.67727272727
486	0.243	-6.58	-0.980769230769	0.26875	4.5
487	0.2435	-8.02	0.476923076923	-1.178125	1.67727272727
488	0.244	-2.26	0.476923076923	-1.178125	-6.79090909091
489	0.2445	0.62	1.93461538462	-5.51875	3.08863636364
490	0.245	-2.26	0.476923076923	-6.965625	4.5
491	0.2455	-2.26	16.5115384615	-2.625	7.32272727273
492	0.246	-13.78	0.476923076923	-2.625	5.91136363636
493	0.2465	17.9	-0.980769230769	0.26875	-1.14545454545
494	0.247	-0.82	0.476923076923	-1.178125	1.67727272727
495	0.2475	0.62	0.476923076923	-9.859375	14.3795454545
496	0.248	-0.82	1.93461538462	0.26875	12.9681818182
497	0.2485	-0.82	3.39230769231	0.26875	11.5568181818
498	0.249	-0.82	-6.81153846154	1.715625	12.9681818182
499	0.2495	2.06	1.93461538462	1.715625	11.5568181818
500	0.25	3.5	0.476923076923	3.1625	29.9045454545
501	0.2505	2.06	0.476923076923	-8.4125	7.32272727273
502	0.251	2.06	1.93461538462	-1.178125	7.32272727273
503	0.2515	0.62	3.39230769231	4.609375	7.32272727273
504	0.252	-0.82	7.76538461538	1.715625	4.5
505	0.2525	-6.58	0.476923076923	3.1625	3.08863636364
506	0.253	16.46	1.93461538462	3.1625	-6.79090909091
507	0.2535	-0.82	1.93461538462	-2.625	-12.4363636364
508	0.254	-0.82	3.39230769231	-11.30625	-1.14545454545
509	0.2545	0.62	1.93461538462	-8.4125	-1.14545454545
510	0.255	-2.26	20.8846153846	1.715625	-2.55681818182
511	0.2555	-0.82	-6.81153846154	1.715625	-5.37954545455
512	0.256	3.5	3.39230769231	0.26875	-8.20227272727
513	0.2565	0.62	0.476923076923	-4.071875	7.32272727273
514	0.257	0.62	4.85	-2.625	12.9681818182
515	0.2575	2.06	4.85	20.525	-8.20227272727
516	0.258	2.06	-0.980769230769	-1.178125	-8.20227272727
517	0.2585	-0.82	-6.81153846154	0.26875	-6.79090909091
518	0.259	3.5	0.476923076923	0.26875	-9.61363636364
519	0.2595	2.06	0.476923076923	-1.178125	-8.20227272727
520	0.26	-8.02	0.476923076923	-1.178125	-12.4363636364
521	0.2605	0.62	0.476923076923	-5.51875	4.5
522	0.261	-2.26	1.93461538462	-2.625	-12.4363636364
523	0.2615	0.62	-6.81153846154	-2.625	-9.61363636364
524	0.262	0.62	-6.81153846154	-1.178125	-9.61363636364
525	0.2625	4.94	1.93461538462	-2.625	-9.61363636364
526	0.263	-2.26	-0.980769230769	-4.071875	-6.79090909091
527	0.2635	2.06	1.93461538462	-2.625	-2.55681818182
528	0.264	3.5	3.39230769231	-1.178125	0.265909090909
529	0.2645	-0.82	1.93461538462	0.26875	3.08863636364
530	0.265	-0.82	-2.43846153846	0.26875	4.5
531	0.2655	-6.58	-0.980769230769	1.715625	3.08863636364
532	0.266	7.82	0.476923076923	3.1625	-3.96818181818
533	0.2665	0.62	0.476923076923	-1.178125	-8.20227272727
534	0.267	0.62	1.93461538462	-6.965625	-1.14545454545
535	0.2675	0.62	-0.980769230769	-8.4125	-3.96818181818
536	0.268	0.62	17.9692307692	-1.178125	-3.96818181818
537	0.2685	-0.82	19.4269230769	1.715625	-6.79090909091
538	0.269	-12.34	0.476923076923	0.26875	-8.20227272727
539	0.2695	-0.82	0.476923076923	7.503125	-16.6704545455
540	0.27	2.06	-0.980769230769	4.609375	-15.2590909091
541	0.2705	0.62	0.476923076923	3.1625	-16.6704545455
542	0.271	-0.82	3.39230769231	4.609375	-18.0818181818
543	0.2715	-2.26	-2.43846153846	0.26875	-18.0818181818
544	0.272	-6.58	1.93461538462	1.715625	-18.0818181818
545	0.2725	9.26	1.93461538462	3.1625	-25.1386363636
546	0.273	0.62	1.93461538462	3.1625	-27.9613636364
547	0.2735	-0.82	1.93461538462	17.63125	-19.4931818182
548	0.274	0.62	-11.1846153846	3.1625	-19.4931818182
549	0.2745	0.62	20.8846153846	1.715625	-20.9045454545
550	0.275	-3.7	0.476923076923	1.715625	-20.9045454545
551	0.2755	-9.46	1.93461538462	1.715625	-29.3727272727
552	0.276	0.62	1.93461538462	3.1625	-26.55
553	0.2765	0.62	0.476923076923	-4.071875	-25.1386363636
554	0.277	-3.7	1.93461538462	3.1625	-18.0818181818
555	0.2775	-2.26	20.8846153846	0.26875	-15.2590909091
556	0.278	-2.26	-5.35384615385	0.26875	-18.0818181818
557	0.2785	16.46	1.93461538462	-1.178125	-19.4931818182
558	0.279	-0.82	1.93461538462	-1.178125	-12.4363636364
559	0.2795	-0.82	-0.980769230769	0.26875	-1.14545454545
560	0.28	0.62	-0.980769230769	1.715625	-12.4363636364
561	0.2805	-2.26	0.476923076923	1.715625	-11.025
562	0.281	-2.26	-5.35384615385	0.26875	-11.025
563	0.2815	2.06	0.476923076923	4.609375	-12.4363636364
564	0.282	-5.14	0.476923076923	3.1625	-2.55681818182
565	0.2825	-0.82	-0.980769230769	6.05625	-5.37954545455
566	0.283	0.62	0.476923076923	-1.178125	-2.55681818182
567	0.2835	-0.82	-9.72692307692	1.715625	-1.14545454545
568	0.284	0.62	1.93461538462	1.715625	0.265909090909
569	0.2845	7.82	1.93461538462	3.1625	-6.79090909091
570	0.285	-6.58	1.93461538462	0.26875	-8.20227272727
571	0.2855	-0.82	-2.43846153846	3.1625	3.08863636364
572	0.286	-0.82	1.93461538462	16.184375	-12.4363636364
573	0.2865	-0.82	-11.1846153846	1.715625	-15.2590909091
574	0.287	2.06	-8.26923076923	0.26875	-16.6704545455
575	0.2875	2.06	1.93461538462	1.715625	-19.4931818182
576	0.288	19.34	0.476923076923	3.1625	-26.55
577	0.2885	-0.82	4.85	-8.4125	-13.8477272727
578	0.289	2.06	3.39230769231	-6.965625	-25.1386363636
579	0.2895	2.06	0.476923076923	0.26875	-15.2590909091
580	0.29	-2.26	-6.81153846154	1.715625	-15.2590909091
581	0.2905	2.06	3.39230769231	1.715625	-19.4931818182
582	0.291	20.78	1.93461538462	1.715625	-25.1386363636
583	0.2915	0.62	0.476923076923	-1.178125	-20.9045454545
584	0.292	0.62	0.476923076923	-6.965625	-16.6704545455
585	0.2925	-2.26	1.93461538462	-1.178125	-12.4363636364
586	0.293	-0.82	-8.26923076923	-6.965625	-16.6704545455
587	0.2935	2.06	1.93461538462	-4.071875	-13.8477272727
588	0.294	4.94	1.93461538462	-1.178125	-12.4363636364
589	0.2945	4.94	0.476923076923	0.26875	-12.4363636364
590	0.295	-2.26	0.476923076923	-4.071875	-18.0818181818
591	0.2955	-0.82	0.476923076923	-9.859375	-11.025
592	0.296	0.62	-5.35384615385	-1.178125	-8.20227272727
593	0.2965	0.62	-9.72692307692	-1.178125	-3.96818181818
594	0.297	4.94	0.476923076923	-2.625	-6.79090909091
595	0.2975	17.9	0.476923076923	-1.178125	-8.20227272727
596	0.298	-0.82	0.476923076923	-11.30625	-3.96818181818
597	0.2985	-0.82	3.39230769231	-4.071875	-1.14545454545
598	0.299	-0.82	6.30769230769	3.1625	-1.14545454545
599	0.2995	-0.82	15.0538461538	0.26875	-2.55681818182
600	0.3	-5.14	-2.43846153846	3.1625	0.265909090909
601	0.3005	-5.14	1.93461538462	4.609375	-11.025
602	0.301	-3.7	0.476923076923	4.609375	1.67727272727
603	0.3015	0.62	0.476923076923	3.1625	4.5
604	0.302	-0.82	1.93461538462	14.7375	-8.20227272727
605	0.3025	-0.82	-6.81153846154	0.26875	-9.61363636364
606	0.303	-0.82	-8.26923076923	1.715625	-8.20227272727
607	0.3035	0.62	0.476923076923	-1.178125	-11.025
608	0.304	0.62	0.476923076923	-1.178125	3.08863636364
609	0.3045	0.62	1.93461538462	-8.4125	-9.61363636364
610	0.305	3.5	1.93461538462	-8.4125	-11.025
611	0.3055	-0.82	1.93461538462	3.1625	-9.61363636364
612	0.306	-0.82	-5.35384615385	0.26875	-8.20227272727
613	0.3065	7.82	1.93461538462	0.26875	-11.025
614	0.307	22.22	0.476923076923	0.26875	-9.61363636364
615	0.3075	-0.82	0.476923076923	-1.178125	-11.025
616	0.308	0.62	0.476923076923	-4.071875	-6.79090909091
617	0.3085	-2.26	4.85	-1.178125	-8.20227272727
618	0.309	-2.26	9.22307692308	0.26875	-13.8477272727
619	0.3095	-2.26	-0.980769230769	0.26875	-11.025
620	0.31	3.5	0.476923076923	0.26875	-8.20227272727
621	0.3105	-6.58	1.93461538462	0.26875	-3.96818181818
622	0.311	-0.82	0.476923076923	-1.178125	11.5568181818
623	0.3115	-2.26	0.476923076923	16.184375	-6.79090909091
624	0.312	-2.26	-2.43846153846	-1.178125	-5.37954545455
625	0.3125	2.06	-6.81153846154	-1.178125	-2.55681818182
626	0.313	3.5	-0.980769230769	-4.071875	0.265909090909
627	0.3135	-10.9	1.93461538462	-2.625	15.7909090909
628	0.314	-0.82	1.93461538462	-12.753125	3.08863636364
629	0.3145	2.06	1.93461538462	-4.071875	8.73409090909
630	0.315	0.62	4.85	-4.071875	7.32272727273
631	0.3155	-2.26	0.476923076923	1.715625	7.32272727273
632	0.316	-9.46	1.93461538462	1.715625	5.91136363636
633	0.3165	4.94	1.93461538462	1.715625	-3.96818181818
634	0.317	-0.82	0.476923076923	-1.178125	-6.79090909091
635	0.3175	0.62	0.476923076923	-2.625	1.67727272727
636	0.318	0.62	0.476923076923	-6.965625	-1.14545454545
637	0.3185	-0.82	13.5961538462	0.26875	-3.96818181818
638	0.319	-2.26	0.476923076923	3.1625	-3.96818181818
639	0.3195	-12.34	0.476923076923	3.1625	-5.37954545455
640	0.32	-10.9	0.476923076923	-1.178125	4.5
641	0.3205	-0.82	0.476923076923	-8.4125	-12.4363636364
642	0.321	-0.82	6.30769230769	0.26875	-13.8477272727
643	0.3215	0.62	20.8846153846	-1.178125	-18.0818181818
644	0.322	0.62	-0.980769230769	-1.178125	-19.4931818182
645	0.3225	-10.9	0.476923076923	0.26875	-13.8477272727
646	0.323	-3.7	0.476923076923	1.715625	-18.0818181818
647	0.3235	-0.82	3.39230769231	8.95	-18.0818181818
648	0.324	2.06	0.476923076923	-5.51875	-18.0818181818
649	0.3245	-0.82	0.476923076923	0.26875	-16.6704545455
650	0.325	0.62	15.0538461538	-2.625	-12.4363636364
651	0.3255	-0.82	-0.980769230769	-1.178125	-13.8477272727
652	0.326	-9.46	1.93461538462	-2.625	-9.61363636364
653	0.3265	-2.26	1.93461538462	3.1625	-1.14545454545
654	0.327	0.62	3.39230769231	13.290625	-13.8477272727
655	0.3275	-0.82	3.39230769231	-4.071875	-16.6704545455
656	0.328	-3.7	4.85	0.26875	-16.6704545455
657	0.3285	-0.82	-5.35384615385	-1.178125	-12.4363636364
658	0.329	10.7	-0.980769230769	-1.178125	-8.20227272727
659	0.3295	-10.9	1.93461538462	1.715625	-3.96818181818
660	0.33	0.62	0.476923076923	1.715625	11.5568181818
661	0.3305	-0.82	0.476923076923	1.715625	-2.55681818182
662	0.331	-2.26	-11.1846153846	3.1625	-3.96818181818
663	0.3315	3.5	0.476923076923	4.609375	-2.55681818182
664	0.332	3.5	1.93461538462	1.715625	1.67727272727
665	0.3325	-9.46	0.476923076923	4.609375	4.5
666	0.333	3.5	0.476923076923	6.05625	-2.55681818182
667	0.3335	-2.26	1.93461538462	7.503125	5.91136363636
668	0.334	-0.82	-11.1846153846	6.05625	1.67727272727
669	0.3345	3.5	6.30769230769	4.609375	0.265909090909
670	0.335	-0.82	3.39230769231	4.609375	-1.14545454545
671	0.3355	-2.26	3.39230769231	3.1625	-8.20227272727
672	0.336	-10.9	3.39230769231	4.609375	-6.79090909091
673	0.3365	-0.82	0.476923076923	20.525	-9.61363636364
674	0.337	0.62	0.476923076923	-1.178125	-11.025
675	0.3375	-2.26	-12.6423076923	1.715625	-12.4363636364
676	0.338	-0.82	-2.43846153846	0.26875	-12.4363636364
677	0.3385	0.62	0.476923076923	0.26875	-11.025
678	0.339	-8.02	4.85	1.715625	4.5
679	0.3395	-0.82	-0.980769230769	3.1625	-9.61363636364
680	0.34	-0.82	3.39230769231	21.971875	-12.4363636364
681	0.3405	-2.26	1.93461538462	11.84375	-8.20227272727
682	0.341	-0.82	-5.35384615385	-1.178125	-8.20227272727
683	0.3415	2.06	1.93461538462	1.715625	-8.20227272727
684	0.342	9.26	1.93461538462	1.715625	-6.79090909091
685	0.3425	-2.26	1.93461538462	-1.178125	-18.0818181818
686	0.343	-2.26	1.93461538462	1.715625	-16.6704545455
687	0.3435	-0.82	0.476923076923	-5.51875	-3.96818181818
688	0.344	0.62	19.4269230769	0.26875	-5.37954545455
689	0.3445	-5.14	-0.980769230769	0.26875	-3.96818181818
690	0.345	-10.9	1.93461538462	-1.178125	0.265909090909
691	0.3455	12.14	0.476923076923	0.26875	-9.61363636364
692	0.346	-2.26	0.476923076923	3.1625	-5.37954545455
693	0.3465	-2.26	-0.980769230769	-9.859375	4.5
694	0.347	-0.82	4.85	-8.4125	5.91136363636
695	0.3475	-0.82	19.4269230769	-1.178125	11.5568181818
696	0.348	-6.58	0.476923076923	-1.178125	12.9681818182
697	0.3485	-8.02	0.476923076923	1.715625	11.5568181818
698	0.349	-3.7	0.476923076923	4.609375	-1.14545454545
699	0.3495	0.62	0.476923076923	-5.51875	20.025
700	0.35	-2.26	0.476923076923	1.715625	7.32272727273
701	0.3505	0.62	1.93461538462	0.26875	5.91136363636
702	0.351	0.62	-5.35384615385	-1.178125	4.5
703	0.3515	13.58	0.476923076923	0.26875	4.5
704	0.352	-10.9	0.476923076923	4.609375	4.5
705	0.3525	2.06	0.476923076923	4.609375	-8.20227272727
706	0.353	0.62	1.93461538462	-8.4125	-8.20227272727
707	0.3535	0.62	3.39230769231	-1.178125	-6.79090909091
708	0.354	-3.7	0.476923076923	-1.178125	-6.79090909091
709	0.3545	6.38	4.85	3.1625	-12.4363636364
710	0.355	12.14	0.476923076923	-1.178125	-12.4363636364
711	0.3555	0.62	0.476923076923	-6.965625	-13.8477272727
712	0.356	2.06	3.39230769231	0.26875	-11.025
713	0.3565	-0.82	6.30769230769	-5.51875	-8.20227272727
714	0.357	0.62	-0.980769230769	-4.071875	-8.20227272727
715	0.3575	2.06	1.93461538462	-1.178125	-8.20227272727
716	0.358	-8.02	3.39230769231	0.26875	-6.79090909091
717	0.3585	-12.34	0.476923076923	0.26875	12.9681818182
718	0.359	-3.7	0.476923076923	-6.965625	-1.14545454545
719	0.3595	-3.7	0.476923076923	0.26875	-6.79090909091
720	0.36	-2.26	0.476923076923	1.715625	5.91136363636
721	0.3605	0.62	-5.35384615385	0.26875	7.32272727273
722	0.361	2.06	1.93461538462	0.26875	8.73409090909
723	0.3615	17.9	-2.43846153846	1.715625	4.5
724	0.362	-2.26	1.93461538462	-1.178125	14.3795454545
725	0.3625	-2.26	0.476923076923	6.05625	3.08863636364
726	0.363	-0.82	1.93461538462	-2.625	14.3795454545
727	0.3635	-3.7	9.22307692308	1.715625	12.9681818182
728	0.364	-0.82	0.476923076923	-1.178125	15.7909090909
729	0.3645	-10.9	-0.980769230769	4.609375	20.025
730	0.365	-2.26	0.476923076923	3.1625	7.32272727273
731	0.3655	0.62	0.476923076923	-8.4125	20.025
732	0.366	-0.82	-2.43846153846	0.26875	20.025
733	0.3665	-3.7	6.30769230769	-2.625	21.4363636364
734	0.367	-0.82	-8.26923076923	0.26875	21.4363636364
735	0.3675	0.62	0.476923076923	0.26875	18.6136363636
736	0.368	17.9	1.93461538462	-1.178125	17.2022727273
737	0.3685	-0.82	-0.980769230769	-12.753125	18.6136363636
738	0.369	-2.26	1.93461538462	-8.4125	14.3795454545
739	0.3695	0.62	12.1384615385	0.26875	17.2022727273
740	0.37	-5.14	-5.35384615385	0.26875	18.6136363636
741	0.3705	-5.14	0.476923076923	1.715625	18.6136363636
742	0.371	19.34	0.476923076923	-4.071875	15.7909090909
743	0.3715	0.62	0.476923076923	-5.51875	29.9045454545
744	0.372	-2.26	0.476923076923	13.290625	14.3795454545
745	0.3725	-2.26	1.93461538462	1.715625	20.025
746	0.373	-2.26	3.39230769231	0.26875	21.4363636364
747	0.3735	-2.26	1.93461538462	-1.178125	18.6136363636
748	0.374	0.62	3.39230769231	0.26875	17.2022727273
749	0.3745	-9.46	3.39230769231	-4.071875	32.7272727273
750	0.375	-2.26	1.93461538462	-6.965625	18.6136363636
751	0.3755	0.62	0.476923076923	-9.859375	21.4363636364
752	0.376	0.62	17.9692307692	-1.178125	20.025
753	0.3765	-3.7	1.93461538462	0.26875	24.2590909091
754	0.377	-13.78	-0.980769230769	0.26875	28.4931818182
755	0.3775	-10.9	1.93461538462	3.1625	38.3727272727
756	0.378	-0.82	0.476923076923	-1.178125	22.8477272727
757	0.3785	-3.7	4.85	6.05625	27.0818181818
758	0.379	-2.26	-6.81153846154	-2.625	27.0818181818
759	0.3795	0.62	-3.89615384615	-4.071875	29.9045454545
760	0.38	-0.82	0.476923076923	-2.625	29.9045454545
761	0.3805	-8.02	-0.980769230769	-2.625	31.3159090909
762	0.381	-0.82	-0.980769230769	-9.859375	22.8477272727
763	0.3815	-3.7	0.476923076923	8.95	29.9045454545
764	0.382	-0.82	1.93461538462	17.63125	29.9045454545
765	0.3825	0.62	-8.26923076923	1.715625	25.6704545455
766	0.383	3.5	-5.35384615385	-1.178125	20.025
767	0.3835	7.82	-0.980769230769	0.26875	14.3795454545
768	0.384	15.02	-0.980769230769	3.1625	3.08863636364
769	0.3845	0.62	-2.43846153846	-2.625	3.08863636364
770	0.385	0.62	1.93461538462	-6.965625	0.265909090909
771	0.3855	-0.82	-0.980769230769	0.26875	-6.79090909091
772	0.386	-2.26	17.9692307692	-1.178125	-13.8477272727
773	0.3865	-13.78	1.93461538462	0.26875	-20.9045454545
774	0.387	-6.58	3.39230769231	1.715625	-27.9613636364
775	0.3875	-6.58	-2.43846153846	3.1625	-25.1386363636
776	0.388	-0.82	-0.980769230769	11.84375	-40.6636363636
777	0.3885	-2.26	-0.980769230769	4.609375	-46.3090909091
778	0.389	-3.7	15.0538461538	3.1625	-56.1886363636
779	0.3895	-5.14	-11.1846153846	0.26875	-60.4227272727
780	0.39	19.34	-2.43846153846	4.609375	-75.9477272727
781	0.3905	-2.26	-0.980769230769	0.26875	-67.4795454545
782	0.391	-0.82	-2.43846153846	-4.071875	-68.8909090909
783	0.3915	-2.26	0.476923076923	0.26875	-90.0613636364
784	0.392	-0.82	-5.35384615385	3.1625	-85.8272727273
785	0.3925	-0.82	-11.1846153846	3.1625	-92.8840909091
786	0.393	-0.82	-0.980769230769	1.715625	-99.9409090909
787	0.3935	17.9	-2.43846153846	4.609375	-116.877272727
788	0.394	-5.14	-0.980769230769	1.715625	-105.586363636
789	0.3945	-3.7	1.93461538462	3.1625	-115.465909091
790	0.395	-5.14	1.93461538462	4.609375	-122.522727273
791	0.3955	-3.7	1.93461538462	6.05625	-128.168181818
792	0.396	-3.7	0.476923076923	6.05625	-126.756818182
793	0.3965	15.02	-0.980769230769	4.609375	-130.990909091
794	0.397	-0.82	0.476923076923	7.503125	-119.7
795	0.3975	-0.82	1.93461538462	21.971875	-136.636363636
796	0.398	-2.26	0.476923076923	3.1625	-132.402272727
797	0.3985	-0.82	6.30769230769	6.05625	-132.402272727
798	0.399	-3.7	-6.81153846154	6.05625	-136.636363636
799	0.3995	-0.82	1.93461538462	13.290625	-140.870454545
800	0.4	-0.82	-0.980769230769	11.84375	-150.75
801	0.4005	2.06	0.476923076923	0.26875	-139.459090909
802	0.401	0.62	0.476923076923	-1.178125	-143.693181818
803	0.4015	2.06	6.30769230769	13.290625	-143.693181818
804	0.402	-2.26	0.476923076923	13.290625	-143.693181818
805	0.4025	-12.34	0.476923076923	13.290625	-140.870454545
806	0.403	-5.14	0.476923076923	16.184375	-142.281818182
807	0.4035	2.06	-0.980769230769	8.95	-150.75
808	0.404	0.62	1.93461538462	7.503125	-145.104545455
809	0.4045	0.62	0.476923076923	11.84375	-145.104545455
810	0.405	2.06	13.5961538462	11.84375	-142.281818182
811	0.4055	0.62	0.476923076923	13.290625	-139.459090909
812	0.406	-10.9	3.39230769231	13.290625	-135.225
813	0.4065	-8.02	0.476923076923	8.95	-126.756818182
814	0.407	0.62	3.39230769231	8.95	-136.636363636
815	0.4075	-0.82	4.85	8.95	-133.813636364
816	0.408	0.62	-6.81153846154	6.05625	-132.402272727
817	0.4085	-2.26	6.30769230769	11.84375	-132.402272727
818	0.409	4.94	0.476923076923	13.290625	-130.990909091
819	0.4095	-5.14	0.476923076923	13.290625	-132.402272727
820	0.41	0.62	1.93461538462	4.609375	-130.990909091
821	0.4105	0.62	0.476923076923	1.715625	-126.756818182
822	0.411	-0.82	-8.26923076923	11.84375	-126.756818182
823	0.4115	0.62	-9.72692307692	7.503125	-121.111363636
824	0.412	3.5	0.476923076923	8.95	-121.111363636
825	0.4125	20.78	1.93461538462	8.95	-118.288636364
826	0.413	0.62	0.476923076923	-1.178125	-108.409090909
827	0.4135	0.62	4.85	27.759375	-106.997727273
828	0.414	3.5	-0.980769230769	27.759375	-102.763636364
829	0.4145	3.5	-8.26923076923	11.84375	-102.763636364
830	0.415	3.5	-0.980769230769	11.84375	-99.9409090909
831	0.4155	22.22	0.476923076923	11.84375	-102.763636364
832	0.416	0.62	3.39230769231	8.95	-94.2954545455
833	0.4165	3.5	0.476923076923	-4.071875	-84.4159090909
834	0.417	0.62	3.39230769231	4.609375	-75.9477272727
835	0.4175	0.62	0.476923076923	8.95	-73.125
836	0.418	2.06	-11.1846153846	11.84375	-70.3022727273
837	0.4185	22.22	0.476923076923	4.609375	-61.8340909091
838	0.419	-5.14	0.476923076923	3.1625	-51.9545454545
839	0.4195	2.06	0.476923076923	-1.178125	-63.2454545455
840	0.42	0.62	1.93461538462	6.05625	-64.6568181818
841	0.4205	0.62	-6.81153846154	4.609375	-56.1886363636
842	0.421	3.5	-3.89615384615	4.609375	-57.6
843	0.4215	4.94	0.476923076923	4.609375	-54.7772727273
844	0.422	4.94	3.39230769231	3.1625	-51.9545454545
845	0.4225	2.06	1.93461538462	0.26875	-56.1886363636
846	0.423	-0.82	4.85	3.1625	-53.3659090909
847	0.4235	0.62	0.476923076923	-5.51875	-40.6636363636
848	0.424	2.06	19.4269230769	0.26875	-39.2522727273
849	0.4245	-0.82	-3.89615384615	-1.178125	-35.0181818182
850	0.425	-8.02	3.39230769231	3.1625	-30.7840909091
851	0.4255	-5.14	1.93461538462	0.26875	-26.55
852	0.426	0.62	1.93461538462	-1.178125	-9.61363636364
853	0.4265	0.62	3.39230769231	19.078125	-22.3159090909
854	0.427	0.62	-9.72692307692	0.26875	-16.6704545455
855	0.4275	-3.7	-3.89615384615	-1.178125	-13.8477272727
856	0.428	3.5	1.93461538462	-2.625	-11.025
857	0.4285	-5.14	0.476923076923	-1.178125	-3.96818181818
858	0.429	-2.26	1.93461538462	-6.965625	-6.79090909091
859	0.4295	-0.82	1.93461538462	16.184375	-5.37954545455
860	0.43	0.62	0.476923076923	1.715625	-1.14545454545
861	0.4305	-0.82	20.8846153846	3.1625	0.265909090909
862	0.431	0.62	-9.72692307692	1.715625	1.67727272727
863	0.4315	20.78	1.93461538462	-1.178125	5.91136363636
864	0.432	0.62	1.93461538462	0.26875	15.7909090909
865	0.4325	0.62	3.39230769231	11.84375	14.3795454545
866	0.433	0.62	0.476923076923	7.503125	21.4363636364
867	0.4335	2.06	1.93461538462	0.26875	21.4363636364
868	0.434	3.5	0.476923076923	1.715625	22.8477272727
869	0.4345	-3.7	0.476923076923	0.26875	27.0818181818
870	0.435	-8.02	1.93461538462	-1.178125	28.4931818182
871	0.4355	-0.82	1.93461538462	7.503125	27.0818181818
872	0.436	0.62	3.39230769231	0.26875	28.4931818182
873	0.4365	-0.82	0.476923076923	-1.178125	25.6704545455
874	0.437	2.06	-5.35384615385	0.26875	21.4363636364
875	0.4375	-3.7	4.85	-4.071875	21.4363636364
876	0.438	17.9	1.93461538462	-4.071875	5.91136363636
877	0.4385	-0.82	3.39230769231	-4.071875	7.32272727273
878	0.439	0.62	3.39230769231	-12.753125	15.7909090909
879	0.4395	-2.26	3.39230769231	4.609375	12.9681818182
880	0.44	-0.82	1.93461538462	-2.625	14.3795454545
881	0.4405	0.62	-5.35384615385	-2.625	15.7909090909
882	0.441	0.62	-6.81153846154	-2.625	15.7909090909
883	0.4415	-0.82	0.476923076923	-4.071875	15.7909090909
884	0.442	-0.82	0.476923076923	-9.859375	22.8477272727
885	0.4425	-0.82	0.476923076923	0.26875	22.8477272727
886	0.443	-2.26	-2.43846153846	-1.178125	25.6704545455
887	0.4435	2.06	1.93461538462	-2.625	24.2590909091
888	0.444	-3.7	1.93461538462	-2.625	24.2590909091
889	0.4445	15.02	0.476923076923	-2.625	27.0818181818
890	0.445	-0.82	0.476923076923	-4.071875	28.4931818182
891	0.4455	-0.82	1.93461538462	7.503125	31.3159090909
892	0.446	-0.82	6.30769230769	-6.965625	31.3159090909
893	0.4465	-0.82	-6.81153846154	-8.4125	32.7272727273
894	0.447	0.62	-2.43846153846	-2.625	35.55
895	0.4475	0.62	0.476923076923	0.26875	38.3727272727
896	0.448	-10.9	0.476923076923	-2.625	35.55
897	0.4485	-0.82	1.93461538462	-4.071875	25.6704545455
898	0.449	-0.82	3.39230769231	-11.30625	34.1386363636
899	0.4495	-0.82	6.30769230769	-2.625	36.9613636364
900	0.45	-2.26	16.5115384615	-1.178125	41.1954545455
901	0.4505	-0.82	-2.43846153846	0.26875	39.7840909091
902	0.451	7.82	1.93461538462	-1.178125	29.9045454545
903	0.4515	0.62	1.93461538462	-1.178125	28.4931818182
904	0.452	0.62	0.476923076923	-15.646875	32.7272727273
905	0.4525	2.06	0.476923076923	-1.178125	32.7272727273
906	0.453	-0.82	-8.26923076923	-1.178125	29.9045454545
907	0.4535	-0.82	0.476923076923	-1.178125	27.0818181818
908	0.454	-3.7	1.93461538462	-2.625	25.6704545455
909	0.4545	16.46	3.39230769231	0.26875	14.3795454545
910	0.455	-2.26	1.93461538462	0.26875	17.2022727273
911	0.4555	0.62	-2.43846153846	-8.4125	27.0818181818
912	0.456	-2.26	1.93461538462	-2.625	22.8477272727
913	0.4565	-0.82	0.476923076923	-4.071875	24.2590909091
914	0.457	0.62	-8.26923076923	-5.51875	27.0818181818
915	0.4575	2.06	1.93461538462	-4.071875	25.6704545455
916	0.458	20.78	1.93461538462	-1.178125	18.6136363636
917	0.4585	-2.26	0.476923076923	-8.4125	27.0818181818
918	0.459	-2.26	0.476923076923	3.1625	31.3159090909
919	0.4595	-0.82	-2.43846153846	-1.178125	27.0818181818
920	0.46	0.62	16.5115384615	-4.071875	27.0818181818
921	0.4605	-0.82	-6.81153846154	-4.071875	27.0818181818
922	0.461	16.46	0.476923076923	-5.51875	27.0818181818
923	0.4615	-5.14	-0.980769230769	-5.51875	20.025
924	0.462	-3.7	3.39230769231	-12.753125	31.3159090909
925	0.4625	-0.82	4.85	-5.51875	32.7272727273
926	0.463	0.62	-3.89615384615	-8.4125	34.1386363636
927	0.4635	-0.82	17.9692307692	-1.178125	35.55
928	0.464	-13.78	3.39230769231	-4.071875	34.1386363636
929	0.4645	16.46	-2.43846153846	-4.071875	35.55
930	0.465	-2.26	0.476923076923	-2.625	32.7272727273
931	0.4655	0.62	-0.980769230769	-8.4125	34.1386363636
932	0.466	-0.82	0.476923076923	-8.4125	36.9613636364
933	0.4665	-2.26	0.476923076923	-11.30625	32.7272727273
934	0.467	-3.7	0.476923076923	-1.178125	36.9613636364
935	0.4675	-10.9	-2.43846153846	-1.178125	34.1386363636
936	0.468	-3.7	0.476923076923	-2.625	28.4931818182
937	0.4685	2.06	-0.980769230769	-1.178125	15.7909090909
938	0.469	-2.26	1.93461538462	14.7375	24.2590909091
939	0.4695	-0.82	-9.72692307692	-1.178125	21.4363636364
940	0.47	3.5	9.22307692308	-2.625	22.8477272727
941	0.4705	-0.82	-0.980769230769	1.715625	20.025
942	0.471	13.58	3.39230769231	0.26875	22.8477272727
943	0.4715	-12.34	0.476923076923	-1.178125	34.1386363636
944	0.472	-0.82	1.93461538462	-8.4125	18.6136363636
945	0.4725	-2.26	1.93461538462	3.1625	18.6136363636
946	0.473	0.62	4.85	-1.178125	15.7909090909
947	0.4735	0.62	22.3423076923	-5.51875	14.3795454545
948	0.474	-2.26	0.476923076923	-1.178125	15.7909090909
949	0.4745	-5.14	3.39230769231	-2.625	18.6136363636
950	0.475	-0.82	1.93461538462	-4.071875	8.73409090909
951	0.4755	0.62	4.85	-2.625	14.3795454545
952	0.476	0.62	0.476923076923	-8.4125	15.7909090909
953	0.4765	-0.82	3.39230769231	-11.30625	20.025
954	0.477	-3.7	-0.980769230769	-1.178125	20.025
955	0.4775	-10.9	0.476923076923	-4.071875	21.4363636364
956	0.478	7.82	0.476923076923	-2.625	24.2590909091
957	0.4785	-0.82	0.476923076923	-6.965625	20.025
958	0.479	2.06	3.39230769231	-12.753125	29.9045454545
959	0.4795	-0.82	3.39230769231	-1.178125	31.3159090909
960	0.48	0.62	-8.26923076923	-2.625	34.1386363636
961	0.4805	3.5	1.93461538462	-2.625	32.7272727273
962	0.481	19.34	0.476923076923	-2.625	36.9613636364
963	0.4815	-6.58	0.476923076923	1.715625	41.1954545455
964	0.482	-0.82	1.93461538462	1.715625	36.9613636364
965	0.4825	0.62	0.476923076923	3.1625	35.55
966	0.483	-2.26	1.93461538462	8.95	34.1386363636
967	0.4835	-0.82	-5.35384615385	0.26875	31.3159090909
968	0.484	-0.82	1.93461538462	1.715625	32.7272727273
969	0.4845	-2.26	1.93461538462	0.26875	31.3159090909
970	0.485	0.62	-0.980769230769	1.715625	44.0181818182
971	0.4855	-0.82	0.476923076923	1.715625	21.4363636364
972	0.486	-0.82	0.476923076923	-8.4125	27.0818181818
973	0.4865	0.62	19.4269230769	-2.625	20.025
974	0.487	-2.26	15.0538461538	-1.178125	20.025
975	0.4875	-10.9	0.476923076923	-4.071875	20.025
976	0.488	0.62	1.93461538462	-4.071875	20.025
977	0.4885	-0.82	1.93461538462	-2.625	31.3159090909
978	0.489	-2.26	3.39230769231	-5.51875	14.3795454545
979	0.4895	-2.26	-0.980769230769	-5.51875	22.8477272727
980	0.49	0.62	17.9692307692	-4.071875	21.4363636364
981	0.4905	-3.7	19.4269230769	0.26875	22.8477272727
982	0.491	-15.22	1.93461538462	-2.625	25.6704545455
983	0.4915	-3.7	3.39230769231	0.26875	27.0818181818
984	0.492	-0.82	1.93461538462	0.26875	32.7272727273
985	0.4925	-0.82	-2.43846153846	4.609375	27.0818181818
986	0.493	-0.82	4.85	-1.178125	27.0818181818
987	0.4935	-0.82	-6.81153846154	-2.625	27.0818181818
988	0.494	2.06	0.476923076923	-1.178125	25.6704545455
989	0.4945	20.78	-0.980769230769	-1.178125	21.4363636364
990	0.495	-5.14	3.39230769231	1.715625	35.55
991	0.4955	-0.82	1.93461538462	11.84375	32.7272727273
992	0.496	-0.82	3.39230769231	0.26875	31.3159090909
993	0.4965	-3.7	20.8846153846	-2.625	34.1386363636
994	0.497	-3.7	1.93461538462	-1.178125	38.3727272727
995	0.4975	-15.22	1.93461538462	-1.178125	41.1954545455
996	0.498	-2.26	0.476923076923	3.1625	42.6068181818
997	0.4985	-3.7	0.476923076923	1.715625	49.6636363636
998	0.499	-2.26	-0.980769230769	14.7375	35.55
999	0.4995	-0.82	-2.43846153846	0.26875	38.3727272727
1000	0.5	0.62	-11.1846153846	-1.178125	35.55
1001	0.5005	-0.82	0.476923076923	1.715625	34.1386363636
1002	0.501	16.46	-0.980769230769	-1.178125	35.55
1003	0.5015	2.06	1.93461538462	1.715625	34.1386363636
1004	0.502	-3.7	1.93461538462	20.525	29.9045454545
1005	0.5025	2.06	4.85	3.1625	27.0818181818
1006	0.503	-2.26	-9.72692307692	-1.178125	25.6704545455
1007	0.5035	3.5	0.476923076923	1.715625	22.8477272727
1008	0.504	13.58	0.476923076923	-1.178125	21.4363636364
1009	0.5045	-5.14	1.93461538462	-1.178125	21.4363636364
1010	0.505	0.62	1.93461538462	3.1625	18.6136363636
1011	0.5055	-0.82	1.93461538462	-1.178125	18.6136363636
1012	0.506	-0.82	3.39230769231	-5.51875	18.6136363636
1013	0.5065	-0.82	-0.980769230769	1.715625	15.7909090909
1014	0.507	-8.02	0.476923076923	1.715625	14.3795454545
1015	0.5075	-9.46	1.93461538462	0.26875	29.9045454545
1016	0.508	-3.7	0.476923076923	1.715625	18.6136363636
1017	0.5085	-2.26	6.30769230769	17.63125	15.7909090909
1018	0.509	0.62	-6.81153846154	-1.178125	20.025
1019	0.5095	-2.26	-6.81153846154	-2.625	20.025
1020	0.51	0.62	1.93461538462	-1.178125	18.6136363636
1021	0.5105	17.9	1.93461538462	-1.178125	11.5568181818
1022	0.511	-2.26	1.93461538462	-9.859375	20.025
1023	0.5115	-3.7	6.30769230769	-6.965625	24.2590909091
1024	0.512	-2.26	1.93461538462	-1.178125	27.0818181818
1025	0.5125	-3.7	0.476923076923	0.26875	24.2590909091
1026	0.513	-8.02	0.476923076923	-2.625	24.2590909091
1027	0.5135	7.82	0.476923076923	0.26875	25.6704545455
1028	0.514	-10.9	0.476923076923	-1.178125	38.3727272727
1029	0.5145	-2.26	-0.980769230769	-6.965625	27.0818181818
1030	0.515	-0.82	4.85	-1.178125	25.6704545455
1031	0.5155	-2.26	-11.1846153846	3.1625	24.2590909091
1032	0.516	-0.82	-9.72692307692	0.26875	24.2590909091
1033	0.5165	17.9	0.476923076923	0.26875	24.2590909091
1034	0.517	-10.9	1.93461538462	0.26875	36.9613636364
1035	0.5175	-2.26	-0.980769230769	-1.178125	18.6136363636
1036	0.518	-2.26	0.476923076923	-4.071875	14.3795454545
1037	0.5185	-2.26	10.6807692308	0.26875	8.73409090909
1038	0.519	-0.82	-5.35384615385	1.715625	14.3795454545
1039	0.5195	-9.46	1.93461538462	0.26875	12.9681818182
1040	0.52	-0.82	0.476923076923	7.503125	4.5
1041	0.5205	-2.26	0.476923076923	21.971875	12.9681818182
1042	0.521	-0.82	-0.980769230769	-1.178125	14.3795454545
1043	0.5215	-0.82	-9.72692307692	1.715625	17.2022727273
1044	0.522	0.62	1.93461538462	1.715625	17.2022727273
1045	0.5225	-10.9	1.93461538462	3.1625	20.025
1046	0.523	-8.02	1.93461538462	0.26875	14.3795454545
1047	0.5235	-2.26	1.93461538462	0.26875	15.7909090909
1048	0.524	-0.82	3.39230769231	-4.071875	14.3795454545
1049	0.5245	-2.26	4.85	0.26875	12.9681818182
1050	0.525	-5.14	6.30769230769	-1.178125	11.5568181818
1051	0.5255	13.58	-0.980769230769	3.1625	3.08863636364
1052	0.526	-2.26	0.476923076923	-1.178125	0.265909090909
1053	0.5265	-5.14	-0.980769230769	-2.625	28.4931818182
1054	0.527	-0.82	1.93461538462	14.7375	14.3795454545
1055	0.5275	-2.26	-0.980769230769	-1.178125	17.2022727273
1056	0.528	-2.26	10.6807692308	-1.178125	17.2022727273
1057	0.5285	2.06	0.476923076923	-2.625	18.6136363636
1058	0.529	2.06	0.476923076923	-1.178125	21.4363636364
1059	0.5295	-0.82	3.39230769231	1.715625	12.9681818182
1060	0.53	-2.26	0.476923076923	4.609375	20.025
1061	0.5305	-0.82	-8.26923076923	-1.178125	21.4363636364
1062	0.531	2.06	-0.980769230769	0.26875	25.6704545455
1063	0.5315	-13.78	-2.43846153846	0.26875	24.2590909091
1064	0.532	-3.7	1.93461538462	0.26875	34.1386363636
1065	0.5325	2.06	0.476923076923	4.609375	21.4363636364
1066	0.533	-0.82	3.39230769231	16.184375	22.8477272727
1067	0.5335	0.62	-14.1	1.715625	24.2590909091
1068	0.534	2.06	-3.89615384615	1.715625	18.6136363636
1069	0.5345	3.5	-0.980769230769	0.26875	20.025
1070	0.535	-6.58	1.93461538462	-1.178125	29.9045454545
1071	0.5355	-0.82	-0.980769230769	4.609375	29.9045454545
1072	0.536	2.06	0.476923076923	3.1625	12.9681818182
1073	0.5365	0.62	-8.26923076923	0.26875	11.5568181818
1074	0.537	2.06	0.476923076923	-1.178125	7.32272727273
1075	0.5375	3.5	1.93461538462	-2.625	7.32272727273
1076	0.538	7.82	0.476923076923	-2.625	1.67727272727
1077	0.5385	-5.14	1.93461538462	-4.071875	0.265909090909
1078	0.539	-0.82	0.476923076923	-11.30625	0.265909090909
1079	0.5395	0.62	1.93461538462	-4.071875	4.5
1080	0.54	0.62	-5.35384615385	-6.965625	4.5
1081	0.5405	0.62	0.476923076923	-1.178125	3.08863636364
1082	0.541	9.26	0.476923076923	-1.178125	1.67727272727
1083	0.5415	-5.14	0.476923076923	-1.178125	20.025
1084	0.542	-0.82	0.476923076923	-2.625	4.5
1085	0.5425	-0.82	1.93461538462	-6.965625	1.67727272727
1086	0.543	-0.82	0.476923076923	-2.625	3.08863636364
1087	0.5435	-3.7	0.476923076923	-4.071875	3.08863636364
1088	0.544	-12.34	0.476923076923	1.715625	4.5
1089	0.5445	-12.34	-0.980769230769	0.26875	-3.96818181818
1090	0.545	-2.26	0.476923076923	13.290625	4.5
1091	0.5455	-3.7	-0.980769230769	-2.625	4.5
1092	0.546	-0.82	-9.72692307692	-2.625	8.73409090909
1093	0.5465	0.62	16.5115384615	-4.071875	11.5568181818
1094	0.547	-13.78	0.476923076923	-1.178125	15.7909090909
1095	0.5475	-2.26	0.476923076923	-2.625	27.0818181818
1096	0.548	-5.14	0.476923076923	3.1625	24.2590909091
1097	0.5485	-0.82	-0.980769230769	0.26875	22.8477272727
1098	0.549	0.62	-6.81153846154	-2.625	17.2022727273
1099	0.5495	-0.82	-2.43846153846	-1.178125	15.7909090909
1100	0.55	3.5	-0.980769230769	1.715625	14.3795454545
1101	0.5505	12.14	0.476923076923	1.715625	15.7909090909
1102	0.551	0.62	0.476923076923	3.1625	7.32272727273
1103	0.5515	0.62	0.476923076923	0.26875	1.67727272727
1104	0.552	-0.82	0.476923076923	-9.859375	5.91136363636
1105	0.5525	0.62	19.4269230769	1.715625	4.5
1106	0.553	-3.7	-8.26923076923	0.26875	4.5
1107	0.5535	17.9	3.39230769231	-2.625	-8.20227272727
1108	0.554	-2.26	1.93461538462	-4.071875	-3.96818181818
1109	0.5545	0.62	1.93461538462	-1.178125	4.5
1110	0.555	2.06	1.93461538462	-4.071875	1.67727272727
1111	0.5555	-3.7	10.6807692308	0.26875	3.08863636364
1112	0.556	-2.26	-2.43846153846	-1.178125	7.32272727273
1113	0.5565	-8.02	-0.980769230769	0.26875	8.73409090909
1114	0.557	9.26	1.93461538462	3.1625	4.5
1115	0.5575	-0.82	-0.980769230769	0.26875	11.5568181818
1116	0.558	-3.7	3.39230769231	16.184375	8.73409090909
1117	0.5585	-0.82	3.39230769231	0.26875	8.73409090909
1118	0.559	0.62	19.4269230769	0.26875	8.73409090909
1119	0.5595	-0.82	1.93461538462	0.26875	11.5568181818
1120	0.56	-8.02	1.93461538462	1.715625	7.32272727273
1121	0.5605	0.62	1.93461538462	-2.625	1.67727272727
1122	0.561	-0.82	0.476923076923	-2.625	27.0818181818
1123	0.5615	-0.82	1.93461538462	-4.071875	14.3795454545
1124	0.562	0.62	17.9692307692	-2.625	18.6136363636
1125	0.5625	-0.82	0.476923076923	-1.178125	15.7909090909
1126	0.563	-15.22	3.39230769231	0.26875	20.025
1127	0.5635	-2.26	0.476923076923	1.715625	8.73409090909
1128	0.564	-0.82	-0.980769230769	-14.2	15.7909090909
1129	0.5645	-0.82	3.39230769231	-11.30625	15.7909090909
1130	0.565	0.62	17.9692307692	0.26875	20.025
1131	0.5655	0.62	-6.81153846154	0.26875	22.8477272727
1132	0.566	22.22	0.476923076923	0.26875	8.73409090909
1133	0.5665	-2.26	-0.980769230769	-2.625	7.32272727273
1134	0.567	0.62	-2.43846153846	0.26875	4.5
1135	0.5675	-0.82	1.93461538462	-4.071875	15.7909090909
1136	0.568	0.62	20.8846153846	3.1625	14.3795454545
1137	0.5685	-5.14	-8.26923076923	0.26875	14.3795454545
1138	0.569	2.06	0.476923076923	1.715625	14.3795454545
1139	0.5695	-12.34	1.93461538462	3.1625	14.3795454545
1140	0.57	0.62	0.476923076923	-11.30625	8.73409090909
1141	0.5705	0.62	1.93461538462	-5.51875	7.32272727273
1142	0.571	-2.26	19.4269230769	0.26875	11.5568181818
1143	0.5715	0.62	-0.980769230769	0.26875	15.7909090909
1144	0.572	-12.34	0.476923076923	0.26875	14.3795454545
1145	0.5725	-2.26	1.93461538462	0.26875	15.7909090909
1146	0.573	0.62	0.476923076923	0.26875	4.5
1147	0.5735	-0.82	1.93461538462	1.715625	15.7909090909
1148	0.574	-0.82	-2.43846153846	-6.965625	12.9681818182
1149	0.5745	-0.82	16.5115384615	-1.178125	15.7909090909
1150	0.575	-2.26	0.476923076923	0.26875	21.4363636364
1151	0.5755	-9.46	1.93461538462	0.26875	24.2590909091
1152	0.576	-2.26	0.476923076923	3.1625	34.1386363636
1153	0.5765	-2.26	0.476923076923	1.715625	14.3795454545
1154	0.577	-0.82	-0.980769230769	-6.965625	17.2022727273
1155	0.5775	0.62	19.4269230769	-2.625	14.3795454545
1156	0.578	-3.7	20.8846153846	0.26875	15.7909090909
1157	0.5785	-13.78	4.85	-1.178125	20.025
1158	0.579	-6.58	1.93461538462	-1.178125	18.6136363636
1159	0.5795	0.62	1.93461538462	-1.178125	21.4363636364
1160	0.58	0.62	1.93461538462	0.26875	18.6136363636
1161	0.5805	-0.82	1.93461538462	-1.178125	22.8477272727
1162	0.581	-0.82	-5.35384615385	1.715625	21.4363636364
1163	0.5815	-5.14	-0.980769230769	1.715625	21.4363636364
1164	0.582	-5.14	-2.43846153846	3.1625	29.9045454545
1165	0.5825	-0.82	0.476923076923	0.26875	21.4363636364
1166	0.583	0.62	-0.980769230769	13.290625	22.8477272727
1167	0.5835	0.62	-0.980769230769	0.26875	20.025
1168	0.584	0.62	3.39230769231	0.26875	20.025
1169	0.5845	-5.14	0.476923076923	4.609375	11.5568181818
1170	0.585	9.26	0.476923076923	4.609375	14.3795454545
1171	0.5855	-0.82	0.476923076923	3.1625	14.3795454545
1172	0.586	3.5	1.93461538462	1.715625	12.9681818182
1173	0.5865	0.62	-3.89615384615	1.715625	11.5568181818
1174	0.587	0.62	-3.89615384615	3.1625	4.5
1175	0.5875	-2.26	1.93461538462	4.609375	5.91136363636
1176	0.588	16.46	0.476923076923	3.1625	-2.55681818182
1177	0.5885	3.5	0.476923076923	1.715625	-3.96818181818
1178	0.589	-0.82	0.476923076923	0.26875	-3.96818181818
1179	0.5895	-0.82	3.39230769231	-1.178125	5.91136363636
1180	0.59	-2.26	20.8846153846	1.715625	4.5
1181	0.5905	-3.7	-0.980769230769	0.26875	7.32272727273
1182	0.591	-15.22	1.93461538462	3.1625	7.32272727273
1183	0.5915	-6.58	0.476923076923	-2.625	21.4363636364
1184	0.592	0.62	-0.980769230769	4.609375	15.7909090909
1185	0.5925	-2.26	0.476923076923	1.715625	7.32272727273
1186	0.593	-5.14	-8.26923076923	1.715625	11.5568181818
1187	0.5935	0.62	-0.980769230769	0.26875	12.9681818182
1188	0.594	2.06	0.476923076923	0.26875	12.9681818182
1189	0.5945	-5.14	0.476923076923	-1.178125	15.7909090909
1190	0.595	-0.82	0.476923076923	-1.178125	3.08863636364
1191	0.5955	0.62	0.476923076923	-5.51875	11.5568181818
1192	0.596	0.62	0.476923076923	-1.178125	8.73409090909
1193	0.5965	-0.82	16.5115384615	-1.178125	14.3795454545
1194	0.597	-5.14	1.93461538462	1.715625	18.6136363636
1195	0.5975	-15.22	0.476923076923	0.26875	17.2022727273
1196	0.598	-5.14	0.476923076923	4.609375	20.025
1197	0.5985	-2.26	-0.980769230769	8.95	18.6136363636
1198	0.599	2.06	1.93461538462	-1.178125	20.025
1199	0.5995	0.62	-0.980769230769	3.1625	21.4363636364
1200	0.6	2.06	17.9692307692	1.715625	18.6136363636
1201	0.6005	-9.46	0.476923076923	-1.178125	18.6136363636
1202	0.601	19.34	-0.980769230769	4.609375	7.32272727273
1203	0.6015	-0.82	-0.980769230769	1.715625	5.91136363636
1204	0.602	0.62	3.39230769231	-4.071875	17.2022727273
1205	0.6025	0.62	1.93461538462	3.1625	11.5568181818
1206	0.603	0.62	16.5115384615	3.1625	8.73409090909
1207	0.6035	2.06	-3.89615384615	0.26875	8.73409090909
1208	0.604	-2.26	0.476923076923	-1.178125	8.73409090909
1209	0.6045	0.62	1.93461538462	0.26875	-5.37954545455
1210	0.605	0.62	-0.980769230769	0.26875	3.08863636364
1211	0.6055	2.06	1.93461538462	4.609375	4.5
1212	0.606	0.62	10.6807692308	1.715625	4.5
1213	0.6065	0.62	-8.26923076923	1.715625	4.5
1214	0.607	0.62	-0.980769230769	4.609375	4.5
1215	0.6075	20.78	0.476923076923	1.715625	4.5
1216	0.608	-2.26	0.476923076923	3.1625	7.32272727273
1217	0.6085	-0.82	1.93461538462	1.715625	7.32272727273
1218	0.609	0.62	-5.35384615385	-1.178125	-1.14545454545
1219	0.6095	2.06	1.93461538462	-2.625	-1.14545454545
1220	0.61	2.06	-8.26923076923	0.26875	-1.14545454545
1221	0.6105	-0.82	1.93461538462	0.26875	-2.55681818182
1222	0.611	-8.02	0.476923076923	0.26875	0.265909090909
1223	0.6115	-0.82	1.93461538462	3.1625	15.7909090909
1224	0.612	-0.82	1.93461538462	19.078125	-1.14545454545
1225	0.6125	-2.26	-8.26923076923	-1.178125	3.08863636364
1226	0.613	0.62	-8.26923076923	-1.178125	3.08863636364
1227	0.6135	2.06	0.476923076923	0.26875	7.32272727273
1228	0.614	19.34	0.476923076923	0.26875	5.91136363636
1229	0.6145	0.62	0.476923076923	3.1625	3.08863636364
1230	0.615	-0.82	-0.980769230769	4.609375	8.73409090909
1231	0.6155	2.06	-9.72692307692	3.1625	4.5
1232	0.616	0.62	10.6807692308	0.26875	11.5568181818
1233	0.6165	-3.7	-8.26923076923	1.715625	8.73409090909
1234	0.617	19.34	-2.43846153846	1.715625	-1.14545454545
1235	0.6175	2.06	1.93461538462	1.715625	4.5
1236	0.618	-0.82	0.476923076923	-8.4125	7.32272727273
1237	0.6185	2.06	-0.980769230769	1.715625	8.73409090909
1238	0.619	-0.82	6.30769230769	6.05625	3.08863636364
1239	0.6195	-3.7	-3.89615384615	3.1625	0.265909090909
1240	0.62	-10.9	1.93461538462	3.1625	0.265909090909
1241	0.6205	2.06	0.476923076923	3.1625	-1.14545454545
1242	0.621	-0.82	0.476923076923	1.715625	3.08863636364
1243	0.6215	-0.82	-0.980769230769	-1.178125	-6.79090909091
1244	0.622	0.62	-5.35384615385	3.1625	-8.20227272727
1245	0.6225	2.06	10.6807692308	1.715625	-9.61363636364
1246	0.623	-2.26	0.476923076923	0.26875	-6.79090909091
1247	0.6235	-8.02	3.39230769231	0.26875	-5.37954545455
1248	0.624	-9.46	1.93461538462	-4.071875	5.91136363636
1249	0.6245	-0.82	3.39230769231	13.290625	-9.61363636364
1250	0.625	0.62	0.476923076923	19.078125	-8.20227272727
1251	0.6255	-0.82	-6.81153846154	0.26875	-6.79090909091
1252	0.626	0.62	3.39230769231	-1.178125	-6.79090909091
1253	0.6265	-8.02	1.93461538462	1.715625	-5.37954545455
1254	0.627	-10.9	0.476923076923	1.715625	-3.96818181818
1255	0.6275	-0.82	1.93461538462	16.184375	-5.37954545455
1256	0.628	-0.82	-0.980769230769	-1.178125	-3.96818181818
1257	0.6285	-3.7	-2.43846153846	0.26875	-1.14545454545
1258	0.629	-0.82	-5.35384615385	-2.625	-1.14545454545
1259	0.6295	10.7	1.93461538462	0.26875	-1.14545454545
1260	0.63	-6.58	0.476923076923	-1.178125	11.5568181818
1261	0.6305	-3.7	-0.980769230769	0.26875	3.08863636364
1262	0.631	-0.82	0.476923076923	6.05625	3.08863636364
1263	0.6315	0.62	10.6807692308	-1.178125	4.5
1264	0.632	-2.26	6.30769230769	1.715625	3.08863636364
1265	0.6325	-10.9	1.93461538462	1.715625	4.5
1266	0.633	-2.26	0.476923076923	3.1625	-1.14545454545
1267	0.6335	0.62	0.476923076923	4.609375	7.32272727273
1268	0.634	0.62	0.476923076923	6.05625	7.32272727273
1269	0.6345	-0.82	3.39230769231	4.609375	3.08863636364
1270	0.635	-0.82	-2.43846153846	1.715625	4.5
1271	0.6355	-6.58	1.93461538462	0.26875	4.5
1272	0.636	3.5	0.476923076923	1.715625	5.91136363636
1273	0.6365	-2.26	1.93461538462	0.26875	-8.20227272727
1274	0.637	-3.7	1.93461538462	-4.071875	-1.14545454545
1275	0.6375	0.62	-3.89615384615	-2.625	-5.37954545455
1276	0.638	-0.82	1.93461538462	0.26875	-1.14545454545
1277	0.6385	-6.58	0.476923076923	-1.178125	-2.55681818182
1278	0.639	7.82	1.93461538462	-1.178125	-9.61363636364
1279	0.6395	-5.14	1.93461538462	3.1625	-8.20227272727
1280	0.64	-0.82	0.476923076923	3.1625	-6.79090909091
1281	0.6405	0.62	-6.81153846154	-1.178125	-8.20227272727
1282	0.641	-0.82	6.30769230769	1.715625	-6.79090909091
1283	0.6415	-3.7	0.476923076923	0.26875	-6.79090909091
1284	0.642	-0.82	0.476923076923	-1.178125	-3.96818181818
1285	0.6425	-0.82	0.476923076923	0.26875	-15.2590909091
1286	0.643	-2.26	3.39230769231	16.184375	-5.37954545455
1287	0.6435	-0.82	-0.980769230769	-1.178125	-2.55681818182
1288	0.644	-0.82	-9.72692307692	-1.178125	-1.14545454545
1289	0.6445	2.06	0.476923076923	-1.178125	-1.14545454545
1290	0.645	-15.22	1.93461538462	-2.625	-2.55681818182
1291	0.6455	-9.46	1.93461538462	-1.178125	-1.14545454545
1292	0.646	-0.82	0.476923076923	1.715625	0.265909090909
1293	0.6465	-0.82	-0.980769230769	0.26875	1.67727272727
1294	0.647	-0.82	3.39230769231	6.05625	0.265909090909
1295	0.6475	-3.7	-5.35384615385	0.26875	4.5
1296	0.648	-9.46	1.93461538462	3.1625	0.265909090909
1297	0.6485	9.26	0.476923076923	-1.178125	-2.55681818182
1298	0.649	-0.82	0.476923076923	-4.071875	-2.55681818182
1299	0.6495	-0.82	1.93461538462	-2.625	-9.61363636364
1300	0.65	-2.26	3.39230769231	0.26875	-5.37954545455
1301	0.6505	3.5	-6.81153846154	4.609375	-5.37954545455
1302	0.651	4.94	-0.980769230769	0.26875	-8.20227272727
1303	0.6515	10.7	0.476923076923	3.1625	-15.2590909091
1304	0.652	-3.7	0.476923076923	3.1625	-12.4363636364
1305	0.6525	0.62	-0.980769230769	4.609375	-18.0818181818
1306	0.653	-0.82	1.93461538462	-2.625	-15.2590909091
1307	0.6535	-2.26	1.93461538462	-4.071875	-13.8477272727
1308	0.654	0.62	1.93461538462	0.26875	-16.6704545455
1309	0.6545	3.5	0.476923076923	0.26875	-19.4931818182
1310	0.655	-5.14	1.93461538462	-1.178125	-16.6704545455
1311	0.6555	-0.82	0.476923076923	1.715625	-23.7272727273
1312	0.656	-0.82	1.93461538462	-9.859375	-15.2590909091
1313	0.6565	0.62	4.85	-8.4125	-15.2590909091
1314	0.657	-2.26	4.85	-2.625	-18.0818181818
1315	0.6575	-3.7	3.39230769231	-4.071875	-16.6704545455
1316	0.658	-10.9	1.93461538462	-2.625	-26.55
1317	0.6585	-0.82	0.476923076923	0.26875	-25.1386363636
1318	0.659	-0.82	-0.980769230769	13.290625	-15.2590909091
1319	0.6595	-3.7	0.476923076923	-4.071875	-12.4363636364
1320	0.66	0.62	10.6807692308	-2.625	-12.4363636364
1321	0.6605	-0.82	-5.35384615385	-4.071875	-9.61363636364
1322	0.661	3.5	-0.980769230769	-1.178125	-13.8477272727
1323	0.6615	-6.58	0.476923076923	-1.178125	-12.4363636364
1324	0.662	-2.26	1.93461538462	-2.625	-8.20227272727
1325	0.6625	0.62	0.476923076923	8.95	-1.14545454545
1326	0.663	-0.82	-3.89615384615	-2.625	-3.96818181818
1327	0.6635	3.5	-11.1846153846	-1.178125	1.67727272727
1328	0.664	3.5	0.476923076923	-1.178125	7.32272727273
1329	0.6645	19.34	-0.980769230769	1.715625	3.08863636364
1330	0.665	-0.82	0.476923076923	1.715625	11.5568181818
1331	0.6655	-2.26	0.476923076923	-5.51875	14.3795454545
1332	0.666	-0.82	-11.1846153846	0.26875	15.7909090909
1333	0.6665	-0.82	10.6807692308	0.26875	18.6136363636
1334	0.667	-2.26	4.85	4.609375	14.3795454545
1335	0.6675	4.94	0.476923076923	4.609375	15.7909090909
1336	0.668	-0.82	0.476923076923	3.1625	3.08863636364
1337	0.6685	-0.82	0.476923076923	-8.4125	11.5568181818
1338	0.669	0.62	0.476923076923	-9.859375	0.265909090909
1339	0.6695	0.62	3.39230769231	1.715625	3.08863636364
1340	0.67	-0.82	0.476923076923	1.715625	3.08863636364
1341	0.6705	-9.46	0.476923076923	-1.178125	3.08863636364
1342	0.671	-3.7	1.93461538462	1.715625	0.265909090909
1343	0.6715	-0.82	1.93461538462	0.26875	-6.79090909091
1344	0.672	-0.82	0.476923076923	0.26875	-8.20227272727
1345	0.6725	0.62	-0.980769230769	-4.071875	-2.55681818182
1346	0.673	-0.82	13.5961538462	-1.178125	-6.79090909091
1347	0.6735	0.62	13.5961538462	0.26875	-6.79090909091
1348	0.674	-5.14	0.476923076923	0.26875	-5.37954545455
1349	0.6745	0.62	0.476923076923	1.715625	-12.4363636364
1350	0.675	-0.82	1.93461538462	-5.51875	-13.8477272727
1351	0.6755	-3.7	1.93461538462	-5.51875	-6.79090909091
1352	0.676	-0.82	10.6807692308	0.26875	-6.79090909091
1353	0.6765	-0.82	1.93461538462	0.26875	-2.55681818182
1354	0.677	-8.02	1.93461538462	0.26875	-1.14545454545
1355	0.6775	-0.82	0.476923076923	1.715625	-9.61363636364
1356	0.678	-2.26	-0.980769230769	0.26875	15.7909090909
1357	0.6785	-3.7	1.93461538462	16.184375	-1.14545454545
1358	0.679	-2.26	-2.43846153846	0.26875	-1.14545454545
1359	0.6795	-0.82	-8.26923076923	-1.178125	0.265909090909
1360	0.68	0.62	0.476923076923	0.26875	3.08863636364
1361	0.6805	17.9	1.93461538462	4.609375	-6.79090909091
1362	0.681	-0.82	0.476923076923	-6.965625	4.5
1363	0.6815	-2.26	1.93461538462	-6.965625	4.5
1364	0.682	-2.26	4.85	0.26875	7.32272727273
1365	0.6825	-2.26	-3.89615384615	0.26875	7.32272727273
1366	0.683	9.26	0.476923076923	1.715625	14.3795454545
1367	0.6835	12.14	0.476923076923	1.715625	7.32272727273
1368	0.684	-2.26	0.476923076923	0.26875	18.6136363636
1369	0.6845	0.62	-2.43846153846	14.7375	1.67727272727
1370	0.685	0.62	-0.980769230769	17.63125	3.08863636364
1371	0.6855	2.06	-3.89615384615	1.715625	4.5
1372	0.686	3.5	1.93461538462	3.1625	1.67727272727
1373	0.6865	17.9	-0.980769230769	0.26875	-9.61363636364
1374	0.687	-0.82	0.476923076923	0.26875	0.265909090909
1375	0.6875	-2.26	1.93461538462	-9.859375	3.08863636364
1376	0.688	-0.82	4.85	1.715625	3.08863636364
1377	0.6885	-0.82	10.6807692308	1.715625	4.5
1378	0.689	-0.82	6.30769230769	1.715625	0.265909090909
1379	0.6895	-2.26	1.93461538462	1.715625	-1.14545454545
1380	0.69	-6.58	1.93461538462	0.26875	-1.14545454545
1381	0.6905	-2.26	3.39230769231	-1.178125	3.08863636364
1382	0.691	-0.82	3.39230769231	-4.071875	3.08863636364
1383	0.6915	0.62	0.476923076923	-5.51875	0.265909090909
1384	0.692	0.62	15.0538461538	0.26875	3.08863636364
1385	0.6925	-6.58	0.476923076923	1.715625	1.67727272727
1386	0.693	20.78	1.93461538462	3.1625	-3.96818181818
1387	0.6935	-0.82	0.476923076923	4.609375	1.67727272727
1388	0.694	-0.82	0.476923076923	16.184375	5.91136363636
1389	0.6945	-0.82	-11.1846153846	1.715625	7.32272727273
1390	0.695	2.06	-2.43846153846	-1.178125	4.5
1391	0.6955	0.62	0.476923076923	0.26875	7.32272727273
1392	0.696	2.06	0.476923076923	0.26875	5.91136363636
1393	0.6965	-6.58	0.476923076923	0.26875	21.4363636364
1394	0.697	-2.26	0.476923076923	-2.625	14.3795454545
1395	0.6975	0.62	3.39230769231	0.26875	11.5568181818
1396	0.698	-2.26	0.476923076923	1.715625	14.3795454545
1397	0.6985	-2.26	-3.89615384615	3.1625	14.3795454545
1398	0.699	-2.26	1.93461538462	4.609375	11.5568181818
1399	0.6995	17.9	0.476923076923	4.609375	1.67727272727
1400	0.7	-2.26	0.476923076923	-11.30625	8.73409090909
1401	0.7005	0.62	1.93461538462	-5.51875	4.5
1402	0.701	-0.82	4.85	0.26875	7.32272727273
1403	0.7015	-3.7	0.476923076923	1.715625	3.08863636364
1404	0.702	0.62	6.30769230769	0.26875	1.67727272727
1405	0.7025	-0.82	-0.980769230769	4.609375	1.67727272727
1406	0.703	-0.82	0.476923076923	-1.178125	-2.55681818182
1407	0.7035	0.62	0.476923076923	0.26875	-8.20227272727
1408	0.704	0.62	1.93461538462	-4.071875	0.265909090909
1409	0.7045	0.62	-6.81153846154	1.715625	-1.14545454545
1410	0.705	0.62	0.476923076923	1.715625	-1.14545454545
1411	0.7055	-10.9	1.93461538462	0.26875	3.08863636364
1412	0.706	-9.46	0.476923076923	-1.178125	18.6136363636
1413	0.7065	0.62	0.476923076923	-11.30625	-2.55681818182
1414	0.707	0.62	4.85	-4.071875	-3.96818181818
1415	0.7075	-3.7	20.8846153846	0.26875	-6.79090909091
1416	0.708	0.62	-0.980769230769	-1.178125	-6.79090909091
1417	0.7085	-15.22	1.93461538462	0.26875	-8.20227272727
1418	0.709	-5.14	3.39230769231	3.1625	-12.4363636364
1419	0.7095	-0.82	1.93461538462	3.1625	-5.37954545455
1420	0.71	-0.82	-0.980769230769	0.26875	-11.025
1421	0.7105	-2.26	-3.89615384615	-1.178125	-11.025
1422	0.711	0.62	7.76538461538	1.715625	-11.025
1423	0.7115	-0.82	1.93461538462	0.26875	-5.37954545455
1424	0.712	-5.14	3.39230769231	-1.178125	0.265909090909
1425	0.7125	0.62	1.93461538462	-1.178125	-6.79090909091
1426	0.713	-0.82	1.93461538462	-11.30625	-3.96818181818
1427	0.7135	-0.82	1.93461538462	-9.859375	7.32272727273
1428	0.714	-0.82	17.9692307692	3.1625	11.5568181818
1429	0.7145	-2.26	-6.81153846154	1.715625	14.3795454545
1430	0.715	-0.82	1.93461538462	1.715625	18.6136363636
1431	0.7155	0.62	-0.980769230769	-1.178125	32.7272727273
1432	0.716	-0.82	-0.980769230769	-6.965625	17.2022727273
1433	0.7165	0.62	0.476923076923	-6.965625	15.7909090909
1434	0.717	0.62	7.76538461538	1.715625	12.9681818182
1435	0.7175	-2.26	-8.26923076923	3.1625	11.5568181818
1436	0.718	2.06	-0.980769230769	3.1625	8.73409090909
1437	0.7185	4.94	-0.980769230769	0.26875	5.91136363636
1438	0.719	2.06	3.39230769231	-1.178125	0.265909090909
1439	0.7195	2.06	0.476923076923	-1.178125	-5.37954545455
1440	0.72	0.62	-0.980769230769	-8.4125	1.67727272727
1441	0.7205	2.06	19.4269230769	0.26875	0.265909090909
1442	0.721	-2.26	0.476923076923	1.715625	1.67727272727
1443	0.7215	-8.02	0.476923076923	4.609375	-3.96818181818
1444	0.722	0.62	3.39230769231	1.715625	-5.37954545455
1445	0.7225	0.62	3.39230769231	-11.30625	-2.55681818182
1446	0.723	0.62	4.85	3.1625	3.08863636364
1447	0.7235	-0.82	19.4269230769	1.715625	4.5
1448	0.724	-5.14	-0.980769230769	1.715625	5.91136363636
1449	0.7245	-10.9	0.476923076923	3.1625	5.91136363636
1450	0.725	0.62	1.93461538462	3.1625	4.5
1451	0.7255	-0.82	3.39230769231	3.1625	8.73409090909
1452	0.726	0.62	4.85	6.05625	4.5
1453	0.7265	2.06	4.85	1.715625	7.32272727273
1454	0.727	0.62	0.476923076923	1.715625	7.32272727273
1455	0.7275	-2.26	1.93461538462	-1.178125	14.3795454545
1456	0.728	-5.14	0.476923076923	0.26875	8.73409090909
1457	0.7285	-0.82	0.476923076923	-1.178125	27.0818181818
1458	0.729	0.62	0.476923076923	19.078125	14.3795454545
1459	0.7295	-2.26	1.93461538462	-1.178125	15.7909090909
1460	0.73	-2.26	-8.26923076923	0.26875	15.7909090909
1461	0.7305	4.94	-3.89615384615	0.26875	15.7909090909
1462	0.731	15.02	-0.980769230769	0.26875	21.4363636364
1463	0.7315	0.62	1.93461538462	-6.965625	15.7909090909
1464	0.732	3.5	1.93461538462	7.503125	21.4363636364
1465	0.7325	0.62	1.93461538462	4.609375	18.6136363636
1466	0.733	2.06	9.22307692308	1.715625	20.025
1467	0.7335	-2.26	-5.35384615385	3.1625	20.025
1468	0.734	4.94	1.93461538462	4.609375	11.5568181818
1469	0.7345	-0.82	3.39230769231	4.609375	8.73409090909
1470	0.735	2.06	0.476923076923	-6.965625	15.7909090909
1471	0.7355	-0.82	-3.89615384615	0.26875	14.3795454545
1472	0.736	2.06	17.9692307692	4.609375	15.7909090909
1473	0.7365	-2.26	-0.980769230769	3.1625	12.9681818182
1474	0.737	-12.34	1.93461538462	3.1625	14.3795454545
1475	0.7375	-3.7	1.93461538462	0.26875	11.5568181818
1476	0.738	2.06	1.93461538462	-6.965625	5.91136363636
1477	0.7385	-0.82	1.93461538462	-5.51875	5.91136363636
1478	0.739	2.06	15.0538461538	1.715625	4.5
1479	0.7395	-2.26	0.476923076923	0.26875	7.32272727273
1480	0.74	-6.58	4.85	1.715625	7.32272727273
1481	0.7405	7.82	0.476923076923	3.1625	8.73409090909
1482	0.741	0.62	0.476923076923	-6.965625	0.265909090909
1483	0.7415	-0.82	0.476923076923	14.7375	5.91136363636
1484	0.742	-0.82	-0.980769230769	1.715625	8.73409090909
1485	0.7425	0.62	-2.43846153846	1.715625	11.5568181818
1486	0.743	-2.26	0.476923076923	1.715625	11.5568181818
1487	0.7435	13.58	0.476923076923	-1.178125	14.3795454545
1488	0.744	-0.82	3.39230769231	-2.625	29.9045454545
1489	0.7445	-2.26	3.39230769231	-8.4125	14.3795454545
1490	0.745	0.62	6.30769230769	-1.178125	14.3795454545
1491	0.7455	-0.82	19.4269230769	-1.178125	18.6136363636
1492	0.746	-2.26	1.93461538462	1.715625	22.8477272727
1493	0.7465	-12.34	-0.980769230769	-1.178125	28.4931818182
1494	0.747	-8.02	0.476923076923	3.1625	31.3159090909
1495	0.7475	-2.26	3.39230769231	21.971875	28.4931818182
1496	0.748	-0.82	0.476923076923	19.078125	31.3159090909
1497	0.7485	-0.82	-11.1846153846	1.715625	29.9045454545
1498	0.749	0.62	-9.72692307692	1.715625	27.0818181818
1499	0.7495	15.02	0.476923076923	4.609375	27.0818181818
1500	0.75	-6.58	0.476923076923	6.05625	25.6704545455
1501	0.7505	0.62	-0.980769230769	-1.178125	32.7272727273
1502	0.751	-0.82	1.93461538462	-2.625	22.8477272727
1503	0.7515	0.62	-12.6423076923	1.715625	22.8477272727
1504	0.752	3.5	-8.26923076923	1.715625	18.6136363636
1505	0.7525	-12.34	-0.980769230769	4.609375	17.2022727273
1506	0.753	-6.58	0.476923076923	6.05625	14.3795454545
1507	0.7535	0.62	1.93461538462	1.715625	-2.55681818182
1508	0.754	0.62	-0.980769230769	-6.965625	5.91136363636
1509	0.7545	0.62	-5.35384615385	0.26875	5.91136363636
1510	0.755	3.5	16.5115384615	0.26875	3.08863636364
1511	0.7555	-10.9	0.476923076923	-2.625	3.08863636364
1512	0.756	-9.46	0.476923076923	0.26875	-1.14545454545
1513	0.7565	-0.82	0.476923076923	-1.178125	-5.37954545455
1514	0.757	-0.82	3.39230769231	-4.071875	5.91136363636
1515	0.7575	-0.82	4.85	-1.178125	5.91136363636
1516	0.758	-0.82	-11.1846153846	-1.178125	7.32272727273
1517	0.7585	3.5	0.476923076923	-1.178125	3.08863636364
1518	0.759	17.9	0.476923076923	0.26875	-1.14545454545
1519	0.7595	-5.14	-0.980769230769	1.715625	4.5
1520	0.76	0.62	1.93461538462	-1.178125	14.3795454545
1521	0.7605	-3.7	1.93461538462	4.609375	11.5568181818
1522	0.761	-0.82	-6.81153846154	1.715625	14.3795454545
1523	0.7615	0.62	1.93461538462	-2.625	11.5568181818
1524	0.762	-8.02	1.93461538462	0.26875	12.9681818182
1525	0.7625	4.94	0.476923076923	3.1625	14.3795454545
1526	0.763	-0.82	0.476923076923	-2.625	25.6704545455
1527	0.7635	-0.82	1.93461538462	7.503125	15.7909090909
1528	0.764	-0.82	0.476923076923	0.26875	17.2022727273
1529	0.7645	0.62	1.93461538462	-1.178125	18.6136363636
1530	0.765	-10.9	0.476923076923	0.26875	17.2022727273
1531	0.7655	10.7	0.476923076923	-1.178125	17.2022727273
1532	0.766	-0.82	0.476923076923	-1.178125	11.5568181818
1533	0.7665	-0.82	0.476923076923	-6.965625	14.3795454545
1534	0.767	0.62	3.39230769231	-1.178125	12.9681818182
1535	0.7675	-0.82	-11.1846153846	-1.178125	11.5568181818
1536	0.768	3.5	-0.980769230769	4.609375	7.32272727273
1537	0.7685	-9.46	0.476923076923	0.26875	4.5
1538	0.769	-2.26	0.476923076923	3.1625	11.5568181818
1539	0.7695	2.06	1.93461538462	7.503125	5.91136363636
1540	0.77	-0.82	-2.43846153846	-1.178125	4.5
1541	0.7705	0.62	6.30769230769	0.26875	3.08863636364
1542	0.771	-2.26	-2.43846153846	1.715625	3.08863636364
1543	0.7715	-12.34	1.93461538462	3.1625	1.67727272727
1544	0.772	17.9	0.476923076923	1.715625	-8.20227272727
1545	0.7725	0.62	0.476923076923	3.1625	4.5
1546	0.773	-0.82	4.85	7.503125	-1.14545454545
1547	0.7735	0.62	4.85	-4.071875	0.265909090909
1548	0.774	-0.82	3.39230769231	-1.178125	0.265909090909
1549	0.7745	-3.7	0.476923076923	0.26875	3.08863636364
1550	0.775	0.62	1.93461538462	0.26875	1.67727272727
1551	0.7755	-6.58	-2.43846153846	4.609375	15.7909090909
1552	0.776	-0.82	4.85	0.26875	3.08863636364
1553	0.7765	0.62	0.476923076923	1.715625	0.265909090909
1554	0.777	0.62	-8.26923076923	0.26875	0.265909090909
1555	0.7775	2.06	20.8846153846	-1.178125	1.67727272727
1556	0.778	-10.9	0.476923076923	1.715625	3.08863636364
1557	0.7785	-8.02	1.93461538462	1.715625	15.7909090909
1558	0.779	0.62	1.93461538462	1.715625	0.265909090909
1559	0.7795	0.62	6.30769230769	16.184375	4.5
1560	0.78	3.5	0.476923076923	14.7375	5.91136363636
1561	0.7805	0.62	-8.26923076923	-1.178125	7.32272727273
1562	0.781	4.94	4.85	0.26875	4.5
1563	0.7815	20.78	1.93461538462	1.715625	7.32272727273
1564	0.782	0.62	-0.980769230769	1.715625	-2.55681818182
1565	0.7825	-0.82	0.476923076923	0.26875	8.73409090909
1566	0.783	0.62	3.39230769231	3.1625	8.73409090909
1567	0.7835	2.06	10.6807692308	4.609375	7.32272727273
1568	0.784	0.62	-3.89615384615	1.715625	8.73409090909
1569	0.7845	-6.58	0.476923076923	3.1625	0.265909090909
1570	0.785	2.06	0.476923076923	3.1625	14.3795454545
1571	0.7855	0.62	-0.980769230769	1.715625	14.3795454545
1572	0.786	0.62	0.476923076923	14.7375	-2.55681818182
1573	0.7865	3.5	-0.980769230769	1.715625	-2.55681818182
1574	0.787	2.06	-2.43846153846	1.715625	-5.37954545455
1575	0.7875	-3.7	-5.35384615385	1.715625	-2.55681818182
1576	0.788	16.46	0.476923076923	-1.178125	-9.61363636364
1577	0.7885	-0.82	0.476923076923	0.26875	-6.79090909091
1578	0.789	0.62	1.93461538462	4.609375	-18.0818181818
1579	0.7895	-2.26	0.476923076923	-9.859375	-13.8477272727
1580	0.79	-0.82	20.8846153846	-2.625	-12.4363636364
1581	0.7905	-3.7	0.476923076923	-1.178125	-11.025
1582	0.791	-10.9	1.93461538462	0.26875	-9.61363636364
1583	0.7915	2.06	1.93461538462	0.26875	-8.20227272727
1584	0.792	-0.82	-0.980769230769	0.26875	-3.96818181818
1585	0.7925	3.5	-0.980769230769	-1.178125	-6.79090909091
1586	0.793	0.62	3.39230769231	4.609375	-5.37954545455
1587	0.7935	2.06	4.85	-1.178125	-2.55681818182
1588	0.794	3.5	6.30769230769	-1.178125	0.265909090909
1589	0.7945	-3.7	0.476923076923	-1.178125	-1.14545454545
1590	0.795	0.62	3.39230769231	-2.625	-2.55681818182
1591	0.7955	0.62	0.476923076923	-4.071875	-6.79090909091
1592	0.796	-0.82	-2.43846153846	0.26875	4.5
1593	0.7965	0.62	-0.980769230769	1.715625	7.32272727273
1594	0.797	-0.82	-0.980769230769	-1.178125	7.32272727273
1595	0.7975	-3.7	0.476923076923	-2.625	8.73409090909
1596	0.798	0.62	0.476923076923	-1.178125	1.67727272727
1597	0.7985	2.06	0.476923076923	3.1625	4.5
1598	0.799	-2.26	0.476923076923	0.26875	5.91136363636
1599	0.7995	0.62	-0.980769230769	-6.965625	4.5
1600	0.8	2.06	-6.81153846154	1.715625	1.67727272727
1601	0.8005	-0.82	-9.72692307692	1.715625	-1.14545454545
1602	0.801	17.9	0.476923076923	-1.178125	-1.14545454545
1603	0.8015	2.06	0.476923076923	-4.071875	-6.79090909091
1604	0.802	2.06	0.476923076923	-2.625	-3.96818181818
1605	0.8025	-0.82	-2.43846153846	1.715625	-5.37954545455
1606	0.803	2.06	19.4269230769	1.715625	-3.96818181818
1607	0.8035	0.62	0.476923076923	0.26875	-6.79090909091
1608	0.804	16.46	1.93461538462	4.609375	-9.61363636364
1609	0.8045	2.06	-0.980769230769	0.26875	-9.61363636364
1610	0.805	2.06	0.476923076923	-4.071875	-12.4363636364
1611	0.8055	-0.82	3.39230769231	-4.071875	-6.79090909091
1612	0.806	0.62	-9.72692307692	0.26875	-6.79090909091
1613	0.8065	3.5	-0.980769230769	0.26875	-6.79090909091
1614	0.807	20.78	0.476923076923	-1.178125	-1.14545454545
1615	0.8075	0.62	1.93461538462	4.609375	14.3795454545
1616	0.808	0.62	0.476923076923	4.609375	-8.20227272727
1617	0.8085	0.62	3.39230769231	-8.4125	-2.55681818182
1618	0.809	0.62	20.8846153846	-2.625	0.265909090909
1619	0.8095	-0.82	16.5115384615	-4.071875	-1.14545454545
1620	0.81	-10.9	0.476923076923	-1.178125	1.67727272727
1621	0.8105	0.62	-0.980769230769	3.1625	-6.79090909091
1622	0.811	0.62	1.93461538462	13.290625	0.265909090909
1623	0.8115	0.62	-0.980769230769	-8.4125	1.67727272727
1624	0.812	-0.82	1.93461538462	-8.4125	4.5
1625	0.8125	0.62	0.476923076923	0.26875	10.1454545455
1626	0.813	-6.58	1.93461538462	0.26875	8.73409090909
1627	0.8135	0.62	1.93461538462	-1.178125	0.265909090909
1628	0.814	-2.26	-0.980769230769	-2.625	-2.55681818182
1629	0.8145	0.62	3.39230769231	-6.965625	5.91136363636
1630	0.815	-0.82	3.39230769231	-5.51875	5.91136363636
1631	0.8155	-2.26	-2.43846153846	-1.178125	8.73409090909
1632	0.816	-6.58	0.476923076923	1.715625	10.1454545455
1633	0.8165	12.14	1.93461538462	1.715625	11.5568181818
1634	0.817	-0.82	-0.980769230769	3.1625	11.5568181818
1635	0.8175	2.06	0.476923076923	20.525	8.73409090909
1636	0.818	2.06	1.93461538462	1.715625	7.32272727273
1637	0.8185	-0.82	-9.72692307692	0.26875	3.08863636364
1638	0.819	3.5	-9.72692307692	1.715625	4.5
1639	0.8195	17.9	0.476923076923	0.26875	-6.79090909091
1640	0.82	-0.82	0.476923076923	-1.178125	-8.20227272727
1641	0.8205	-0.82	3.39230769231	-11.30625	0.265909090909
1642	0.821	2.06	3.39230769231	-12.753125	-1.14545454545
1643	0.8215	0.62	19.4269230769	-1.178125	-1.14545454545
1644	0.822	-0.82	-2.43846153846	0.26875	-1.14545454545
1645	0.8225	-6.58	0.476923076923	-1.178125	-1.14545454545
1646	0.823	0.62	3.39230769231	0.26875	-1.14545454545
1647	0.8235	-2.26	3.39230769231	-6.965625	-3.96818181818
1648	0.824	-0.82	1.93461538462	-2.625	0.265909090909
1649	0.8245	2.06	1.93461538462	14.7375	-1.14545454545
1650	0.825	3.5	-6.81153846154	-1.178125	1.67727272727
1651	0.8255	2.06	4.85	1.715625	-2.55681818182
1652	0.826	17.9	1.93461538462	-1.178125	-9.61363636364
1653	0.8265	-3.7	0.476923076923	-2.625	1.67727272727
1654	0.827	-0.82	1.93461538462	-5.51875	0.265909090909
1655	0.8275	0.62	1.93461538462	-1.178125	1.67727272727
1656	0.828	-0.82	0.476923076923	0.26875	0.265909090909
1657	0.8285	-0.82	-6.81153846154	1.715625	4.5
1658	0.829	0.62	0.476923076923	-1.178125	4.5
1659	0.8295	-9.46	-2.43846153846	-1.178125	7.32272727273
1660	0.83	-0.82	0.476923076923	4.609375	7.32272727273
1661	0.8305	0.62	-2.43846153846	1.715625	11.5568181818
1662	0.831	-2.26	-9.72692307692	0.26875	11.5568181818
1663	0.8315	2.06	10.6807692308	-5.51875	12.9681818182
1664	0.832	-3.7	-3.89615384615	1.715625	11.5568181818
1665	0.8325	-0.82	0.476923076923	1.715625	8.73409090909
1666	0.833	-3.7	1.93461538462	3.1625	24.2590909091
1667	0.8335	-0.82	0.476923076923	1.715625	25.6704545455
1668	0.834	2.06	0.476923076923	-1.178125	8.73409090909
1669	0.8345	-0.82	-5.35384615385	0.26875	7.32272727273
1670	0.835	3.5	-6.81153846154	0.26875	3.08863636364
1671	0.8355	4.94	1.93461538462	1.715625	-1.14545454545
1672	0.836	15.02	0.476923076923	1.715625	0.265909090909
1673	0.8365	2.06	0.476923076923	-2.625	-6.79090909091
1674	0.837	-0.82	3.39230769231	11.84375	0.265909090909
1675	0.8375	0.62	-0.980769230769	-1.178125	0.265909090909
1676	0.838	-0.82	-11.1846153846	0.26875	-1.14545454545
1677	0.8385	4.94	0.476923076923	-1.178125	-2.55681818182
1678	0.839	12.14	0.476923076923	0.26875	0.265909090909
1679	0.8395	0.62	0.476923076923	-1.178125	0.265909090909
1680	0.84	3.5	0.476923076923	1.715625	-2.55681818182
1681	0.8405	-0.82	-0.980769230769	-4.071875	-1.14545454545
1682	0.841	2.06	0.476923076923	0.26875	-2.55681818182
1683	0.8415	-3.7	-6.81153846154	-2.625	0.265909090909
1684	0.842	0.62	-0.980769230769	-1.178125	-3.96818181818
1685	0.8425	20.78	1.93461538462	0.26875	-11.025
1686	0.843	-2.26	-0.980769230769	-2.625	-9.61363636364
1687	0.8435	0.62	0.476923076923	-6.965625	4.5
1688	0.844	-0.82	4.85	1.715625	5.91136363636
1689	0.8445	0.62	17.9692307692	0.26875	4.5
1690	0.845	-0.82	-3.89615384615	-4.071875	5.91136363636
1691	0.8455	-0.82	0.476923076923	0.26875	0.265909090909
1692	0.846	-5.14	4.85	0.26875	21.4363636364
1693	0.8465	-2.26	0.476923076923	-6.965625	11.5568181818
1694	0.847	-0.82	3.39230769231	-8.4125	14.3795454545
1695	0.8475	-0.82	19.4269230769	0.26875	14.3795454545
1696	0.848	-2.26	-9.72692307692	0.26875	14.3795454545
1697	0.8485	3.5	0.476923076923	1.715625	14.3795454545
1698	0.849	-0.82	0.476923076923	-1.178125	25.6704545455
1699	0.8495	0.62	-0.980769230769	-4.071875	12.9681818182
1700	0.85	0.62	3.39230769231	13.290625	7.32272727273
1701	0.8505	2.06	-9.72692307692	3.1625	15.7909090909
1702	0.851	3.5	0.476923076923	0.26875	14.3795454545
1703	0.8515	4.94	-0.980769230769	-1.178125	11.5568181818
1704	0.852	-0.82	0.476923076923	-1.178125	15.7909090909
1705	0.8525	2.06	1.93461538462	3.1625	8.73409090909
1706	0.853	0.62	0.476923076923	3.1625	20.025
1707	0.8535	-3.7	-8.26923076923	3.1625	12.9681818182
1708	0.854	0.62	9.22307692308	1.715625	8.73409090909
1709	0.8545	-0.82	-8.26923076923	1.715625	4.5
1710	0.855	0.62	0.476923076923	0.26875	-1.14545454545
1711	0.8555	-0.82	1.93461538462	-1.178125	14.3795454545
1712	0.856	-0.82	0.476923076923	-9.859375	-5.37954545455
1713	0.8565	-2.26	4.85	14.7375	-2.55681818182
1714	0.857	-0.82	-9.72692307692	1.715625	3.08863636364
1715	0.8575	0.62	-0.980769230769	0.26875	4.5
1716	0.858	-0.82	1.93461538462	1.715625	4.5
1717	0.8585	0.62	0.476923076923	-1.178125	1.67727272727
1718	0.859	-10.9	3.39230769231	-1.178125	14.3795454545
1719	0.8595	0.62	1.93461538462	7.503125	0.265909090909
1720	0.86	-0.82	-0.980769230769	13.290625	3.08863636364
1721	0.8605	0.62	-2.43846153846	0.26875	0.265909090909
1722	0.861	0.62	13.5961538462	0.26875	0.265909090909
1723	0.8615	-5.14	1.93461538462	-1.178125	0.265909090909
1724	0.862	-10.9	0.476923076923	-1.178125	-2.55681818182
1725	0.8625	-2.26	1.93461538462	-1.178125	-6.79090909091
1726	0.863	0.62	-2.43846153846	-9.859375	0.265909090909
1727	0.8635	-0.82	10.6807692308	1.715625	5.91136363636
1728	0.864	-0.82	-2.43846153846	0.26875	11.5568181818
1729	0.8645	-6.58	0.476923076923	1.715625	11.5568181818
1730	0.865	15.02	-2.43846153846	1.715625	17.2022727273
1731	0.8655	-0.82	0.476923076923	4.609375	14.3795454545
1732	0.866	-2.26	4.85	17.63125	17.2022727273
1733	0.8665	-0.82	1.93461538462	-6.965625	15.7909090909
1734	0.867	-3.7	-2.43846153846	-8.4125	20.025
1735	0.8675	-2.26	0.476923076923	3.1625	20.025
1736	0.868	-13.78	0.476923076923	3.1625	20.025
1737	0.8685	2.06	0.476923076923	0.26875	14.3795454545
1738	0.869	-8.02	0.476923076923	0.26875	15.7909090909
1739	0.8695	0.62	0.476923076923	13.290625	10.1454545455
1740	0.87	2.06	-0.980769230769	17.63125	7.32272727273
1741	0.8705	0.62	0.476923076923	1.715625	8.73409090909
1742	0.871	0.62	3.39230769231	1.715625	8.73409090909
1743	0.8715	17.9	0.476923076923	1.715625	-1.14545454545
1744	0.872	-0.82	0.476923076923	1.715625	0.265909090909
1745	0.8725	-0.82	-0.980769230769	0.26875	15.7909090909
1746	0.873	-2.26	4.85	-2.625	11.5568181818
1747	0.8735	-3.7	6.30769230769	0.26875	11.5568181818
1748	0.874	-3.7	9.22307692308	3.1625	11.5568181818
1749	0.8745	-0.82	9.22307692308	1.715625	11.5568181818
1750	0.875	-5.14	0.476923076923	-1.178125	5.91136363636
1751	0.8755	-0.82	3.39230769231	1.715625	0.265909090909
1752	0.876	-0.82	0.476923076923	-4.071875	3.08863636364
1753	0.8765	0.62	-0.980769230769	1.715625	8.73409090909
1754	0.877	0.62	-3.89615384615	0.26875	7.32272727273
1755	0.8775	-2.26	0.476923076923	-1.178125	8.73409090909
1756	0.878	-0.82	0.476923076923	0.26875	14.3795454545
1757	0.8785	-9.46	1.93461538462	1.715625	29.9045454545
1758	0.879	-0.82	1.93461538462	14.7375	15.7909090909
1759	0.8795	-0.82	1.93461538462	-1.178125	17.2022727273
1760	0.88	-2.26	-5.35384615385	0.26875	21.4363636364
1761	0.8805	-0.82	-6.81153846154	0.26875	20.025
1762	0.881	12.14	0.476923076923	3.1625	21.4363636364
1763	0.8815	-9.46	-0.980769230769	0.26875	34.1386363636
1764	0.882	-0.82	0.476923076923	-9.859375	21.4363636364
1765	0.8825	-2.26	3.39230769231	-5.51875	22.8477272727
1766	0.883	-0.82	6.30769230769	0.26875	21.4363636364
1767	0.8835	-2.26	-2.43846153846	1.715625	21.4363636364
1768	0.884	-10.9	0.476923076923	0.26875	18.6136363636
1769	0.8845	3.5	-0.980769230769	-2.625	15.7909090909
1770	0.885	-0.82	0.476923076923	1.715625	3.08863636364
1771	0.8855	-2.26	1.93461538462	-2.625	7.32272727273
1772	0.886	-0.82	0.476923076923	-5.51875	7.32272727273
1773	0.8865	0.62	19.4269230769	0.26875	0.265909090909
1774	0.887	3.5	-0.980769230769	3.1625	-1.14545454545
1775	0.8875	-10.9	-2.43846153846	-1.178125	1.67727272727
1776	0.888	-2.26	1.93461538462	0.26875	-5.37954545455
1777	0.8885	-2.26	0.476923076923	-8.4125	-1.14545454545
1778	0.889	-0.82	0.476923076923	-5.51875	-2.55681818182
1779	0.8895	-2.26	4.85	6.05625	-2.55681818182
1780	0.89	-3.7	0.476923076923	1.715625	-2.55681818182
1781	0.8905	-3.7	-6.81153846154	-1.178125	-1.14545454545
1782	0.891	16.46	-0.980769230769	-1.178125	-2.55681818182
1783	0.8915	2.06	3.39230769231	-2.625	15.7909090909
1784	0.892	0.62	1.93461538462	-6.965625	0.265909090909
1785	0.8925	2.06	6.30769230769	0.26875	-1.14545454545
1786	0.893	0.62	3.39230769231	0.26875	-1.14545454545
1787	0.8935	-10.9	-0.980769230769	1.715625	1.67727272727
1788	0.894	7.82	0.476923076923	-1.178125	-2.55681818182
1789	0.8945	-0.82	0.476923076923	-1.178125	-6.79090909091
1790	0.895	0.62	-0.980769230769	-8.4125	1.67727272727
1791	0.8955	0.62	4.85	4.609375	0.265909090909
1792	0.896	2.06	0.476923076923	3.1625	7.32272727273
1793	0.8965	-2.26	-6.81153846154	3.1625	8.73409090909
1794	0.897	17.9	0.476923076923	1.715625	7.32272727273
1795	0.8975	-0.82	-0.980769230769	-1.178125	18.6136363636
1796	0.898	-0.82	0.476923076923	3.1625	29.9045454545
1797	0.8985	-2.26	-2.43846153846	0.26875	17.2022727273
1798	0.899	-0.82	-9.72692307692	1.715625	20.025
1799	0.8995	2.06	-0.980769230769	-1.178125	18.6136363636
1800	0.9	7.82	0.476923076923	1.715625	17.2022727273
1801	0.9005	-0.82	1.93461538462	4.609375	28.4931818182
1802	0.901	0.62	0.476923076923	-1.178125	20.025
1803	0.9015	0.62	3.39230769231	1.715625	5.91136363636
1804	0.902	4.94	0.476923076923	-2.625	15.7909090909
1805	0.9025	2.06	16.5115384615	4.609375	15.7909090909
1806	0.903	-0.82	17.9692307692	0.26875	17.2022727273
1807	0.9035	-8.02	0.476923076923	1.715625	12.9681818182
1808	0.904	-0.82	3.39230769231	4.609375	0.265909090909
1809	0.9045	-0.82	1.93461538462	3.1625	-1.14545454545
1810	0.905	0.62	0.476923076923	-6.965625	3.08863636364
1811	0.9055	0.62	4.85	-1.178125	3.08863636364
1812	0.906	-3.7	-0.980769230769	3.1625	4.5
1813	0.9065	-13.78	0.476923076923	3.1625	12.9681818182
1814	0.907	0.62	0.476923076923	3.1625	11.5568181818
1815	0.9075	0.62	0.476923076923	7.503125	8.73409090909
1816	0.908	0.62	1.93461538462	-4.071875	5.91136363636
1817	0.9085	3.5	0.476923076923	1.715625	5.91136363636
1818	0.909	0.62	16.5115384615	0.26875	7.32272727273
1819	0.9095	-2.26	0.476923076923	0.26875	8.73409090909
1820	0.91	-13.78	-0.980769230769	3.1625	8.73409090909
1821	0.9105	-0.82	0.476923076923	3.1625	4.5
1822	0.911	-0.82	4.85	4.609375	8.73409090909
1823	0.9115	-3.7	3.39230769231	-4.071875	8.73409090909
1824	0.912	-0.82	1.93461538462	-2.625	11.5568181818
1825	0.9125	-2.26	-5.35384615385	-2.625	14.3795454545
1826	0.913	-3.7	-2.43846153846	1.715625	15.7909090909
1827	0.9135	0.62	-0.980769230769	-2.625	31.3159090909
1828	0.914	-0.82	1.93461538462	-8.4125	20.025
1829	0.9145	-0.82	0.476923076923	-5.51875	20.025
1830	0.915	0.62	6.30769230769	1.715625	20.025
1831	0.9155	-0.82	15.0538461538	1.715625	18.6136363636
1832	0.916	-9.46	3.39230769231	3.1625	21.4363636364
1833	0.9165	9.26	-0.980769230769	1.715625	20.025
1834	0.917	-8.02	-0.980769230769	1.715625	20.025
1835	0.9175	2.06	1.93461538462	3.1625	7.32272727273
1836	0.918	-0.82	0.476923076923	-4.071875	15.7909090909
1837	0.9185	-0.82	-9.72692307692	3.1625	12.9681818182
1838	0.919	3.5	0.476923076923	4.609375	11.5568181818
1839	0.9195	-12.34	-0.980769230769	3.1625	11.5568181818
1840	0.92	-5.14	0.476923076923	3.1625	7.32272727273
1841	0.9205	-0.82	0.476923076923	4.609375	-6.79090909091
1842	0.921	0.62	-0.980769230769	-1.178125	3.08863636364
1843	0.9215	0.62	-6.81153846154	0.26875	1.67727272727
1844	0.922	3.5	4.85	-1.178125	4.5
1845	0.9225	0.62	1.93461538462	-1.178125	3.08863636364
1846	0.923	-5.14	-0.980769230769	-1.178125	5.91136363636
1847	0.9235	-0.82	1.93461538462	-4.071875	1.67727272727
1848	0.924	-0.82	3.39230769231	-1.178125	-1.14545454545
1849	0.9245	2.06	0.476923076923	-5.51875	4.5
1850	0.925	0.62	-0.980769230769	1.715625	4.5
1851	0.9255	0.62	-5.35384615385	3.1625	3.08863636364
1852	0.926	9.26	0.476923076923	0.26875	1.67727272727
1853	0.9265	-8.02	0.476923076923	1.715625	-1.14545454545
1854	0.927	2.06	0.476923076923	0.26875	14.3795454545
1855	0.9275	-0.82	1.93461538462	14.7375	0.265909090909
1856	0.928	-0.82	-2.43846153846	-1.178125	1.67727272727
1857	0.9285	-2.26	13.5961538462	-1.178125	3.08863636364
1858	0.929	-8.02	0.476923076923	0.26875	5.91136363636
1859	0.9295	-12.34	-0.980769230769	0.26875	22.8477272727
1860	0.93	-2.26	-0.980769230769	-11.30625	11.5568181818
1861	0.9305	-0.82	-2.43846153846	-6.965625	12.9681818182
1862	0.931	0.62	4.85	0.26875	12.9681818182
1863	0.9315	0.62	-0.980769230769	3.1625	11.5568181818
1864	0.932	0.62	7.76538461538	3.1625	14.3795454545
1865	0.9325	4.94	-0.980769230769	1.715625	8.73409090909
1866	0.933	-5.14	0.476923076923	3.1625	25.6704545455
1867	0.9335	-0.82	3.39230769231	6.05625	17.2022727273
1868	0.934	3.5	3.39230769231	0.26875	17.2022727273
1869	0.9345	-0.82	-8.26923076923	-1.178125	15.7909090909
1870	0.935	2.06	0.476923076923	3.1625	15.7909090909
1871	0.9355	6.38	-0.980769230769	1.715625	7.32272727273
1872	0.936	-6.58	1.93461538462	4.609375	22.8477272727
1873	0.9365	0.62	1.93461538462	0.26875	11.5568181818
1874	0.937	2.06	1.93461538462	4.609375	8.73409090909
1875	0.9375	0.62	-9.72692307692	-1.178125	7.32272727273
1876	0.938	2.06	-6.81153846154	1.715625	4.5
1877	0.9385	4.94	0.476923076923	1.715625	4.5
1878	0.939	-8.02	1.93461538462	-1.178125	20.025
1879	0.9395	0.62	0.476923076923	4.609375	14.3795454545
1880	0.94	0.62	1.93461538462	4.609375	0.265909090909
1881	0.9405	0.62	3.39230769231	7.503125	4.5
1882	0.941	0.62	6.30769230769	3.1625	4.5
1883	0.9415	-0.82	1.93461538462	1.715625	3.08863636364
1884	0.942	-0.82	0.476923076923	1.715625	4.5
1885	0.9425	2.06	0.476923076923	-1.178125	-2.55681818182
1886	0.943	2.06	0.476923076923	-1.178125	22.8477272727
1887	0.9435	-5.14	1.93461538462	16.184375	3.08863636364
1888	0.944	0.62	3.39230769231	0.26875	7.32272727273
1889	0.9445	-0.82	-6.81153846154	0.26875	7.32272727273
1890	0.945	-3.7	0.476923076923	3.1625	12.9681818182
1891	0.9455	7.82	0.476923076923	4.609375	14.3795454545
1892	0.946	0.62	-0.980769230769	4.609375	11.5568181818
1893	0.9465	-3.7	1.93461538462	-4.071875	12.9681818182
1894	0.947	0.62	4.85	-1.178125	14.3795454545
1895	0.9475	-3.7	-3.89615384615	1.715625	18.6136363636
1896	0.948	0.62	-9.72692307692	1.715625	17.2022727273
1897	0.9485	17.9	-0.980769230769	3.1625	5.91136363636
1898	0.949	-2.26	0.476923076923	1.715625	24.2590909091
1899	0.9495	-3.7	0.476923076923	19.078125	22.8477272727
1900	0.95	-0.82	-2.43846153846	21.971875	20.025
1901	0.9505	2.06	-9.72692307692	6.05625	15.7909090909
1902	0.951	3.5	0.476923076923	4.609375	15.7909090909
1903	0.9515	-10.9	0.476923076923	3.1625	18.6136363636
1904	0.952	-8.02	0.476923076923	3.1625	21.4363636364
1905	0.9525	-0.82	0.476923076923	16.184375	20.025
1906	0.953	0.62	3.39230769231	19.078125	15.7909090909
1907	0.9535	0.62	-5.35384615385	0.26875	11.5568181818
1908	0.954	2.06	17.9692307692	1.715625	12.9681818182
1909	0.9545	-0.82	0.476923076923	1.715625	12.9681818182
1910	0.955	12.14	4.85	1.715625	8.73409090909
1911	0.9555	2.06	0.476923076923	1.715625	1.67727272727
1912	0.956	2.06	-0.980769230769	-2.625	8.73409090909
1913	0.9565	0.62	0.476923076923	-1.178125	7.32272727273
1914	0.957	0.62	-8.26923076923	1.715625	7.32272727273
1915	0.9575	0.62	1.93461538462	-1.178125	7.32272727273
1916	0.958	19.34	-0.980769230769	0.26875	4.5
1917	0.9585	2.06	0.476923076923	1.715625	-3.96818181818
1918	0.959	-2.26	-0.980769230769	-6.965625	5.91136363636
1919	0.9595	-2.26	1.93461538462	3.1625	4.5
1920	0.96	0.62	10.6807692308	0.26875	3.08863636364
1921	0.9605	-0.82	1.93461538462	1.715625	4.5
1922	0.961	3.5	1.93461538462	0.26875	4.5
1923	0.9615	7.82	0.476923076923	-1.178125	-1.14545454545
1924	0.962	-2.26	0.476923076923	-8.4125	4.5
1925	0.9625	-0.82	1.93461538462	-8.4125	0.265909090909
1926	0.963	0.62	4.85	3.1625	3.08863636364
1927	0.9635	0.62	16.5115384615	-1.178125	5.91136363636
1928	0.964	-12.34	-0.980769230769	0.26875	8.73409090909
1929	0.9645	16.46	-0.980769230769	-1.178125	11.5568181818
1930	0.965	-2.26	-0.980769230769	-2.625	1.67727272727
1931	0.9655	0.62	0.476923076923	4.609375	7.32272727273
1932	0.966	0.62	-0.980769230769	0.26875	8.73409090909
1933	0.9665	-0.82	1.93461538462	-5.51875	4.5
1934	0.967	2.06	0.476923076923	1.715625	3.08863636364
1935	0.9675	-8.02	1.93461538462	3.1625	3.08863636364
1936	0.968	19.34	0.476923076923	1.715625	-6.79090909091
1937	0.9685	0.62	0.476923076923	1.715625	-13.8477272727
1938	0.969	2.06	4.85	-6.965625	-6.79090909091
1939	0.9695	0.62	3.39230769231	-2.625	-6.79090909091
1940	0.97	-0.82	17.9692307692	3.1625	-11.025
1941	0.9705	7.82	-0.980769230769	1.715625	-11.025
1942	0.971	15.02	-0.980769230769	-1.178125	-11.025
1943	0.9715	-0.82	0.476923076923	1.715625	-11.025
1944	0.972	0.62	0.476923076923	3.1625	-8.20227272727
1945	0.9725	2.06	0.476923076923	1.715625	-8.20227272727
1946	0.973	0.62	-9.72692307692	3.1625	-5.37954545455
1947	0.9735	3.5	-3.89615384615	-2.625	-5.37954545455
1948	0.974	-6.58	-3.89615384615	0.26875	-6.79090909091
1949	0.9745	7.82	0.476923076923	3.1625	-9.61363636364
1950	0.975	0.62	0.476923076923	3.1625	-11.025
1951	0.9755	-3.7	-0.980769230769	-5.51875	-2.55681818182
1952	0.976	0.62	1.93461538462	0.26875	-2.55681818182
1953	0.9765	3.5	3.39230769231	-1.178125	-2.55681818182
1954	0.977	-0.82	3.39230769231	0.26875	-1.14545454545
1955	0.9775	-9.46	3.39230769231	1.715625	1.67727272727
1956	0.978	-9.46	0.476923076923	0.26875	0.265909090909
1957	0.9785	-0.82	3.39230769231	-2.625	-1.14545454545
1958	0.979	0.62	1.93461538462	-12.753125	3.08863636364
1959	0.9795	-3.7	-12.6423076923	-4.071875	5.91136363636
1960	0.98	0.62	-6.81153846154	-2.625	12.9681818182
1961	0.9805	0.62	4.85	-1.178125	15.7909090909
1962	0.981	-0.82	1.93461538462	-1.178125	18.6136363636
1963	0.9815	-0.82	-0.980769230769	0.26875	15.7909090909
1964	0.982	-3.7	0.476923076923	1.715625	28.4931818182
1965	0.9825	2.06	3.39230769231	6.05625	15.7909090909
1966	0.983	-3.7	13.5961538462	0.26875	14.3795454545
1967	0.9835	0.62	-2.43846153846	0.26875	14.3795454545
1968	0.984	16.46	-0.980769230769	1.715625	4.5
1969	0.9845	-2.26	0.476923076923	-1.178125	14.3795454545
1970	0.985	0.62	1.93461538462	3.1625	14.3795454545
1971	0.9855	0.62	1.93461538462	-1.178125	7.32272727273
1972	0.986	2.06	0.476923076923	3.1625	4.5
1973	0.9865	2.06	13.5961538462	0.26875	4.5
1974	0.987	0.62	1.93461538462	3.1625	4.5
1975	0.9875	10.7	1.93461538462	4.609375	3.08863636364
1976	0.988	-0.82	0.476923076923	3.1625	-1.14545454545
1977	0.9885	2.06	0.476923076923	3.1625	12.9681818182
1978	0.989	-0.82	-3.89615384615	1.715625	3.08863636364
1979	0.9895	0.62	-2.43846153846	-1.178125	1.67727272727
1980	0.99	0.62	-6.81153846154	0.26875	1.67727272727
1981	0.9905	13.58	0.476923076923	-1.178125	1.67727272727
1982	0.991	-9.46	0.476923076923	-1.178125	3.08863636364
1983	0.9915	0.62	0.476923076923	-1.178125	15.7909090909
1984	0.992	0.62	1.93461538462	0.26875	0.265909090909
1985	0.9925	0.62	-0.980769230769	0.26875	-1.14545454545
1986	0.993	0.62	-5.35384615385	0.26875	-5.37954545455
1987	0.9935	-5.14	0.476923076923	0.26875	-3.96818181818
1988	0.994	-6.58	3.39230769231	-1.178125	-5.37954545455
1989	0.9945	0.62	1.93461538462	0.26875	-9.61363636364
1990	0.995	-0.82	1.93461538462	-4.071875	-1.14545454545
1991	0.9955	-2.26	-2.43846153846	0.26875	-1.14545454545
1992	0.996	-0.82	4.85	1.715625	-1.14545454545
1993	0.9965	-8.02	0.476923076923	-1.178125	1.67727272727
1994	0.997	-3.7	0.476923076923	1.715625	0.265909090909
1995	0.9975	-0.82	1.93461538462	1.715625	1.67727272727
1996	0.998	-0.82	1.93461538462	-4.071875	4.5
1997	0.9985	-3.7	4.85	0.26875	4.5
1998	0.999	0.62	-9.72692307692	-2.625	7.32272727273
1999	0.9995	3.5	0.476923076923	3.1625	7.32272727273
2000	1.0	-9.46	1.93461538462	3.1625	11.5568181818
2001	1.0005	0.62	0.476923076923	4.609375	11.5568181818
2002	1.001	0.62	-2.43846153846	11.84375	4.5
2003	1.0015	0.62	1.93461538462	16.184375	-1.14545454545
2004	1.002	2.06	-9.72692307692	6.05625	-1.14545454545
2005	1.0025	0.62	15.0538461538	3.1625	-1.14545454545
2006	1.003	-10.9	1.93461538462	3.1625	-1.14545454545
2007	1.0035	-5.14	0.476923076923	3.1625	-1.14545454545
2008	1.004	0.62	3.39230769231	3.1625	-8.20227272727
2009	1.0045	-3.7	0.476923076923	3.1625	-5.37954545455
2010	1.005	-2.26	4.85	4.609375	-8.20227272727
2011	1.0055	0.62	9.22307692308	0.26875	-2.55681818182
2012	1.006	-5.14	1.93461538462	1.715625	-2.55681818182
2013	1.0065	-0.82	1.93461538462	3.1625	-1.14545454545
2014	1.007	-6.58	0.476923076923	0.26875	-1.14545454545
2015	1.0075	-2.26	0.476923076923	3.1625	-11.025
2016	1.008	-0.82	3.39230769231	-5.51875	0.265909090909
2017	1.0085	0.62	4.85	-6.965625	4.5
2018	1.009	0.62	1.93461538462	3.1625	3.08863636364
2019	1.0095	-8.02	0.476923076923	0.26875	4.5
2020	1.01	-8.02	3.39230769231	0.26875	15.7909090909
2021	1.0105	2.06	4.85	1.715625	-6.79090909091
2022	1.011	2.06	3.39230769231	-8.4125	5.91136363636
2023	1.0115	-2.26	1.93461538462	4.609375	7.32272727273
2024	1.012	-0.82	7.76538461538	1.715625	8.73409090909
2025	1.0125	0.62	7.76538461538	1.715625	12.9681818182
2026	1.013	-5.14	0.476923076923	3.1625	14.3795454545
2027	1.0135	-6.58	0.476923076923	0.26875	11.5568181818
2028	1.014	-3.7	0.476923076923	-4.071875	15.7909090909
2029	1.0145	0.62	0.476923076923	-6.965625	17.2022727273
2030	1.015	0.62	0.476923076923	-5.51875	21.4363636364
2031	1.0155	-0.82	-0.980769230769	1.715625	20.025
2032	1.016	-5.14	0.476923076923	1.715625	20.025
2033	1.0165	17.9	0.476923076923	4.609375	18.6136363636
2034	1.017	0.62	1.93461538462	4.609375	31.3159090909
2035	1.0175	2.06	0.476923076923	13.290625	21.4363636364
2036	1.018	0.62	3.39230769231	8.95	21.4363636364
2037	1.0185	0.62	-2.43846153846	3.1625	17.2022727273
2038	1.019	-12.34	1.93461538462	3.1625	18.6136363636
2039	1.0195	13.58	0.476923076923	1.715625	14.3795454545
2040	1.02	0.62	0.476923076923	-4.071875	7.32272727273
2041	1.0205	-0.82	3.39230769231	7.503125	5.91136363636
2042	1.021	-3.7	0.476923076923	-1.178125	12.9681818182
2043	1.0215	0.62	10.6807692308	1.715625	8.73409090909
2044	1.022	-2.26	1.93461538462	3.1625	11.5568181818
2045	1.0225	-8.02	3.39230769231	1.715625	11.5568181818
2046	1.023	-10.9	3.39230769231	3.1625	4.5
2047	1.0235	-0.82	0.476923076923	-6.965625	7.32272727273
2048	1.024	-0.82	1.93461538462	-6.965625	4.5
2049	1.0245	0.62	3.39230769231	-6.965625	4.5
2050	1.025	-5.14	-8.26923076923	3.1625	5.91136363636
2051	1.0255	-2.26	1.93461538462	1.715625	3.08863636364
2052	1.026	10.7	1.93461538462	1.715625	5.91136363636
2053	1.0265	-0.82	0.476923076923	3.1625	-1.14545454545
2054	1.027	-0.82	0.476923076923	3.1625	-1.14545454545
2055	1.0275	-3.7	0.476923076923	-1.178125	4.5
2056	1.028	-0.82	0.476923076923	-1.178125	5.91136363636
2057	1.0285	3.5	0.476923076923	1.715625	4.5
2058	1.029	17.9	1.93461538462	0.26875	14.3795454545
2059	1.0295	-0.82	-0.980769230769	3.1625	5.91136363636
2060	1.03	-0.82	0.476923076923	16.184375	8.73409090909
2061	1.0305	0.62	4.85	-1.178125	8.73409090909
2062	1.031	2.06	16.5115384615	3.1625	11.5568181818
2063	1.0315	-13.78	0.476923076923	4.609375	12.9681818182
2064	1.032	10.7	1.93461538462	4.609375	7.32272727273
2065	1.0325	-3.7	1.93461538462	0.26875	15.7909090909
2066	1.033	-0.82	1.93461538462	1.715625	18.6136363636
2067	1.0335	-0.82	4.85	0.26875	22.8477272727
2068	1.034	0.62	-2.43846153846	-2.625	20.025
2069	1.0345	0.62	1.93461538462	3.1625	21.4363636364
2070	1.035	0.62	3.39230769231	1.715625	20.025
2071	1.0355	15.02	0.476923076923	1.715625	14.3795454545
2072	1.036	0.62	3.39230769231	1.715625	1.67727272727
2073	1.0365	0.62	1.93461538462	-11.30625	8.73409090909
2074	1.037	-0.82	6.30769230769	-1.178125	8.73409090909
2075	1.0375	0.62	-9.72692307692	3.1625	4.5
2076	1.038	2.06	0.476923076923	3.1625	4.5
2077	1.0385	12.14	1.93461538462	-1.178125	5.91136363636
2078	1.039	7.82	-0.980769230769	1.715625	1.67727272727
2079	1.0395	-0.82	1.93461538462	7.503125	3.08863636364
2080	1.04	-2.26	1.93461538462	3.1625	1.67727272727
2081	1.0405	0.62	-2.43846153846	0.26875	-1.14545454545
2082	1.041	2.06	-5.35384615385	-1.178125	0.265909090909
2083	1.0415	-0.82	1.93461538462	-1.178125	1.67727272727
2084	1.042	16.46	1.93461538462	-1.178125	-1.14545454545
2085	1.0425	-2.26	1.93461538462	-14.2	3.08863636364
2086	1.043	0.62	0.476923076923	-5.51875	1.67727272727
2087	1.0435	-0.82	4.85	-5.51875	-1.14545454545
2088	1.044	-2.26	-9.72692307692	-4.071875	-1.14545454545
2089	1.0445	0.62	0.476923076923	-1.178125	0.265909090909
2090	1.045	-3.7	0.476923076923	-1.178125	5.91136363636
2091	1.0455	16.46	0.476923076923	-2.625	3.08863636364
2092	1.046	-0.82	0.476923076923	-12.753125	5.91136363636
2093	1.0465	-0.82	-0.980769230769	-6.965625	4.5
2094	1.047	0.62	3.39230769231	-2.625	12.9681818182
2095	1.0475	-0.82	13.5961538462	1.715625	17.2022727273
2096	1.048	-6.58	1.93461538462	3.1625	18.6136363636
2097	1.0485	7.82	-0.980769230769	0.26875	18.6136363636
2098	1.049	-3.7	1.93461538462	0.26875	27.0818181818
2099	1.0495	-0.82	0.476923076923	1.715625	17.2022727273
2100	1.05	-0.82	-0.980769230769	1.715625	18.6136363636
2101	1.0505	0.62	-8.26923076923	3.1625	14.3795454545
2102	1.051	3.5	19.4269230769	0.26875	8.73409090909
2103	1.0515	-9.46	1.93461538462	0.26875	12.9681818182
2104	1.052	-8.02	1.93461538462	1.715625	4.5
2105	1.0525	0.62	1.93461538462	-2.625	-3.96818181818
2106	1.053	0.62	-0.980769230769	-8.4125	3.08863636364
2107	1.0535	0.62	4.85	0.26875	3.08863636364
2108	1.054	0.62	-3.89615384615	-1.178125	1.67727272727
2109	1.0545	0.62	1.93461538462	-1.178125	-1.14545454545
2110	1.055	19.34	3.39230769231	-1.178125	0.265909090909
2111	1.0555	-10.9	-0.980769230769	1.715625	1.67727272727
2112	1.056	-0.82	3.39230769231	19.078125	-1.14545454545
2113	1.0565	0.62	1.93461538462	20.525	-3.96818181818
2114	1.057	0.62	-8.26923076923	1.715625	-3.96818181818
2115	1.0575	2.06	-6.81153846154	1.715625	-1.14545454545
2116	1.058	20.78	0.476923076923	0.26875	-2.55681818182
2117	1.0585	-10.9	1.93461538462	-1.178125	-1.14545454545
2118	1.059	-2.26	0.476923076923	4.609375	7.32272727273
2119	1.0595	0.62	0.476923076923	3.1625	-5.37954545455
2120	1.06	0.62	6.30769230769	-2.625	-6.79090909091
2121	1.0605	-2.26	17.9692307692	0.26875	-3.96818181818
2122	1.061	2.06	-5.35384615385	-1.178125	-2.55681818182
2123	1.0615	16.46	1.93461538462	-2.625	-1.14545454545
2124	1.062	-3.7	1.93461538462	-5.51875	1.67727272727
2125	1.0625	0.62	1.93461538462	1.715625	4.5
2126	1.063	-0.82	-0.980769230769	3.1625	5.91136363636
2127	1.0635	2.06	0.476923076923	3.1625	7.32272727273
2128	1.064	0.62	-6.81153846154	1.715625	8.73409090909
2129	1.0645	0.62	0.476923076923	0.26875	8.73409090909
2130	1.065	-8.02	-0.980769230769	0.26875	25.6704545455
2131	1.0655	-0.82	0.476923076923	0.26875	3.08863636364
2132	1.066	0.62	1.93461538462	-4.071875	7.32272727273
2133	1.0665	0.62	-3.89615384615	1.715625	5.91136363636
2134	1.067	0.62	7.76538461538	0.26875	4.5
2135	1.0675	2.06	-5.35384615385	4.609375	-2.55681818182
2136	1.068	3.5	1.93461538462	1.715625	-3.96818181818
2137	1.0685	-3.7	0.476923076923	1.715625	-11.025
2138	1.069	-2.26	3.39230769231	-4.071875	-15.2590909091
2139	1.0695	-0.82	1.93461538462	-1.178125	-11.025
2140	1.07	0.62	-9.72692307692	-2.625	-13.8477272727
2141	1.0705	0.62	1.93461538462	1.715625	-15.2590909091
2142	1.071	-8.02	0.476923076923	0.26875	-11.025
2143	1.0715	-9.46	1.93461538462	3.1625	-12.4363636364
2144	1.072	-0.82	1.93461538462	-1.178125	1.67727272727
2145	1.0725	-2.26	1.93461538462	16.184375	-12.4363636364
2146	1.073	-0.82	3.39230769231	-1.178125	-12.4363636364
2147	1.0735	0.62	-3.89615384615	-1.178125	-8.20227272727
2148	1.074	0.62	1.93461538462	-1.178125	-9.61363636364
2149	1.0745	-8.02	3.39230769231	0.26875	-11.025
2150	1.075	-0.82	0.476923076923	0.26875	-18.0818181818
2151	1.0755	2.06	1.93461538462	-6.965625	-5.37954545455
2152	1.076	0.62	0.476923076923	1.715625	-6.79090909091
2153	1.0765	0.62	3.39230769231	-1.178125	-5.37954545455
2154	1.077	-8.02	1.93461538462	0.26875	-8.20227272727
2155	1.0775	10.7	0.476923076923	-1.178125	-9.61363636364
2156	1.078	-3.7	1.93461538462	0.26875	-3.96818181818
2157	1.0785	-0.82	0.476923076923	14.7375	-2.55681818182
2158	1.079	-2.26	0.476923076923	-4.071875	-1.14545454545
2159	1.0795	-0.82	-12.6423076923	1.715625	4.5
2160	1.08	2.06	0.476923076923	1.715625	7.32272727273
2161	1.0805	-10.9	0.476923076923	0.26875	7.32272727273
2162	1.081	-8.02	3.39230769231	3.1625	8.73409090909
2163	1.0815	-2.26	0.476923076923	4.609375	-1.14545454545
2164	1.082	-0.82	-0.980769230769	-8.4125	8.73409090909
2165	1.0825	0.62	1.93461538462	-4.071875	8.73409090909
2166	1.083	0.62	0.476923076923	0.26875	11.5568181818
2167	1.0835	-12.34	0.476923076923	3.1625	5.91136363636
2168	1.084	19.34	1.93461538462	0.26875	4.5
2169	1.0845	0.62	0.476923076923	-9.859375	1.67727272727
2170	1.085	0.62	0.476923076923	-2.625	-1.14545454545
2171	1.0855	-2.26	4.85	0.26875	-2.55681818182
2172	1.086	0.62	13.5961538462	0.26875	-3.96818181818
2173	1.0865	-12.34	0.476923076923	3.1625	-6.79090909091
2174	1.087	17.9	1.93461538462	0.26875	-8.20227272727
2175	1.0875	-0.82	0.476923076923	0.26875	-16.6704545455
2176	1.088	-3.7	1.93461538462	-5.51875	-8.20227272727
2177	1.0885	-2.26	4.85	0.26875	-13.8477272727
2178	1.089	0.62	12.1384615385	1.715625	-16.6704545455
2179	1.0895	-0.82	6.30769230769	-1.178125	-13.8477272727
2180	1.09	0.62	3.39230769231	1.715625	-15.2590909091
2181	1.0905	-8.02	0.476923076923	-1.178125	-1.14545454545
2182	1.091	0.62	3.39230769231	4.609375	1.67727272727
2183	1.0915	-2.26	0.476923076923	4.609375	-12.4363636364
2184	1.092	-0.82	-11.1846153846	-1.178125	-12.4363636364
2185	1.0925	0.62	-2.43846153846	-2.625	-11.025
2186	1.093	3.5	1.93461538462	0.26875	-11.025
2187	1.0935	12.14	0.476923076923	-1.178125	-6.79090909091
2188	1.094	-2.26	0.476923076923	0.26875	-15.2590909091
2189	1.0945	-0.82	0.476923076923	-8.4125	-3.96818181818
2190	1.095	-2.26	3.39230769231	1.715625	-6.79090909091
2191	1.0955	-2.26	1.93461538462	-4.071875	-5.37954545455
2192	1.096	-0.82	9.22307692308	1.715625	-1.14545454545
2193	1.0965	0.62	0.476923076923	-2.625	0.265909090909
2194	1.097	13.58	0.476923076923	-1.178125	3.08863636364
2195	1.0975	0.62	0.476923076923	-4.071875	5.91136363636
2196	1.098	0.62	0.476923076923	-6.965625	8.73409090909
2197	1.0985	3.5	-2.43846153846	-1.178125	7.32272727273
2198	1.099	0.62	13.5961538462	-1.178125	5.91136363636
2199	1.0995	-3.7	1.93461538462	-1.178125	7.32272727273
2200	1.1	17.9	-0.980769230769	0.26875	-3.96818181818
2201	1.1005	0.62	-2.43846153846	-1.178125	-8.20227272727
2202	1.101	-0.82	-0.980769230769	-1.178125	20.025
2203	1.1015	-0.82	-0.980769230769	17.63125	0.265909090909
2204	1.102	0.62	-9.72692307692	3.1625	0.265909090909
2205	1.1025	-0.82	17.9692307692	-1.178125	0.265909090909
2206	1.103	-6.58	1.93461538462	-1.178125	0.265909090909
2207	1.1035	-10.9	0.476923076923	-1.178125	0.265909090909
2208	1.104	0.62	1.93461538462	-9.859375	-2.55681818182
2209	1.1045	-0.82	3.39230769231	-8.4125	-5.37954545455
2210	1.105	-0.82	0.476923076923	-8.4125	-3.96818181818
2211	1.1055	-2.26	1.93461538462	0.26875	-3.96818181818
2212	1.106	-8.02	0.476923076923	-1.178125	-3.96818181818
2213	1.1065	17.9	1.93461538462	0.26875	-8.20227272727
2214	1.107	-0.82	-2.43846153846	-2.625	8.73409090909
2215	1.1075	0.62	0.476923076923	14.7375	-9.61363636364
2216	1.108	0.62	0.476923076923	-1.178125	-8.20227272727
2217	1.1085	2.06	20.8846153846	0.26875	-8.20227272727
2218	1.109	-8.02	0.476923076923	-2.625	-6.79090909091
2219	1.1095	15.02	0.476923076923	0.26875	-6.79090909091
2220	1.11	-0.82	1.93461538462	-1.178125	-11.025
2221	1.1105	0.62	4.85	-9.859375	-5.37954545455
2222	1.111	-0.82	3.39230769231	-12.753125	-3.96818181818
2223	1.1115	-0.82	17.9692307692	-1.178125	-3.96818181818
2224	1.112	-2.26	3.39230769231	0.26875	-1.14545454545
2225	1.1125	-13.78	0.476923076923	0.26875	3.08863636364
2226	1.113	-0.82	-0.980769230769	1.715625	-3.96818181818
2227	1.1135	-0.82	1.93461538462	0.26875	22.8477272727
2228	1.114	-2.26	1.93461538462	19.078125	5.91136363636
2229	1.1145	-0.82	-0.980769230769	1.715625	4.5
2230	1.115	0.62	-9.72692307692	1.715625	8.73409090909
2231	1.1155	0.62	0.476923076923	1.715625	7.32272727273
2232	1.116	-9.46	-0.980769230769	4.609375	21.4363636364
2233	1.1165	-2.26	1.93461538462	4.609375	1.67727272727
2234	1.117	2.06	1.93461538462	6.05625	-5.37954545455
2235	1.1175	-2.26	4.85	-4.071875	0.265909090909
2236	1.118	-0.82	4.85	1.715625	-2.55681818182
2237	1.1185	-0.82	-0.980769230769	0.26875	-3.96818181818
2238	1.119	15.02	1.93461538462	1.715625	-3.96818181818
2239	1.1195	-5.14	0.476923076923	1.715625	-8.20227272727
2240	1.12	0.62	1.93461538462	1.715625	0.265909090909
2241	1.1205	-0.82	4.85	0.26875	-8.20227272727
2242	1.121	-0.82	6.30769230769	3.1625	-9.61363636364
2243	1.1215	-0.82	6.30769230769	0.26875	-9.61363636364
2244	1.122	4.94	1.93461538462	1.715625	-11.025
2245	1.1225	-8.02	1.93461538462	6.05625	-8.20227272727
2246	1.123	0.62	1.93461538462	4.609375	-12.4363636364
2247	1.1235	0.62	3.39230769231	-4.071875	-5.37954545455
2248	1.124	-0.82	-0.980769230769	3.1625	-6.79090909091
2249	1.1245	-2.26	9.22307692308	1.715625	-3.96818181818
2250	1.125	2.06	-6.81153846154	0.26875	-2.55681818182
2251	1.1255	10.7	1.93461538462	3.1625	-5.37954545455
2252	1.126	-0.82	0.476923076923	-1.178125	-11.025
2253	1.1265	-3.7	0.476923076923	-1.178125	7.32272727273
2254	1.127	-0.82	1.93461538462	11.84375	-6.79090909091
2255	1.1275	-2.26	0.476923076923	-1.178125	-1.14545454545
2256	1.128	-0.82	-5.35384615385	1.715625	1.67727272727
2257	1.1285	-3.7	3.39230769231	3.1625	-8.20227272727
2258	1.129	-6.58	0.476923076923	3.1625	1.67727272727
2259	1.1295	-3.7	0.476923076923	8.95	3.08863636364
2260	1.13	-3.7	-0.980769230769	-1.178125	5.91136363636
2261	1.1305	-0.82	13.5961538462	0.26875	5.91136363636
2262	1.131	-0.82	-2.43846153846	-1.178125	7.32272727273
2263	1.1315	-3.7	0.476923076923	0.26875	4.5
2264	1.132	-9.46	-2.43846153846	0.26875	7.32272727273
2265	1.1325	0.62	0.476923076923	3.1625	1.67727272727
2266	1.133	-0.82	0.476923076923	-4.071875	-2.55681818182
