	Time	Channel 1	Channel 2	Channel 3	Channel 4
0	0.0	-4600.4	-349.626984127	-351.126984127	-350.856626506
1	0.0005	-4576.4	-349.626984127	-305.463492063	-350.856626506
2	0.001	-4576.4	-349.626984127	-351.126984127	-350.856626506
3	0.0015	-4588.4	-349.626984127	-305.463492063	-305.825301205
4	0.002	-4576.4	-349.626984127	-351.126984127	-350.856626506
5	0.0025	-4576.4	-349.626984127	-351.126984127	-350.856626506
6	0.003	-4588.4	-349.626984127	-305.463492063	-350.856626506
7	0.0035	-4576.4	-349.626984127	-351.126984127	-350.856626506
8	0.004	-4576.4	-349.626984127	-351.126984127	-350.856626506
9	0.0045	-4576.4	-349.626984127	-351.126984127	-350.856626506
10	0.005	-4576.4	-349.626984127	-351.126984127	-350.856626506
11	0.0055	-4576.4	-303.963492063	-351.126984127	-350.856626506
12	0.006	-4576.4	-349.626984127	-351.126984127	-305.825301205
13	0.0065	-4576.4	-349.626984127	-305.463492063	-350.856626506
14	0.007	-4576.4	-349.626984127	-351.126984127	-350.856626506
15	0.0075	-4576.4	-349.626984127	-351.126984127	-350.856626506
16	0.008	-4576.4	-349.626984127	-351.126984127	-350.856626506
17	0.0085	-4576.4	-349.626984127	-351.126984127	-350.856626506
18	0.009	-4576.4	-349.626984127	-351.126984127	-350.856626506
19	0.0095	-4588.4	-303.963492063	-351.126984127	-350.856626506
20	0.01	-4576.4	-303.963492063	-351.126984127	-350.856626506
21	0.0105	-4576.4	-303.963492063	-305.463492063	-350.856626506
22	0.011	-4576.4	-303.963492063	-351.126984127	-350.856626506
23	0.0115	-4576.4	-303.963492063	-351.126984127	-350.856626506
24	0.012	-4576.4	-281.131746032	-351.126984127	-350.856626506
25	0.0125	-4600.4	-303.963492063	-351.126984127	-350.856626506
26	0.013	-4576.4	-349.626984127	-351.126984127	-350.856626506
27	0.0135	-4588.4	-303.963492063	-351.126984127	-350.856626506
28	0.014	-4576.4	-303.963492063	-351.126984127	-350.856626506
29	0.0145	-4576.4	-303.963492063	-351.126984127	-350.856626506
30	0.015	-4576.4	-303.963492063	-305.463492063	-350.856626506
31	0.0155	-4576.4	-303.963492063	-351.126984127	-350.856626506
32	0.016	-4576.4	-303.963492063	-351.126984127	-350.856626506
33	0.0165	-4588.4	-349.626984127	-305.463492063	-350.856626506
34	0.017	-4588.4	-349.626984127	-305.463492063	-350.856626506
35	0.0175	-4576.4	-349.626984127	-305.463492063	-350.856626506
36	0.018	-4576.4	-349.626984127	-351.126984127	-350.856626506
37	0.0185	-4576.4	-349.626984127	-351.126984127	-350.856626506
38	0.019	-4576.4	-349.626984127	-351.126984127	-350.856626506
39	0.0195	-4576.4	-349.626984127	-351.126984127	-350.856626506
40	0.02	-4588.4	-303.963492063	-351.126984127	-350.856626506
41	0.0205	-4576.4	-349.626984127	-305.463492063	-350.856626506
42	0.021	-4600.4	-349.626984127	-305.463492063	-350.856626506
43	0.0215	-4576.4	-349.626984127	-305.463492063	-350.856626506
44	0.022	-4576.4	-349.626984127	-351.126984127	-350.856626506
45	0.0225	-4576.4	-349.626984127	-351.126984127	-350.856626506
46	0.023	-4576.4	-303.963492063	-351.126984127	-350.856626506
47	0.0235	-4576.4	-303.963492063	-351.126984127	-350.856626506
48	0.024	-4588.4	-258.3	-351.126984127	-350.856626506
49	0.0245	-4576.4	-281.131746032	-305.463492063	-350.856626506
50	0.025	-4576.4	-303.963492063	-305.463492063	-350.856626506
51	0.0255	-4588.4	-303.963492063	-305.463492063	-350.856626506
52	0.026	-4588.4	-303.963492063	-351.126984127	-350.856626506
53	0.0265	-4576.4	-303.963492063	-305.463492063	-350.856626506
54	0.027	-4576.4	-303.963492063	-282.631746032	-350.856626506
55	0.0275	-4576.4	-303.963492063	-351.126984127	-350.856626506
56	0.028	-4576.4	-281.131746032	-351.126984127	-350.856626506
57	0.0285	-4576.4	-303.963492063	-305.463492063	-350.856626506
58	0.029	-4576.4	-303.963492063	-351.126984127	-350.856626506
59	0.0295	-4576.4	-303.963492063	-305.463492063	-350.856626506
60	0.03	-4600.4	-349.626984127	-351.126984127	-350.856626506
61	0.0305	-4576.4	-349.626984127	-351.126984127	-350.856626506
62	0.031	-4576.4	-303.963492063	-351.126984127	-350.856626506
63	0.0315	-4588.4	-303.963492063	-305.463492063	-350.856626506
64	0.032	-4576.4	-281.131746032	-305.463492063	-350.856626506
65	0.0325	-4576.4	-349.626984127	-305.463492063	-350.856626506
66	0.033	-4588.4	-349.626984127	-351.126984127	-350.856626506
67	0.0335	-4588.4	-349.626984127	-351.126984127	-305.825301205
68	0.034	-4576.4	-303.963492063	-351.126984127	-350.856626506
69	0.0345	-4576.4	-303.963492063	-351.126984127	-350.856626506
70	0.035	-4588.4	-303.963492063	-351.126984127	-350.856626506
71	0.0355	-4576.4	-349.626984127	-305.463492063	-305.825301205
72	0.036	-4588.4	-303.963492063	-305.463492063	-350.856626506
73	0.0365	-4576.4	-349.626984127	-305.463492063	-350.856626506
74	0.037	-4576.4	-349.626984127	-351.126984127	-350.856626506
75	0.0375	-4576.4	-349.626984127	-305.463492063	-350.856626506
76	0.038	-4576.4	-349.626984127	-351.126984127	-305.825301205
77	0.0385	-4576.4	-349.626984127	-351.126984127	-305.825301205
78	0.039	-4576.4	-349.626984127	-305.463492063	-350.856626506
79	0.0395	-4576.4	-349.626984127	-305.463492063	-350.856626506
80	0.04	-4576.4	-303.963492063	-305.463492063	-350.856626506
81	0.0405	-4600.4	-281.131746032	-351.126984127	-350.856626506
82	0.041	-4588.4	-303.963492063	-305.463492063	-350.856626506
83	0.0415	-4576.4	-349.626984127	-305.463492063	-350.856626506
84	0.042	-4576.4	-349.626984127	-305.463492063	-350.856626506
85	0.0425	-4576.4	-349.626984127	-351.126984127	-350.856626506
86	0.043	-4576.4	-349.626984127	-305.463492063	-350.856626506
87	0.0435	-4576.4	-349.626984127	-282.631746032	-350.856626506
88	0.044	-4576.4	-349.626984127	-351.126984127	-350.856626506
89	0.0445	-4576.4	-349.626984127	-305.463492063	-350.856626506
90	0.045	-4576.4	-349.626984127	-305.463492063	-350.856626506
91	0.0455	-4576.4	-349.626984127	-305.463492063	-350.856626506
92	0.046	-4588.4	-349.626984127	-305.463492063	-305.825301205
93	0.0465	-4576.4	-349.626984127	-305.463492063	-350.856626506
94	0.047	-4576.4	-349.626984127	-305.463492063	-350.856626506
95	0.0475	-4576.4	-349.626984127	-351.126984127	-350.856626506
96	0.048	-4576.4	-349.626984127	-351.126984127	-350.856626506
97	0.0485	-4576.4	-303.963492063	-351.126984127	-350.856626506
98	0.049	-4600.4	-349.626984127	-351.126984127	-350.856626506
99	0.0495	-4576.4	-303.963492063	-305.463492063	-350.856626506
100	0.05	-4576.4	-303.963492063	-305.463492063	-350.856626506
101	0.0505	-4588.4	-303.963492063	-351.126984127	-305.825301205
102	0.051	-4576.4	-303.963492063	-305.463492063	-350.856626506
103	0.0515	-4576.4	-303.963492063	-351.126984127	-350.856626506
104	0.052	-4576.4	-349.626984127	-351.126984127	-350.856626506
105	0.0525	-4576.4	-349.626984127	-351.126984127	-350.856626506
106	0.053	-4600.4	-349.626984127	-351.126984127	-350.856626506
107	0.0535	-4588.4	-349.626984127	-351.126984127	-350.856626506
108	0.054	-4588.4	-349.626984127	-351.126984127	-350.856626506
109	0.0545	-4576.4	-349.626984127	-351.126984127	-350.856626506
110	0.055	-4576.4	-349.626984127	-351.126984127	-350.856626506
111	0.0555	-4576.4	-349.626984127	-351.126984127	-350.856626506
112	0.056	-4576.4	-349.626984127	-305.463492063	-350.856626506
113	0.0565	-4576.4	-349.626984127	-305.463492063	-350.856626506
114	0.057	-4600.4	-349.626984127	-305.463492063	-350.856626506
115	0.0575	-4576.4	-349.626984127	-305.463492063	-350.856626506
116	0.058	-4588.4	-349.626984127	-305.463492063	-350.856626506
117	0.0585	-4576.4	-349.626984127	-351.126984127	-350.856626506
118	0.059	-4576.4	-303.963492063	-305.463492063	-350.856626506
119	0.0595	-4576.4	-349.626984127	-351.126984127	-350.856626506
120	0.06	-4576.4	-349.626984127	-305.463492063	-350.856626506
121	0.0605	-4588.4	-349.626984127	-351.126984127	-350.856626506
122	0.061	-4576.4	-349.626984127	-305.463492063	-350.856626506
123	0.0615	-4588.4	-303.963492063	-305.463492063	-350.856626506
124	0.062	-4576.4	-349.626984127	-305.463492063	-350.856626506
125	0.0625	-4588.4	-303.963492063	-351.126984127	-350.856626506
126	0.063	-4576.4	-349.626984127	-351.126984127	-350.856626506
127	0.0635	-4576.4	-349.626984127	-282.631746032	-350.856626506
128	0.064	-4588.4	-349.626984127	-305.463492063	-350.856626506
129	0.0645	-4576.4	-281.131746032	-351.126984127	-350.856626506
130	0.065	-4576.4	-349.626984127	-305.463492063	-350.856626506
131	0.0655	-4600.4	-349.626984127	-305.463492063	-350.856626506
132	0.066	-4576.4	-349.626984127	-305.463492063	-305.825301205
133	0.0665	-4588.4	-349.626984127	-305.463492063	-350.856626506
134	0.067	-4576.4	-349.626984127	-351.126984127	-305.825301205
135	0.0675	-4588.4	-349.626984127	-282.631746032	-350.856626506
136	0.068	-4576.4	-349.626984127	-305.463492063	-350.856626506
137	0.0685	-4576.4	-349.626984127	-351.126984127	-350.856626506
138	0.069	-4576.4	-303.963492063	-305.463492063	-350.856626506
139	0.0695	-4576.4	-349.626984127	-305.463492063	-350.856626506
140	0.07	-4576.4	-349.626984127	-305.463492063	-350.856626506
141	0.0705	-4588.4	-349.626984127	-305.463492063	-350.856626506
142	0.071	-4576.4	-349.626984127	-305.463492063	-350.856626506
143	0.0715	-4576.4	-349.626984127	-351.126984127	-350.856626506
144	0.072	-4576.4	-303.963492063	-351.126984127	-350.856626506
145	0.0725	-4576.4	-349.626984127	-351.126984127	-350.856626506
146	0.073	-4588.4	-281.131746032	-351.126984127	-350.856626506
147	0.0735	-4576.4	-303.963492063	-351.126984127	-350.856626506
148	0.074	-4576.4	-303.963492063	-305.463492063	-350.856626506
149	0.0745	-4588.4	-303.963492063	-351.126984127	-305.825301205
150	0.075	-4576.4	-303.963492063	-351.126984127	-350.856626506
151	0.0755	-4576.4	-303.963492063	-351.126984127	-350.856626506
152	0.076	-4576.4	-303.963492063	-282.631746032	-350.856626506
153	0.0765	-4576.4	-303.963492063	-305.463492063	-350.856626506
154	0.077	-4576.4	-303.963492063	-305.463492063	-350.856626506
155	0.0775	-4588.4	-303.963492063	-351.126984127	-350.856626506
156	0.078	-4576.4	-303.963492063	-305.463492063	-350.856626506
157	0.0785	-4588.4	-303.963492063	-305.463492063	-350.856626506
158	0.079	-4588.4	-349.626984127	-351.126984127	-350.856626506
159	0.0795	-4576.4	-303.963492063	-351.126984127	-305.825301205
160	0.08	-4576.4	-303.963492063	-282.631746032	-350.856626506
161	0.0805	-4576.4	-349.626984127	-305.463492063	-350.856626506
162	0.081	-4576.4	-281.131746032	-305.463492063	-350.856626506
163	0.0815	-4576.4	-349.626984127	-305.463492063	-350.856626506
164	0.082	-4588.4	-349.626984127	-305.463492063	-350.856626506
165	0.0825	-4576.4	-349.626984127	-351.126984127	-350.856626506
166	0.083	-4576.4	-303.963492063	-305.463492063	-350.856626506
167	0.0835	-4576.4	-303.963492063	-282.631746032	-350.856626506
168	0.084	-4576.4	-303.963492063	-351.126984127	-350.856626506
169	0.0845	-4576.4	-349.626984127	-351.126984127	-350.856626506
170	0.085	-4576.4	-349.626984127	-305.463492063	-350.856626506
171	0.0855	-4576.4	-349.626984127	-305.463492063	-350.856626506
172	0.086	-4588.4	-303.963492063	-351.126984127	-350.856626506
173	0.0865	-4576.4	-349.626984127	-305.463492063	-350.856626506
174	0.087	-4576.4	-303.963492063	-351.126984127	-350.856626506
175	0.0875	-4576.4	-303.963492063	-305.463492063	-350.856626506
176	0.088	-4576.4	-303.963492063	-351.126984127	-305.825301205
177	0.0885	-4576.4	-349.626984127	-351.126984127	-350.856626506
178	0.089	-4576.4	-349.626984127	-305.463492063	-350.856626506
179	0.0895	-4576.4	-349.626984127	-351.126984127	-350.856626506
180	0.09	-4588.4	-349.626984127	-305.463492063	-350.856626506
181	0.0905	-4576.4	-349.626984127	-305.463492063	-350.856626506
182	0.091	-4576.4	-349.626984127	-351.126984127	-350.856626506
183	0.0915	-4576.4	-349.626984127	-351.126984127	-305.825301205
184	0.092	-4576.4	-349.626984127	-305.463492063	-350.856626506
185	0.0925	-4576.4	-349.626984127	-351.126984127	-350.856626506
186	0.093	-4576.4	-349.626984127	-305.463492063	-350.856626506
187	0.0935	-4576.4	-303.963492063	-305.463492063	-350.856626506
188	0.094	-4600.4	-303.963492063	-305.463492063	-350.856626506
189	0.0945	-4600.4	-349.626984127	-305.463492063	-350.856626506
190	0.095	-4588.4	-349.626984127	-305.463492063	-305.825301205
191	0.0955	-4576.4	-349.626984127	-305.463492063	-305.825301205
192	0.096	-4576.4	-349.626984127	-282.631746032	-350.856626506
193	0.0965	-4576.4	-349.626984127	-282.631746032	-350.856626506
194	0.097	-4576.4	-349.626984127	-351.126984127	-350.856626506
195	0.0975	-4576.4	-303.963492063	-305.463492063	-350.856626506
196	0.098	-4576.4	-349.626984127	-305.463492063	-350.856626506
197	0.0985	-4576.4	-349.626984127	-351.126984127	-350.856626506
198	0.099	-4576.4	-303.963492063	-351.126984127	-350.856626506
199	0.0995	-4576.4	-303.963492063	-351.126984127	-305.825301205
200	0.1	-4576.4	-303.963492063	-282.631746032	-350.856626506
201	0.1005	-4576.4	-303.963492063	-351.126984127	-350.856626506
202	0.101	-4576.4	-349.626984127	-351.126984127	-350.856626506
203	0.1015	-4576.4	-349.626984127	-351.126984127	-350.856626506
204	0.102	-4576.4	-349.626984127	-351.126984127	-350.856626506
205	0.1025	-4588.4	-303.963492063	-351.126984127	-350.856626506
206	0.103	-4576.4	-303.963492063	-351.126984127	-350.856626506
207	0.1035	-4576.4	-303.963492063	-351.126984127	-350.856626506
208	0.104	-4576.4	-303.963492063	-351.126984127	-350.856626506
209	0.1045	-4588.4	-303.963492063	-305.463492063	-350.856626506
210	0.105	-4576.4	-303.963492063	-351.126984127	-350.856626506
211	0.1055	-4576.4	-349.626984127	-351.126984127	-350.856626506
212	0.106	-4576.4	-303.963492063	-351.126984127	-350.856626506
213	0.1065	-4576.4	-349.626984127	-351.126984127	-350.856626506
214	0.107	-4576.4	-349.626984127	-351.126984127	-350.856626506
215	0.1075	-4588.4	-349.626984127	-351.126984127	-350.856626506
216	0.108	-4576.4	-349.626984127	-351.126984127	-350.856626506
217	0.1085	-4576.4	-349.626984127	-351.126984127	-350.856626506
218	0.109	-4576.4	-349.626984127	-351.126984127	-350.856626506
219	0.1095	-4588.4	-349.626984127	-305.463492063	-350.856626506
220	0.11	-4576.4	-281.131746032	-305.463492063	-350.856626506
221	0.1105	-4576.4	-303.963492063	-305.463492063	-350.856626506
222	0.111	-4588.4	-303.963492063	-351.126984127	-350.856626506
223	0.1115	-4588.4	-303.963492063	-351.126984127	-350.856626506
224	0.112	-4576.4	-303.963492063	-305.463492063	-350.856626506
225	0.1125	-4576.4	-303.963492063	-305.463492063	-350.856626506
226	0.113	-4576.4	-349.626984127	-351.126984127	-350.856626506
227	0.1135	-4576.4	-349.626984127	-351.126984127	-350.856626506
228	0.114	-4576.4	-303.963492063	-305.463492063	-350.856626506
229	0.1145	-4588.4	-349.626984127	-305.463492063	-350.856626506
230	0.115	-4600.4	-303.963492063	-305.463492063	-350.856626506
231	0.1155	-4576.4	-303.963492063	-305.463492063	-350.856626506
232	0.116	-4588.4	-303.963492063	-305.463492063	-350.856626506
233	0.1165	-4576.4	-349.626984127	-305.463492063	-350.856626506
234	0.117	-4576.4	-349.626984127	-351.126984127	-350.856626506
235	0.1175	-4576.4	-349.626984127	-305.463492063	-350.856626506
236	0.118	-4576.4	-349.626984127	-351.126984127	-350.856626506
237	0.1185	-4576.4	-349.626984127	-351.126984127	-350.856626506
238	0.119	-4588.4	-349.626984127	-305.463492063	-350.856626506
239	0.1195	-4576.4	-349.626984127	-305.463492063	-350.856626506
240	0.12	-4588.4	-349.626984127	-351.126984127	-305.825301205
241	0.1205	-4576.4	-349.626984127	-351.126984127	-350.856626506
242	0.121	-4576.4	-303.963492063	-351.126984127	-350.856626506
243	0.1215	-4576.4	-303.963492063	-351.126984127	-350.856626506
244	0.122	-4576.4	-303.963492063	-351.126984127	-350.856626506
245	0.1225	-4576.4	-281.131746032	-305.463492063	-350.856626506
246	0.123	-4588.4	-303.963492063	-351.126984127	-305.825301205
247	0.1235	-4576.4	-303.963492063	-305.463492063	-350.856626506
248	0.124	-4600.4	-349.626984127	-351.126984127	-350.856626506
249	0.1245	-4576.4	-349.626984127	-351.126984127	-305.825301205
250	0.125	-4576.4	-349.626984127	-282.631746032	-350.856626506
251	0.1255	-4576.4	-349.626984127	-351.126984127	-350.856626506
252	0.126	-4576.4	-349.626984127	-351.126984127	-305.825301205
253	0.1265	-4576.4	-303.963492063	-351.126984127	-350.856626506
254	0.127	-4576.4	-349.626984127	-351.126984127	-305.825301205
255	0.1275	-4576.4	-303.963492063	-305.463492063	-305.825301205
256	0.128	-4576.4	-303.963492063	-351.126984127	-305.825301205
257	0.1285	-4576.4	-349.626984127	-351.126984127	-305.825301205
258	0.129	-4576.4	-349.626984127	-351.126984127	-305.825301205
259	0.1295	-4576.4	-349.626984127	-305.463492063	-350.856626506
260	0.13	-4576.4	-349.626984127	-351.126984127	-350.856626506
261	0.1305	-4576.4	-349.626984127	-351.126984127	-305.825301205
262	0.131	-4600.4	-349.626984127	-305.463492063	-305.825301205
263	0.1315	-4576.4	-349.626984127	-351.126984127	-305.825301205
264	0.132	-4576.4	-349.626984127	-305.463492063	-305.825301205
265	0.1325	-4576.4	-349.626984127	-305.463492063	-350.856626506
266	0.133	-4576.4	-349.626984127	-351.126984127	-305.825301205
267	0.1335	-4576.4	-349.626984127	-351.126984127	-305.825301205
268	0.134	-4576.4	-303.963492063	-305.463492063	-305.825301205
269	0.1345	-4576.4	-281.131746032	-305.463492063	-350.856626506
270	0.135	-4576.4	-281.131746032	-305.463492063	-350.856626506
271	0.1355	-4576.4	-303.963492063	-305.463492063	-305.825301205
272	0.136	-4576.4	-303.963492063	-305.463492063	-350.856626506
273	0.1365	-4588.4	-303.963492063	-351.126984127	-350.856626506
274	0.137	-4576.4	-303.963492063	-351.126984127	-305.825301205
275	0.1375	-4576.4	-303.963492063	-305.463492063	-350.856626506
276	0.138	-4576.4	-303.963492063	-282.631746032	-350.856626506
277	0.1385	-4576.4	-281.131746032	-351.126984127	-305.825301205
278	0.139	-4576.4	-349.626984127	-305.463492063	-305.825301205
279	0.1395	-4600.4	-349.626984127	-351.126984127	-305.825301205
280	0.14	-4588.4	-349.626984127	-305.463492063	-350.856626506
281	0.1405	-4588.4	-349.626984127	-351.126984127	-305.825301205
282	0.141	-4576.4	-303.963492063	-351.126984127	-350.856626506
283	0.1415	-4576.4	-303.963492063	-351.126984127	-350.856626506
284	0.142	-4576.4	-349.626984127	-351.126984127	-350.856626506
285	0.1425	-4576.4	-281.131746032	-351.126984127	-305.825301205
286	0.143	-4576.4	-303.963492063	-351.126984127	-350.856626506
287	0.1435	-4588.4	-349.626984127	-351.126984127	-305.825301205
288	0.144	-4576.4	-303.963492063	-305.463492063	-283.309638554
289	0.1445	-4588.4	-303.963492063	-351.126984127	-305.825301205
290	0.145	-4576.4	-303.963492063	-351.126984127	-283.309638554
291	0.1455	-4576.4	-303.963492063	-305.463492063	-305.825301205
292	0.146	-4576.4	-349.626984127	-305.463492063	-350.856626506
293	0.1465	-4576.4	-281.131746032	-305.463492063	-350.856626506
294	0.147	-4576.4	-349.626984127	-305.463492063	-350.856626506
295	0.1475	-4576.4	-349.626984127	-351.126984127	-350.856626506
296	0.148	-4576.4	-349.626984127	-351.126984127	-350.856626506
297	0.1485	-4588.4	-349.626984127	-351.126984127	-350.856626506
298	0.149	-4576.4	-349.626984127	-305.463492063	-350.856626506
299	0.1495	-4576.4	-303.963492063	-351.126984127	-305.825301205
300	0.15	-4576.4	-303.963492063	-282.631746032	-350.856626506
301	0.1505	-4576.4	-349.626984127	-305.463492063	-305.825301205
302	0.151	-4576.4	-349.626984127	-305.463492063	-350.856626506
303	0.1515	-4588.4	-303.963492063	-305.463492063	-350.856626506
304	0.152	-4576.4	-303.963492063	-305.463492063	-350.856626506
305	0.1525	-4588.4	-303.963492063	-305.463492063	-350.856626506
306	0.153	-4576.4	-303.963492063	-305.463492063	-350.856626506
307	0.1535	-4588.4	-303.963492063	-351.126984127	-350.856626506
308	0.154	-4588.4	-349.626984127	-305.463492063	-350.856626506
309	0.1545	-4576.4	-303.963492063	-305.463492063	-350.856626506
310	0.155	-4576.4	-303.963492063	-351.126984127	-350.856626506
311	0.1555	-4600.4	-303.963492063	-305.463492063	-350.856626506
312	0.156	-4576.4	-303.963492063	-305.463492063	-350.856626506
313	0.1565	-4576.4	-303.963492063	-351.126984127	-350.856626506
314	0.157	-4576.4	-349.626984127	-282.631746032	-350.856626506
315	0.1575	-4576.4	-349.626984127	-305.463492063	-350.856626506
316	0.158	-4576.4	-349.626984127	-351.126984127	-350.856626506
317	0.1585	-4576.4	-349.626984127	-305.463492063	-350.856626506
318	0.159	-4600.4	-349.626984127	-305.463492063	-350.856626506
319	0.1595	-4588.4	-349.626984127	-351.126984127	-350.856626506
320	0.16	-4576.4	-349.626984127	-305.463492063	-350.856626506
321	0.1605	-4576.4	-349.626984127	-305.463492063	-350.856626506
322	0.161	-4576.4	-349.626984127	-305.463492063	-305.825301205
323	0.1615	-4588.4	-349.626984127	-282.631746032	-350.856626506
324	0.162	-4576.4	-349.626984127	-305.463492063	-350.856626506
325	0.1625	-4576.4	-303.963492063	-305.463492063	-350.856626506
326	0.163	-4576.4	-349.626984127	-305.463492063	-350.856626506
327	0.1635	-4588.4	-349.626984127	-305.463492063	-350.856626506
328	0.164	-4576.4	-303.963492063	-305.463492063	-305.825301205
329	0.1645	-4576.4	-349.626984127	-351.126984127	-305.825301205
330	0.165	-4576.4	-303.963492063	-305.463492063	-305.825301205
331	0.1655	-4576.4	-303.963492063	-351.126984127	-350.856626506
332	0.166	-4576.4	-303.963492063	-305.463492063	-350.856626506
333	0.1665	-4576.4	-303.963492063	-305.463492063	-305.825301205
334	0.167	-4576.4	-349.626984127	-305.463492063	-305.825301205
335	0.1675	-4576.4	-303.963492063	-305.463492063	-305.825301205
336	0.168	-4576.4	-303.963492063	-305.463492063	-283.309638554
337	0.1685	-4576.4	-303.963492063	-351.126984127	-305.825301205
338	0.169	-4576.4	-303.963492063	-305.463492063	-350.856626506
339	0.1695	-4576.4	-303.963492063	-351.126984127	-350.856626506
340	0.17	-4588.4	-349.626984127	-305.463492063	-350.856626506
341	0.1705	-4576.4	-349.626984127	-351.126984127	-350.856626506
342	0.171	-4576.4	-349.626984127	-351.126984127	-350.856626506
343	0.1715	-4588.4	-303.963492063	-305.463492063	-350.856626506
344	0.172	-4588.4	-349.626984127	-305.463492063	-350.856626506
345	0.1725	-4576.4	-349.626984127	-305.463492063	-350.856626506
346	0.173	-4576.4	-349.626984127	-305.463492063	-350.856626506
347	0.1735	-4576.4	-349.626984127	-305.463492063	-350.856626506
348	0.174	-4588.4	-349.626984127	-351.126984127	-350.856626506
349	0.1745	-4588.4	-349.626984127	-305.463492063	-350.856626506
350	0.175	-4588.4	-349.626984127	-305.463492063	-350.856626506
351	0.1755	-4576.4	-349.626984127	-305.463492063	-350.856626506
352	0.176	-4588.4	-349.626984127	-305.463492063	-350.856626506
353	0.1765	-4576.4	-349.626984127	-351.126984127	-305.825301205
354	0.177	-4576.4	-349.626984127	-305.463492063	-305.825301205
355	0.1775	-4576.4	-349.626984127	-351.126984127	-350.856626506
356	0.178	-4576.4	-349.626984127	-305.463492063	-305.825301205
357	0.1785	-4576.4	-349.626984127	-305.463492063	-305.825301205
358	0.179	-4600.4	-349.626984127	-305.463492063	-305.825301205
359	0.1795	-4600.4	-349.626984127	-305.463492063	-350.856626506
360	0.18	-4588.4	-349.626984127	-305.463492063	-350.856626506
361	0.1805	-4588.4	-349.626984127	-305.463492063	-350.856626506
362	0.181	-4576.4	-349.626984127	-282.631746032	-350.856626506
363	0.1815	-4576.4	-349.626984127	-351.126984127	-350.856626506
364	0.182	-4588.4	-349.626984127	-351.126984127	-350.856626506
365	0.1825	-4576.4	-349.626984127	-305.463492063	-350.856626506
366	0.183	-4588.4	-349.626984127	-305.463492063	-350.856626506
367	0.1835	-4588.4	-303.963492063	-351.126984127	-350.856626506
368	0.184	-4576.4	-303.963492063	-305.463492063	-350.856626506
369	0.1845	-4576.4	-303.963492063	-305.463492063	-350.856626506
370	0.185	-4576.4	-303.963492063	-351.126984127	-350.856626506
371	0.1855	-4576.4	-303.963492063	-305.463492063	-350.856626506
372	0.186	-4576.4	-349.626984127	-351.126984127	-350.856626506
373	0.1865	-4576.4	-281.131746032	-351.126984127	-350.856626506
374	0.187	-4600.4	-303.963492063	-351.126984127	-350.856626506
375	0.1875	-4576.4	-303.963492063	-351.126984127	-350.856626506
376	0.188	-4576.4	-303.963492063	-351.126984127	-350.856626506
377	0.1885	-4576.4	-303.963492063	-351.126984127	-350.856626506
378	0.189	-4576.4	-303.963492063	-351.126984127	-350.856626506
379	0.1895	-4576.4	-303.963492063	-351.126984127	-350.856626506
380	0.19	-4576.4	-303.963492063	-305.463492063	-350.856626506
381	0.1905	-4576.4	-303.963492063	-351.126984127	-350.856626506
382	0.191	-4576.4	-281.131746032	-305.463492063	-350.856626506
383	0.1915	-4576.4	-349.626984127	-351.126984127	-350.856626506
384	0.192	-4576.4	-349.626984127	-351.126984127	-350.856626506
385	0.1925	-4588.4	-349.626984127	-305.463492063	-350.856626506
386	0.193	-4576.4	-303.963492063	-282.631746032	-350.856626506
387	0.1935	-4576.4	-303.963492063	-305.463492063	-350.856626506
388	0.194	-4576.4	-349.626984127	-351.126984127	-350.856626506
389	0.1945	-4576.4	-303.963492063	-351.126984127	-350.856626506
390	0.195	-4576.4	-281.131746032	-351.126984127	-350.856626506
391	0.1955	-4588.4	-349.626984127	-351.126984127	-350.856626506
392	0.196	-4576.4	-303.963492063	-305.463492063	-305.825301205
393	0.1965	-4588.4	-303.963492063	-305.463492063	-350.856626506
394	0.197	-4588.4	-303.963492063	-305.463492063	-350.856626506
395	0.1975	-4576.4	-349.626984127	-351.126984127	-350.856626506
396	0.198	-4576.4	-349.626984127	-351.126984127	-350.856626506
397	0.1985	-4576.4	-349.626984127	-351.126984127	-350.856626506
398	0.199	-4576.4	-349.626984127	-305.463492063	-350.856626506
399	0.1995	-4588.4	-349.626984127	-305.463492063	-350.856626506
400	0.2	-4576.4	-349.626984127	-305.463492063	-350.856626506
401	0.2005	-4576.4	-349.626984127	-351.126984127	-350.856626506
402	0.201	-4576.4	-349.626984127	-351.126984127	-350.856626506
403	0.2015	-4576.4	-349.626984127	-305.463492063	-350.856626506
404	0.202	-4576.4	-349.626984127	-351.126984127	-350.856626506
405	0.2025	-4576.4	-349.626984127	-305.463492063	-350.856626506
406	0.203	-4576.4	-349.626984127	-305.463492063	-350.856626506
407	0.2035	-4588.4	-349.626984127	-305.463492063	-350.856626506
408	0.204	-4576.4	-349.626984127	-305.463492063	-350.856626506
409	0.2045	-4576.4	-349.626984127	-351.126984127	-350.856626506
410	0.205	-4576.4	-349.626984127	-351.126984127	-350.856626506
411	0.2055	-4576.4	-349.626984127	-305.463492063	-350.856626506
412	0.206	-4576.4	-349.626984127	-282.631746032	-350.856626506
413	0.2065	-4588.4	-281.131746032	-305.463492063	-350.856626506
414	0.207	-4576.4	-349.626984127	-351.126984127	-350.856626506
415	0.2075	-4600.4	-349.626984127	-351.126984127	-350.856626506
416	0.208	-4576.4	-349.626984127	-351.126984127	-305.825301205
417	0.2085	-4576.4	-303.963492063	-351.126984127	-305.825301205
418	0.209	-4576.4	-303.963492063	-305.463492063	-350.856626506
419	0.2095	-4588.4	-303.963492063	-282.631746032	-350.856626506
420	0.21	-4576.4	-349.626984127	-351.126984127	-350.856626506
421	0.2105	-4576.4	-303.963492063	-351.126984127	-350.856626506
422	0.211	-4576.4	-303.963492063	-305.463492063	-350.856626506
423	0.2115	-4576.4	-349.626984127	-305.463492063	-350.856626506
424	0.212	-4576.4	-303.963492063	-305.463492063	-350.856626506
425	0.2125	-4588.4	-303.963492063	-305.463492063	-350.856626506
426	0.213	-4576.4	-303.963492063	-351.126984127	-350.856626506
427	0.2135	-4576.4	-349.626984127	-351.126984127	-350.856626506
428	0.214	-4576.4	-349.626984127	-351.126984127	-350.856626506
429	0.2145	-4576.4	-349.626984127	-351.126984127	-350.856626506
430	0.215	-4588.4	-281.131746032	-305.463492063	-350.856626506
431	0.2155	-4576.4	-303.963492063	-351.126984127	-350.856626506
432	0.216	-4576.4	-349.626984127	-351.126984127	-350.856626506
433	0.2165	-4588.4	-349.626984127	-305.463492063	-350.856626506
434	0.217	-4588.4	-349.626984127	-305.463492063	-350.856626506
435	0.2175	-4576.4	-349.626984127	-305.463492063	-350.856626506
436	0.218	-4576.4	-349.626984127	-351.126984127	-350.856626506
437	0.2185	-4576.4	-349.626984127	-351.126984127	-350.856626506
438	0.219	-4576.4	-349.626984127	-351.126984127	-305.825301205
439	0.2195	-4576.4	-349.626984127	-305.463492063	-350.856626506
440	0.22	-4588.4	-349.626984127	-305.463492063	-350.856626506
441	0.2205	-4588.4	-349.626984127	-305.463492063	-350.856626506
442	0.221	-4576.4	-303.963492063	-305.463492063	-350.856626506
443	0.2215	-4576.4	-303.963492063	-351.126984127	-350.856626506
444	0.222	-4576.4	-303.963492063	-351.126984127	-305.825301205
445	0.2225	-4576.4	-281.131746032	-282.631746032	-350.856626506
446	0.223	-4588.4	-303.963492063	-351.126984127	-305.825301205
447	0.2235	-4576.4	-303.963492063	-305.463492063	-305.825301205
448	0.224	-4576.4	-349.626984127	-305.463492063	-305.825301205
449	0.2245	-4588.4	-349.626984127	-305.463492063	-305.825301205
450	0.225	-4576.4	-349.626984127	-305.463492063	-305.825301205
451	0.2255	-4588.4	-349.626984127	-305.463492063	-350.856626506
452	0.226	-4576.4	-303.963492063	-351.126984127	-283.309638554
453	0.2265	-4576.4	-303.963492063	-282.631746032	-350.856626506
454	0.227	-4576.4	-349.626984127	-351.126984127	-350.856626506
455	0.2275	-4576.4	-303.963492063	-351.126984127	-350.856626506
456	0.228	-4576.4	-349.626984127	-305.463492063	-350.856626506
457	0.2285	-4588.4	-349.626984127	-351.126984127	-350.856626506
458	0.229	-4576.4	-349.626984127	-351.126984127	-350.856626506
459	0.2295	-4588.4	-349.626984127	-351.126984127	-305.825301205
460	0.23	-4576.4	-349.626984127	-351.126984127	-305.825301205
461	0.2305	-4576.4	-349.626984127	-305.463492063	-350.856626506
462	0.231	-4576.4	-349.626984127	-305.463492063	-350.856626506
463	0.2315	-4576.4	-349.626984127	-351.126984127	-350.856626506
464	0.232	-4576.4	-349.626984127	-351.126984127	-350.856626506
465	0.2325	-4600.4	-349.626984127	-351.126984127	-350.856626506
466	0.233	-4588.4	-349.626984127	-351.126984127	-305.825301205
467	0.2335	-4576.4	-303.963492063	-351.126984127	-350.856626506
468	0.234	-4576.4	-349.626984127	-351.126984127	-305.825301205
469	0.2345	-4576.4	-303.963492063	-351.126984127	-350.856626506
470	0.235	-4576.4	-303.963492063	-351.126984127	-350.856626506
471	0.2355	-4576.4	-349.626984127	-351.126984127	-350.856626506
472	0.236	-4576.4	-349.626984127	-351.126984127	-350.856626506
473	0.2365	-4576.4	-349.626984127	-351.126984127	-350.856626506
474	0.237	-4588.4	-303.963492063	-351.126984127	-350.856626506
475	0.2375	-4576.4	-303.963492063	-351.126984127	-350.856626506
476	0.238	-4576.4	-303.963492063	-305.463492063	-350.856626506
477	0.2385	-4576.4	-303.963492063	-305.463492063	-283.309638554
478	0.239	-4576.4	-349.626984127	-351.126984127	-305.825301205
479	0.2395	-4576.4	-349.626984127	-351.126984127	-283.309638554
480	0.24	-4576.4	-349.626984127	-351.126984127	-283.309638554
481	0.2405	-4588.4	-303.963492063	-351.126984127	-283.309638554
482	0.241	-4588.4	-349.626984127	-351.126984127	-305.825301205
483	0.2415	-4576.4	-303.963492063	-351.126984127	-350.856626506
484	0.242	-4576.4	-303.963492063	-351.126984127	-350.856626506
485	0.2425	-4576.4	-303.963492063	-351.126984127	-305.825301205
486	0.243	-4576.4	-303.963492063	-305.463492063	-350.856626506
487	0.2435	-4576.4	-349.626984127	-305.463492063	-350.856626506
488	0.244	-4576.4	-349.626984127	-351.126984127	-350.856626506
489	0.2445	-4588.4	-349.626984127	-351.126984127	-350.856626506
490	0.245	-4588.4	-349.626984127	-305.463492063	-350.856626506
491	0.2455	-4576.4	-349.626984127	-351.126984127	-350.856626506
492	0.246	-4576.4	-349.626984127	-351.126984127	-350.856626506
493	0.2465	-4576.4	-349.626984127	-351.126984127	-350.856626506
494	0.247	-4576.4	-303.963492063	-351.126984127	-350.856626506
495	0.2475	-4576.4	-303.963492063	-305.463492063	-350.856626506
496	0.248	-4576.4	-349.626984127	-351.126984127	-350.856626506
497	0.2485	-4576.4	-281.131746032	-305.463492063	-350.856626506
498	0.249	-4576.4	-349.626984127	-305.463492063	-350.856626506
499	0.2495	-4588.4	-349.626984127	-305.463492063	-305.825301205
500	0.25	-4576.4	-349.626984127	-305.463492063	-350.856626506
501	0.2505	-4588.4	-349.626984127	-305.463492063	-350.856626506
502	0.251	-4576.4	-349.626984127	-351.126984127	-350.856626506
503	0.2515	-4576.4	-349.626984127	-305.463492063	-350.856626506
504	0.252	-4576.4	-349.626984127	-351.126984127	-305.825301205
505	0.2525	-4600.4	-349.626984127	-305.463492063	-350.856626506
506	0.253	-4576.4	-303.963492063	-351.126984127	-350.856626506
507	0.2535	-4588.4	-349.626984127	-305.463492063	-350.856626506
508	0.254	-4588.4	-303.963492063	-305.463492063	-350.856626506
509	0.2545	-4576.4	-303.963492063	-351.126984127	-350.856626506
510	0.255	-4576.4	-303.963492063	-351.126984127	-350.856626506
511	0.2555	-4588.4	-303.963492063	-351.126984127	-305.825301205
512	0.256	-4576.4	-303.963492063	-305.463492063	-350.856626506
513	0.2565	-4576.4	-303.963492063	-351.126984127	-305.825301205
514	0.257	-4576.4	-303.963492063	-351.126984127	-350.856626506
515	0.2575	-4576.4	-281.131746032	-305.463492063	-305.825301205
516	0.258	-4576.4	-349.626984127	-351.126984127	-305.825301205
517	0.2585	-4576.4	-349.626984127	-351.126984127	-350.856626506
518	0.259	-4576.4	-303.963492063	-351.126984127	-305.825301205
519	0.2595	-4576.4	-349.626984127	-351.126984127	-350.856626506
520	0.26	-4576.4	-349.626984127	-351.126984127	-305.825301205
521	0.2605	-4576.4	-349.626984127	-351.126984127	-350.856626506
522	0.261	-4588.4	-349.626984127	-305.463492063	-350.856626506
523	0.2615	-4588.4	-303.963492063	-351.126984127	-350.856626506
524	0.262	-4576.4	-281.131746032	-305.463492063	-305.825301205
525	0.2625	-4576.4	-349.626984127	-351.126984127	-305.825301205
526	0.263	-4576.4	-349.626984127	-351.126984127	-305.825301205
527	0.2635	-4576.4	-349.626984127	-351.126984127	-305.825301205
528	0.264	-4576.4	-303.963492063	-351.126984127	-305.825301205
529	0.2645	-4576.4	-349.626984127	-351.126984127	-305.825301205
530	0.265	-4576.4	-349.626984127	-351.126984127	-305.825301205
531	0.2655	-4576.4	-349.626984127	-351.126984127	-305.825301205
532	0.266	-4576.4	-303.963492063	-305.463492063	-305.825301205
533	0.2665	-4576.4	-303.963492063	-351.126984127	-305.825301205
534	0.267	-4588.4	-349.626984127	-351.126984127	-305.825301205
535	0.2675	-4576.4	-349.626984127	-351.126984127	-305.825301205
536	0.268	-4576.4	-349.626984127	-305.463492063	-305.825301205
537	0.2685	-4576.4	-349.626984127	-351.126984127	-350.856626506
538	0.269	-4576.4	-349.626984127	-351.126984127	-305.825301205
539	0.2695	-4576.4	-349.626984127	-351.126984127	-350.856626506
540	0.27	-4576.4	-349.626984127	-351.126984127	-305.825301205
541	0.2705	-4588.4	-349.626984127	-351.126984127	-305.825301205
542	0.271	-4576.4	-349.626984127	-351.126984127	-305.825301205
543	0.2715	-4576.4	-349.626984127	-351.126984127	-305.825301205
544	0.272	-4576.4	-349.626984127	-305.463492063	-305.825301205
545	0.2725	-4588.4	-349.626984127	-351.126984127	-283.309638554
546	0.273	-4576.4	-303.963492063	-351.126984127	-305.825301205
547	0.2735	-4576.4	-303.963492063	-351.126984127	-350.856626506
548	0.274	-4576.4	-303.963492063	-305.463492063	-305.825301205
549	0.2745	-4576.4	-349.626984127	-282.631746032	-305.825301205
550	0.275	-4576.4	-281.131746032	-351.126984127	-305.825301205
551	0.2755	-4576.4	-349.626984127	-305.463492063	-305.825301205
552	0.276	-4576.4	-349.626984127	-351.126984127	-305.825301205
553	0.2765	-4576.4	-303.963492063	-305.463492063	-305.825301205
554	0.277	-4576.4	-303.963492063	-351.126984127	-350.856626506
555	0.2775	-4588.4	-303.963492063	-351.126984127	-305.825301205
556	0.278	-4576.4	-303.963492063	-305.463492063	-350.856626506
557	0.2785	-4576.4	-349.626984127	-351.126984127	-350.856626506
558	0.279	-4588.4	-281.131746032	-351.126984127	-350.856626506
559	0.2795	-4576.4	-303.963492063	-351.126984127	-350.856626506
560	0.28	-4576.4	-349.626984127	-351.126984127	-305.825301205
561	0.2805	-4588.4	-349.626984127	-351.126984127	-350.856626506
562	0.281	-4576.4	-349.626984127	-305.463492063	-305.825301205
563	0.2815	-4576.4	-349.626984127	-351.126984127	-350.856626506
564	0.282	-4576.4	-349.626984127	-351.126984127	-350.856626506
565	0.2825	-4576.4	-303.963492063	-351.126984127	-350.856626506
566	0.283	-4576.4	-303.963492063	-351.126984127	-350.856626506
567	0.2835	-4576.4	-303.963492063	-305.463492063	-350.856626506
568	0.284	-4576.4	-303.963492063	-305.463492063	-350.856626506
569	0.2845	-4576.4	-303.963492063	-351.126984127	-350.856626506
570	0.285	-4588.4	-349.626984127	-305.463492063	-350.856626506
571	0.2855	-4600.4	-303.963492063	-305.463492063	-305.825301205
572	0.286	-4576.4	-303.963492063	-305.463492063	-350.856626506
573	0.2865	-4576.4	-303.963492063	-305.463492063	-350.856626506
574	0.287	-4576.4	-303.963492063	-351.126984127	-305.825301205
575	0.2875	-4576.4	-349.626984127	-351.126984127	-350.856626506
576	0.288	-4576.4	-349.626984127	-305.463492063	-350.856626506
577	0.2885	-4576.4	-303.963492063	-351.126984127	-350.856626506
578	0.289	-4576.4	-303.963492063	-305.463492063	-350.856626506
579	0.2895	-4576.4	-303.963492063	-305.463492063	-305.825301205
580	0.29	-4576.4	-303.963492063	-351.126984127	-283.309638554
581	0.2905	-4576.4	-303.963492063	-282.631746032	-350.856626506
582	0.291	-4576.4	-303.963492063	-305.463492063	-350.856626506
583	0.2915	-4576.4	-303.963492063	-351.126984127	-305.825301205
584	0.292	-4576.4	-281.131746032	-351.126984127	-305.825301205
585	0.2925	-4576.4	-349.626984127	-351.126984127	-305.825301205
586	0.293	-4576.4	-349.626984127	-351.126984127	-305.825301205
587	0.2935	-4576.4	-349.626984127	-305.463492063	-305.825301205
588	0.294	-4576.4	-349.626984127	-351.126984127	-283.309638554
589	0.2945	-4588.4	-349.626984127	-305.463492063	-305.825301205
590	0.295	-4576.4	-349.626984127	-282.631746032	-305.825301205
591	0.2955	-4576.4	-303.963492063	-282.631746032	-305.825301205
592	0.296	-4576.4	-281.131746032	-305.463492063	-305.825301205
593	0.2965	-4576.4	-349.626984127	-305.463492063	-305.825301205
594	0.297	-4600.4	-349.626984127	-305.463492063	-305.825301205
595	0.2975	-4588.4	-349.626984127	-305.463492063	-305.825301205
596	0.298	-4576.4	-303.963492063	-305.463492063	-283.309638554
597	0.2985	-4576.4	-303.963492063	-351.126984127	-260.793975904
598	0.299	-4576.4	-349.626984127	-282.631746032	-305.825301205
599	0.2995	-4576.4	-303.963492063	-305.463492063	-305.825301205
600	0.3	-4576.4	-303.963492063	-305.463492063	-305.825301205
601	0.3005	-4576.4	-349.626984127	-305.463492063	-305.825301205
602	0.301	-4588.4	-349.626984127	-305.463492063	-283.309638554
603	0.3015	-4588.4	-349.626984127	-305.463492063	-305.825301205
604	0.302	-4588.4	-349.626984127	-305.463492063	-305.825301205
605	0.3025	-4576.4	-349.626984127	-351.126984127	-305.825301205
606	0.303	-4576.4	-303.963492063	-282.631746032	-305.825301205
607	0.3035	-4576.4	-349.626984127	-305.463492063	-305.825301205
608	0.304	-4576.4	-349.626984127	-305.463492063	-283.309638554
609	0.3045	-4576.4	-281.131746032	-305.463492063	-305.825301205
610	0.305	-4576.4	-281.131746032	-305.463492063	-305.825301205
611	0.3055	-4576.4	-303.963492063	-305.463492063	-305.825301205
612	0.306	-4576.4	-349.626984127	-305.463492063	-305.825301205
613	0.3065	-4576.4	-349.626984127	-351.126984127	-305.825301205
614	0.307	-4576.4	-349.626984127	-351.126984127	-305.825301205
615	0.3075	-4576.4	-349.626984127	-351.126984127	-305.825301205
616	0.308	-4576.4	-349.626984127	-351.126984127	-305.825301205
617	0.3085	-4576.4	-349.626984127	-351.126984127	-305.825301205
618	0.309	-4576.4	-349.626984127	-351.126984127	-305.825301205
619	0.3095	-4588.4	-303.963492063	-351.126984127	-305.825301205
620	0.31	-4576.4	-303.963492063	-351.126984127	-305.825301205
621	0.3105	-4588.4	-303.963492063	-351.126984127	-305.825301205
622	0.311	-4576.4	-303.963492063	-305.463492063	-305.825301205
623	0.3115	-4576.4	-303.963492063	-351.126984127	-305.825301205
624	0.312	-4576.4	-349.626984127	-351.126984127	-305.825301205
625	0.3125	-4576.4	-349.626984127	-351.126984127	-305.825301205
626	0.313	-4576.4	-349.626984127	-305.463492063	-305.825301205
627	0.3135	-4576.4	-349.626984127	-351.126984127	-305.825301205
628	0.314	-4576.4	-349.626984127	-351.126984127	-305.825301205
629	0.3145	-4576.4	-303.963492063	-351.126984127	-283.309638554
630	0.315	-4576.4	-303.963492063	-351.126984127	-260.793975904
631	0.3155	-4576.4	-303.963492063	-351.126984127	-283.309638554
632	0.316	-4576.4	-303.963492063	-305.463492063	-305.825301205
633	0.3165	-4576.4	-349.626984127	-351.126984127	-305.825301205
634	0.317	-4576.4	-303.963492063	-351.126984127	-305.825301205
635	0.3175	-4600.4	-303.963492063	-351.126984127	-305.825301205
636	0.318	-4576.4	-303.963492063	-351.126984127	-305.825301205
637	0.3185	-4576.4	-303.963492063	-351.126984127	-305.825301205
638	0.319	-4588.4	-303.963492063	-305.463492063	-305.825301205
639	0.3195	-4576.4	-303.963492063	-351.126984127	-283.309638554
640	0.32	-4576.4	-303.963492063	-305.463492063	-350.856626506
641	0.3205	-4576.4	-303.963492063	-351.126984127	-305.825301205
642	0.321	-4576.4	-349.626984127	-351.126984127	-305.825301205
643	0.3215	-4576.4	-303.963492063	-351.126984127	-305.825301205
644	0.322	-4588.4	-349.626984127	-351.126984127	-305.825301205
645	0.3225	-4576.4	-349.626984127	-351.126984127	-305.825301205
646	0.323	-4576.4	-349.626984127	-305.463492063	-305.825301205
647	0.3235	-4576.4	-349.626984127	-351.126984127	-272.051807229
648	0.324	-4576.4	-349.626984127	-351.126984127	-283.309638554
649	0.3245	-4576.4	-349.626984127	-305.463492063	-305.825301205
650	0.325	-4588.4	-349.626984127	-351.126984127	-305.825301205
651	0.3255	-4576.4	-349.626984127	-305.463492063	-305.825301205
652	0.326	-4576.4	-349.626984127	-351.126984127	-305.825301205
653	0.3265	-4576.4	-303.963492063	-351.126984127	-305.825301205
654	0.327	-4576.4	-349.626984127	-351.126984127	-305.825301205
655	0.3275	-4576.4	-349.626984127	-351.126984127	-283.309638554
656	0.328	-4576.4	-349.626984127	-351.126984127	-283.309638554
657	0.3285	-4576.4	-349.626984127	-305.463492063	-350.856626506
658	0.329	-4576.4	-349.626984127	-282.631746032	-350.856626506
659	0.3295	-4576.4	-303.963492063	-351.126984127	-350.856626506
660	0.33	-4576.4	-349.626984127	-351.126984127	-350.856626506
661	0.3305	-4588.4	-349.626984127	-351.126984127	-350.856626506
662	0.331	-4576.4	-349.626984127	-351.126984127	-350.856626506
663	0.3315	-4576.4	-281.131746032	-305.463492063	-305.825301205
664	0.332	-4576.4	-281.131746032	-351.126984127	-350.856626506
665	0.3325	-4576.4	-281.131746032	-351.126984127	-350.856626506
666	0.333	-4576.4	-303.963492063	-351.126984127	-350.856626506
667	0.3335	-4576.4	-303.963492063	-351.126984127	-350.856626506
668	0.334	-4576.4	-303.963492063	-351.126984127	-350.856626506
669	0.3345	-4576.4	-349.626984127	-351.126984127	-350.856626506
670	0.335	-4576.4	-303.963492063	-351.126984127	-350.856626506
671	0.3355	-4588.4	-303.963492063	-351.126984127	-305.825301205
672	0.336	-4576.4	-303.963492063	-351.126984127	-350.856626506
673	0.3365	-4576.4	-303.963492063	-351.126984127	-350.856626506
674	0.337	-4576.4	-349.626984127	-351.126984127	-305.825301205
675	0.3375	-4576.4	-349.626984127	-351.126984127	-350.856626506
676	0.338	-4576.4	-349.626984127	-351.126984127	-350.856626506
677	0.3385	-4576.4	-349.626984127	-351.126984127	-350.856626506
678	0.339	-4576.4	-303.963492063	-351.126984127	-305.825301205
679	0.3395	-4576.4	-303.963492063	-351.126984127	-305.825301205
680	0.34	-4576.4	-303.963492063	-351.126984127	-350.856626506
681	0.3405	-4576.4	-303.963492063	-351.126984127	-350.856626506
682	0.341	-4576.4	-303.963492063	-305.463492063	-350.856626506
683	0.3415	-4576.4	-303.963492063	-305.463492063	-350.856626506
684	0.342	-4576.4	-281.131746032	-351.126984127	-350.856626506
685	0.3425	-4576.4	-349.626984127	-351.126984127	-350.856626506
686	0.343	-4588.4	-349.626984127	-351.126984127	-350.856626506
687	0.3435	-4576.4	-303.963492063	-305.463492063	-350.856626506
688	0.344	-4576.4	-349.626984127	-351.126984127	-305.825301205
689	0.3445	-4576.4	-349.626984127	-351.126984127	-305.825301205
690	0.345	-4576.4	-349.626984127	-305.463492063	-305.825301205
691	0.3455	-4576.4	-349.626984127	-351.126984127	-350.856626506
692	0.346	-4576.4	-349.626984127	-305.463492063	-350.856626506
693	0.3465	-4576.4	-349.626984127	-351.126984127	-350.856626506
694	0.347	-4576.4	-349.626984127	-351.126984127	-350.856626506
695	0.3475	-4576.4	-349.626984127	-351.126984127	-350.856626506
696	0.348	-4588.4	-349.626984127	-351.126984127	-305.825301205
697	0.3485	-4576.4	-349.626984127	-351.126984127	-350.856626506
698	0.349	-4576.4	-349.626984127	-351.126984127	-350.856626506
699	0.3495	-4576.4	-349.626984127	-305.463492063	-350.856626506
700	0.35	-4576.4	-349.626984127	-351.126984127	-350.856626506
701	0.3505	-4576.4	-281.131746032	-351.126984127	-350.856626506
702	0.351	-4576.4	-303.963492063	-351.126984127	-350.856626506
703	0.3515	-4576.4	-303.963492063	-351.126984127	-305.825301205
704	0.352	-4576.4	-303.963492063	-351.126984127	-305.825301205
705	0.3525	-4576.4	-303.963492063	-351.126984127	-350.856626506
706	0.353	-4576.4	-303.963492063	-351.126984127	-350.856626506
707	0.3535	-4576.4	-303.963492063	-305.463492063	-350.856626506
708	0.354	-4576.4	-303.963492063	-351.126984127	-350.856626506
709	0.3545	-4576.4	-281.131746032	-351.126984127	-350.856626506
710	0.355	-4576.4	-303.963492063	-351.126984127	-350.856626506
711	0.3555	-4576.4	-349.626984127	-351.126984127	-305.825301205
712	0.356	-4576.4	-349.626984127	-305.463492063	-350.856626506
713	0.3565	-4588.4	-349.626984127	-351.126984127	-350.856626506
714	0.357	-4576.4	-349.626984127	-351.126984127	-305.825301205
715	0.3575	-4576.4	-349.626984127	-351.126984127	-305.825301205
716	0.358	-4576.4	-349.626984127	-305.463492063	-350.856626506
717	0.3585	-4576.4	-349.626984127	-351.126984127	-305.825301205
718	0.359	-4576.4	-281.131746032	-351.126984127	-305.825301205
719	0.3595	-4576.4	-303.963492063	-351.126984127	-350.856626506
720	0.36	-4588.4	-349.626984127	-351.126984127	-305.825301205
721	0.3605	-4576.4	-303.963492063	-351.126984127	-283.309638554
722	0.361	-4576.4	-303.963492063	-351.126984127	-305.825301205
723	0.3615	-4576.4	-349.626984127	-351.126984127	-350.856626506
724	0.362	-4576.4	-349.626984127	-305.463492063	-350.856626506
725	0.3625	-4576.4	-349.626984127	-351.126984127	-350.856626506
726	0.363	-4576.4	-281.131746032	-351.126984127	-350.856626506
727	0.3635	-4576.4	-303.963492063	-305.463492063	-350.856626506
728	0.364	-4576.4	-303.963492063	-351.126984127	-350.856626506
729	0.3645	-4576.4	-303.963492063	-351.126984127	-350.856626506
730	0.365	-4588.4	-303.963492063	-305.463492063	-350.856626506
731	0.3655	-4576.4	-303.963492063	-305.463492063	-350.856626506
732	0.366	-4576.4	-303.963492063	-351.126984127	-350.856626506
733	0.3665	-4576.4	-303.963492063	-351.126984127	-350.856626506
734	0.367	-4576.4	-303.963492063	-282.631746032	-350.856626506
735	0.3675	-4576.4	-303.963492063	-351.126984127	-350.856626506
736	0.368	-4576.4	-349.626984127	-351.126984127	-350.856626506
737	0.3685	-4588.4	-349.626984127	-351.126984127	-350.856626506
738	0.369	-4576.4	-349.626984127	-351.126984127	-350.856626506
739	0.3695	-4576.4	-349.626984127	-351.126984127	-305.825301205
740	0.37	-4576.4	-349.626984127	-351.126984127	-305.825301205
741	0.3705	-4588.4	-349.626984127	-305.463492063	-350.856626506
742	0.371	-4576.4	-349.626984127	-351.126984127	-350.856626506
743	0.3715	-4576.4	-349.626984127	-351.126984127	-350.856626506
744	0.372	-4576.4	-303.963492063	-351.126984127	-350.856626506
745	0.3725	-4588.4	-349.626984127	-351.126984127	-350.856626506
746	0.373	-4588.4	-303.963492063	-351.126984127	-350.856626506
747	0.3735	-4576.4	-303.963492063	-351.126984127	-350.856626506
748	0.374	-4576.4	-349.626984127	-351.126984127	-350.856626506
749	0.3745	-4576.4	-349.626984127	-351.126984127	-350.856626506
750	0.375	-4576.4	-303.963492063	-282.631746032	-350.856626506
751	0.3755	-4576.4	-303.963492063	-351.126984127	-350.856626506
752	0.376	-4576.4	-303.963492063	-351.126984127	-350.856626506
753	0.3765	-4576.4	-281.131746032	-351.126984127	-350.856626506
754	0.377	-4600.4	-349.626984127	-351.126984127	-350.856626506
755	0.3775	-4576.4	-303.963492063	-351.126984127	-350.856626506
756	0.378	-4576.4	-349.626984127	-351.126984127	-350.856626506
757	0.3785	-4588.4	-349.626984127	-351.126984127	-305.825301205
758	0.379	-4576.4	-349.626984127	-282.631746032	-350.856626506
759	0.3795	-4576.4	-349.626984127	-351.126984127	-350.856626506
760	0.38	-4576.4	-349.626984127	-351.126984127	-350.856626506
761	0.3805	-4600.4	-349.626984127	-351.126984127	-350.856626506
762	0.381	-4576.4	-349.626984127	-351.126984127	-305.825301205
763	0.3815	-4588.4	-349.626984127	-351.126984127	-350.856626506
764	0.382	-4576.4	-303.963492063	-351.126984127	-350.856626506
765	0.3825	-4588.4	-349.626984127	-351.126984127	-350.856626506
766	0.383	-4588.4	-349.626984127	-351.126984127	-350.856626506
767	0.3835	-4576.4	-303.963492063	-305.463492063	-350.856626506
768	0.384	-4576.4	-303.963492063	-351.126984127	-350.856626506
769	0.3845	-4576.4	-349.626984127	-351.126984127	-350.856626506
770	0.385	-4576.4	-303.963492063	-351.126984127	-350.856626506
771	0.3855	-4576.4	-349.626984127	-351.126984127	-350.856626506
772	0.386	-4600.4	-303.963492063	-351.126984127	-350.856626506
773	0.3865	-4576.4	-303.963492063	-305.463492063	-350.856626506
774	0.387	-4576.4	-303.963492063	-351.126984127	-350.856626506
775	0.3875	-4576.4	-349.626984127	-351.126984127	-350.856626506
776	0.388	-4576.4	-349.626984127	-351.126984127	-350.856626506
777	0.3885	-4576.4	-349.626984127	-351.126984127	-350.856626506
778	0.389	-4576.4	-349.626984127	-351.126984127	-350.856626506
779	0.3895	-4588.4	-349.626984127	-351.126984127	-350.856626506
780	0.39	-4576.4	-349.626984127	-351.126984127	-350.856626506
781	0.3905	-4576.4	-349.626984127	-351.126984127	-350.856626506
782	0.391	-4576.4	-349.626984127	-351.126984127	-350.856626506
783	0.3915	-4576.4	-349.626984127	-351.126984127	-350.856626506
784	0.392	-4576.4	-349.626984127	-351.126984127	-350.856626506
785	0.3925	-4576.4	-349.626984127	-305.463492063	-350.856626506
786	0.393	-4576.4	-349.626984127	-351.126984127	-350.856626506
787	0.3935	-4576.4	-303.963492063	-351.126984127	-350.856626506
788	0.394	-4588.4	-349.626984127	-351.126984127	-350.856626506
789	0.3945	-4576.4	-349.626984127	-351.126984127	-350.856626506
790	0.395	-4576.4	-303.963492063	-305.463492063	-350.856626506
791	0.3955	-4576.4	-303.963492063	-351.126984127	-350.856626506
792	0.396	-4576.4	-303.963492063	-305.463492063	-350.856626506
793	0.3965	-4576.4	-281.131746032	-305.463492063	-350.856626506
794	0.397	-4576.4	-303.963492063	-351.126984127	-350.856626506
795	0.3975	-4576.4	-303.963492063	-351.126984127	-350.856626506
796	0.398	-4576.4	-303.963492063	-351.126984127	-350.856626506
797	0.3985	-4588.4	-303.963492063	-351.126984127	-350.856626506
798	0.399	-4576.4	-303.963492063	-305.463492063	-350.856626506
799	0.3995	-4576.4	-303.963492063	-305.463492063	-350.856626506
800	0.4	-4576.4	-303.963492063	-351.126984127	-350.856626506
801	0.4005	-4576.4	-303.963492063	-305.463492063	-350.856626506
802	0.401	-4576.4	-349.626984127	-351.126984127	-350.856626506
803	0.4015	-4576.4	-303.963492063	-351.126984127	-350.856626506
804	0.402	-4576.4	-349.626984127	-351.126984127	-350.856626506
805	0.4025	-4576.4	-349.626984127	-351.126984127	-350.856626506
806	0.403	-4576.4	-349.626984127	-351.126984127	-350.856626506
807	0.4035	-4576.4	-349.626984127	-351.126984127	-350.856626506
808	0.404	-4576.4	-349.626984127	-305.463492063	-350.856626506
809	0.4045	-4576.4	-349.626984127	-305.463492063	-350.856626506
810	0.405	-4576.4	-349.626984127	-305.463492063	-350.856626506
811	0.4055	-4576.4	-281.131746032	-305.463492063	-350.856626506
812	0.406	-4576.4	-303.963492063	-351.126984127	-350.856626506
813	0.4065	-4576.4	-349.626984127	-351.126984127	-350.856626506
814	0.407	-4576.4	-349.626984127	-305.463492063	-350.856626506
815	0.4075	-4576.4	-349.626984127	-305.463492063	-350.856626506
816	0.408	-4576.4	-349.626984127	-305.463492063	-350.856626506
817	0.4085	-4576.4	-349.626984127	-282.631746032	-350.856626506
818	0.409	-4576.4	-349.626984127	-305.463492063	-350.856626506
819	0.4095	-4576.4	-349.626984127	-282.631746032	-350.856626506
820	0.41	-4576.4	-281.131746032	-351.126984127	-350.856626506
821	0.4105	-4576.4	-349.626984127	-305.463492063	-350.856626506
822	0.411	-4600.4	-349.626984127	-351.126984127	-350.856626506
823	0.4115	-4576.4	-303.963492063	-351.126984127	-350.856626506
824	0.412	-4576.4	-303.963492063	-305.463492063	-350.856626506
825	0.4125	-4576.4	-303.963492063	-351.126984127	-350.856626506
826	0.413	-4576.4	-303.963492063	-351.126984127	-350.856626506
827	0.4135	-4576.4	-349.626984127	-351.126984127	-350.856626506
828	0.414	-4576.4	-349.626984127	-351.126984127	-350.856626506
829	0.4145	-4588.4	-281.131746032	-305.463492063	-350.856626506
830	0.415	-4576.4	-303.963492063	-305.463492063	-350.856626506
831	0.4155	-4576.4	-303.963492063	-305.463492063	-350.856626506
832	0.416	-4576.4	-303.963492063	-305.463492063	-350.856626506
833	0.4165	-4588.4	-303.963492063	-305.463492063	-350.856626506
834	0.417	-4576.4	-349.626984127	-305.463492063	-350.856626506
835	0.4175	-4576.4	-349.626984127	-282.631746032	-350.856626506
836	0.418	-4576.4	-349.626984127	-282.631746032	-350.856626506
837	0.4185	-4576.4	-303.963492063	-305.463492063	-350.856626506
838	0.419	-4576.4	-349.626984127	-305.463492063	-350.856626506
839	0.4195	-4600.4	-303.963492063	-305.463492063	-350.856626506
840	0.42	-4576.4	-303.963492063	-305.463492063	-350.856626506
841	0.4205	-4588.4	-303.963492063	-305.463492063	-350.856626506
842	0.421	-4576.4	-349.626984127	-305.463492063	-350.856626506
843	0.4215	-4576.4	-349.626984127	-305.463492063	-350.856626506
844	0.422	-4576.4	-303.963492063	-305.463492063	-350.856626506
845	0.4225	-4576.4	-303.963492063	-305.463492063	-350.856626506
846	0.423	-4576.4	-303.963492063	-305.463492063	-350.856626506
847	0.4235	-4588.4	-349.626984127	-305.463492063	-350.856626506
848	0.424	-4588.4	-349.626984127	-351.126984127	-305.825301205
849	0.4245	-4576.4	-349.626984127	-351.126984127	-350.856626506
850	0.425	-4588.4	-349.626984127	-351.126984127	-350.856626506
851	0.4255	-4576.4	-349.626984127	-351.126984127	-283.309638554
852	0.426	-4576.4	-349.626984127	-305.463492063	-305.825301205
853	0.4265	-4576.4	-349.626984127	-351.126984127	-305.825301205
854	0.427	-4588.4	-303.963492063	-351.126984127	-305.825301205
855	0.4275	-4588.4	-349.626984127	-351.126984127	-283.309638554
856	0.428	-4576.4	-349.626984127	-351.126984127	-305.825301205
857	0.4285	-4576.4	-349.626984127	-351.126984127	-283.309638554
858	0.429	-4576.4	-349.626984127	-351.126984127	-305.825301205
859	0.4295	-4588.4	-349.626984127	-351.126984127	-283.309638554
860	0.43	-4576.4	-349.626984127	-351.126984127	-283.309638554
861	0.4305	-4576.4	-349.626984127	-351.126984127	-283.309638554
862	0.431	-4576.4	-349.626984127	-351.126984127	-283.309638554
863	0.4315	-4576.4	-349.626984127	-351.126984127	-283.309638554
864	0.432	-4600.4	-349.626984127	-351.126984127	-272.051807229
865	0.4325	-4576.4	-349.626984127	-305.463492063	-283.309638554
866	0.433	-4588.4	-349.626984127	-351.126984127	-305.825301205
867	0.4335	-4576.4	-349.626984127	-351.126984127	-283.309638554
868	0.434	-4576.4	-349.626984127	-351.126984127	-283.309638554
869	0.4345	-4576.4	-349.626984127	-351.126984127	-283.309638554
870	0.435	-4576.4	-349.626984127	-351.126984127	-305.825301205
871	0.4355	-4576.4	-303.963492063	-351.126984127	-305.825301205
872	0.436	-4588.4	-349.626984127	-305.463492063	-305.825301205
873	0.4365	-4576.4	-303.963492063	-305.463492063	-350.856626506
874	0.437	-4576.4	-281.131746032	-305.463492063	-350.856626506
875	0.4375	-4576.4	-281.131746032	-351.126984127	-305.825301205
876	0.438	-4576.4	-281.131746032	-305.463492063	-350.856626506
877	0.4385	-4576.4	-303.963492063	-282.631746032	-350.856626506
878	0.439	-4576.4	-349.626984127	-305.463492063	-350.856626506
879	0.4395	-4588.4	-303.963492063	-351.126984127	-350.856626506
880	0.44	-4588.4	-349.626984127	-351.126984127	-350.856626506
881	0.4405	-4588.4	-349.626984127	-305.463492063	-350.856626506
882	0.441	-4576.4	-303.963492063	-351.126984127	-350.856626506
883	0.4415	-4576.4	-349.626984127	-351.126984127	-350.856626506
884	0.442	-4576.4	-349.626984127	-305.463492063	-350.856626506
885	0.4425	-4576.4	-349.626984127	-351.126984127	-373.372289157
886	0.443	-4576.4	-349.626984127	-351.126984127	-395.887951807
887	0.4435	-4588.4	-303.963492063	-305.463492063	-395.887951807
888	0.444	-4576.4	-349.626984127	-351.126984127	-395.887951807
889	0.4445	-4576.4	-349.626984127	-351.126984127	-395.887951807
890	0.445	-4576.4	-349.626984127	-305.463492063	-395.887951807
891	0.4455	-4588.4	-349.626984127	-351.126984127	-395.887951807
892	0.446	-4576.4	-349.626984127	-305.463492063	-440.919277108
893	0.4465	-4576.4	-303.963492063	-351.126984127	-440.919277108
894	0.447	-4576.4	-349.626984127	-351.126984127	-440.919277108
895	0.4475	-4576.4	-349.626984127	-351.126984127	-440.919277108
896	0.448	-4576.4	-281.131746032	-351.126984127	-440.919277108
897	0.4485	-4576.4	-303.963492063	-305.463492063	-452.177108434
898	0.449	-4588.4	-303.963492063	-305.463492063	-463.434939759
899	0.4495	-4588.4	-303.963492063	-305.463492063	-440.919277108
900	0.45	-4576.4	-303.963492063	-305.463492063	-485.95060241
901	0.4505	-4576.4	-303.963492063	-351.126984127	-452.177108434
902	0.451	-4588.4	-303.963492063	-282.631746032	-485.95060241
903	0.4515	-4576.4	-349.626984127	-351.126984127	-485.95060241
904	0.452	-4576.4	-349.626984127	-351.126984127	-485.95060241
905	0.4525	-4576.4	-349.626984127	-351.126984127	-485.95060241
906	0.453	-4588.4	-303.963492063	-351.126984127	-485.95060241
907	0.4535	-4576.4	-303.963492063	-351.126984127	-485.95060241
908	0.454	-4576.4	-303.963492063	-351.126984127	-485.95060241
909	0.4545	-4576.4	-303.963492063	-351.126984127	-485.95060241
910	0.455	-4588.4	-303.963492063	-351.126984127	-485.95060241
911	0.4555	-4576.4	-303.963492063	-305.463492063	-463.434939759
912	0.456	-4576.4	-349.626984127	-351.126984127	-463.434939759
913	0.4565	-4576.4	-303.963492063	-351.126984127	-463.434939759
914	0.457	-4576.4	-349.626984127	-351.126984127	-463.434939759
915	0.4575	-4576.4	-303.963492063	-351.126984127	-463.434939759
916	0.458	-4576.4	-303.963492063	-351.126984127	-463.434939759
917	0.4585	-4588.4	-303.963492063	-351.126984127	-463.434939759
918	0.459	-4576.4	-303.963492063	-351.126984127	-452.177108434
919	0.4595	-4576.4	-303.963492063	-351.126984127	-485.95060241
920	0.46	-4576.4	-303.963492063	-351.126984127	-463.434939759
921	0.4605	-4576.4	-303.963492063	-351.126984127	-463.434939759
922	0.461	-4576.4	-303.963492063	-351.126984127	-463.434939759
923	0.4615	-4576.4	-303.963492063	-351.126984127	-463.434939759
924	0.462	-4576.4	-303.963492063	-351.126984127	-485.95060241
925	0.4625	-4588.4	-303.963492063	-351.126984127	-452.177108434
926	0.463	-4576.4	-303.963492063	-351.126984127	-485.95060241
927	0.4635	-4576.4	-303.963492063	-351.126984127	-485.95060241
928	0.464	-4576.4	-303.963492063	-351.126984127	-485.95060241
929	0.4645	-4588.4	-303.963492063	-351.126984127	-485.95060241
930	0.465	-4576.4	-281.131746032	-351.126984127	-485.95060241
931	0.4655	-4576.4	-281.131746032	-351.126984127	-485.95060241
932	0.466	-4576.4	-303.963492063	-351.126984127	-485.95060241
933	0.4665	-4588.4	-303.963492063	-351.126984127	-485.95060241
934	0.467	-4576.4	-303.963492063	-351.126984127	-485.95060241
935	0.4675	-4576.4	-303.963492063	-351.126984127	-463.434939759
936	0.468	-4576.4	-303.963492063	-351.126984127	-485.95060241
937	0.4685	-4576.4	-303.963492063	-351.126984127	-485.95060241
938	0.469	-4576.4	-281.131746032	-351.126984127	-463.434939759
939	0.4695	-4600.4	-303.963492063	-351.126984127	-463.434939759
940	0.47	-4588.4	-303.963492063	-351.126984127	-463.434939759
941	0.4705	-4576.4	-303.963492063	-351.126984127	-485.95060241
942	0.471	-4576.4	-303.963492063	-351.126984127	-463.434939759
943	0.4715	-4576.4	-349.626984127	-351.126984127	-440.919277108
944	0.472	-4576.4	-349.626984127	-351.126984127	-440.919277108
945	0.4725	-4576.4	-349.626984127	-351.126984127	-440.919277108
946	0.473	-4576.4	-349.626984127	-351.126984127	-440.919277108
947	0.4735	-4576.4	-349.626984127	-351.126984127	-440.919277108
948	0.474	-4576.4	-349.626984127	-351.126984127	-440.919277108
949	0.4745	-4576.4	-349.626984127	-351.126984127	-440.919277108
950	0.475	-4576.4	-349.626984127	-351.126984127	-395.887951807
951	0.4755	-4576.4	-303.963492063	-305.463492063	-395.887951807
952	0.476	-4576.4	-303.963492063	-351.126984127	-395.887951807
953	0.4765	-4576.4	-349.626984127	-351.126984127	-395.887951807
954	0.477	-4576.4	-303.963492063	-351.126984127	-395.887951807
955	0.4775	-4600.4	-303.963492063	-351.126984127	-395.887951807
956	0.478	-4576.4	-303.963492063	-351.126984127	-395.887951807
957	0.4785	-4576.4	-303.963492063	-351.126984127	-373.372289157
958	0.479	-4588.4	-303.963492063	-351.126984127	-373.372289157
959	0.4795	-4576.4	-303.963492063	-351.126984127	-373.372289157
960	0.48	-4576.4	-349.626984127	-351.126984127	-373.372289157
961	0.4805	-4576.4	-349.626984127	-351.126984127	-350.856626506
962	0.481	-4576.4	-303.963492063	-351.126984127	-350.856626506
963	0.4815	-4576.4	-349.626984127	-351.126984127	-350.856626506
964	0.482	-4588.4	-349.626984127	-351.126984127	-350.856626506
965	0.4825	-4576.4	-349.626984127	-351.126984127	-350.856626506
966	0.483	-4576.4	-349.626984127	-351.126984127	-350.856626506
967	0.4835	-4588.4	-349.626984127	-351.126984127	-350.856626506
968	0.484	-4576.4	-349.626984127	-351.126984127	-350.856626506
969	0.4845	-4576.4	-349.626984127	-351.126984127	-350.856626506
970	0.485	-4576.4	-349.626984127	-351.126984127	-350.856626506
971	0.4855	-4576.4	-349.626984127	-351.126984127	-350.856626506
972	0.486	-4588.4	-349.626984127	-351.126984127	-350.856626506
973	0.4865	-4576.4	-349.626984127	-351.126984127	-350.856626506
974	0.487	-4576.4	-349.626984127	-351.126984127	-350.856626506
975	0.4875	-4588.4	-349.626984127	-351.126984127	-350.856626506
976	0.488	-4576.4	-349.626984127	-351.126984127	-305.825301205
977	0.4885	-4576.4	-349.626984127	-351.126984127	-305.825301205
978	0.489	-4576.4	-349.626984127	-351.126984127	-305.825301205
979	0.4895	-4576.4	-303.963492063	-305.463492063	-305.825301205
980	0.49	-4576.4	-349.626984127	-305.463492063	-305.825301205
981	0.4905	-4588.4	-349.626984127	-351.126984127	-305.825301205
982	0.491	-4576.4	-349.626984127	-351.126984127	-305.825301205
983	0.4915	-4576.4	-349.626984127	-351.126984127	-305.825301205
984	0.492	-4576.4	-349.626984127	-351.126984127	-260.793975904
985	0.4925	-4576.4	-349.626984127	-282.631746032	-283.309638554
986	0.493	-4576.4	-349.626984127	-305.463492063	-283.309638554
987	0.4935	-4576.4	-303.963492063	-351.126984127	-283.309638554
988	0.494	-4576.4	-349.626984127	-305.463492063	-283.309638554
989	0.4945	-4600.4	-349.626984127	-305.463492063	-283.309638554
990	0.495	-4576.4	-349.626984127	-305.463492063	-260.793975904
991	0.4955	-4576.4	-349.626984127	-305.463492063	-283.309638554
992	0.496	-4576.4	-349.626984127	-351.126984127	-283.309638554
993	0.4965	-4576.4	-349.626984127	-351.126984127	-283.309638554
994	0.497	-4576.4	-349.626984127	-305.463492063	-260.793975904
995	0.4975	-4576.4	-303.963492063	-305.463492063	-283.309638554
996	0.498	-4576.4	-281.131746032	-305.463492063	-283.309638554
997	0.4985	-4588.4	-349.626984127	-305.463492063	-283.309638554
998	0.499	-4576.4	-349.626984127	-305.463492063	-283.309638554
999	0.4995	-4576.4	-349.626984127	-305.463492063	-260.793975904
1000	0.5	-4576.4	-349.626984127	-351.126984127	-283.309638554
1001	0.5005	-4576.4	-349.626984127	-351.126984127	-283.309638554
1002	0.501	-4576.4	-349.626984127	-351.126984127	-283.309638554
1003	0.5015	-4576.4	-349.626984127	-305.463492063	-283.309638554
1004	0.502	-4576.4	-349.626984127	-305.463492063	-283.309638554
1005	0.5025	-4576.4	-349.626984127	-305.463492063	-283.309638554
1006	0.503	-4588.4	-349.626984127	-305.463492063	-283.309638554
1007	0.5035	-4576.4	-303.963492063	-305.463492063	-283.309638554
1008	0.504	-4576.4	-303.963492063	-351.126984127	-305.825301205
1009	0.5045	-4576.4	-303.963492063	-351.126984127	-260.793975904
1010	0.505	-4576.4	-303.963492063	-305.463492063	-283.309638554
1011	0.5055	-4576.4	-303.963492063	-351.126984127	-283.309638554
1012	0.506	-4576.4	-303.963492063	-305.463492063	-283.309638554
1013	0.5065	-4576.4	-349.626984127	-305.463492063	-260.793975904
1014	0.507	-4576.4	-303.963492063	-305.463492063	-260.793975904
1015	0.5075	-4576.4	-349.626984127	-305.463492063	-272.051807229
1016	0.508	-4576.4	-349.626984127	-305.463492063	-272.051807229
1017	0.5085	-4576.4	-349.626984127	-351.126984127	-283.309638554
1018	0.509	-4576.4	-349.626984127	-282.631746032	-283.309638554
1019	0.5095	-4576.4	-303.963492063	-305.463492063	-260.793975904
1020	0.51	-4576.4	-281.131746032	-305.463492063	-260.793975904
1021	0.5105	-4576.4	-303.963492063	-305.463492063	-260.793975904
1022	0.511	-4576.4	-281.131746032	-305.463492063	-260.793975904
1023	0.5115	-4588.4	-303.963492063	-305.463492063	-272.051807229
1024	0.512	-4588.4	-303.963492063	-305.463492063	-283.309638554
1025	0.5125	-4576.4	-303.963492063	-351.126984127	-283.309638554
1026	0.513	-4576.4	-303.963492063	-305.463492063	-260.793975904
1027	0.5135	-4576.4	-349.626984127	-282.631746032	-260.793975904
1028	0.514	-4576.4	-349.626984127	-305.463492063	-260.793975904
1029	0.5145	-4576.4	-303.963492063	-351.126984127	-260.793975904
1030	0.515	-4588.4	-349.626984127	-305.463492063	-260.793975904
1031	0.5155	-4576.4	-349.626984127	-305.463492063	-260.793975904
1032	0.516	-4576.4	-349.626984127	-305.463492063	-260.793975904
1033	0.5165	-4588.4	-349.626984127	-305.463492063	-260.793975904
1034	0.517	-4576.4	-349.626984127	-305.463492063	-260.793975904
1035	0.5175	-4576.4	-349.626984127	-305.463492063	-260.793975904
1036	0.518	-4588.4	-349.626984127	-305.463492063	-260.793975904
1037	0.5185	-4576.4	-349.626984127	-305.463492063	-260.793975904
1038	0.519	-4576.4	-349.626984127	-305.463492063	-260.793975904
1039	0.5195	-4576.4	-303.963492063	-305.463492063	-260.793975904
1040	0.52	-4576.4	-303.963492063	-305.463492063	-260.793975904
1041	0.5205	-4576.4	-349.626984127	-305.463492063	-260.793975904
1042	0.521	-4576.4	-349.626984127	-305.463492063	-260.793975904
1043	0.5215	-4576.4	-349.626984127	-305.463492063	-260.793975904
1044	0.522	-4588.4	-349.626984127	-305.463492063	-260.793975904
1045	0.5225	-4588.4	-349.626984127	-351.126984127	-260.793975904
1046	0.523	-4576.4	-281.131746032	-305.463492063	-260.793975904
1047	0.5235	-4576.4	-303.963492063	-305.463492063	-260.793975904
1048	0.524	-4576.4	-349.626984127	-305.463492063	-260.793975904
1049	0.5245	-4576.4	-303.963492063	-305.463492063	-260.793975904
1050	0.525	-4576.4	-349.626984127	-351.126984127	-260.793975904
1051	0.5255	-4588.4	-349.626984127	-305.463492063	-260.793975904
1052	0.526	-4576.4	-349.626984127	-305.463492063	-260.793975904
1053	0.5265	-4576.4	-349.626984127	-351.126984127	-260.793975904
1054	0.527	-4576.4	-349.626984127	-305.463492063	-260.793975904
1055	0.5275	-4576.4	-349.626984127	-305.463492063	-260.793975904
1056	0.528	-4588.4	-349.626984127	-305.463492063	-260.793975904
1057	0.5285	-4576.4	-349.626984127	-305.463492063	-272.051807229
1058	0.529	-4576.4	-349.626984127	-305.463492063	-260.793975904
1059	0.5295	-4576.4	-349.626984127	-351.126984127	-260.793975904
1060	0.53	-4588.4	-349.626984127	-351.126984127	-260.793975904
1061	0.5305	-4576.4	-349.626984127	-305.463492063	-260.793975904
1062	0.531	-4576.4	-349.626984127	-305.463492063	-260.793975904
1063	0.5315	-4576.4	-349.626984127	-305.463492063	-260.793975904
1064	0.532	-4588.4	-349.626984127	-305.463492063	-260.793975904
1065	0.5325	-4588.4	-303.963492063	-305.463492063	-260.793975904
1066	0.533	-4576.4	-303.963492063	-305.463492063	-283.309638554
1067	0.5335	-4576.4	-303.963492063	-351.126984127	-283.309638554
1068	0.534	-4576.4	-303.963492063	-282.631746032	-272.051807229
1069	0.5345	-4576.4	-349.626984127	-305.463492063	-283.309638554
1070	0.535	-4576.4	-349.626984127	-305.463492063	-283.309638554
1071	0.5355	-4576.4	-349.626984127	-351.126984127	-272.051807229
1072	0.536	-4600.4	-349.626984127	-305.463492063	-260.793975904
1073	0.5365	-4588.4	-349.626984127	-305.463492063	-260.793975904
1074	0.537	-4576.4	-349.626984127	-305.463492063	-283.309638554
1075	0.5375	-4576.4	-349.626984127	-305.463492063	-283.309638554
1076	0.538	-4576.4	-349.626984127	-305.463492063	-260.793975904
1077	0.5385	-4576.4	-303.963492063	-282.631746032	-260.793975904
1078	0.539	-4576.4	-303.963492063	-305.463492063	-260.793975904
1079	0.5395	-4576.4	-258.3	-305.463492063	-260.793975904
1080	0.54	-4576.4	-269.715873016	-351.126984127	-260.793975904
1081	0.5405	-4576.4	-281.131746032	-351.126984127	-260.793975904
1082	0.541	-4576.4	-303.963492063	-351.126984127	-260.793975904
1083	0.5415	-4576.4	-303.963492063	-305.463492063	-260.793975904
1084	0.542	-4576.4	-349.626984127	-305.463492063	-260.793975904
1085	0.5425	-4576.4	-349.626984127	-282.631746032	-260.793975904
1086	0.543	-4576.4	-349.626984127	-351.126984127	-260.793975904
1087	0.5435	-4576.4	-349.626984127	-351.126984127	-260.793975904
1088	0.544	-4588.4	-303.963492063	-351.126984127	-260.793975904
1089	0.5445	-4588.4	-349.626984127	-351.126984127	-260.793975904
1090	0.545	-4588.4	-349.626984127	-351.126984127	-260.793975904
1091	0.5455	-4576.4	-349.626984127	-305.463492063	-260.793975904
1092	0.546	-4576.4	-303.963492063	-351.126984127	-260.793975904
1093	0.5465	-4576.4	-303.963492063	-282.631746032	-260.793975904
1094	0.547	-4576.4	-303.963492063	-351.126984127	-260.793975904
1095	0.5475	-4576.4	-303.963492063	-282.631746032	-260.793975904
1096	0.548	-4576.4	-281.131746032	-305.463492063	-260.793975904
1097	0.5485	-4576.4	-303.963492063	-305.463492063	-260.793975904
1098	0.549	-4588.4	-349.626984127	-305.463492063	-260.793975904
1099	0.5495	-4588.4	-349.626984127	-305.463492063	-260.793975904
1100	0.55	-4576.4	-349.626984127	-305.463492063	-272.051807229
1101	0.5505	-4576.4	-303.963492063	-351.126984127	-260.793975904
1102	0.551	-4576.4	-303.963492063	-305.463492063	-260.793975904
1103	0.5515	-4576.4	-303.963492063	-282.631746032	-260.793975904
1104	0.552	-4576.4	-349.626984127	-305.463492063	-260.793975904
1105	0.5525	-4576.4	-303.963492063	-351.126984127	-260.793975904
1106	0.553	-4588.4	-349.626984127	-305.463492063	-260.793975904
1107	0.5535	-4576.4	-349.626984127	-305.463492063	-260.793975904
1108	0.554	-4576.4	-349.626984127	-305.463492063	-260.793975904
1109	0.5545	-4576.4	-303.963492063	-351.126984127	-260.793975904
1110	0.555	-4576.4	-349.626984127	-351.126984127	-260.793975904
1111	0.5555	-4576.4	-349.626984127	-282.631746032	-260.793975904
1112	0.556	-4576.4	-349.626984127	-351.126984127	-260.793975904
1113	0.5565	-4588.4	-349.626984127	-351.126984127	-260.793975904
1114	0.557	-4576.4	-349.626984127	-351.126984127	-260.793975904
1115	0.5575	-4588.4	-349.626984127	-305.463492063	-260.793975904
1116	0.558	-4576.4	-349.626984127	-305.463492063	-260.793975904
1117	0.5585	-4576.4	-303.963492063	-305.463492063	-260.793975904
1118	0.559	-4576.4	-303.963492063	-305.463492063	-260.793975904
1119	0.5595	-4576.4	-349.626984127	-351.126984127	-260.793975904
1120	0.56	-4576.4	-349.626984127	-305.463492063	-260.793975904
1121	0.5605	-4588.4	-349.626984127	-305.463492063	-260.793975904
1122	0.561	-4576.4	-349.626984127	-305.463492063	-260.793975904
1123	0.5615	-4576.4	-349.626984127	-305.463492063	-260.793975904
1124	0.562	-4576.4	-349.626984127	-305.463492063	-260.793975904
1125	0.5625	-4576.4	-349.626984127	-305.463492063	-260.793975904
1126	0.563	-4588.4	-349.626984127	-305.463492063	-260.793975904
1127	0.5635	-4576.4	-349.626984127	-351.126984127	-260.793975904
1128	0.564	-4576.4	-349.626984127	-305.463492063	-283.309638554
1129	0.5645	-4576.4	-349.626984127	-351.126984127	-260.793975904
1130	0.565	-4576.4	-349.626984127	-305.463492063	-260.793975904
1131	0.5655	-4576.4	-349.626984127	-305.463492063	-260.793975904
1132	0.566	-4588.4	-349.626984127	-305.463492063	-260.793975904
1133	0.5665	-4576.4	-349.626984127	-305.463492063	-260.793975904
1134	0.567	-4576.4	-349.626984127	-351.126984127	-260.793975904
1135	0.5675	-4576.4	-349.626984127	-351.126984127	-272.051807229
1136	0.568	-4576.4	-349.626984127	-351.126984127	-260.793975904
1137	0.5685	-4576.4	-349.626984127	-305.463492063	-260.793975904
1138	0.569	-4576.4	-349.626984127	-305.463492063	-260.793975904
1139	0.5695	-4576.4	-303.963492063	-305.463492063	-260.793975904
1140	0.57	-4588.4	-303.963492063	-305.463492063	-260.793975904
1141	0.5705	-4576.4	-349.626984127	-305.463492063	-260.793975904
1142	0.571	-4588.4	-349.626984127	-305.463492063	-260.793975904
1143	0.5715	-4576.4	-349.626984127	-305.463492063	-260.793975904
1144	0.572	-4576.4	-349.626984127	-282.631746032	-272.051807229
1145	0.5725	-4576.4	-349.626984127	-351.126984127	-260.793975904
1146	0.573	-4588.4	-303.963492063	-351.126984127	-260.793975904
1147	0.5735	-4576.4	-349.626984127	-351.126984127	-260.793975904
1148	0.574	-4576.4	-349.626984127	-351.126984127	-260.793975904
1149	0.5745	-4576.4	-349.626984127	-351.126984127	-260.793975904
1150	0.575	-4576.4	-349.626984127	-305.463492063	-283.309638554
1151	0.5755	-4576.4	-349.626984127	-351.126984127	-260.793975904
1152	0.576	-4576.4	-349.626984127	-305.463492063	-283.309638554
1153	0.5765	-4576.4	-349.626984127	-351.126984127	-260.793975904
1154	0.577	-4588.4	-349.626984127	-305.463492063	-260.793975904
1155	0.5775	-4576.4	-303.963492063	-305.463492063	-260.793975904
1156	0.578	-4576.4	-303.963492063	-351.126984127	-260.793975904
1157	0.5785	-4588.4	-349.626984127	-305.463492063	-260.793975904
1158	0.579	-4576.4	-303.963492063	-305.463492063	-260.793975904
1159	0.5795	-4576.4	-303.963492063	-351.126984127	-283.309638554
1160	0.58	-4576.4	-303.963492063	-305.463492063	-305.825301205
1161	0.5805	-4576.4	-349.626984127	-282.631746032	-283.309638554
1162	0.581	-4576.4	-349.626984127	-305.463492063	-305.825301205
1163	0.5815	-4576.4	-349.626984127	-351.126984127	-283.309638554
1164	0.582	-4576.4	-303.963492063	-305.463492063	-283.309638554
1165	0.5825	-4600.4	-349.626984127	-305.463492063	-283.309638554
1166	0.583	-4576.4	-349.626984127	-305.463492063	-260.793975904
1167	0.5835	-4576.4	-349.626984127	-305.463492063	-260.793975904
1168	0.584	-4576.4	-303.963492063	-351.126984127	-260.793975904
1169	0.5845	-4588.4	-303.963492063	-351.126984127	-260.793975904
1170	0.585	-4576.4	-303.963492063	-282.631746032	-283.309638554
1171	0.5855	-4576.4	-349.626984127	-351.126984127	-272.051807229
1172	0.586	-4588.4	-281.131746032	-305.463492063	-283.309638554
1173	0.5865	-4576.4	-349.626984127	-305.463492063	-260.793975904
1174	0.587	-4588.4	-349.626984127	-305.463492063	-283.309638554
1175	0.5875	-4576.4	-303.963492063	-305.463492063	-260.793975904
1176	0.588	-4576.4	-303.963492063	-305.463492063	-260.793975904
1177	0.5885	-4576.4	-303.963492063	-305.463492063	-260.793975904
1178	0.589	-4576.4	-349.626984127	-351.126984127	-283.309638554
1179	0.5895	-4576.4	-349.626984127	-282.631746032	-283.309638554
1180	0.59	-4576.4	-349.626984127	-351.126984127	-260.793975904
1181	0.5905	-4576.4	-349.626984127	-305.463492063	-272.051807229
1182	0.591	-4600.4	-349.626984127	-305.463492063	-260.793975904
1183	0.5915	-4576.4	-349.626984127	-305.463492063	-260.793975904
1184	0.592	-4576.4	-349.626984127	-305.463492063	-260.793975904
1185	0.5925	-4576.4	-349.626984127	-351.126984127	-283.309638554
1186	0.593	-4576.4	-349.626984127	-305.463492063	-260.793975904
1187	0.5935	-4576.4	-349.626984127	-351.126984127	-272.051807229
1188	0.594	-4576.4	-303.963492063	-305.463492063	-260.793975904
1189	0.5945	-4576.4	-303.963492063	-351.126984127	-260.793975904
1190	0.595	-4576.4	-303.963492063	-305.463492063	-260.793975904
1191	0.5955	-4588.4	-349.626984127	-305.463492063	-260.793975904
1192	0.596	-4588.4	-349.626984127	-305.463492063	-272.051807229
1193	0.5965	-4588.4	-349.626984127	-305.463492063	-260.793975904
1194	0.597	-4576.4	-349.626984127	-305.463492063	-260.793975904
1195	0.5975	-4576.4	-349.626984127	-305.463492063	-283.309638554
1196	0.598	-4576.4	-349.626984127	-351.126984127	-260.793975904
1197	0.5985	-4576.4	-349.626984127	-305.463492063	-260.793975904
1198	0.599	-4576.4	-349.626984127	-305.463492063	-260.793975904
1199	0.5995	-4576.4	-303.963492063	-305.463492063	-260.793975904
1200	0.6	-4576.4	-303.963492063	-305.463492063	-260.793975904
1201	0.6005	-4576.4	-303.963492063	-305.463492063	-260.793975904
1202	0.601	-4576.4	-303.963492063	-351.126984127	-260.793975904
1203	0.6015	-4576.4	-303.963492063	-305.463492063	-260.793975904
1204	0.602	-4576.4	-303.963492063	-282.631746032	-260.793975904
1205	0.6025	-4576.4	-349.626984127	-351.126984127	-260.793975904
1206	0.603	-4576.4	-303.963492063	-305.463492063	-260.793975904
1207	0.6035	-4588.4	-349.626984127	-305.463492063	-260.793975904
1208	0.604	-4576.4	-349.626984127	-305.463492063	-260.793975904
1209	0.6045	-4576.4	-349.626984127	-305.463492063	-260.793975904
1210	0.605	-4576.4	-349.626984127	-305.463492063	-260.793975904
1211	0.6055	-4588.4	-349.626984127	-351.126984127	-272.051807229
1212	0.606	-4576.4	-349.626984127	-305.463492063	-260.793975904
1213	0.6065	-4588.4	-349.626984127	-351.126984127	-260.793975904
1214	0.607	-4576.4	-349.626984127	-305.463492063	-260.793975904
1215	0.6075	-4576.4	-349.626984127	-305.463492063	-260.793975904
1216	0.608	-4588.4	-349.626984127	-305.463492063	-260.793975904
1217	0.6085	-4588.4	-349.626984127	-305.463492063	-283.309638554
1218	0.609	-4576.4	-349.626984127	-351.126984127	-260.793975904
1219	0.6095	-4576.4	-349.626984127	-305.463492063	-283.309638554
1220	0.61	-4576.4	-349.626984127	-351.126984127	-283.309638554
1221	0.6105	-4576.4	-349.626984127	-305.463492063	-272.051807229
1222	0.611	-4588.4	-303.963492063	-305.463492063	-272.051807229
1223	0.6115	-4576.4	-303.963492063	-305.463492063	-283.309638554
1224	0.612	-4588.4	-349.626984127	-305.463492063	-272.051807229
1225	0.6125	-4588.4	-349.626984127	-305.463492063	-260.793975904
1226	0.613	-4588.4	-349.626984127	-305.463492063	-283.309638554
1227	0.6135	-4576.4	-349.626984127	-305.463492063	-260.793975904
1228	0.614	-4576.4	-303.963492063	-305.463492063	-283.309638554
1229	0.6145	-4576.4	-349.626984127	-351.126984127	-283.309638554
1230	0.615	-4588.4	-349.626984127	-351.126984127	-283.309638554
1231	0.6155	-4576.4	-349.626984127	-305.463492063	-283.309638554
1232	0.616	-4588.4	-303.963492063	-305.463492063	-283.309638554
1233	0.6165	-4576.4	-303.963492063	-305.463492063	-283.309638554
1234	0.617	-4588.4	-303.963492063	-305.463492063	-260.793975904
1235	0.6175	-4576.4	-303.963492063	-305.463492063	-283.309638554
1236	0.618	-4576.4	-303.963492063	-351.126984127	-283.309638554
1237	0.6185	-4576.4	-349.626984127	-351.126984127	-272.051807229
1238	0.619	-4576.4	-349.626984127	-305.463492063	-272.051807229
1239	0.6195	-4576.4	-349.626984127	-305.463492063	-260.793975904
1240	0.62	-4588.4	-349.626984127	-305.463492063	-272.051807229
1241	0.6205	-4576.4	-349.626984127	-305.463492063	-283.309638554
1242	0.621	-4576.4	-303.963492063	-305.463492063	-260.793975904
1243	0.6215	-4576.4	-303.963492063	-305.463492063	-260.793975904
1244	0.622	-4576.4	-303.963492063	-282.631746032	-260.793975904
1245	0.6225	-4576.4	-349.626984127	-351.126984127	-260.793975904
1246	0.623	-4576.4	-303.963492063	-305.463492063	-272.051807229
1247	0.6235	-4576.4	-349.626984127	-305.463492063	-260.793975904
1248	0.624	-4576.4	-303.963492063	-305.463492063	-260.793975904
1249	0.6245	-4588.4	-349.626984127	-305.463492063	-260.793975904
1250	0.625	-4588.4	-349.626984127	-305.463492063	-260.793975904
1251	0.6255	-4576.4	-349.626984127	-351.126984127	-260.793975904
1252	0.626	-4576.4	-303.963492063	-351.126984127	-260.793975904
1253	0.6265	-4576.4	-349.626984127	-305.463492063	-272.051807229
1254	0.627	-4576.4	-349.626984127	-305.463492063	-283.309638554
1255	0.6275	-4588.4	-303.963492063	-351.126984127	-283.309638554
1256	0.628	-4576.4	-349.626984127	-305.463492063	-283.309638554
1257	0.6285	-4600.4	-303.963492063	-351.126984127	-283.309638554
1258	0.629	-4588.4	-303.963492063	-305.463492063	-283.309638554
1259	0.6295	-4576.4	-349.626984127	-305.463492063	-283.309638554
1260	0.63	-4576.4	-349.626984127	-351.126984127	-260.793975904
1261	0.6305	-4576.4	-303.963492063	-351.126984127	-283.309638554
1262	0.631	-4576.4	-349.626984127	-351.126984127	-283.309638554
1263	0.6315	-4588.4	-303.963492063	-351.126984127	-283.309638554
1264	0.632	-4576.4	-349.626984127	-305.463492063	-283.309638554
1265	0.6325	-4576.4	-349.626984127	-305.463492063	-283.309638554
1266	0.633	-4576.4	-349.626984127	-305.463492063	-260.793975904
1267	0.6335	-4576.4	-349.626984127	-351.126984127	-260.793975904
1268	0.634	-4576.4	-349.626984127	-305.463492063	-260.793975904
1269	0.6345	-4576.4	-349.626984127	-305.463492063	-283.309638554
1270	0.635	-4576.4	-303.963492063	-351.126984127	-260.793975904
1271	0.6355	-4576.4	-349.626984127	-305.463492063	-272.051807229
1272	0.636	-4588.4	-349.626984127	-351.126984127	-272.051807229
1273	0.6365	-4588.4	-303.963492063	-305.463492063	-283.309638554
1274	0.637	-4576.4	-303.963492063	-351.126984127	-260.793975904
1275	0.6375	-4576.4	-303.963492063	-305.463492063	-260.793975904
1276	0.638	-4576.4	-349.626984127	-351.126984127	-260.793975904
1277	0.6385	-4576.4	-349.626984127	-351.126984127	-283.309638554
1278	0.639	-4576.4	-349.626984127	-305.463492063	-283.309638554
1279	0.6395	-4576.4	-349.626984127	-351.126984127	-283.309638554
1280	0.64	-4576.4	-281.131746032	-305.463492063	-260.793975904
1281	0.6405	-4576.4	-349.626984127	-305.463492063	-260.793975904
1282	0.641	-4576.4	-349.626984127	-305.463492063	-260.793975904
1283	0.6415	-4576.4	-349.626984127	-305.463492063	-260.793975904
1284	0.642	-4588.4	-349.626984127	-305.463492063	-260.793975904
1285	0.6425	-4576.4	-349.626984127	-351.126984127	-260.793975904
1286	0.643	-4576.4	-349.626984127	-305.463492063	-260.793975904
1287	0.6435	-4576.4	-349.626984127	-351.126984127	-260.793975904
1288	0.644	-4576.4	-349.626984127	-305.463492063	-260.793975904
1289	0.6445	-4600.4	-349.626984127	-305.463492063	-283.309638554
1290	0.645	-4588.4	-349.626984127	-305.463492063	-305.825301205
1291	0.6455	-4588.4	-349.626984127	-305.463492063	-305.825301205
1292	0.646	-4576.4	-349.626984127	-351.126984127	-305.825301205
1293	0.6465	-4576.4	-349.626984127	-305.463492063	-305.825301205
1294	0.647	-4576.4	-349.626984127	-305.463492063	-305.825301205
1295	0.6475	-4588.4	-349.626984127	-305.463492063	-283.309638554
1296	0.648	-4576.4	-303.963492063	-351.126984127	-283.309638554
1297	0.6485	-4576.4	-349.626984127	-305.463492063	-260.793975904
1298	0.649	-4576.4	-303.963492063	-305.463492063	-260.793975904
1299	0.6495	-4576.4	-303.963492063	-305.463492063	-260.793975904
1300	0.65	-4576.4	-303.963492063	-305.463492063	-260.793975904
1301	0.6505	-4576.4	-303.963492063	-351.126984127	-260.793975904
1302	0.651	-4576.4	-303.963492063	-351.126984127	-305.825301205
1303	0.6515	-4576.4	-349.626984127	-351.126984127	-350.856626506
1304	0.652	-4576.4	-349.626984127	-351.126984127	-350.856626506
1305	0.6525	-4576.4	-349.626984127	-351.126984127	-305.825301205
1306	0.653	-4588.4	-303.963492063	-351.126984127	-305.825301205
1307	0.6535	-4576.4	-303.963492063	-351.126984127	-305.825301205
1308	0.654	-4588.4	-303.963492063	-351.126984127	-283.309638554
1309	0.6545	-4576.4	-303.963492063	-305.463492063	-260.793975904
1310	0.655	-4576.4	-303.963492063	-305.463492063	-305.825301205
1311	0.6555	-4588.4	-303.963492063	-351.126984127	-283.309638554
1312	0.656	-4576.4	-281.131746032	-305.463492063	-283.309638554
1313	0.6565	-4576.4	-303.963492063	-305.463492063	-283.309638554
1314	0.657	-4576.4	-349.626984127	-351.126984127	-283.309638554
1315	0.6575	-4576.4	-303.963492063	-351.126984127	-283.309638554
1316	0.658	-4576.4	-303.963492063	-305.463492063	-283.309638554
1317	0.6585	-4576.4	-303.963492063	-351.126984127	-260.793975904
1318	0.659	-4576.4	-303.963492063	-282.631746032	-272.051807229
1319	0.6595	-4576.4	-349.626984127	-351.126984127	-272.051807229
1320	0.66	-4576.4	-303.963492063	-351.126984127	-260.793975904
1321	0.6605	-4576.4	-349.626984127	-351.126984127	-260.793975904
1322	0.661	-4576.4	-349.626984127	-351.126984127	-260.793975904
1323	0.6615	-4576.4	-349.626984127	-305.463492063	-260.793975904
1324	0.662	-4576.4	-349.626984127	-351.126984127	-260.793975904
1325	0.6625	-4576.4	-349.626984127	-305.463492063	-283.309638554
1326	0.663	-4576.4	-349.626984127	-351.126984127	-260.793975904
1327	0.6635	-4576.4	-349.626984127	-305.463492063	-260.793975904
1328	0.664	-4576.4	-349.626984127	-351.126984127	-272.051807229
1329	0.6645	-4576.4	-349.626984127	-351.126984127	-260.793975904
1330	0.665	-4576.4	-349.626984127	-305.463492063	-260.793975904
1331	0.6655	-4576.4	-349.626984127	-305.463492063	-272.051807229
1332	0.666	-4588.4	-303.963492063	-305.463492063	-283.309638554
1333	0.6665	-4576.4	-303.963492063	-305.463492063	-260.793975904
1334	0.667	-4576.4	-303.963492063	-305.463492063	-283.309638554
1335	0.6675	-4576.4	-303.963492063	-282.631746032	-283.309638554
1336	0.668	-4576.4	-303.963492063	-351.126984127	-283.309638554
1337	0.6685	-4576.4	-303.963492063	-282.631746032	-305.825301205
1338	0.669	-4576.4	-349.626984127	-305.463492063	-283.309638554
1339	0.6695	-4576.4	-349.626984127	-305.463492063	-283.309638554
1340	0.67	-4600.4	-349.626984127	-305.463492063	-260.793975904
1341	0.6705	-4576.4	-349.626984127	-305.463492063	-260.793975904
1342	0.671	-4576.4	-349.626984127	-305.463492063	-260.793975904
1343	0.6715	-4576.4	-349.626984127	-305.463492063	-260.793975904
1344	0.672	-4576.4	-349.626984127	-351.126984127	-283.309638554
1345	0.6725	-4576.4	-349.626984127	-305.463492063	-283.309638554
1346	0.673	-4576.4	-303.963492063	-305.463492063	-283.309638554
1347	0.6735	-4576.4	-281.131746032	-305.463492063	-283.309638554
1348	0.674	-4576.4	-349.626984127	-305.463492063	-283.309638554
1349	0.6745	-4576.4	-349.626984127	-305.463492063	-283.309638554
1350	0.675	-4576.4	-349.626984127	-305.463492063	-260.793975904
1351	0.6755	-4576.4	-349.626984127	-351.126984127	-260.793975904
1352	0.676	-4576.4	-349.626984127	-351.126984127	-283.309638554
1353	0.6765	-4576.4	-349.626984127	-351.126984127	-283.309638554
1354	0.677	-4576.4	-349.626984127	-305.463492063	-283.309638554
1355	0.6775	-4576.4	-349.626984127	-351.126984127	-272.051807229
1356	0.678	-4588.4	-349.626984127	-305.463492063	-260.793975904
1357	0.6785	-4576.4	-349.626984127	-305.463492063	-283.309638554
1358	0.679	-4576.4	-349.626984127	-351.126984127	-283.309638554
1359	0.6795	-4576.4	-349.626984127	-351.126984127	-260.793975904
1360	0.68	-4576.4	-349.626984127	-282.631746032	-260.793975904
1361	0.6805	-4576.4	-349.626984127	-351.126984127	-272.051807229
1362	0.681	-4576.4	-349.626984127	-305.463492063	-283.309638554
1363	0.6815	-4576.4	-349.626984127	-351.126984127	-283.309638554
1364	0.682	-4600.4	-349.626984127	-305.463492063	-272.051807229
1365	0.6825	-4588.4	-349.626984127	-305.463492063	-272.051807229
1366	0.683	-4576.4	-349.626984127	-305.463492063	-260.793975904
1367	0.6835	-4588.4	-349.626984127	-351.126984127	-272.051807229
1368	0.684	-4576.4	-349.626984127	-351.126984127	-260.793975904
1369	0.6845	-4576.4	-303.963492063	-305.463492063	-283.309638554
1370	0.685	-4576.4	-303.963492063	-282.631746032	-283.309638554
1371	0.6855	-4576.4	-281.131746032	-305.463492063	-283.309638554
1372	0.686	-4576.4	-349.626984127	-305.463492063	-283.309638554
1373	0.6865	-4588.4	-349.626984127	-305.463492063	-283.309638554
1374	0.687	-4588.4	-303.963492063	-305.463492063	-283.309638554
1375	0.6875	-4576.4	-303.963492063	-305.463492063	-283.309638554
1376	0.688	-4576.4	-349.626984127	-305.463492063	-283.309638554
1377	0.6885	-4576.4	-349.626984127	-282.631746032	-283.309638554
1378	0.689	-4576.4	-349.626984127	-305.463492063	-305.825301205
1379	0.6895	-4576.4	-349.626984127	-305.463492063	-283.309638554
1380	0.69	-4588.4	-349.626984127	-305.463492063	-283.309638554
1381	0.6905	-4576.4	-349.626984127	-305.463492063	-272.051807229
1382	0.691	-4576.4	-349.626984127	-305.463492063	-283.309638554
1383	0.6915	-4576.4	-349.626984127	-305.463492063	-283.309638554
1384	0.692	-4576.4	-349.626984127	-305.463492063	-283.309638554
1385	0.6925	-4576.4	-303.963492063	-282.631746032	-283.309638554
1386	0.693	-4576.4	-349.626984127	-282.631746032	-283.309638554
1387	0.6935	-4576.4	-303.963492063	-351.126984127	-272.051807229
1388	0.694	-4576.4	-349.626984127	-305.463492063	-283.309638554
1389	0.6945	-4576.4	-349.626984127	-305.463492063	-283.309638554
1390	0.695	-4588.4	-349.626984127	-305.463492063	-283.309638554
1391	0.6955	-4576.4	-349.626984127	-305.463492063	-305.825301205
1392	0.696	-4576.4	-349.626984127	-305.463492063	-305.825301205
1393	0.6965	-4576.4	-349.626984127	-351.126984127	-283.309638554
1394	0.697	-4576.4	-349.626984127	-351.126984127	-305.825301205
1395	0.6975	-4576.4	-303.963492063	-305.463492063	-305.825301205
1396	0.698	-4576.4	-349.626984127	-351.126984127	-283.309638554
1397	0.6985	-4576.4	-303.963492063	-305.463492063	-283.309638554
1398	0.699	-4576.4	-281.131746032	-351.126984127	-283.309638554
1399	0.6995	-4576.4	-349.626984127	-351.126984127	-305.825301205
1400	0.7	-4576.4	-303.963492063	-305.463492063	-283.309638554
1401	0.7005	-4576.4	-303.963492063	-305.463492063	-283.309638554
1402	0.701	-4576.4	-349.626984127	-351.126984127	-305.825301205
1403	0.7015	-4588.4	-349.626984127	-351.126984127	-283.309638554
1404	0.702	-4576.4	-349.626984127	-351.126984127	-283.309638554
1405	0.7025	-4576.4	-349.626984127	-305.463492063	-283.309638554
1406	0.703	-4576.4	-303.963492063	-351.126984127	-283.309638554
1407	0.7035	-4588.4	-349.626984127	-351.126984127	-283.309638554
1408	0.704	-4576.4	-349.626984127	-351.126984127	-283.309638554
1409	0.7045	-4576.4	-349.626984127	-305.463492063	-305.825301205
1410	0.705	-4576.4	-349.626984127	-351.126984127	-272.051807229
1411	0.7055	-4576.4	-349.626984127	-305.463492063	-283.309638554
1412	0.706	-4576.4	-349.626984127	-351.126984127	-305.825301205
1413	0.7065	-4576.4	-303.963492063	-305.463492063	-305.825301205
1414	0.707	-4576.4	-303.963492063	-305.463492063	-305.825301205
1415	0.7075	-4576.4	-349.626984127	-351.126984127	-305.825301205
1416	0.708	-4576.4	-349.626984127	-305.463492063	-283.309638554
1417	0.7085	-4576.4	-303.963492063	-305.463492063	-305.825301205
1418	0.709	-4576.4	-349.626984127	-305.463492063	-305.825301205
1419	0.7095	-4588.4	-303.963492063	-282.631746032	-305.825301205
1420	0.71	-4576.4	-349.626984127	-305.463492063	-305.825301205
1421	0.7105	-4576.4	-349.626984127	-305.463492063	-305.825301205
1422	0.711	-4576.4	-281.131746032	-351.126984127	-305.825301205
1423	0.7115	-4576.4	-281.131746032	-351.126984127	-305.825301205
1424	0.712	-4576.4	-303.963492063	-305.463492063	-305.825301205
1425	0.7125	-4588.4	-303.963492063	-305.463492063	-305.825301205
1426	0.713	-4576.4	-349.626984127	-305.463492063	-305.825301205
1427	0.7135	-4576.4	-303.963492063	-282.631746032	-305.825301205
1428	0.714	-4576.4	-349.626984127	-351.126984127	-305.825301205
1429	0.7145	-4576.4	-349.626984127	-351.126984127	-305.825301205
1430	0.715	-4576.4	-349.626984127	-305.463492063	-305.825301205
1431	0.7155	-4576.4	-349.626984127	-305.463492063	-305.825301205
1432	0.716	-4600.4	-303.963492063	-351.126984127	-305.825301205
1433	0.7165	-4576.4	-303.963492063	-305.463492063	-305.825301205
1434	0.717	-4600.4	-303.963492063	-305.463492063	-283.309638554
1435	0.7175	-4576.4	-303.963492063	-305.463492063	-350.856626506
1436	0.718	-4576.4	-303.963492063	-351.126984127	-305.825301205
1437	0.7185	-4576.4	-303.963492063	-305.463492063	-350.856626506
1438	0.719	-4576.4	-303.963492063	-351.126984127	-350.856626506
1439	0.7195	-4576.4	-303.963492063	-351.126984127	-305.825301205
1440	0.72	-4576.4	-349.626984127	-305.463492063	-305.825301205
1441	0.7205	-4576.4	-349.626984127	-305.463492063	-350.856626506
1442	0.721	-4588.4	-349.626984127	-305.463492063	-305.825301205
1443	0.7215	-4576.4	-349.626984127	-305.463492063	-350.856626506
1444	0.722	-4576.4	-349.626984127	-305.463492063	-350.856626506
1445	0.7225	-4576.4	-349.626984127	-351.126984127	-350.856626506
1446	0.723	-4576.4	-349.626984127	-305.463492063	-305.825301205
1447	0.7235	-4576.4	-281.131746032	-305.463492063	-305.825301205
1448	0.724	-4576.4	-349.626984127	-351.126984127	-305.825301205
1449	0.7245	-4600.4	-349.626984127	-351.126984127	-305.825301205
1450	0.725	-4588.4	-349.626984127	-305.463492063	-305.825301205
1451	0.7255	-4588.4	-349.626984127	-305.463492063	-350.856626506
1452	0.726	-4576.4	-349.626984127	-351.126984127	-305.825301205
1453	0.7265	-4576.4	-349.626984127	-305.463492063	-305.825301205
1454	0.727	-4576.4	-349.626984127	-351.126984127	-305.825301205
1455	0.7275	-4588.4	-303.963492063	-305.463492063	-305.825301205
1456	0.728	-4576.4	-281.131746032	-305.463492063	-305.825301205
1457	0.7285	-4600.4	-303.963492063	-351.126984127	-350.856626506
1458	0.729	-4576.4	-303.963492063	-305.463492063	-350.856626506
1459	0.7295	-4588.4	-303.963492063	-305.463492063	-350.856626506
1460	0.73	-4588.4	-303.963492063	-351.126984127	-305.825301205
1461	0.7305	-4576.4	-303.963492063	-351.126984127	-283.309638554
1462	0.731	-4576.4	-303.963492063	-351.126984127	-305.825301205
1463	0.7315	-4576.4	-303.963492063	-282.631746032	-350.856626506
1464	0.732	-4576.4	-303.963492063	-351.126984127	-350.856626506
1465	0.7325	-4576.4	-349.626984127	-305.463492063	-350.856626506
1466	0.733	-4588.4	-303.963492063	-351.126984127	-350.856626506
1467	0.7335	-4576.4	-303.963492063	-305.463492063	-350.856626506
1468	0.734	-4576.4	-303.963492063	-305.463492063	-305.825301205
1469	0.7345	-4576.4	-303.963492063	-351.126984127	-305.825301205
1470	0.735	-4576.4	-303.963492063	-305.463492063	-350.856626506
1471	0.7355	-4588.4	-303.963492063	-305.463492063	-350.856626506
1472	0.736	-4576.4	-303.963492063	-351.126984127	-350.856626506
1473	0.7365	-4576.4	-349.626984127	-351.126984127	-350.856626506
1474	0.737	-4588.4	-349.626984127	-351.126984127	-350.856626506
1475	0.7375	-4576.4	-349.626984127	-305.463492063	-305.825301205
1476	0.738	-4576.4	-349.626984127	-305.463492063	-283.309638554
1477	0.7385	-4576.4	-349.626984127	-351.126984127	-283.309638554
1478	0.739	-4576.4	-303.963492063	-351.126984127	-305.825301205
1479	0.7395	-4576.4	-303.963492063	-305.463492063	-305.825301205
1480	0.74	-4576.4	-349.626984127	-351.126984127	-305.825301205
1481	0.7405	-4576.4	-349.626984127	-351.126984127	-305.825301205
1482	0.741	-4576.4	-349.626984127	-351.126984127	-305.825301205
1483	0.7415	-4576.4	-349.626984127	-351.126984127	-305.825301205
1484	0.742	-4576.4	-303.963492063	-305.463492063	-350.856626506
1485	0.7425	-4576.4	-303.963492063	-305.463492063	-350.856626506
1486	0.743	-4576.4	-303.963492063	-305.463492063	-305.825301205
1487	0.7435	-4576.4	-303.963492063	-351.126984127	-350.856626506
1488	0.744	-4576.4	-281.131746032	-305.463492063	-350.856626506
1489	0.7445	-4576.4	-349.626984127	-351.126984127	-305.825301205
1490	0.745	-4576.4	-303.963492063	-351.126984127	-305.825301205
1491	0.7455	-4588.4	-303.963492063	-305.463492063	-305.825301205
1492	0.746	-4576.4	-349.626984127	-305.463492063	-350.856626506
1493	0.7465	-4576.4	-349.626984127	-351.126984127	-305.825301205
1494	0.747	-4576.4	-349.626984127	-305.463492063	-350.856626506
1495	0.7475	-4576.4	-349.626984127	-282.631746032	-305.825301205
1496	0.748	-4576.4	-349.626984127	-351.126984127	-350.856626506
1497	0.7485	-4576.4	-349.626984127	-351.126984127	-350.856626506
1498	0.749	-4600.4	-303.963492063	-351.126984127	-350.856626506
1499	0.7495	-4576.4	-303.963492063	-351.126984127	-350.856626506
1500	0.75	-4576.4	-349.626984127	-351.126984127	-350.856626506
1501	0.7505	-4576.4	-349.626984127	-351.126984127	-305.825301205
1502	0.751	-4576.4	-303.963492063	-282.631746032	-350.856626506
1503	0.7515	-4576.4	-349.626984127	-305.463492063	-350.856626506
1504	0.752	-4576.4	-349.626984127	-351.126984127	-350.856626506
1505	0.7525	-4576.4	-349.626984127	-351.126984127	-350.856626506
1506	0.753	-4576.4	-349.626984127	-351.126984127	-350.856626506
1507	0.7535	-4576.4	-349.626984127	-305.463492063	-350.856626506
1508	0.754	-4588.4	-349.626984127	-305.463492063	-350.856626506
1509	0.7545	-4576.4	-349.626984127	-351.126984127	-350.856626506
1510	0.755	-4576.4	-281.131746032	-351.126984127	-305.825301205
1511	0.7555	-4576.4	-281.131746032	-282.631746032	-350.856626506
1512	0.756	-4576.4	-303.963492063	-305.463492063	-350.856626506
1513	0.7565	-4582.4	-281.131746032	-305.463492063	-350.856626506
1514	0.757	-4576.4	-349.626984127	-351.126984127	-350.856626506
1515	0.7575	-4576.4	-303.963492063	-305.463492063	-350.856626506
1516	0.758	-4588.4	-349.626984127	-351.126984127	-350.856626506
1517	0.7585	-4588.4	-303.963492063	-351.126984127	-350.856626506
1518	0.759	-4576.4	-303.963492063	-351.126984127	-350.856626506
1519	0.7595	-4576.4	-303.963492063	-305.463492063	-350.856626506
1520	0.76	-4576.4	-349.626984127	-351.126984127	-350.856626506
1521	0.7605	-4576.4	-349.626984127	-351.126984127	-350.856626506
1522	0.761	-4576.4	-303.963492063	-351.126984127	-350.856626506
1523	0.7615	-4576.4	-303.963492063	-351.126984127	-350.856626506
1524	0.762	-4576.4	-303.963492063	-305.463492063	-305.825301205
1525	0.7625	-4588.4	-303.963492063	-351.126984127	-350.856626506
1526	0.763	-4576.4	-303.963492063	-351.126984127	-305.825301205
1527	0.7635	-4576.4	-303.963492063	-305.463492063	-350.856626506
1528	0.764	-4576.4	-349.626984127	-351.126984127	-350.856626506
1529	0.7645	-4588.4	-349.626984127	-351.126984127	-305.825301205
1530	0.765	-4576.4	-303.963492063	-305.463492063	-305.825301205
1531	0.7655	-4576.4	-349.626984127	-305.463492063	-305.825301205
1532	0.766	-4576.4	-349.626984127	-305.463492063	-305.825301205
1533	0.7665	-4588.4	-349.626984127	-305.463492063	-305.825301205
1534	0.767	-4576.4	-349.626984127	-305.463492063	-305.825301205
1535	0.7675	-4576.4	-349.626984127	-351.126984127	-350.856626506
1536	0.768	-4576.4	-349.626984127	-351.126984127	-305.825301205
1537	0.7685	-4576.4	-349.626984127	-305.463492063	-305.825301205
1538	0.769	-4576.4	-349.626984127	-305.463492063	-305.825301205
1539	0.7695	-4588.4	-349.626984127	-305.463492063	-305.825301205
1540	0.77	-4576.4	-349.626984127	-351.126984127	-305.825301205
1541	0.7705	-4576.4	-349.626984127	-351.126984127	-305.825301205
1542	0.771	-4576.4	-349.626984127	-351.126984127	-283.309638554
1543	0.7715	-4588.4	-303.963492063	-351.126984127	-305.825301205
1544	0.772	-4576.4	-303.963492063	-351.126984127	-350.856626506
1545	0.7725	-4576.4	-303.963492063	-351.126984127	-350.856626506
1546	0.773	-4576.4	-303.963492063	-351.126984127	-350.856626506
1547	0.7735	-4576.4	-281.131746032	-351.126984127	-305.825301205
1548	0.774	-4588.4	-349.626984127	-351.126984127	-305.825301205
1549	0.7745	-4588.4	-303.963492063	-351.126984127	-283.309638554
1550	0.775	-4576.4	-303.963492063	-351.126984127	-305.825301205
1551	0.7755	-4588.4	-303.963492063	-305.463492063	-305.825301205
1552	0.776	-4576.4	-303.963492063	-305.463492063	-305.825301205
1553	0.7765	-4576.4	-303.963492063	-305.463492063	-305.825301205
1554	0.777	-4588.4	-303.963492063	-351.126984127	-305.825301205
1555	0.7775	-4576.4	-349.626984127	-305.463492063	-305.825301205
1556	0.778	-4588.4	-349.626984127	-351.126984127	-305.825301205
1557	0.7785	-4576.4	-349.626984127	-351.126984127	-305.825301205
1558	0.779	-4576.4	-303.963492063	-305.463492063	-305.825301205
1559	0.7795	-4576.4	-303.963492063	-305.463492063	-305.825301205
1560	0.78	-4576.4	-303.963492063	-351.126984127	-305.825301205
1561	0.7805	-4576.4	-303.963492063	-305.463492063	-305.825301205
1562	0.781	-4576.4	-349.626984127	-351.126984127	-305.825301205
1563	0.7815	-4576.4	-303.963492063	-305.463492063	-305.825301205
1564	0.782	-4588.4	-349.626984127	-305.463492063	-305.825301205
1565	0.7825	-4576.4	-349.626984127	-305.463492063	-350.856626506
1566	0.783	-4576.4	-349.626984127	-305.463492063	-283.309638554
1567	0.7835	-4588.4	-303.963492063	-305.463492063	-350.856626506
1568	0.784	-4576.4	-303.963492063	-282.631746032	-305.825301205
1569	0.7845	-4576.4	-349.626984127	-305.463492063	-350.856626506
1570	0.785	-4576.4	-349.626984127	-351.126984127	-305.825301205
1571	0.7855	-4576.4	-349.626984127	-305.463492063	-305.825301205
1572	0.786	-4576.4	-349.626984127	-351.126984127	-305.825301205
1573	0.7865	-4588.4	-349.626984127	-351.126984127	-305.825301205
1574	0.787	-4576.4	-349.626984127	-351.126984127	-350.856626506
1575	0.7875	-4588.4	-349.626984127	-351.126984127	-350.856626506
1576	0.788	-4576.4	-349.626984127	-305.463492063	-350.856626506
1577	0.7885	-4576.4	-349.626984127	-305.463492063	-305.825301205
1578	0.789	-4576.4	-303.963492063	-351.126984127	-305.825301205
1579	0.7895	-4576.4	-349.626984127	-351.126984127	-305.825301205
1580	0.79	-4576.4	-349.626984127	-351.126984127	-305.825301205
1581	0.7905	-4600.4	-349.626984127	-351.126984127	-305.825301205
1582	0.791	-4600.4	-349.626984127	-351.126984127	-305.825301205
1583	0.7915	-4576.4	-303.963492063	-351.126984127	-305.825301205
1584	0.792	-4576.4	-303.963492063	-351.126984127	-283.309638554
1585	0.7925	-4576.4	-303.963492063	-351.126984127	-283.309638554
1586	0.793	-4576.4	-303.963492063	-305.463492063	-283.309638554
1587	0.7935	-4576.4	-303.963492063	-351.126984127	-283.309638554
1588	0.794	-4588.4	-349.626984127	-351.126984127	-305.825301205
1589	0.7945	-4576.4	-303.963492063	-351.126984127	-305.825301205
1590	0.795	-4576.4	-349.626984127	-351.126984127	-305.825301205
1591	0.7955	-4576.4	-349.626984127	-351.126984127	-305.825301205
1592	0.796	-4576.4	-349.626984127	-351.126984127	-305.825301205
1593	0.7965	-4576.4	-303.963492063	-351.126984127	-305.825301205
1594	0.797	-4576.4	-303.963492063	-351.126984127	-260.793975904
1595	0.7975	-4576.4	-303.963492063	-305.463492063	-260.793975904
1596	0.798	-4576.4	-303.963492063	-305.463492063	-260.793975904
1597	0.7985	-4576.4	-281.131746032	-351.126984127	-260.793975904
1598	0.799	-4576.4	-303.963492063	-351.126984127	-260.793975904
1599	0.7995	-4576.4	-303.963492063	-351.126984127	-305.825301205
1600	0.8	-4576.4	-303.963492063	-351.126984127	-350.856626506
1601	0.8005	-4588.4	-303.963492063	-351.126984127	-350.856626506
1602	0.801	-4576.4	-303.963492063	-351.126984127	-305.825301205
1603	0.8015	-4576.4	-303.963492063	-305.463492063	-350.856626506
1604	0.802	-4576.4	-349.626984127	-351.126984127	-305.825301205
1605	0.8025	-4588.4	-349.626984127	-351.126984127	-305.825301205
1606	0.803	-4576.4	-349.626984127	-351.126984127	-305.825301205
1607	0.8035	-4588.4	-349.626984127	-351.126984127	-305.825301205
1608	0.804	-4576.4	-349.626984127	-351.126984127	-305.825301205
1609	0.8045	-4588.4	-349.626984127	-351.126984127	-305.825301205
1610	0.805	-4588.4	-303.963492063	-351.126984127	-305.825301205
1611	0.8055	-4576.4	-303.963492063	-305.463492063	-305.825301205
1612	0.806	-4576.4	-303.963492063	-351.126984127	-283.309638554
1613	0.8065	-4576.4	-303.963492063	-351.126984127	-283.309638554
1614	0.807	-4576.4	-303.963492063	-351.126984127	-260.793975904
1615	0.8075	-4576.4	-349.626984127	-351.126984127	-272.051807229
1616	0.808	-4588.4	-349.626984127	-351.126984127	-260.793975904
1617	0.8085	-4576.4	-349.626984127	-351.126984127	-272.051807229
1618	0.809	-4576.4	-349.626984127	-351.126984127	-260.793975904
1619	0.8095	-4576.4	-303.963492063	-305.463492063	-283.309638554
1620	0.81	-4576.4	-303.963492063	-305.463492063	-283.309638554
1621	0.8105	-4588.4	-303.963492063	-282.631746032	-305.825301205
1622	0.811	-4576.4	-349.626984127	-351.126984127	-305.825301205
1623	0.8115	-4576.4	-349.626984127	-351.126984127	-305.825301205
1624	0.812	-4576.4	-303.963492063	-351.126984127	-305.825301205
1625	0.8125	-4576.4	-303.963492063	-351.126984127	-305.825301205
1626	0.813	-4576.4	-303.963492063	-351.126984127	-283.309638554
1627	0.8135	-4576.4	-303.963492063	-351.126984127	-305.825301205
1628	0.814	-4576.4	-303.963492063	-351.126984127	-305.825301205
1629	0.8145	-4576.4	-303.963492063	-351.126984127	-305.825301205
1630	0.815	-4576.4	-349.626984127	-351.126984127	-305.825301205
1631	0.8155	-4576.4	-281.131746032	-351.126984127	-305.825301205
1632	0.816	-4576.4	-303.963492063	-351.126984127	-305.825301205
1633	0.8165	-4576.4	-349.626984127	-305.463492063	-305.825301205
1634	0.817	-4576.4	-349.626984127	-305.463492063	-305.825301205
1635	0.8175	-4576.4	-349.626984127	-305.463492063	-305.825301205
1636	0.818	-4576.4	-349.626984127	-351.126984127	-305.825301205
1637	0.8185	-4576.4	-303.963492063	-351.126984127	-305.825301205
1638	0.819	-4576.4	-349.626984127	-351.126984127	-283.309638554
1639	0.8195	-4576.4	-349.626984127	-351.126984127	-305.825301205
1640	0.82	-4576.4	-349.626984127	-351.126984127	-283.309638554
1641	0.8205	-4588.4	-349.626984127	-351.126984127	-283.309638554
1642	0.821	-4576.4	-349.626984127	-305.463492063	-305.825301205
1643	0.8215	-4576.4	-349.626984127	-351.126984127	-283.309638554
1644	0.822	-4576.4	-303.963492063	-351.126984127	-305.825301205
1645	0.8225	-4576.4	-303.963492063	-351.126984127	-283.309638554
1646	0.823	-4576.4	-303.963492063	-305.463492063	-283.309638554
1647	0.8235	-4588.4	-349.626984127	-351.126984127	-283.309638554
1648	0.824	-4576.4	-281.131746032	-305.463492063	-283.309638554
1649	0.8245	-4588.4	-349.626984127	-305.463492063	-305.825301205
1650	0.825	-4576.4	-349.626984127	-351.126984127	-305.825301205
1651	0.8255	-4576.4	-349.626984127	-351.126984127	-305.825301205
1652	0.826	-4576.4	-349.626984127	-351.126984127	-305.825301205
1653	0.8265	-4576.4	-303.963492063	-282.631746032	-305.825301205
1654	0.827	-4576.4	-349.626984127	-305.463492063	-305.825301205
1655	0.8275	-4576.4	-349.626984127	-351.126984127	-305.825301205
1656	0.828	-4576.4	-349.626984127	-305.463492063	-305.825301205
1657	0.8285	-4576.4	-349.626984127	-351.126984127	-305.825301205
1658	0.829	-4576.4	-349.626984127	-351.126984127	-305.825301205
1659	0.8295	-4576.4	-349.626984127	-351.126984127	-305.825301205
1660	0.83	-4576.4	-303.963492063	-351.126984127	-305.825301205
1661	0.8305	-4576.4	-349.626984127	-351.126984127	-305.825301205
1662	0.831	-4588.4	-303.963492063	-351.126984127	-305.825301205
1663	0.8315	-4576.4	-349.626984127	-351.126984127	-305.825301205
1664	0.832	-4576.4	-349.626984127	-351.126984127	-283.309638554
1665	0.8325	-4588.4	-303.963492063	-351.126984127	-283.309638554
1666	0.833	-4576.4	-349.626984127	-305.463492063	-283.309638554
1667	0.8335	-4576.4	-303.963492063	-305.463492063	-305.825301205
1668	0.834	-4576.4	-303.963492063	-351.126984127	-305.825301205
1669	0.8345	-4576.4	-303.963492063	-305.463492063	-305.825301205
1670	0.835	-4576.4	-303.963492063	-305.463492063	-305.825301205
1671	0.8355	-4576.4	-303.963492063	-351.126984127	-305.825301205
1672	0.836	-4576.4	-303.963492063	-351.126984127	-283.309638554
1673	0.8365	-4576.4	-349.626984127	-351.126984127	-283.309638554
1674	0.837	-4576.4	-303.963492063	-305.463492063	-305.825301205
1675	0.8375	-4576.4	-349.626984127	-351.126984127	-283.309638554
1676	0.838	-4576.4	-303.963492063	-305.463492063	-305.825301205
1677	0.8385	-4588.4	-303.963492063	-305.463492063	-305.825301205
1678	0.839	-4588.4	-349.626984127	-351.126984127	-305.825301205
1679	0.8395	-4576.4	-303.963492063	-351.126984127	-283.309638554
1680	0.84	-4576.4	-349.626984127	-351.126984127	-283.309638554
1681	0.8405	-4576.4	-349.626984127	-351.126984127	-283.309638554
1682	0.841	-4576.4	-349.626984127	-351.126984127	-283.309638554
1683	0.8415	-4600.4	-349.626984127	-305.463492063	-283.309638554
1684	0.842	-4576.4	-349.626984127	-305.463492063	-305.825301205
1685	0.8425	-4576.4	-349.626984127	-351.126984127	-283.309638554
1686	0.843	-4576.4	-303.963492063	-305.463492063	-283.309638554
1687	0.8435	-4576.4	-303.963492063	-305.463492063	-305.825301205
1688	0.844	-4588.4	-303.963492063	-351.126984127	-283.309638554
1689	0.8445	-4576.4	-303.963492063	-351.126984127	-283.309638554
1690	0.845	-4576.4	-349.626984127	-351.126984127	-283.309638554
1691	0.8455	-4576.4	-349.626984127	-351.126984127	-283.309638554
1692	0.846	-4576.4	-303.963492063	-351.126984127	-283.309638554
1693	0.8465	-4576.4	-349.626984127	-305.463492063	-283.309638554
1694	0.847	-4576.4	-349.626984127	-351.126984127	-260.793975904
1695	0.8475	-4576.4	-349.626984127	-351.126984127	-260.793975904
1696	0.848	-4576.4	-349.626984127	-282.631746032	-283.309638554
1697	0.8485	-4576.4	-349.626984127	-351.126984127	-283.309638554
1698	0.849	-4588.4	-303.963492063	-305.463492063	-283.309638554
1699	0.8495	-4576.4	-349.626984127	-305.463492063	-283.309638554
1700	0.85	-4576.4	-349.626984127	-305.463492063	-283.309638554
1701	0.8505	-4576.4	-303.963492063	-305.463492063	-283.309638554
1702	0.851	-4576.4	-303.963492063	-305.463492063	-283.309638554
1703	0.8515	-4576.4	-303.963492063	-351.126984127	-283.309638554
1704	0.852	-4588.4	-303.963492063	-305.463492063	-305.825301205
1705	0.8525	-4576.4	-303.963492063	-351.126984127	-260.793975904
1706	0.853	-4576.4	-349.626984127	-305.463492063	-283.309638554
1707	0.8535	-4588.4	-303.963492063	-305.463492063	-283.309638554
1708	0.854	-4576.4	-349.626984127	-305.463492063	-283.309638554
1709	0.8545	-4588.4	-349.626984127	-305.463492063	-283.309638554
1710	0.855	-4588.4	-349.626984127	-305.463492063	-283.309638554
1711	0.8555	-4588.4	-349.626984127	-305.463492063	-260.793975904
1712	0.856	-4576.4	-349.626984127	-351.126984127	-283.309638554
1713	0.8565	-4576.4	-349.626984127	-351.126984127	-305.825301205
1714	0.857	-4576.4	-349.626984127	-351.126984127	-283.309638554
1715	0.8575	-4576.4	-349.626984127	-351.126984127	-283.309638554
1716	0.858	-4576.4	-349.626984127	-305.463492063	-260.793975904
1717	0.8585	-4588.4	-349.626984127	-305.463492063	-272.051807229
1718	0.859	-4576.4	-349.626984127	-305.463492063	-283.309638554
1719	0.8595	-4576.4	-349.626984127	-305.463492063	-260.793975904
1720	0.86	-4576.4	-349.626984127	-305.463492063	-283.309638554
1721	0.8605	-4576.4	-303.963492063	-282.631746032	-260.793975904
1722	0.861	-4576.4	-303.963492063	-351.126984127	-260.793975904
1723	0.8615	-4576.4	-349.626984127	-351.126984127	-260.793975904
1724	0.862	-4576.4	-349.626984127	-351.126984127	-260.793975904
1725	0.8625	-4600.4	-349.626984127	-351.126984127	-260.793975904
1726	0.863	-4588.4	-303.963492063	-305.463492063	-260.793975904
1727	0.8635	-4576.4	-303.963492063	-305.463492063	-260.793975904
1728	0.864	-4576.4	-303.963492063	-305.463492063	-260.793975904
1729	0.8645	-4576.4	-303.963492063	-282.631746032	-260.793975904
1730	0.865	-4576.4	-303.963492063	-351.126984127	-260.793975904
1731	0.8655	-4576.4	-303.963492063	-282.631746032	-283.309638554
1732	0.866	-4576.4	-349.626984127	-305.463492063	-260.793975904
1733	0.8665	-4576.4	-349.626984127	-305.463492063	-260.793975904
1734	0.867	-4588.4	-349.626984127	-305.463492063	-260.793975904
1735	0.8675	-4576.4	-349.626984127	-305.463492063	-283.309638554
1736	0.868	-4588.4	-349.626984127	-305.463492063	-283.309638554
1737	0.8685	-4576.4	-349.626984127	-305.463492063	-260.793975904
1738	0.869	-4576.4	-349.626984127	-305.463492063	-260.793975904
1739	0.8695	-4588.4	-303.963492063	-305.463492063	-260.793975904
1740	0.87	-4588.4	-349.626984127	-351.126984127	-260.793975904
1741	0.8705	-4576.4	-303.963492063	-305.463492063	-260.793975904
1742	0.871	-4588.4	-349.626984127	-305.463492063	-272.051807229
1743	0.8715	-4576.4	-349.626984127	-351.126984127	-260.793975904
1744	0.872	-4576.4	-349.626984127	-305.463492063	-272.051807229
1745	0.8725	-4576.4	-349.626984127	-305.463492063	-283.309638554
1746	0.873	-4576.4	-349.626984127	-351.126984127	-272.051807229
1747	0.8735	-4576.4	-349.626984127	-305.463492063	-272.051807229
1748	0.874	-4576.4	-349.626984127	-351.126984127	-283.309638554
1749	0.8745	-4576.4	-303.963492063	-305.463492063	-283.309638554
1750	0.875	-4576.4	-349.626984127	-305.463492063	-272.051807229
1751	0.8755	-4576.4	-349.626984127	-305.463492063	-283.309638554
1752	0.876	-4588.4	-349.626984127	-305.463492063	-260.793975904
1753	0.8765	-4576.4	-349.626984127	-351.126984127	-260.793975904
1754	0.877	-4576.4	-349.626984127	-305.463492063	-305.825301205
1755	0.8775	-4576.4	-349.626984127	-351.126984127	-272.051807229
1756	0.878	-4576.4	-349.626984127	-305.463492063	-283.309638554
1757	0.8785	-4576.4	-303.963492063	-305.463492063	-283.309638554
1758	0.879	-4588.4	-349.626984127	-305.463492063	-283.309638554
1759	0.8795	-4576.4	-303.963492063	-305.463492063	-272.051807229
1760	0.88	-4576.4	-303.963492063	-305.463492063	-283.309638554
1761	0.8805	-4588.4	-281.131746032	-305.463492063	-283.309638554
1762	0.881	-4576.4	-281.131746032	-305.463492063	-283.309638554
1763	0.8815	-4576.4	-303.963492063	-305.463492063	-283.309638554
1764	0.882	-4576.4	-303.963492063	-305.463492063	-305.825301205
1765	0.8825	-4588.4	-281.131746032	-305.463492063	-283.309638554
1766	0.883	-4576.4	-349.626984127	-305.463492063	-283.309638554
1767	0.8835	-4588.4	-349.626984127	-305.463492063	-283.309638554
1768	0.884	-4576.4	-303.963492063	-351.126984127	-283.309638554
1769	0.8845	-4588.4	-303.963492063	-305.463492063	-305.825301205
1770	0.885	-4576.4	-303.963492063	-305.463492063	-283.309638554
1771	0.8855	-4576.4	-303.963492063	-351.126984127	-305.825301205
1772	0.886	-4576.4	-303.963492063	-351.126984127	-283.309638554
1773	0.8865	-4588.4	-349.626984127	-305.463492063	-283.309638554
1774	0.887	-4576.4	-349.626984127	-305.463492063	-283.309638554
1775	0.8875	-4588.4	-349.626984127	-305.463492063	-305.825301205
1776	0.888	-4576.4	-349.626984127	-305.463492063	-305.825301205
1777	0.8885	-4588.4	-303.963492063	-305.463492063	-305.825301205
1778	0.889	-4576.4	-349.626984127	-351.126984127	-305.825301205
1779	0.8895	-4576.4	-303.963492063	-351.126984127	-283.309638554
1780	0.89	-4576.4	-349.626984127	-305.463492063	-283.309638554
1781	0.8905	-4576.4	-349.626984127	-282.631746032	-305.825301205
1782	0.891	-4576.4	-303.963492063	-305.463492063	-305.825301205
1783	0.8915	-4576.4	-349.626984127	-305.463492063	-283.309638554
1784	0.892	-4576.4	-349.626984127	-305.463492063	-305.825301205
1785	0.8925	-4576.4	-349.626984127	-305.463492063	-305.825301205
1786	0.893	-4588.4	-303.963492063	-305.463492063	-283.309638554
1787	0.8935	-4576.4	-303.963492063	-305.463492063	-305.825301205
1788	0.894	-4576.4	-303.963492063	-305.463492063	-305.825301205
1789	0.8945	-4576.4	-349.626984127	-351.126984127	-283.309638554
1790	0.895	-4576.4	-349.626984127	-305.463492063	-283.309638554
1791	0.8955	-4576.4	-303.963492063	-305.463492063	-283.309638554
1792	0.896	-4576.4	-349.626984127	-305.463492063	-305.825301205
1793	0.8965	-4576.4	-303.963492063	-305.463492063	-305.825301205
1794	0.897	-4576.4	-349.626984127	-351.126984127	-272.051807229
1795	0.8975	-4576.4	-349.626984127	-305.463492063	-272.051807229
1796	0.898	-4576.4	-349.626984127	-351.126984127	-283.309638554
1797	0.8985	-4576.4	-349.626984127	-282.631746032	-283.309638554
1798	0.899	-4576.4	-349.626984127	-305.463492063	-305.825301205
1799	0.8995	-4576.4	-303.963492063	-351.126984127	-283.309638554
1800	0.9	-4588.4	-349.626984127	-305.463492063	-283.309638554
1801	0.9005	-4588.4	-349.626984127	-305.463492063	-305.825301205
1802	0.901	-4576.4	-349.626984127	-305.463492063	-283.309638554
1803	0.9015	-4576.4	-303.963492063	-351.126984127	-305.825301205
1804	0.902	-4576.4	-303.963492063	-305.463492063	-305.825301205
1805	0.9025	-4576.4	-303.963492063	-351.126984127	-305.825301205
1806	0.903	-4576.4	-349.626984127	-305.463492063	-305.825301205
1807	0.9035	-4576.4	-281.131746032	-351.126984127	-305.825301205
1808	0.904	-4576.4	-303.963492063	-305.463492063	-305.825301205
1809	0.9045	-4576.4	-349.626984127	-351.126984127	-305.825301205
1810	0.905	-4576.4	-349.626984127	-351.126984127	-305.825301205
1811	0.9055	-4588.4	-349.626984127	-351.126984127	-305.825301205
1812	0.906	-4576.4	-349.626984127	-351.126984127	-260.793975904
1813	0.9065	-4576.4	-349.626984127	-282.631746032	-305.825301205
1814	0.907	-4576.4	-349.626984127	-351.126984127	-305.825301205
1815	0.9075	-4576.4	-349.626984127	-282.631746032	-305.825301205
1816	0.908	-4576.4	-349.626984127	-305.463492063	-305.825301205
1817	0.9085	-4576.4	-349.626984127	-305.463492063	-283.309638554
1818	0.909	-4600.4	-349.626984127	-305.463492063	-305.825301205
1819	0.9095	-4576.4	-349.626984127	-305.463492063	-305.825301205
1820	0.91	-4576.4	-349.626984127	-305.463492063	-305.825301205
1821	0.9105	-4576.4	-349.626984127	-351.126984127	-305.825301205
1822	0.911	-4576.4	-303.963492063	-305.463492063	-305.825301205
1823	0.9115	-4576.4	-349.626984127	-282.631746032	-305.825301205
1824	0.912	-4576.4	-349.626984127	-305.463492063	-305.825301205
1825	0.9125	-4576.4	-349.626984127	-305.463492063	-305.825301205
1826	0.913	-4588.4	-303.963492063	-351.126984127	-305.825301205
1827	0.9135	-4576.4	-303.963492063	-305.463492063	-305.825301205
1828	0.914	-4576.4	-349.626984127	-351.126984127	-305.825301205
1829	0.9145	-4576.4	-303.963492063	-351.126984127	-305.825301205
1830	0.915	-4576.4	-303.963492063	-351.126984127	-305.825301205
1831	0.9155	-4576.4	-303.963492063	-351.126984127	-305.825301205
1832	0.916	-4576.4	-349.626984127	-351.126984127	-305.825301205
1833	0.9165	-4576.4	-281.131746032	-305.463492063	-305.825301205
1834	0.917	-4576.4	-303.963492063	-305.463492063	-305.825301205
1835	0.9175	-4576.4	-303.963492063	-305.463492063	-305.825301205
1836	0.918	-4576.4	-303.963492063	-305.463492063	-305.825301205
1837	0.9185	-4588.4	-303.963492063	-305.463492063	-305.825301205
1838	0.919	-4576.4	-303.963492063	-305.463492063	-283.309638554
1839	0.9195	-4576.4	-303.963492063	-282.631746032	-305.825301205
1840	0.92	-4576.4	-349.626984127	-282.631746032	-305.825301205
1841	0.9205	-4576.4	-303.963492063	-305.463492063	-305.825301205
1842	0.921	-4576.4	-349.626984127	-305.463492063	-283.309638554
1843	0.9215	-4588.4	-349.626984127	-305.463492063	-305.825301205
1844	0.922	-4576.4	-349.626984127	-305.463492063	-283.309638554
1845	0.9225	-4588.4	-349.626984127	-305.463492063	-305.825301205
1846	0.923	-4576.4	-349.626984127	-305.463492063	-305.825301205
1847	0.9235	-4576.4	-349.626984127	-351.126984127	-305.825301205
1848	0.924	-4576.4	-303.963492063	-305.463492063	-305.825301205
1849	0.9245	-4576.4	-303.963492063	-351.126984127	-305.825301205
1850	0.925	-4576.4	-303.963492063	-305.463492063	-305.825301205
1851	0.9255	-4576.4	-303.963492063	-305.463492063	-305.825301205
1852	0.926	-4576.4	-303.963492063	-305.463492063	-305.825301205
1853	0.9265	-4576.4	-303.963492063	-305.463492063	-283.309638554
1854	0.927	-4576.4	-303.963492063	-305.463492063	-305.825301205
1855	0.9275	-4576.4	-349.626984127	-351.126984127	-305.825301205
1856	0.928	-4576.4	-303.963492063	-351.126984127	-305.825301205
1857	0.9285	-4576.4	-349.626984127	-351.126984127	-305.825301205
1858	0.929	-4576.4	-303.963492063	-305.463492063	-305.825301205
1859	0.9295	-4576.4	-349.626984127	-351.126984127	-305.825301205
1860	0.93	-4588.4	-303.963492063	-351.126984127	-305.825301205
1861	0.9305	-4588.4	-303.963492063	-305.463492063	-283.309638554
1862	0.931	-4576.4	-349.626984127	-305.463492063	-305.825301205
1863	0.9315	-4576.4	-303.963492063	-351.126984127	-305.825301205
1864	0.932	-4576.4	-349.626984127	-305.463492063	-305.825301205
1865	0.9325	-4576.4	-303.963492063	-305.463492063	-305.825301205
1866	0.933	-4576.4	-281.131746032	-305.463492063	-305.825301205
1867	0.9335	-4576.4	-349.626984127	-305.463492063	-305.825301205
1868	0.934	-4576.4	-349.626984127	-305.463492063	-305.825301205
1869	0.9345	-4576.4	-349.626984127	-305.463492063	-350.856626506
1870	0.935	-4576.4	-349.626984127	-305.463492063	-350.856626506
1871	0.9355	-4588.4	-349.626984127	-351.126984127	-305.825301205
1872	0.936	-4588.4	-349.626984127	-305.463492063	-350.856626506
1873	0.9365	-4576.4	-349.626984127	-305.463492063	-305.825301205
1874	0.937	-4576.4	-349.626984127	-351.126984127	-305.825301205
1875	0.9375	-4576.4	-349.626984127	-305.463492063	-305.825301205
1876	0.938	-4576.4	-349.626984127	-305.463492063	-305.825301205
1877	0.9385	-4588.4	-349.626984127	-305.463492063	-305.825301205
1878	0.939	-4588.4	-349.626984127	-305.463492063	-305.825301205
