	Time	Channel 1	Channel 2	Channel 3	Channel 4
0	0.0	-3.684375	-3.94	4.94897959184	31.221686747
1	0.0005	2.103125	0.44	3.51836734694	35.4506024096
2	0.001	2.103125	0.44	4.94897959184	32.6313253012
3	0.0015	2.103125	-8.32	-6.49591836735	29.8120481928
4	0.002	-12.365625	0.44	-0.773469387755	36.8602409639
5	0.0025	13.678125	0.44	6.37959183673	34.0409638554
6	0.003	0.65625	0.44	7.81020408163	31.221686747
7	0.0035	0.65625	0.44	0.657142857143	19.9445783133
8	0.004	-0.790625	-1.02	2.08775510204	28.4024096386
9	0.0045	0.65625	-6.86	3.51836734694	31.221686747
10	0.005	-12.365625	0.44	4.94897959184	31.221686747
11	0.0055	2.103125	0.44	0.657142857143	34.0409638554
12	0.006	3.55	17.96	3.51836734694	38.2698795181
13	0.0065	-0.790625	-6.86	2.08775510204	36.8602409639
14	0.007	0.65625	0.44	2.08775510204	29.8120481928
15	0.0075	0.65625	0.44	-3.63469387755	18.534939759
16	0.008	0.65625	1.9	-0.773469387755	32.6313253012
17	0.0085	3.55	0.44	22.1163265306	19.9445783133
18	0.009	0.65625	0.44	12.1020408163	24.1734939759
19	0.0095	0.65625	-6.86	7.81020408163	36.8602409639
20	0.01	-6.578125	0.44	3.51836734694	43.9084337349
21	0.0105	10.784375	0.44	6.37959183673	43.9084337349
22	0.011	-0.790625	0.44	4.94897959184	49.5469879518
23	0.0115	0.65625	0.44	4.94897959184	43.9084337349
24	0.012	0.65625	1.9	12.1020408163	29.8120481928
25	0.0125	3.55	3.36	3.51836734694	25.5831325301
26	0.013	3.55	7.74	3.51836734694	22.7638554217
27	0.0135	3.55	0.44	4.94897959184	25.5831325301
28	0.014	13.678125	-1.02	4.94897959184	25.5831325301
29	0.0145	2.103125	0.44	0.657142857143	29.8120481928
30	0.015	4.996875	0.44	6.37959183673	26.9927710843
31	0.0155	3.55	0.44	9.24081632653	18.534939759
32	0.016	0.65625	-5.4	3.51836734694	14.3060240964
33	0.0165	9.3375	0.44	3.51836734694	19.9445783133
34	0.017	22.359375	0.44	2.08775510204	31.221686747
35	0.0175	-8.025	0.44	2.08775510204	42.4987951807
36	0.018	3.55	1.9	3.51836734694	21.3542168675
37	0.0185	2.103125	0.44	-6.49591836735	32.6313253012
38	0.019	3.55	0.44	-6.49591836735	29.8120481928
39	0.0195	-0.790625	-6.86	3.51836734694	26.9927710843
40	0.02	-5.13125	0.44	2.08775510204	26.9927710843
41	0.0205	10.784375	1.9	2.08775510204	29.8120481928
42	0.021	2.103125	0.44	4.94897959184	38.2698795181
43	0.0215	2.103125	-2.48	14.9632653061	29.8120481928
44	0.022	0.65625	-5.4	6.37959183673	29.8120481928
45	0.0225	2.103125	6.28	3.51836734694	32.6313253012
46	0.023	-9.471875	0.44	4.94897959184	32.6313253012
47	0.0235	13.678125	0.44	6.37959183673	25.5831325301
48	0.024	0.65625	1.9	0.657142857143	31.221686747
49	0.0245	-0.790625	-1.02	-7.92653061224	29.8120481928
50	0.025	0.65625	3.36	4.94897959184	29.8120481928
51	0.0255	3.55	-8.32	4.94897959184	31.221686747
52	0.026	0.65625	1.9	6.37959183673	25.5831325301
53	0.0265	-0.790625	0.44	6.37959183673	28.4024096386
54	0.027	-5.13125	0.44	6.37959183673	38.2698795181
55	0.0275	0.65625	0.44	20.6857142857	35.4506024096
56	0.028	0.65625	-1.02	19.2551020408	32.6313253012
57	0.0285	2.103125	-11.24	7.81020408163	29.8120481928
58	0.029	3.55	-3.94	4.94897959184	26.9927710843
59	0.0295	-10.91875	-1.02	6.37959183673	29.8120481928
60	0.03	-5.13125	1.9	7.81020408163	50.956626506
61	0.0305	-0.790625	1.9	7.81020408163	25.5831325301
62	0.031	-0.790625	1.9	7.81020408163	29.8120481928
63	0.0315	0.65625	-1.02	4.94897959184	42.4987951807
64	0.032	0.65625	6.28	6.37959183673	42.4987951807
65	0.0325	0.65625	-1.02	6.37959183673	39.6795180723
66	0.033	2.103125	1.9	9.24081632653	49.5469879518
67	0.0335	-0.790625	-1.02	7.81020408163	31.221686747
68	0.034	-0.790625	-1.02	-6.49591836735	42.4987951807
69	0.0345	2.103125	3.36	-2.20408163265	41.0891566265
70	0.035	0.65625	17.96	3.51836734694	39.6795180723
71	0.0355	-2.2375	-6.86	4.94897959184	36.8602409639
72	0.036	0.65625	-8.32	7.81020408163	39.6795180723
73	0.0365	12.23125	0.44	3.51836734694	41.0891566265
74	0.037	-0.790625	1.9	3.51836734694	49.5469879518
75	0.0375	-0.790625	0.44	4.94897959184	49.5469879518
76	0.038	0.65625	-1.02	16.393877551	49.5469879518
77	0.0385	0.65625	6.28	3.51836734694	48.1373493976
78	0.039	2.103125	0.44	3.51836734694	42.4987951807
79	0.0395	10.784375	0.44	4.94897959184	43.9084337349
80	0.04	-2.2375	-1.02	7.81020408163	38.2698795181
81	0.0405	0.65625	0.44	-3.63469387755	49.5469879518
82	0.041	0.65625	1.9	-6.49591836735	45.3180722892
83	0.0415	-0.790625	-11.24	3.51836734694	45.3180722892
84	0.042	0.65625	-3.94	7.81020408163	41.0891566265
85	0.0425	-12.365625	-2.48	6.37959183673	36.8602409639
86	0.043	0.65625	-1.02	3.51836734694	42.4987951807
87	0.0435	-0.790625	1.9	3.51836734694	34.0409638554
88	0.044	2.103125	1.9	-2.20408163265	36.8602409639
89	0.0445	0.65625	0.44	0.657142857143	36.8602409639
90	0.045	0.65625	-6.86	-0.773469387755	36.8602409639
91	0.0455	3.55	-1.02	2.08775510204	38.2698795181
92	0.046	-10.91875	1.9	4.94897959184	42.4987951807
93	0.0465	3.55	-1.02	4.94897959184	41.0891566265
94	0.047	2.103125	-1.02	-0.773469387755	36.8602409639
95	0.0475	3.55	-2.48	12.1020408163	35.4506024096
96	0.048	2.103125	-1.02	17.8244897959	32.6313253012
97	0.0485	3.55	9.2	6.37959183673	34.0409638554
98	0.049	3.55	0.44	4.94897959184	34.0409638554
99	0.0495	4.996875	0.44	6.37959183673	35.4506024096
100	0.05	0.65625	-1.02	12.1020408163	26.9927710843
101	0.0505	0.65625	0.44	6.37959183673	32.6313253012
102	0.051	0.65625	0.44	3.51836734694	35.4506024096
103	0.0515	2.103125	4.82	4.94897959184	41.0891566265
104	0.052	0.65625	-2.48	4.94897959184	46.7277108434
105	0.0525	-6.578125	0.44	2.08775510204	43.9084337349
106	0.053	-0.790625	0.44	3.51836734694	35.4506024096
107	0.0535	-0.790625	1.9	3.51836734694	49.5469879518
108	0.054	0.65625	0.44	26.4081632653	38.2698795181
109	0.0545	-0.790625	-2.48	3.51836734694	35.4506024096
110	0.055	-0.790625	-6.86	6.37959183673	35.4506024096
111	0.0555	-2.2375	0.44	7.81020408163	35.4506024096
112	0.056	0.65625	-1.02	6.37959183673	34.0409638554
113	0.0565	-0.790625	1.9	4.94897959184	32.6313253012
114	0.057	0.65625	1.9	12.1020408163	35.4506024096
115	0.0575	0.65625	-1.02	12.1020408163	41.0891566265
116	0.058	3.55	10.66	2.08775510204	43.9084337349
117	0.0585	-2.2375	0.44	3.51836734694	43.9084337349
118	0.059	-15.259375	-1.02	3.51836734694	43.9084337349
119	0.0595	0.65625	0.44	-0.773469387755	36.8602409639
120	0.06	0.65625	0.44	-0.773469387755	55.1855421687
121	0.0605	-3.684375	0.44	19.2551020408	36.8602409639
122	0.061	0.65625	-9.78	3.51836734694	38.2698795181
123	0.0615	2.103125	-12.7	3.51836734694	32.6313253012
124	0.062	3.55	0.44	2.08775510204	35.4506024096
125	0.0625	-13.8125	-2.48	2.08775510204	29.8120481928
126	0.063	0.65625	0.44	9.24081632653	26.9927710843
127	0.0635	0.65625	1.9	0.657142857143	34.0409638554
128	0.064	0.65625	-2.48	2.08775510204	39.6795180723
129	0.0645	-0.790625	1.9	4.94897959184	41.0891566265
130	0.065	-0.790625	-5.4	4.94897959184	43.9084337349
131	0.0655	-6.578125	0.44	7.81020408163	43.9084337349
132	0.066	-5.13125	0.44	6.37959183673	42.4987951807
133	0.0665	2.103125	3.36	6.37959183673	38.2698795181
134	0.067	0.65625	0.44	14.9632653061	21.3542168675
135	0.0675	0.65625	4.82	-0.773469387755	17.1253012048
136	0.068	0.65625	17.96	4.94897959184	18.534939759
137	0.0685	-12.365625	-2.48	4.94897959184	19.9445783133
138	0.069	20.9125	-1.02	4.94897959184	22.7638554217
139	0.0695	0.65625	0.44	2.08775510204	29.8120481928
140	0.07	-0.790625	-1.02	12.1020408163	22.7638554217
141	0.0705	2.103125	-1.02	-3.63469387755	28.4024096386
142	0.071	2.103125	1.9	-3.63469387755	26.9927710843
143	0.0715	-2.2375	-8.32	3.51836734694	26.9927710843
144	0.072	3.55	0.44	4.94897959184	26.9927710843
145	0.0725	16.571875	0.44	3.51836734694	31.221686747
146	0.073	-2.2375	0.44	4.94897959184	22.7638554217
147	0.0735	0.65625	0.44	-12.2183673469	31.221686747
148	0.074	-0.790625	1.9	-0.773469387755	34.0409638554
149	0.0745	-0.790625	15.04	-0.773469387755	38.2698795181
150	0.075	-3.684375	-6.86	0.657142857143	42.4987951807
151	0.0755	22.359375	-1.02	-0.773469387755	26.9927710843
152	0.076	-0.790625	0.44	2.08775510204	34.0409638554
153	0.0765	0.65625	0.44	-0.773469387755	25.5831325301
154	0.077	0.65625	-1.02	3.51836734694	12.8963855422
155	0.0775	-2.2375	-2.48	-3.63469387755	19.9445783133
156	0.078	0.65625	3.36	3.51836734694	21.3542168675
157	0.0785	-5.13125	-3.94	2.08775510204	28.4024096386
158	0.079	-2.2375	0.44	4.94897959184	43.9084337349
159	0.0795	0.65625	0.44	6.37959183673	34.0409638554
160	0.08	0.65625	0.44	4.94897959184	26.9927710843
161	0.0805	3.55	3.36	0.657142857143	29.8120481928
162	0.081	-0.790625	22.34	-0.773469387755	26.9927710843
163	0.0815	-3.684375	-12.7	0.657142857143	26.9927710843
164	0.082	20.9125	-1.02	2.08775510204	19.9445783133
165	0.0825	-9.471875	-2.48	3.51836734694	19.9445783133
166	0.083	0.65625	1.9	2.08775510204	8.66746987952
167	0.0835	2.103125	-1.02	-3.63469387755	19.9445783133
168	0.084	-0.790625	-1.02	-5.06530612245	19.9445783133
169	0.0845	3.55	-5.4	0.657142857143	18.534939759
170	0.085	-9.471875	-5.4	0.657142857143	24.1734939759
171	0.0855	0.65625	0.44	2.08775510204	28.4024096386
172	0.086	-2.2375	1.9	0.657142857143	15.7156626506
173	0.0865	2.103125	-1.02	0.657142857143	22.7638554217
174	0.087	0.65625	1.9	6.37959183673	24.1734939759
175	0.0875	3.55	-6.86	4.94897959184	25.5831325301
176	0.088	7.890625	-2.48	7.81020408163	24.1734939759
177	0.0885	20.9125	1.9	2.08775510204	35.4506024096
178	0.089	-8.025	1.9	-0.773469387755	39.6795180723
179	0.0895	0.65625	1.9	-3.63469387755	22.7638554217
180	0.09	3.55	0.44	-5.06530612245	26.9927710843
181	0.0905	0.65625	-3.94	4.94897959184	24.1734939759
182	0.091	-0.790625	6.28	2.08775510204	19.9445783133
183	0.0915	4.996875	-3.94	2.08775510204	14.3060240964
184	0.092	19.465625	-2.48	2.08775510204	8.66746987952
185	0.0925	2.103125	0.44	3.51836734694	-2.60963855422
186	0.093	3.55	1.9	-6.49591836735	8.66746987952
187	0.0935	0.65625	1.9	17.8244897959	18.534939759
188	0.094	0.65625	-5.4	2.08775510204	17.1253012048
189	0.0945	-2.2375	-2.48	0.657142857143	21.3542168675
190	0.095	9.3375	-1.02	4.94897959184	21.3542168675
191	0.0955	-2.2375	-1.02	7.81020408163	25.5831325301
192	0.096	0.65625	-1.02	-3.63469387755	32.6313253012
193	0.0965	0.65625	0.44	-6.49591836735	29.8120481928
194	0.097	-2.2375	-11.24	2.08775510204	32.6313253012
195	0.0975	0.65625	-2.48	3.51836734694	31.221686747
196	0.098	-8.025	-3.94	0.657142857143	29.8120481928
197	0.0985	-2.2375	0.44	4.94897959184	38.2698795181
198	0.099	0.65625	0.44	3.51836734694	18.534939759
199	0.0995	-2.2375	-1.02	-6.49591836735	19.9445783133
200	0.1	-0.790625	3.36	-6.49591836735	19.9445783133
201	0.1005	0.65625	20.88	-2.20408163265	21.3542168675
202	0.101	-0.790625	-6.86	2.08775510204	25.5831325301
203	0.1015	15.125	-1.02	4.94897959184	25.5831325301
204	0.102	2.103125	0.44	3.51836734694	26.9927710843
205	0.1025	2.103125	1.9	-3.63469387755	32.6313253012
206	0.103	-0.790625	0.44	9.24081632653	21.3542168675
207	0.1035	0.65625	7.74	0.657142857143	19.9445783133
208	0.104	-2.2375	-3.94	-0.773469387755	19.9445783133
209	0.1045	7.890625	-5.4	2.08775510204	17.1253012048
210	0.105	0.65625	0.44	2.08775510204	32.6313253012
211	0.1055	2.103125	1.9	4.94897959184	22.7638554217
212	0.106	-0.790625	0.44	4.94897959184	11.486746988
213	0.1065	-0.790625	1.9	-6.49591836735	17.1253012048
214	0.107	-0.790625	15.04	-2.20408163265	24.1734939759
215	0.1075	-0.790625	-8.32	-0.773469387755	24.1734939759
216	0.108	13.678125	-1.02	0.657142857143	26.9927710843
217	0.1085	-6.578125	0.44	3.51836734694	28.4024096386
218	0.109	0.65625	1.9	4.94897959184	15.7156626506
219	0.1095	-0.790625	0.44	-2.20408163265	18.534939759
220	0.11	0.65625	-5.4	-2.20408163265	14.3060240964
221	0.1105	2.103125	9.2	4.94897959184	12.8963855422
222	0.111	3.55	0.44	4.94897959184	14.3060240964
223	0.1115	7.890625	0.44	7.81020408163	18.534939759
224	0.112	-0.790625	0.44	7.81020408163	7.2578313253
225	0.1125	0.65625	-1.02	-3.63469387755	26.9927710843
226	0.113	-0.790625	0.44	4.94897959184	24.1734939759
227	0.1135	-0.790625	15.04	6.37959183673	19.9445783133
228	0.114	-0.790625	-5.4	3.51836734694	12.8963855422
229	0.1145	23.80625	0.44	6.37959183673	12.8963855422
230	0.115	-6.578125	-1.02	4.94897959184	11.486746988
231	0.1155	-0.790625	3.36	4.94897959184	0.209638554217
232	0.116	3.55	0.44	0.657142857143	4.43855421687
233	0.1165	3.55	-3.94	3.51836734694	4.43855421687
234	0.117	0.65625	-2.48	6.37959183673	5.84819277108
235	0.1175	-10.91875	-1.02	2.08775510204	5.84819277108
236	0.118	-10.91875	0.44	7.81020408163	26.9927710843
237	0.1185	-2.2375	0.44	4.94897959184	-1.2
238	0.119	-0.790625	0.44	2.08775510204	0.209638554217
239	0.1195	0.65625	-6.86	3.51836734694	10.0771084337
240	0.12	2.103125	-2.48	6.37959183673	8.66746987952
241	0.1205	4.996875	0.44	0.657142857143	8.66746987952
242	0.121	-12.365625	-1.02	-0.773469387755	7.2578313253
243	0.1215	-0.790625	0.44	-2.20408163265	1.61927710843
244	0.122	-0.790625	-1.02	-0.773469387755	18.534939759
245	0.1225	0.65625	0.44	4.94897959184	21.3542168675
246	0.123	2.103125	16.5	-0.773469387755	19.9445783133
247	0.1235	-2.2375	0.44	-0.773469387755	18.534939759
248	0.124	-9.471875	0.44	0.657142857143	14.3060240964
249	0.1245	13.678125	0.44	2.08775510204	12.8963855422
250	0.125	-0.790625	-1.02	12.1020408163	15.7156626506
251	0.1255	0.65625	1.9	9.24081632653	14.3060240964
252	0.126	0.65625	3.36	-3.63469387755	10.0771084337
253	0.1265	-2.2375	-6.86	-0.773469387755	14.3060240964
254	0.127	3.55	0.44	0.657142857143	14.3060240964
255	0.1275	19.465625	0.44	0.657142857143	18.534939759
256	0.128	-0.790625	-2.48	6.37959183673	31.221686747
257	0.1285	0.65625	0.44	19.2551020408	15.7156626506
258	0.129	-2.2375	-1.02	19.2551020408	11.486746988
259	0.1295	-0.790625	-12.7	0.657142857143	7.2578313253
260	0.13	0.65625	15.04	-0.773469387755	11.486746988
261	0.1305	-3.684375	0.44	2.08775510204	10.0771084337
262	0.131	-6.578125	0.44	2.08775510204	15.7156626506
263	0.1315	0.65625	-1.02	6.37959183673	17.1253012048
264	0.132	0.65625	-1.02	4.94897959184	17.1253012048
265	0.1325	-0.790625	3.36	0.657142857143	12.8963855422
266	0.133	0.65625	-2.48	3.51836734694	18.534939759
267	0.1335	-6.578125	-2.48	2.08775510204	18.534939759
268	0.134	3.55	0.44	3.51836734694	5.84819277108
269	0.1345	0.65625	-2.48	2.08775510204	8.66746987952
270	0.135	-0.790625	-1.02	4.94897959184	8.66746987952
271	0.1355	-2.2375	-2.48	-0.773469387755	11.486746988
272	0.136	2.103125	15.04	-0.773469387755	8.66746987952
273	0.1365	-3.684375	13.58	0.657142857143	12.8963855422
274	0.137	-15.259375	0.44	0.657142857143	14.3060240964
275	0.1375	0.65625	0.44	0.657142857143	26.9927710843
276	0.138	-0.790625	1.9	6.37959183673	26.9927710843
277	0.1385	3.55	1.9	20.6857142857	15.7156626506
278	0.139	0.65625	0.44	-7.92653061224	4.43855421687
279	0.1395	2.103125	19.42	2.08775510204	12.8963855422
280	0.14	-3.684375	0.44	2.08775510204	18.534939759
281	0.1405	-15.259375	1.9	0.657142857143	18.534939759
282	0.141	0.65625	-1.02	-0.773469387755	17.1253012048
283	0.1415	0.65625	0.44	-0.773469387755	29.8120481928
284	0.142	0.65625	0.44	17.8244897959	15.7156626506
285	0.1425	-2.2375	-1.02	-2.20408163265	15.7156626506
286	0.143	0.65625	-5.4	3.51836734694	15.7156626506
287	0.1435	3.55	-2.48	4.94897959184	17.1253012048
288	0.144	-5.13125	-2.48	3.51836734694	18.534939759
289	0.1445	-3.684375	-2.48	2.08775510204	14.3060240964
290	0.145	-0.790625	-1.02	-6.49591836735	18.534939759
291	0.1455	-2.2375	1.9	2.08775510204	21.3542168675
292	0.146	-0.790625	-5.4	0.657142857143	19.9445783133
293	0.1465	-0.790625	0.44	4.94897959184	21.3542168675
294	0.147	-12.365625	0.44	2.08775510204	15.7156626506
295	0.1475	-2.2375	0.44	4.94897959184	0.209638554217
296	0.148	0.65625	0.44	-3.63469387755	4.43855421687
297	0.1485	0.65625	0.44	-2.20408163265	17.1253012048
298	0.149	-2.2375	0.44	-3.63469387755	41.0891566265
299	0.1495	-2.2375	6.28	2.08775510204	60.8240963855
300	0.15	-0.790625	7.74	2.08775510204	70.6915662651
301	0.1505	2.103125	-1.02	3.51836734694	62.2337349398
302	0.151	-3.684375	1.9	3.51836734694	45.3180722892
303	0.1515	0.65625	0.44	3.51836734694	18.534939759
304	0.152	-2.2375	1.9	7.81020408163	-15.2963855422
305	0.1525	-0.790625	1.9	9.24081632653	-23.7542168675
306	0.153	-2.2375	6.28	2.08775510204	-12.4771084337
307	0.1535	-2.2375	0.44	4.94897959184	4.43855421687
308	0.154	15.125	0.44	0.657142857143	19.9445783133
309	0.1545	-0.790625	0.44	0.657142857143	25.5831325301
310	0.155	0.65625	1.9	0.657142857143	55.1855421687
311	0.1555	-2.2375	4.82	3.51836734694	38.2698795181
312	0.156	-0.790625	-9.78	0.657142857143	36.8602409639
313	0.1565	0.65625	-5.4	0.657142857143	31.221686747
314	0.157	-12.365625	0.44	7.81020408163	26.9927710843
315	0.1575	-0.790625	-1.02	7.81020408163	11.486746988
316	0.158	2.103125	-1.02	12.1020408163	8.66746987952
317	0.1585	0.65625	-1.02	16.393877551	-4.01927710843
318	0.159	-0.790625	-1.02	2.08775510204	0.209638554217
319	0.1595	2.103125	-5.4	4.94897959184	1.61927710843
320	0.16	-0.790625	0.44	2.08775510204	4.43855421687
321	0.1605	-6.578125	0.44	2.08775510204	4.43855421687
322	0.161	-5.13125	-1.02	2.08775510204	-1.2
323	0.1615	0.65625	0.44	2.08775510204	-1.2
324	0.162	-0.790625	3.36	17.8244897959	0.209638554217
325	0.1625	2.103125	1.9	2.08775510204	0.209638554217
326	0.163	0.65625	-5.4	2.08775510204	1.61927710843
327	0.1635	-8.025	0.44	2.08775510204	3.02891566265
328	0.164	18.01875	3.36	4.94897959184	4.43855421687
329	0.1645	-2.2375	4.82	0.657142857143	4.43855421687
330	0.165	2.103125	0.44	-6.49591836735	3.02891566265
331	0.1655	0.65625	4.82	2.08775510204	7.2578313253
332	0.166	0.65625	-9.78	0.657142857143	14.3060240964
333	0.1665	3.55	-1.02	4.94897959184	14.3060240964
334	0.167	-12.365625	1.9	4.94897959184	15.7156626506
335	0.1675	-3.684375	0.44	4.94897959184	5.84819277108
336	0.168	0.65625	-2.48	7.81020408163	15.7156626506
337	0.1685	0.65625	0.44	14.9632653061	22.7638554217
338	0.169	0.65625	0.44	3.51836734694	24.1734939759
339	0.1695	-0.790625	-1.02	0.657142857143	12.8963855422
340	0.17	3.55	10.66	2.08775510204	4.43855421687
341	0.1705	-2.2375	1.9	3.51836734694	8.66746987952
342	0.171	-8.025	0.44	3.51836734694	4.43855421687
343	0.1715	0.65625	-1.02	-0.773469387755	18.534939759
344	0.172	-0.790625	-1.02	-2.20408163265	21.3542168675
345	0.1725	-0.790625	3.36	3.51836734694	19.9445783133
346	0.173	0.65625	-8.32	3.51836734694	18.534939759
347	0.1735	2.103125	3.36	6.37959183673	12.8963855422
348	0.174	-2.2375	0.44	4.94897959184	4.43855421687
349	0.1745	-0.790625	0.44	7.81020408163	7.2578313253
350	0.175	0.65625	0.44	9.24081632653	7.2578313253
351	0.1755	0.65625	0.44	9.24081632653	15.7156626506
352	0.176	0.65625	4.82	6.37959183673	22.7638554217
353	0.1765	-2.2375	-6.86	7.81020408163	22.7638554217
354	0.177	-8.025	0.44	4.94897959184	18.534939759
355	0.1775	-8.025	0.44	7.81020408163	19.9445783133
356	0.178	0.65625	-1.02	4.94897959184	-6.83855421687
357	0.1785	-0.790625	1.9	4.94897959184	-6.83855421687
358	0.179	0.65625	-2.48	6.37959183673	-1.2
359	0.1795	2.103125	-2.48	4.94897959184	4.43855421687
360	0.18	3.55	1.9	6.37959183673	1.61927710843
361	0.1805	12.23125	-1.02	6.37959183673	1.61927710843
362	0.181	-0.790625	-1.02	6.37959183673	-4.01927710843
363	0.1815	-0.790625	0.44	7.81020408163	-5.42891566265
364	0.182	0.65625	0.44	-2.20408163265	-1.2
365	0.1825	2.103125	1.9	3.51836734694	-9.6578313253
366	0.183	-0.790625	0.44	3.51836734694	-8.24819277108
367	0.1835	-13.8125	0.44	4.94897959184	-5.42891566265
368	0.184	0.65625	0.44	3.51836734694	-15.2963855422
369	0.1845	4.996875	-1.02	0.657142857143	0.209638554217
370	0.185	0.65625	1.9	20.6857142857	-12.4771084337
371	0.1855	-0.790625	-2.48	13.5326530612	-6.83855421687
372	0.186	2.103125	-8.32	-0.773469387755	-6.83855421687
373	0.1865	4.996875	0.44	-2.20408163265	-15.2963855422
374	0.187	18.01875	0.44	2.08775510204	-13.886746988
375	0.1875	0.65625	1.9	0.657142857143	-20.934939759
376	0.188	0.65625	-1.02	-12.2183673469	-12.4771084337
377	0.1885	0.65625	1.9	-2.20408163265	-13.886746988
378	0.189	0.65625	19.42	0.657142857143	-12.4771084337
379	0.1895	0.65625	-2.48	3.51836734694	-2.60963855422
380	0.19	18.01875	0.44	3.51836734694	-2.60963855422
381	0.1905	0.65625	-1.02	4.94897959184	18.534939759
382	0.191	-0.790625	-2.48	7.81020408163	28.4024096386
383	0.1915	-2.2375	-1.02	4.94897959184	14.3060240964
384	0.192	-0.790625	1.9	3.51836734694	0.209638554217
385	0.1925	-2.2375	12.12	3.51836734694	-16.7060240964
386	0.193	-16.70625	0.44	3.51836734694	-30.8024096386
387	0.1935	12.23125	0.44	6.37959183673	-29.3927710843
388	0.194	-5.13125	-1.02	0.657142857143	-23.7542168675
389	0.1945	-0.790625	-1.02	2.08775510204	-5.42891566265
390	0.195	0.65625	-1.02	14.9632653061	-6.83855421687
391	0.1955	0.65625	1.9	2.08775510204	0.209638554217
392	0.196	-2.2375	-6.86	0.657142857143	0.209638554217
393	0.1965	-0.790625	1.9	2.08775510204	-1.2
394	0.197	-8.025	1.9	-0.773469387755	-2.60963855422
395	0.1975	-2.2375	1.9	3.51836734694	-19.5253012048
396	0.198	-2.2375	1.9	-10.787755102	-23.7542168675
397	0.1985	2.103125	0.44	-6.49591836735	-22.3445783133
398	0.199	-0.790625	20.88	0.657142857143	-18.1156626506
399	0.1995	-0.790625	-9.78	0.657142857143	-11.0674698795
400	0.2	18.01875	-2.48	3.51836734694	-4.01927710843
401	0.2005	-9.471875	0.44	3.51836734694	11.486746988
402	0.201	-0.790625	1.9	6.37959183673	-16.7060240964
403	0.2015	0.65625	1.9	-5.06530612245	-8.24819277108
404	0.202	-0.790625	3.36	2.08775510204	-9.6578313253
405	0.2025	0.65625	-11.24	3.51836734694	-13.886746988
406	0.203	-0.790625	-2.48	2.08775510204	-12.4771084337
407	0.2035	15.125	0.44	3.51836734694	-12.4771084337
408	0.204	-0.790625	1.9	4.94897959184	-20.934939759
409	0.2045	-2.2375	0.44	-3.63469387755	-26.5734939759
410	0.205	0.65625	0.44	-3.63469387755	-18.1156626506
411	0.2055	0.65625	15.04	4.94897959184	-23.7542168675
412	0.206	-2.2375	-8.32	4.94897959184	-20.934939759
413	0.2065	12.23125	-2.48	4.94897959184	-23.7542168675
414	0.207	-8.025	1.9	3.51836734694	-12.4771084337
415	0.2075	-0.790625	0.44	2.08775510204	-32.2120481928
416	0.208	-0.790625	-1.02	2.08775510204	-22.3445783133
417	0.2085	0.65625	-3.94	2.08775510204	-19.5253012048
418	0.209	-3.684375	6.28	3.51836734694	-19.5253012048
419	0.2095	-9.471875	0.44	0.657142857143	-18.1156626506
420	0.21	-3.684375	1.9	-0.773469387755	-20.934939759
421	0.2105	-0.790625	1.9	2.08775510204	-13.886746988
422	0.211	-0.790625	3.36	9.24081632653	-23.7542168675
423	0.2115	-0.790625	0.44	-2.20408163265	-22.3445783133
424	0.212	0.65625	0.44	0.657142857143	-23.7542168675
425	0.2125	2.103125	-5.4	-0.773469387755	-27.9831325301
426	0.213	-5.13125	0.44	0.657142857143	-26.5734939759
427	0.2135	-0.790625	0.44	4.94897959184	-22.3445783133
428	0.214	-2.2375	0.44	4.94897959184	-25.1638554217
429	0.2145	-0.790625	-1.02	13.5326530612	-25.1638554217
430	0.215	0.65625	0.44	0.657142857143	-23.7542168675
431	0.2155	2.103125	-3.94	2.08775510204	-25.1638554217
432	0.216	-2.2375	0.44	0.657142857143	-16.7060240964
433	0.2165	-6.578125	0.44	-0.773469387755	-19.5253012048
434	0.217	0.65625	1.9	4.94897959184	-16.7060240964
435	0.2175	2.103125	3.36	14.9632653061	-16.7060240964
436	0.218	2.103125	0.44	17.8244897959	-19.5253012048
437	0.2185	-2.2375	-12.7	-0.773469387755	-18.1156626506
438	0.219	-0.790625	15.04	2.08775510204	-23.7542168675
439	0.2195	-12.365625	0.44	2.08775510204	-19.5253012048
440	0.22	0.65625	0.44	3.51836734694	-29.3927710843
441	0.2205	0.65625	0.44	7.81020408163	-25.1638554217
442	0.221	0.65625	-1.02	4.94897959184	-25.1638554217
443	0.2215	0.65625	3.36	2.08775510204	-29.3927710843
444	0.222	-0.790625	1.9	2.08775510204	-29.3927710843
445	0.2225	-12.365625	0.44	-0.773469387755	-25.1638554217
446	0.223	19.465625	-1.02	-0.773469387755	-30.8024096386
447	0.2235	0.65625	0.44	-0.773469387755	-12.4771084337
448	0.224	-2.2375	0.44	4.94897959184	-25.1638554217
449	0.2245	-0.790625	0.44	-6.49591836735	-20.934939759
450	0.225	-2.2375	1.9	0.657142857143	-26.5734939759
451	0.2255	-2.2375	0.44	3.51836734694	-23.7542168675
452	0.226	-10.91875	0.44	-0.773469387755	-23.7542168675
453	0.2265	-0.790625	0.44	0.657142857143	-16.7060240964
454	0.227	2.103125	0.44	3.51836734694	1.61927710843
455	0.2275	0.65625	0.44	22.1163265306	-15.2963855422
456	0.228	-0.790625	-11.24	2.08775510204	-16.7060240964
457	0.2285	2.103125	19.42	2.08775510204	-22.3445783133
458	0.229	-0.790625	0.44	0.657142857143	-27.9831325301
459	0.2295	19.465625	-1.02	3.51836734694	-30.8024096386
460	0.23	-2.2375	0.44	0.657142857143	-27.9831325301
461	0.2305	0.65625	1.9	2.08775510204	-12.4771084337
462	0.231	0.65625	0.44	14.9632653061	-22.3445783133
463	0.2315	0.65625	-9.78	3.51836734694	-19.5253012048
464	0.232	4.996875	15.04	2.08775510204	-19.5253012048
465	0.2325	-9.471875	0.44	3.51836734694	-20.934939759
466	0.233	19.465625	0.44	0.657142857143	-33.621686747
467	0.2335	-2.2375	0.44	-6.49591836735	-23.7542168675
468	0.234	0.65625	0.44	-7.92653061224	-23.7542168675
469	0.2345	3.55	-2.48	19.2551020408	-19.5253012048
470	0.235	2.103125	20.88	2.08775510204	-23.7542168675
471	0.2355	-5.13125	0.44	-0.773469387755	-19.5253012048
472	0.236	-15.259375	1.9	0.657142857143	-16.7060240964
473	0.2365	-0.790625	3.36	-0.773469387755	-12.4771084337
474	0.237	-0.790625	0.44	7.81020408163	-25.1638554217
475	0.2375	-0.790625	0.44	6.37959183673	-18.1156626506
476	0.238	0.65625	1.9	3.51836734694	-19.5253012048
477	0.2385	0.65625	9.2	2.08775510204	-18.1156626506
478	0.239	-6.578125	0.44	0.657142857143	-12.4771084337
479	0.2395	0.65625	0.44	2.08775510204	-12.4771084337
480	0.24	-6.578125	0.44	-3.63469387755	-16.7060240964
481	0.2405	-0.790625	1.9	-0.773469387755	1.61927710843
482	0.241	-0.790625	1.9	14.9632653061	-12.4771084337
483	0.2415	0.65625	1.9	16.393877551	-19.5253012048
484	0.242	2.103125	19.42	-0.773469387755	-26.5734939759
485	0.2425	0.65625	1.9	0.657142857143	-32.2120481928
486	0.243	19.465625	0.44	2.08775510204	-32.2120481928
487	0.2435	2.103125	0.44	-0.773469387755	-30.8024096386
488	0.244	0.65625	0.44	-0.773469387755	-12.4771084337
489	0.2445	0.65625	0.44	14.9632653061	-25.1638554217
490	0.245	-0.790625	-9.78	0.657142857143	-26.5734939759
491	0.2455	0.65625	10.66	-2.20408163265	-25.1638554217
492	0.246	-6.578125	-2.48	-0.773469387755	-22.3445783133
493	0.2465	2.103125	0.44	0.657142857143	-23.7542168675
494	0.247	0.65625	0.44	-5.06530612245	-30.8024096386
495	0.2475	0.65625	1.9	4.94897959184	-32.2120481928
496	0.248	2.103125	1.9	-3.63469387755	-26.5734939759
497	0.2485	3.55	4.82	0.657142857143	-23.7542168675
498	0.249	0.65625	-3.94	2.08775510204	-18.1156626506
499	0.2495	-5.13125	0.44	0.657142857143	-15.2963855422
500	0.25	2.103125	1.9	-2.20408163265	-20.934939759
501	0.2505	0.65625	0.44	-9.35714285714	-23.7542168675
502	0.251	2.103125	3.36	-10.787755102	-26.5734939759
503	0.2515	0.65625	6.28	2.08775510204	-23.7542168675
504	0.252	2.103125	-9.78	0.657142857143	-23.7542168675
505	0.2525	4.996875	0.44	-0.773469387755	-29.3927710843
506	0.253	19.465625	-1.02	-0.773469387755	-32.2120481928
507	0.2535	0.65625	-1.02	-0.773469387755	-42.0795180723
508	0.254	-0.790625	0.44	-9.35714285714	-36.4409638554
509	0.2545	2.103125	-1.02	0.657142857143	-33.621686747
510	0.255	-0.790625	1.9	6.37959183673	-32.2120481928
511	0.2555	0.65625	4.82	-0.773469387755	-29.3927710843
512	0.256	0.65625	3.36	-0.773469387755	-32.2120481928
513	0.2565	0.65625	1.9	-2.20408163265	-29.3927710843
514	0.257	2.103125	0.44	3.51836734694	-30.8024096386
515	0.2575	0.65625	0.44	14.9632653061	-29.3927710843
516	0.258	0.65625	-1.02	3.51836734694	-29.3927710843
517	0.2585	0.65625	9.2	-0.773469387755	-32.2120481928
518	0.259	0.65625	3.36	-2.20408163265	-33.621686747
519	0.2595	-6.578125	0.44	0.657142857143	-33.621686747
520	0.26	7.890625	3.36	0.657142857143	-33.621686747
521	0.2605	-0.790625	-1.02	-0.773469387755	-33.621686747
522	0.261	0.65625	3.36	3.51836734694	-27.9831325301
523	0.2615	0.65625	-3.94	-0.773469387755	-26.5734939759
524	0.262	0.65625	-1.02	0.657142857143	-23.7542168675
525	0.2625	2.103125	-1.02	3.51836734694	-23.7542168675
526	0.263	0.65625	0.44	4.94897959184	-20.934939759
527	0.2635	0.65625	-1.02	4.94897959184	-29.3927710843
528	0.264	-0.790625	0.44	-0.773469387755	-29.3927710843
529	0.2645	0.65625	-1.02	14.9632653061	-30.8024096386
530	0.265	0.65625	-3.94	0.657142857143	-32.2120481928
531	0.2655	4.996875	-5.4	-0.773469387755	-33.621686747
532	0.266	4.996875	1.9	-3.63469387755	-32.2120481928
533	0.2665	22.359375	0.44	-2.20408163265	-29.3927710843
534	0.267	0.65625	-1.02	0.657142857143	-37.8506024096
535	0.2675	2.103125	1.9	-12.2183673469	-23.7542168675
536	0.268	3.55	-1.02	-9.35714285714	-23.7542168675
537	0.2685	-0.790625	3.36	-3.63469387755	-20.934939759
538	0.269	-3.684375	0.44	-2.20408163265	-19.5253012048
539	0.2695	-13.8125	0.44	-5.06530612245	-18.1156626506
540	0.27	-2.2375	0.44	-3.63469387755	-15.2963855422
541	0.2705	0.65625	1.9	-2.20408163265	-26.5734939759
542	0.271	-2.2375	1.9	-3.63469387755	-27.9831325301
543	0.2715	-3.684375	-8.32	-5.06530612245	-26.5734939759
544	0.272	2.103125	13.58	-3.63469387755	-25.1638554217
545	0.2725	-0.790625	-3.94	-0.773469387755	-29.3927710843
546	0.273	7.890625	0.44	3.51836734694	-35.0313253012
547	0.2735	-6.578125	0.44	2.08775510204	-33.621686747
548	0.274	-5.13125	0.44	2.08775510204	-44.8987951807
549	0.2745	-3.684375	1.9	-9.35714285714	-29.3927710843
550	0.275	-2.2375	3.36	-2.20408163265	-23.7542168675
551	0.2755	-2.2375	-8.32	-3.63469387755	-20.934939759
552	0.276	2.103125	-2.48	-0.773469387755	-23.7542168675
553	0.2765	-6.578125	0.44	-0.773469387755	-29.3927710843
554	0.277	-0.790625	-1.02	0.657142857143	-23.7542168675
555	0.2775	-0.790625	0.44	0.657142857143	-20.934939759
556	0.278	0.65625	3.36	12.1020408163	-30.8024096386
557	0.2785	3.55	0.44	14.9632653061	-33.621686747
558	0.279	4.996875	-5.4	0.657142857143	-30.8024096386
559	0.2795	3.55	1.9	-0.773469387755	-26.5734939759
560	0.28	-6.578125	0.44	-0.773469387755	-25.1638554217
561	0.2805	-5.13125	-1.02	0.657142857143	-23.7542168675
562	0.281	-0.790625	1.9	-5.06530612245	-23.7542168675
563	0.2815	4.996875	1.9	-3.63469387755	-23.7542168675
564	0.282	0.65625	-2.48	3.51836734694	-23.7542168675
565	0.2825	3.55	-3.94	2.08775510204	-19.5253012048
566	0.283	-2.2375	-6.86	2.08775510204	-13.886746988
567	0.2835	13.678125	1.9	0.657142857143	-12.4771084337
568	0.284	2.103125	0.44	0.657142857143	-15.2963855422
569	0.2845	3.55	1.9	4.94897959184	-20.934939759
570	0.285	0.65625	1.9	3.51836734694	-26.5734939759
571	0.2855	2.103125	1.9	-3.63469387755	-33.621686747
572	0.286	-0.790625	9.2	-2.20408163265	-29.3927710843
573	0.2865	0.65625	3.36	-5.06530612245	-26.5734939759
574	0.287	12.23125	0.44	-0.773469387755	-30.8024096386
575	0.2875	0.65625	-1.02	-7.92653061224	-23.7542168675
576	0.288	-0.790625	-2.48	-10.787755102	-19.5253012048
577	0.2885	-0.790625	0.44	6.37959183673	-15.2963855422
578	0.289	0.65625	6.28	-3.63469387755	-11.0674698795
579	0.2895	3.55	1.9	-2.20408163265	-9.6578313253
580	0.29	13.678125	1.9	-2.20408163265	-13.886746988
581	0.2905	0.65625	0.44	-0.773469387755	-23.7542168675
582	0.291	0.65625	0.44	13.5326530612	-33.621686747
583	0.2915	0.65625	0.44	19.2551020408	-30.8024096386
584	0.292	0.65625	1.9	-10.787755102	-25.1638554217
585	0.2925	0.65625	-6.86	-0.773469387755	-16.7060240964
586	0.293	-2.2375	1.9	3.51836734694	-4.01927710843
587	0.2935	13.678125	0.44	0.657142857143	-1.2
588	0.294	2.103125	0.44	-2.20408163265	-1.2
589	0.2945	0.65625	3.36	-0.773469387755	-12.4771084337
590	0.295	2.103125	0.44	-6.49591836735	-9.6578313253
591	0.2955	0.65625	15.04	-0.773469387755	-12.4771084337
592	0.296	-2.2375	1.9	-2.20408163265	-11.0674698795
593	0.2965	-5.13125	1.9	-5.06530612245	-8.24819277108
594	0.297	-6.578125	-2.48	-0.773469387755	-15.2963855422
595	0.2975	0.65625	0.44	-2.20408163265	-19.5253012048
596	0.298	0.65625	3.36	-7.92653061224	-9.6578313253
597	0.2985	0.65625	-1.02	16.393877551	-13.886746988
598	0.299	2.103125	-9.78	-2.20408163265	-6.83855421687
599	0.2995	3.55	0.44	-2.20408163265	0.209638554217
600	0.3	20.9125	1.9	0.657142857143	5.84819277108
601	0.3005	-6.578125	0.44	0.657142857143	11.486746988
602	0.301	2.103125	0.44	-0.773469387755	-4.01927710843
603	0.3015	3.55	1.9	-15.0795918367	-4.01927710843
604	0.302	2.103125	1.9	-0.773469387755	-19.5253012048
605	0.3025	-0.790625	-6.86	0.657142857143	-29.3927710843
606	0.303	3.55	-9.78	-0.773469387755	-32.2120481928
607	0.3035	20.9125	1.9	2.08775510204	-29.3927710843
608	0.304	-8.025	0.44	-0.773469387755	-18.1156626506
609	0.3045	3.55	0.44	-2.20408163265	-39.2602409639
610	0.305	0.65625	1.9	-6.49591836735	-23.7542168675
611	0.3055	0.65625	-2.48	0.657142857143	-23.7542168675
612	0.306	3.55	1.9	3.51836734694	-23.7542168675
613	0.3065	10.784375	0.44	-0.773469387755	-22.3445783133
614	0.307	-3.684375	0.44	0.657142857143	-22.3445783133
615	0.3075	-0.790625	-1.02	6.37959183673	-29.3927710843
616	0.308	2.103125	-1.02	-7.92653061224	-25.1638554217
617	0.3085	0.65625	0.44	-7.92653061224	-23.7542168675
618	0.309	0.65625	19.42	3.51836734694	-20.934939759
619	0.3095	0.65625	-5.4	4.94897959184	-19.5253012048
620	0.31	18.01875	1.9	7.81020408163	-20.934939759
621	0.3105	0.65625	0.44	4.94897959184	-15.2963855422
622	0.311	0.65625	0.44	4.94897959184	-26.5734939759
623	0.3115	3.55	1.9	-0.773469387755	-42.0795180723
624	0.312	-0.790625	-2.48	-2.20408163265	-42.0795180723
625	0.3125	3.55	13.58	-3.63469387755	-39.2602409639
626	0.313	2.103125	0.44	2.08775510204	-39.2602409639
627	0.3135	-3.684375	0.44	6.37959183673	-30.8024096386
628	0.314	-0.790625	1.9	7.81020408163	-32.2120481928
629	0.3145	3.55	1.9	2.08775510204	-23.7542168675
630	0.315	3.55	-2.48	-0.773469387755	-23.7542168675
631	0.3155	4.996875	-3.94	-0.773469387755	-26.5734939759
632	0.316	3.55	1.9	-0.773469387755	-33.621686747
633	0.3165	-3.684375	1.9	-3.63469387755	-42.0795180723
634	0.317	-5.13125	1.9	-3.63469387755	-46.3084337349
635	0.3175	2.103125	0.44	-12.2183673469	-40.6698795181
636	0.318	0.65625	3.36	-16.5102040816	-35.0313253012
637	0.3185	0.65625	1.9	-9.35714285714	-29.3927710843
638	0.319	0.65625	20.88	-3.63469387755	-25.1638554217
639	0.3195	-10.91875	3.36	-3.63469387755	-26.5734939759
640	0.32	22.359375	-1.02	-0.773469387755	-23.7542168675
641	0.3205	3.55	1.9	-3.63469387755	-26.5734939759
642	0.321	3.55	1.9	-6.49591836735	-8.24819277108
643	0.3215	2.103125	0.44	14.9632653061	-15.2963855422
644	0.322	3.55	-8.32	-0.773469387755	-2.60963855422
645	0.3225	0.65625	20.88	-3.63469387755	4.43855421687
646	0.323	-8.025	1.9	-0.773469387755	5.84819277108
647	0.3235	-8.025	1.9	-2.20408163265	-8.24819277108
648	0.324	-0.790625	1.9	-3.63469387755	-11.0674698795
649	0.3245	-2.2375	1.9	-10.787755102	-8.24819277108
650	0.325	0.65625	3.36	-2.20408163265	-13.886746988
651	0.3255	0.65625	-8.32	-2.20408163265	-18.1156626506
652	0.326	7.890625	1.9	-2.20408163265	-20.934939759
653	0.3265	19.465625	0.44	-2.20408163265	-20.934939759
654	0.327	-6.578125	3.36	0.657142857143	-12.4771084337
655	0.3275	2.103125	3.36	0.657142857143	-12.4771084337
656	0.328	2.103125	0.44	3.51836734694	-11.0674698795
657	0.3285	0.65625	0.44	3.51836734694	-8.24819277108
658	0.329	2.103125	3.36	-0.773469387755	-6.83855421687
659	0.3295	3.55	0.44	-3.63469387755	-4.01927710843
660	0.33	10.784375	0.44	-3.63469387755	-5.42891566265
661	0.3305	0.65625	3.36	-0.773469387755	-12.4771084337
662	0.331	0.65625	0.44	-0.773469387755	-5.42891566265
663	0.3315	2.103125	0.44	0.657142857143	-16.7060240964
664	0.332	3.55	9.2	0.657142857143	-22.3445783133
665	0.3325	2.103125	-2.48	-0.773469387755	-20.934939759
666	0.333	-8.025	-1.02	-2.20408163265	-19.5253012048
667	0.3335	2.103125	0.44	0.657142857143	-22.3445783133
668	0.334	0.65625	0.44	-6.49591836735	-19.5253012048
669	0.3345	0.65625	3.36	-6.49591836735	-25.1638554217
670	0.335	0.65625	3.36	0.657142857143	-19.5253012048
671	0.3355	2.103125	0.44	3.51836734694	-13.886746988
672	0.336	4.996875	1.9	0.657142857143	-13.886746988
673	0.3365	12.23125	-1.02	-0.773469387755	-20.934939759
674	0.337	-3.684375	0.44	2.08775510204	-15.2963855422
675	0.3375	2.103125	0.44	3.51836734694	-15.2963855422
676	0.338	0.65625	-1.02	4.94897959184	-18.1156626506
677	0.3385	0.65625	1.9	2.08775510204	-13.886746988
678	0.339	2.103125	-3.94	2.08775510204	-9.6578313253
679	0.3395	-10.91875	0.44	2.08775510204	-2.60963855422
680	0.34	-3.684375	0.44	3.51836734694	4.43855421687
681	0.3405	2.103125	1.9	4.94897959184	-2.60963855422
682	0.341	2.103125	1.9	2.08775510204	-6.83855421687
683	0.3415	2.103125	-2.48	3.51836734694	-11.0674698795
684	0.342	0.65625	9.2	2.08775510204	-9.6578313253
685	0.3425	0.65625	-5.4	0.657142857143	-6.83855421687
686	0.343	3.55	0.44	2.08775510204	-9.6578313253
687	0.3435	-3.684375	0.44	0.657142857143	-5.42891566265
688	0.344	-0.790625	1.9	-7.92653061224	1.61927710843
689	0.3445	0.65625	0.44	2.08775510204	3.02891566265
690	0.345	-2.2375	6.28	3.51836734694	-1.2
691	0.3455	0.65625	0.44	-0.773469387755	-2.60963855422
692	0.346	3.55	1.9	-2.20408163265	-1.2
693	0.3465	-0.790625	0.44	-0.773469387755	3.02891566265
694	0.347	4.996875	1.9	2.08775510204	3.02891566265
695	0.3475	3.55	3.36	7.81020408163	14.3060240964
696	0.348	2.103125	0.44	-0.773469387755	12.8963855422
697	0.3485	4.996875	0.44	-0.773469387755	7.2578313253
698	0.349	9.3375	-2.48	-2.20408163265	1.61927710843
699	0.3495	-0.790625	1.9	-0.773469387755	-11.0674698795
700	0.35	-3.684375	0.44	-0.773469387755	-22.3445783133
701	0.3505	2.103125	0.44	-6.49591836735	-19.5253012048
702	0.351	0.65625	1.9	-3.63469387755	-9.6578313253
703	0.3515	2.103125	-6.86	-2.20408163265	-8.24819277108
704	0.352	0.65625	-6.86	0.657142857143	-8.24819277108
705	0.3525	15.125	1.9	0.657142857143	-5.42891566265
706	0.353	-0.790625	1.9	0.657142857143	-4.01927710843
707	0.3535	2.103125	0.44	2.08775510204	3.02891566265
708	0.354	3.55	1.9	4.94897959184	-5.42891566265
709	0.3545	0.65625	0.44	-0.773469387755	-6.83855421687
710	0.355	0.65625	-2.48	0.657142857143	-8.24819277108
711	0.3555	-3.684375	0.44	3.51836734694	-11.0674698795
712	0.356	16.571875	1.9	-0.773469387755	-8.24819277108
713	0.3565	-10.91875	1.9	-0.773469387755	-6.83855421687
714	0.357	0.65625	0.44	2.08775510204	-12.4771084337
715	0.3575	2.103125	-1.02	-6.49591836735	-4.01927710843
716	0.358	2.103125	1.9	0.657142857143	-2.60963855422
717	0.3585	-0.790625	-1.02	3.51836734694	-4.01927710843
718	0.359	-9.471875	1.9	3.51836734694	-4.01927710843
719	0.3595	19.465625	-1.02	2.08775510204	-9.6578313253
720	0.36	-0.790625	3.36	2.08775510204	4.43855421687
721	0.3605	0.65625	1.9	13.5326530612	-5.42891566265
722	0.361	0.65625	-1.02	-2.20408163265	-1.2
723	0.3615	3.55	0.44	2.08775510204	-5.42891566265
724	0.362	4.996875	0.44	0.657142857143	-5.42891566265
725	0.3625	-9.471875	1.9	3.51836734694	-5.42891566265
726	0.363	-0.790625	0.44	4.94897959184	0.209638554217
727	0.3635	0.65625	1.9	16.393877551	-6.83855421687
728	0.364	3.55	0.44	20.6857142857	-4.01927710843
729	0.3645	3.55	-9.78	3.51836734694	-1.2
730	0.365	3.55	16.5	0.657142857143	-4.01927710843
731	0.3655	-10.91875	0.44	2.08775510204	-2.60963855422
732	0.366	20.9125	-1.02	2.08775510204	-2.60963855422
733	0.3665	0.65625	1.9	0.657142857143	0.209638554217
734	0.367	2.103125	1.9	6.37959183673	-5.42891566265
735	0.3675	3.55	0.44	-2.20408163265	-4.01927710843
736	0.368	0.65625	0.44	-9.35714285714	-2.60963855422
737	0.3685	-0.790625	-5.4	-2.20408163265	4.43855421687
738	0.369	2.103125	0.44	-0.773469387755	4.43855421687
739	0.3695	-6.578125	1.9	2.08775510204	4.43855421687
740	0.37	3.55	4.82	-0.773469387755	7.2578313253
741	0.3705	2.103125	4.82	-0.773469387755	-1.2
742	0.371	2.103125	0.44	-7.92653061224	4.43855421687
743	0.3715	0.65625	6.28	-0.773469387755	3.02891566265
744	0.372	3.55	7.74	-0.773469387755	0.209638554217
745	0.3725	10.784375	0.44	-0.773469387755	3.02891566265
746	0.373	2.103125	-1.02	-0.773469387755	17.1253012048
747	0.3735	2.103125	-1.02	17.8244897959	11.486746988
748	0.374	4.996875	0.44	19.2551020408	19.9445783133
749	0.3745	3.55	3.36	-3.63469387755	29.8120481928
750	0.375	-0.790625	-1.02	0.657142857143	39.6795180723
751	0.3755	-10.91875	0.44	-0.773469387755	39.6795180723
752	0.376	20.9125	-2.48	3.51836734694	36.8602409639
753	0.3765	0.65625	0.44	-0.773469387755	49.5469879518
754	0.377	0.65625	-1.02	13.5326530612	21.3542168675
755	0.3775	0.65625	0.44	14.9632653061	0.209638554217
756	0.378	-2.2375	6.28	4.94897959184	-6.83855421687
757	0.3785	0.65625	0.44	7.81020408163	-6.83855421687
758	0.379	-0.790625	1.9	4.94897959184	8.66746987952
759	0.3795	0.65625	3.36	6.37959183673	8.66746987952
760	0.38	3.55	0.44	14.9632653061	15.7156626506
761	0.3805	-0.790625	-1.02	-5.06530612245	14.3060240964
762	0.381	0.65625	4.82	4.94897959184	14.3060240964
763	0.3815	-0.790625	0.44	4.94897959184	8.66746987952
764	0.382	-8.025	-1.02	2.08775510204	7.2578313253
765	0.3825	2.103125	1.9	3.51836734694	5.84819277108
766	0.383	3.55	0.44	-0.773469387755	4.43855421687
767	0.3835	0.65625	1.9	0.657142857143	-1.2
768	0.384	3.55	0.44	3.51836734694	3.02891566265
769	0.3845	7.890625	10.66	4.94897959184	-2.60963855422
770	0.385	-0.790625	-1.02	3.51836734694	-1.2
771	0.3855	15.125	0.44	2.08775510204	-9.6578313253
772	0.386	2.103125	-2.48	3.51836734694	-2.60963855422
773	0.3865	3.55	0.44	3.51836734694	-12.4771084337
774	0.387	0.65625	-1.02	-5.06530612245	0.209638554217
775	0.3875	0.65625	1.9	-6.49591836735	-1.2
776	0.388	0.65625	-6.86	-0.773469387755	-4.01927710843
777	0.3885	0.65625	0.44	0.657142857143	-4.01927710843
778	0.389	-0.790625	-1.02	-2.20408163265	4.43855421687
779	0.3895	0.65625	3.36	-3.63469387755	11.486746988
780	0.39	0.65625	-1.02	0.657142857143	-16.7060240964
781	0.3905	-0.790625	-1.02	-7.92653061224	-8.24819277108
782	0.391	3.55	17.96	-0.773469387755	-4.01927710843
783	0.3915	-2.2375	-9.78	-2.20408163265	-1.2
784	0.392	19.465625	0.44	-2.20408163265	-1.2
785	0.3925	-12.365625	0.44	0.657142857143	-4.01927710843
786	0.393	0.65625	0.44	2.08775510204	-8.24819277108
787	0.3935	0.65625	0.44	-7.92653061224	-1.2
788	0.394	0.65625	3.36	-3.63469387755	3.02891566265
789	0.3945	-0.790625	-1.02	2.08775510204	14.3060240964
790	0.395	-12.365625	0.44	4.94897959184	21.3542168675
791	0.3955	-6.578125	0.44	4.94897959184	17.1253012048
792	0.396	-0.790625	0.44	4.94897959184	7.2578313253
793	0.3965	0.65625	-2.48	-2.20408163265	1.61927710843
794	0.397	-0.790625	4.82	0.657142857143	5.84819277108
795	0.3975	2.103125	13.58	-0.773469387755	12.8963855422
796	0.398	9.3375	-6.86	2.08775510204	21.3542168675
797	0.3985	20.9125	0.44	-0.773469387755	15.7156626506
798	0.399	0.65625	0.44	-3.63469387755	17.1253012048
799	0.3995	2.103125	0.44	-2.20408163265	21.3542168675
800	0.4	0.65625	-2.48	13.5326530612	11.486746988
801	0.4005	0.65625	-12.7	-0.773469387755	11.486746988
802	0.401	-2.2375	16.5	-2.20408163265	11.486746988
803	0.4015	-13.8125	1.9	-2.20408163265	14.3060240964
804	0.402	-9.471875	1.9	-2.20408163265	7.2578313253
805	0.4025	-0.790625	0.44	-3.63469387755	25.5831325301
806	0.403	0.65625	4.82	14.9632653061	7.2578313253
807	0.4035	0.65625	-1.02	0.657142857143	7.2578313253
808	0.404	2.103125	-6.86	2.08775510204	10.0771084337
809	0.4045	2.103125	0.44	3.51836734694	8.66746987952
810	0.405	-6.578125	0.44	0.657142857143	14.3060240964
811	0.4055	-0.790625	-1.02	0.657142857143	3.02891566265
812	0.406	0.65625	1.9	4.94897959184	4.43855421687
813	0.4065	0.65625	0.44	-6.49591836735	12.8963855422
814	0.407	0.65625	0.44	-7.92653061224	11.486746988
815	0.4075	0.65625	-6.86	-0.773469387755	12.8963855422
816	0.408	3.55	-1.02	0.657142857143	8.66746987952
817	0.4085	23.80625	0.44	2.08775510204	-1.2
818	0.409	2.103125	0.44	-7.92653061224	14.3060240964
819	0.4095	-0.790625	0.44	-9.35714285714	14.3060240964
820	0.41	0.65625	3.36	2.08775510204	19.9445783133
821	0.4105	0.65625	-9.78	2.08775510204	19.9445783133
822	0.411	-0.790625	1.9	2.08775510204	15.7156626506
823	0.4115	-12.365625	1.9	4.94897959184	11.486746988
824	0.412	-8.025	0.44	2.08775510204	3.02891566265
825	0.4125	-0.790625	0.44	-0.773469387755	24.1734939759
826	0.413	2.103125	0.44	13.5326530612	7.2578313253
827	0.4135	2.103125	4.82	2.08775510204	7.2578313253
828	0.414	2.103125	-5.4	-0.773469387755	7.2578313253
829	0.4145	0.65625	1.9	0.657142857143	7.2578313253
830	0.415	-5.13125	0.44	2.08775510204	21.3542168675
831	0.4155	0.65625	0.44	-0.773469387755	0.209638554217
832	0.416	3.55	0.44	-2.20408163265	5.84819277108
833	0.4165	0.65625	1.9	-2.20408163265	3.02891566265
834	0.417	2.103125	-2.48	-2.20408163265	4.43855421687
835	0.4175	2.103125	-5.4	-6.49591836735	4.43855421687
836	0.418	15.125	1.9	-5.06530612245	-1.2
837	0.4185	-5.13125	0.44	-3.63469387755	5.84819277108
838	0.419	0.65625	1.9	-2.20408163265	-9.6578313253
839	0.4195	-0.790625	-1.02	-12.2183673469	-1.2
840	0.42	2.103125	3.36	-6.49591836735	1.61927710843
841	0.4205	3.55	-9.78	-2.20408163265	4.43855421687
842	0.421	7.890625	0.44	-2.20408163265	7.2578313253
843	0.4215	22.359375	-1.02	-3.63469387755	1.61927710843
844	0.422	2.103125	1.9	-3.63469387755	25.5831325301
845	0.4225	-2.2375	4.82	12.1020408163	28.4024096386
846	0.423	0.65625	1.9	12.1020408163	32.6313253012
847	0.4235	-0.790625	-8.32	3.51836734694	26.9927710843
848	0.424	4.996875	-1.02	-0.773469387755	15.7156626506
849	0.4245	-10.91875	-3.94	-0.773469387755	0.209638554217
850	0.425	0.65625	4.82	0.657142857143	-1.2
851	0.4255	3.55	0.44	2.08775510204	-6.83855421687
852	0.426	-0.790625	1.9	-7.92653061224	1.61927710843
853	0.4265	-0.790625	3.36	-3.63469387755	18.534939759
854	0.427	-2.2375	13.58	-0.773469387755	15.7156626506
855	0.4275	-10.91875	1.9	-0.773469387755	12.8963855422
856	0.428	15.125	0.44	2.08775510204	-8.24819277108
857	0.4285	-3.684375	-1.02	2.08775510204	-8.24819277108
858	0.429	0.65625	1.9	-0.773469387755	-5.42891566265
859	0.4295	0.65625	1.9	-2.20408163265	0.209638554217
860	0.43	2.103125	1.9	2.08775510204	4.43855421687
861	0.4305	2.103125	-8.32	-0.773469387755	7.2578313253
862	0.431	4.996875	0.44	-0.773469387755	3.02891566265
863	0.4315	15.125	0.44	-3.63469387755	-5.42891566265
864	0.432	2.103125	1.9	-0.773469387755	-19.5253012048
865	0.4325	-0.790625	1.9	-3.63469387755	-4.01927710843
866	0.433	0.65625	-1.02	0.657142857143	-11.0674698795
867	0.4335	-0.790625	0.44	-0.773469387755	-6.83855421687
868	0.434	0.65625	-8.32	0.657142857143	-5.42891566265
869	0.4345	4.996875	0.44	-0.773469387755	-5.42891566265
870	0.435	19.465625	0.44	0.657142857143	-2.60963855422
871	0.4355	-2.2375	0.44	2.08775510204	8.66746987952
872	0.436	0.65625	1.9	7.81020408163	-2.60963855422
873	0.4365	-0.790625	0.44	4.94897959184	-6.83855421687
874	0.437	2.103125	13.58	0.657142857143	-11.0674698795
875	0.4375	0.65625	-2.48	-0.773469387755	-15.2963855422
876	0.438	-9.471875	-2.48	-0.773469387755	-13.886746988
877	0.4385	0.65625	0.44	3.51836734694	-9.6578313253
878	0.439	-2.2375	1.9	3.51836734694	-1.2
879	0.4395	2.103125	-1.02	-6.49591836735	7.2578313253
880	0.44	-0.790625	3.36	-3.63469387755	12.8963855422
881	0.4405	-2.2375	-1.02	0.657142857143	7.2578313253
882	0.441	3.55	0.44	-0.773469387755	3.02891566265
883	0.4415	-6.578125	0.44	-0.773469387755	0.209638554217
884	0.442	-0.790625	1.9	2.08775510204	-8.24819277108
885	0.4425	-0.790625	3.36	2.08775510204	-1.2
886	0.443	-3.684375	3.36	6.37959183673	-1.2
887	0.4435	-0.790625	1.9	2.08775510204	3.02891566265
888	0.444	0.65625	17.96	3.51836734694	4.43855421687
889	0.4445	-8.025	0.44	3.51836734694	8.66746987952
890	0.445	-6.578125	0.44	3.51836734694	4.43855421687
891	0.4455	0.65625	0.44	3.51836734694	19.9445783133
892	0.446	-0.790625	3.36	9.24081632653	14.3060240964
893	0.4465	-3.684375	-1.02	-2.20408163265	24.1734939759
894	0.447	-0.790625	-5.4	0.657142857143	26.9927710843
895	0.4475	-3.684375	-6.86	-0.773469387755	32.6313253012
896	0.448	-12.365625	0.44	3.51836734694	32.6313253012
897	0.4485	-8.025	-1.02	2.08775510204	45.3180722892
898	0.449	2.103125	3.36	4.94897959184	14.3060240964
899	0.4495	2.103125	3.36	-6.49591836735	14.3060240964
900	0.45	0.65625	4.82	0.657142857143	18.534939759
901	0.4505	2.103125	-5.4	2.08775510204	15.7156626506
902	0.451	0.65625	3.36	0.657142857143	3.02891566265
903	0.4515	4.996875	3.36	0.657142857143	-6.83855421687
904	0.452	-2.2375	0.44	4.94897959184	-9.6578313253
905	0.4525	-2.2375	0.44	3.51836734694	-6.83855421687
906	0.453	0.65625	4.82	3.51836734694	-13.886746988
907	0.4535	-0.790625	-1.02	-7.92653061224	-1.2
908	0.454	0.65625	15.04	-0.773469387755	0.209638554217
909	0.4545	-0.790625	-9.78	-0.773469387755	4.43855421687
910	0.455	18.01875	-1.02	-0.773469387755	-6.83855421687
911	0.4555	3.55	0.44	-2.20408163265	-6.83855421687
912	0.456	0.65625	3.36	-0.773469387755	-22.3445783133
913	0.4565	0.65625	0.44	-10.787755102	-11.0674698795
914	0.457	0.65625	4.82	-7.92653061224	-4.01927710843
915	0.4575	-2.2375	-2.48	-0.773469387755	5.84819277108
916	0.458	3.55	1.9	-3.63469387755	19.9445783133
917	0.4585	0.65625	1.9	-3.63469387755	21.3542168675
918	0.459	-0.790625	0.44	-0.773469387755	3.02891566265
919	0.4595	-0.790625	-2.48	-6.49591836735	-4.01927710843
920	0.46	-5.13125	1.9	-10.787755102	-8.24819277108
921	0.4605	-0.790625	20.88	-2.20408163265	-9.6578313253
922	0.461	-2.2375	-1.02	0.657142857143	-20.934939759
923	0.4615	-12.365625	3.36	0.657142857143	-29.3927710843
924	0.462	-0.790625	3.36	-0.773469387755	-26.5734939759
925	0.4625	0.65625	0.44	-0.773469387755	-12.4771084337
926	0.463	-0.790625	0.44	6.37959183673	-4.01927710843
927	0.4635	3.55	4.82	-5.06530612245	7.2578313253
928	0.464	0.65625	7.74	2.08775510204	11.486746988
929	0.4645	0.65625	9.2	0.657142857143	11.486746988
930	0.465	-0.790625	0.44	0.657142857143	15.7156626506
931	0.4655	-8.025	1.9	-0.773469387755	12.8963855422
932	0.466	2.103125	1.9	-0.773469387755	24.1734939759
933	0.4665	-0.790625	3.36	17.8244897959	-9.6578313253
934	0.467	-0.790625	0.44	-0.773469387755	-15.2963855422
935	0.4675	0.65625	-6.86	0.657142857143	-15.2963855422
936	0.468	4.996875	-1.02	2.08775510204	-13.886746988
937	0.4685	-5.13125	0.44	0.657142857143	-5.42891566265
938	0.469	0.65625	0.44	-2.20408163265	-18.1156626506
939	0.4695	0.65625	0.44	-9.35714285714	-5.42891566265
940	0.47	0.65625	3.36	9.24081632653	-6.83855421687
941	0.4705	2.103125	6.28	7.81020408163	-5.42891566265
942	0.471	-0.790625	9.2	4.94897959184	0.209638554217
943	0.4715	4.996875	-1.02	2.08775510204	-11.0674698795
944	0.472	-8.025	0.44	2.08775510204	-8.24819277108
945	0.4725	-0.790625	3.36	0.657142857143	-11.0674698795
946	0.473	3.55	-1.02	4.94897959184	0.209638554217
947	0.4735	-0.790625	4.82	4.94897959184	-4.01927710843
948	0.474	-2.2375	6.28	0.657142857143	-6.83855421687
949	0.4745	-12.365625	3.36	-0.773469387755	-8.24819277108
950	0.475	16.571875	0.44	-2.20408163265	-8.24819277108
951	0.4755	-2.2375	4.82	-0.773469387755	-1.2
952	0.476	0.65625	0.44	3.51836734694	-12.4771084337
953	0.4765	-2.2375	-1.02	-9.35714285714	-4.01927710843
954	0.477	-0.790625	4.82	-6.49591836735	0.209638554217
955	0.4775	-3.684375	-3.94	-0.773469387755	-1.2
956	0.478	2.103125	0.44	-2.20408163265	-1.2
957	0.4785	12.23125	0.44	-3.63469387755	-1.2
958	0.479	-0.790625	1.9	-0.773469387755	-6.83855421687
959	0.4795	-0.790625	0.44	-9.35714285714	0.209638554217
960	0.48	0.65625	4.82	2.08775510204	-4.01927710843
961	0.4805	0.65625	9.2	-0.773469387755	-5.42891566265
962	0.481	-2.2375	4.82	0.657142857143	-4.01927710843
963	0.4815	7.890625	0.44	-0.773469387755	-11.0674698795
964	0.482	-5.13125	1.9	-2.20408163265	-1.2
965	0.4825	0.65625	1.9	-0.773469387755	-8.24819277108
966	0.483	-0.790625	0.44	-0.773469387755	-2.60963855422
967	0.4835	-0.790625	4.82	-0.773469387755	-12.4771084337
968	0.484	-0.790625	15.04	-0.773469387755	-15.2963855422
969	0.4845	2.103125	-2.48	3.51836734694	-11.0674698795
970	0.485	16.571875	-2.48	2.08775510204	-20.934939759
971	0.4855	-2.2375	1.9	-2.20408163265	-8.24819277108
972	0.486	-2.2375	0.44	0.657142857143	-12.4771084337
973	0.4865	0.65625	-1.02	-5.06530612245	-6.83855421687
974	0.487	-0.790625	3.36	-7.92653061224	-6.83855421687
975	0.4875	-5.13125	-5.4	-0.773469387755	-6.83855421687
976	0.488	2.103125	0.44	0.657142857143	-12.4771084337
977	0.4885	-2.2375	1.9	-3.63469387755	3.02891566265
978	0.489	-0.790625	1.9	2.08775510204	3.02891566265
979	0.4895	-0.790625	-1.02	3.51836734694	-8.24819277108
980	0.49	-0.790625	-11.24	-2.20408163265	-5.42891566265
981	0.4905	2.103125	16.5	-0.773469387755	-11.0674698795
982	0.491	-3.684375	-2.48	-0.773469387755	-11.0674698795
983	0.4915	-13.8125	0.44	3.51836734694	-16.7060240964
984	0.492	-3.684375	1.9	0.657142857143	-20.934939759
985	0.4925	0.65625	3.36	-0.773469387755	-16.7060240964
986	0.493	0.65625	0.44	2.08775510204	-18.1156626506
987	0.4935	-2.2375	-2.48	3.51836734694	-22.3445783133
988	0.494	0.65625	4.82	3.51836734694	-22.3445783133
989	0.4945	-6.578125	1.9	2.08775510204	-15.2963855422
990	0.495	0.65625	1.9	3.51836734694	-12.4771084337
991	0.4955	0.65625	1.9	2.08775510204	-19.5253012048
992	0.496	0.65625	0.44	-10.787755102	-15.2963855422
993	0.4965	0.65625	1.9	-9.35714285714	-11.0674698795
994	0.497	-0.790625	-9.78	-0.773469387755	-9.6578313253
995	0.4975	2.103125	-6.86	2.08775510204	-11.0674698795
996	0.498	2.103125	1.9	-0.773469387755	-13.886746988
997	0.4985	13.678125	3.36	-0.773469387755	-25.1638554217
998	0.499	-0.790625	0.44	-5.06530612245	-37.8506024096
999	0.4995	0.65625	1.9	-9.35714285714	-29.3927710843
1000	0.5	-0.790625	6.28	-0.773469387755	-23.7542168675
1001	0.5005	0.65625	17.96	0.657142857143	-26.5734939759
1002	0.501	-0.790625	3.36	-2.20408163265	-23.7542168675
1003	0.5015	10.784375	0.44	-2.20408163265	-25.1638554217
1004	0.502	4.996875	1.9	0.657142857143	-25.1638554217
1005	0.5025	-0.790625	-1.02	2.08775510204	-32.2120481928
1006	0.503	-2.2375	0.44	0.657142857143	-9.6578313253
1007	0.5035	-0.790625	1.9	-0.773469387755	-23.7542168675
1008	0.504	-2.2375	-8.32	0.657142857143	-18.1156626506
1009	0.5045	2.103125	1.9	-2.20408163265	-13.886746988
1010	0.505	-12.365625	1.9	0.657142857143	-12.4771084337
1011	0.5055	-10.91875	0.44	0.657142857143	-13.886746988
1012	0.506	2.103125	0.44	0.657142857143	-2.60963855422
1013	0.5065	0.65625	3.36	14.9632653061	-19.5253012048
1014	0.507	-0.790625	0.44	-2.20408163265	-15.2963855422
1015	0.5075	0.65625	-2.48	0.657142857143	-13.886746988
1016	0.508	7.890625	-5.4	-0.773469387755	-12.4771084337
1017	0.5085	3.55	1.9	3.51836734694	-9.6578313253
1018	0.509	-5.13125	-1.02	3.51836734694	-4.01927710843
1019	0.5095	-0.790625	0.44	9.24081632653	-19.5253012048
1020	0.51	-2.2375	0.44	-6.49591836735	-20.934939759
1021	0.5105	0.65625	-5.4	-0.773469387755	-16.7060240964
1022	0.511	3.55	0.44	-3.63469387755	-13.886746988
1023	0.5115	9.3375	1.9	0.657142857143	-9.6578313253
1024	0.512	10.784375	1.9	-0.773469387755	-15.2963855422
1025	0.5125	-0.790625	0.44	0.657142857143	-5.42891566265
1026	0.513	0.65625	3.36	19.2551020408	-12.4771084337
1027	0.5135	3.55	0.44	13.5326530612	-12.4771084337
1028	0.514	3.55	17.96	-0.773469387755	-12.4771084337
1029	0.5145	-0.790625	-1.02	-0.773469387755	-15.2963855422
1030	0.515	-10.91875	0.44	0.657142857143	-20.934939759
1031	0.5155	-2.2375	0.44	-2.20408163265	-22.3445783133
1032	0.516	-2.2375	1.9	3.51836734694	-32.2120481928
1033	0.5165	-0.790625	1.9	3.51836734694	-27.9831325301
1034	0.517	0.65625	4.82	-5.06530612245	-25.1638554217
1035	0.5175	0.65625	17.96	-0.773469387755	-19.5253012048
1036	0.518	3.55	0.44	0.657142857143	-13.886746988
1037	0.5185	16.571875	1.9	3.51836734694	-18.1156626506
1038	0.519	-0.790625	0.44	2.08775510204	-32.2120481928
1039	0.5195	-0.790625	1.9	-12.2183673469	-26.5734939759
1040	0.52	2.103125	1.9	-12.2183673469	-32.2120481928
1041	0.5205	-3.684375	-9.78	0.657142857143	-30.8024096386
1042	0.521	-0.790625	-6.86	0.657142857143	-30.8024096386
1043	0.5215	2.103125	-1.02	2.08775510204	-30.8024096386
1044	0.522	-12.365625	0.44	3.51836734694	-18.1156626506
1045	0.5225	-2.2375	0.44	2.08775510204	-39.2602409639
1046	0.523	-2.2375	3.36	-3.63469387755	-29.3927710843
1047	0.5235	-0.790625	0.44	-3.63469387755	-25.1638554217
1048	0.524	0.65625	-5.4	2.08775510204	-19.5253012048
1049	0.5245	0.65625	-6.86	-0.773469387755	-13.886746988
1050	0.525	16.571875	1.9	0.657142857143	-5.42891566265
1051	0.5255	-8.025	-1.02	0.657142857143	-5.42891566265
1052	0.526	2.103125	1.9	4.94897959184	-18.1156626506
1053	0.5265	-0.790625	0.44	17.8244897959	-20.934939759
1054	0.527	-2.2375	0.44	-5.06530612245	-26.5734939759
1055	0.5275	0.65625	16.5	3.51836734694	-25.1638554217
1056	0.528	-5.13125	-6.86	0.657142857143	-18.1156626506
1057	0.5285	16.571875	-1.02	3.51836734694	-9.6578313253
1058	0.529	-9.471875	0.44	4.94897959184	7.2578313253
1059	0.5295	-0.790625	0.44	0.657142857143	-18.1156626506
1060	0.53	-0.790625	1.9	-7.92653061224	-12.4771084337
1061	0.5305	-2.2375	3.36	-6.49591836735	-23.7542168675
1062	0.531	-0.790625	19.42	0.657142857143	-27.9831325301
1063	0.5315	2.103125	-8.32	2.08775510204	-30.8024096386
1064	0.532	19.465625	0.44	-0.773469387755	-37.8506024096
1065	0.5325	0.65625	0.44	-2.20408163265	-9.6578313253
1066	0.533	-2.2375	1.9	-3.63469387755	-9.6578313253
1067	0.5335	0.65625	0.44	20.6857142857	-23.7542168675
1068	0.534	-0.790625	-11.24	-0.773469387755	-23.7542168675
1069	0.5345	0.65625	-2.48	-0.773469387755	-23.7542168675
1070	0.535	3.55	0.44	-0.773469387755	-22.3445783133
1071	0.5355	-0.790625	0.44	-0.773469387755	-19.5253012048
1072	0.536	-5.13125	-1.02	0.657142857143	-11.0674698795
1073	0.5365	-3.684375	1.9	7.81020408163	-12.4771084337
1074	0.537	-0.790625	0.44	-3.63469387755	-11.0674698795
1075	0.5375	-2.2375	0.44	-6.49591836735	-9.6578313253
1076	0.538	-3.684375	-6.86	6.37959183673	-8.24819277108
1077	0.5385	-3.684375	1.9	6.37959183673	-13.886746988
1078	0.539	-12.365625	0.44	4.94897959184	-9.6578313253
1079	0.5395	-0.790625	0.44	7.81020408163	-12.4771084337
1080	0.54	-2.2375	0.44	19.2551020408	-12.4771084337
1081	0.5405	-0.790625	-2.48	20.6857142857	-12.4771084337
1082	0.541	0.65625	13.58	9.24081632653	-12.4771084337
1083	0.5415	0.65625	-1.02	10.6714285714	-11.0674698795
1084	0.542	-10.91875	0.44	7.81020408163	-9.6578313253
1085	0.5425	-0.790625	0.44	9.24081632653	-11.0674698795
1086	0.543	-2.2375	1.9	6.37959183673	-18.1156626506
1087	0.5435	2.103125	3.36	-0.773469387755	-11.0674698795
1088	0.544	-0.790625	4.82	12.1020408163	-11.0674698795
1089	0.5445	-2.2375	-12.7	7.81020408163	-4.01927710843
1090	0.545	3.55	0.44	9.24081632653	3.02891566265
1091	0.5455	-10.91875	-2.48	7.81020408163	5.84819277108
1092	0.546	-0.790625	0.44	4.94897959184	0.209638554217
1093	0.5465	-2.2375	0.44	4.94897959184	11.486746988
1094	0.547	0.65625	0.44	16.393877551	-6.83855421687
1095	0.5475	0.65625	1.9	16.393877551	-11.0674698795
1096	0.548	0.65625	16.5	2.08775510204	-11.0674698795
1097	0.5485	-3.684375	-1.02	0.657142857143	-6.83855421687
1098	0.549	22.359375	0.44	-0.773469387755	-5.42891566265
1099	0.5495	-0.790625	0.44	-5.06530612245	-8.24819277108
1100	0.55	-0.790625	0.44	-7.92653061224	8.66746987952
1101	0.5505	0.65625	-2.48	2.08775510204	-5.42891566265
1102	0.551	0.65625	-9.78	-9.35714285714	-4.01927710843
1103	0.5515	2.103125	9.2	-9.35714285714	1.61927710843
1104	0.552	-8.025	-1.02	-7.92653061224	7.2578313253
1105	0.5525	4.996875	3.36	-5.06530612245	4.43855421687
1106	0.553	-5.13125	3.36	-5.06530612245	3.02891566265
1107	0.5535	-0.790625	1.9	-6.49591836735	-4.01927710843
1108	0.554	0.65625	3.36	-3.63469387755	-6.83855421687
1109	0.5545	-0.790625	-8.32	0.657142857143	-12.4771084337
1110	0.555	0.65625	-5.4	-0.773469387755	-15.2963855422
1111	0.5555	4.996875	1.9	-0.773469387755	-13.886746988
1112	0.556	0.65625	0.44	-0.773469387755	-15.2963855422
1113	0.5565	0.65625	0.44	0.657142857143	-18.1156626506
1114	0.557	0.65625	0.44	-0.773469387755	-12.4771084337
1115	0.5575	0.65625	1.9	4.94897959184	-22.3445783133
1116	0.558	0.65625	6.28	-0.773469387755	-23.7542168675
1117	0.5585	-0.790625	6.28	0.657142857143	-25.1638554217
1118	0.559	9.3375	0.44	-2.20408163265	-25.1638554217
1119	0.5595	-3.684375	0.44	-0.773469387755	-25.1638554217
1120	0.56	0.65625	3.36	-0.773469387755	-30.8024096386
1121	0.5605	0.65625	1.9	0.657142857143	-23.7542168675
1122	0.561	0.65625	-3.94	-0.773469387755	-25.1638554217
1123	0.5615	0.65625	-2.48	0.657142857143	-25.1638554217
1124	0.562	-5.13125	0.44	-0.773469387755	-25.1638554217
1125	0.5625	-2.2375	3.36	0.657142857143	-23.7542168675
1126	0.563	-5.13125	0.44	-0.773469387755	-29.3927710843
1127	0.5635	2.103125	0.44	-2.20408163265	-8.24819277108
1128	0.564	2.103125	3.36	9.24081632653	-23.7542168675
1129	0.5645	-2.2375	0.44	12.1020408163	-18.1156626506
1130	0.565	0.65625	-5.4	-3.63469387755	-15.2963855422
1131	0.5655	-8.025	0.44	-3.63469387755	-18.1156626506
1132	0.566	10.784375	-1.02	-5.06530612245	-19.5253012048
1133	0.5665	0.65625	0.44	-3.63469387755	-12.4771084337
1134	0.567	0.65625	0.44	-3.63469387755	-18.1156626506
1135	0.5675	-0.790625	-1.02	-5.06530612245	-18.1156626506
1136	0.568	3.55	15.04	-2.20408163265	-15.2963855422
1137	0.5685	-3.684375	9.2	-3.63469387755	-18.1156626506
1138	0.569	-15.259375	0.44	-3.63469387755	-8.24819277108
1139	0.5695	-6.578125	1.9	2.08775510204	-12.4771084337
1140	0.57	-0.790625	-1.02	0.657142857143	0.209638554217
1141	0.5705	2.103125	1.9	19.2551020408	-15.2963855422
1142	0.571	-0.790625	-1.02	16.393877551	-16.7060240964
1143	0.5715	3.55	20.88	2.08775510204	-12.4771084337
1144	0.572	-2.2375	0.44	3.51836734694	-12.4771084337
1145	0.5725	-9.471875	0.44	4.94897959184	-19.5253012048
1146	0.573	-2.2375	3.36	4.94897959184	-16.7060240964
1147	0.5735	-0.790625	0.44	-7.92653061224	-16.7060240964
1148	0.574	0.65625	1.9	-5.06530612245	-6.83855421687
1149	0.5745	0.65625	13.58	0.657142857143	-5.42891566265
1150	0.575	2.103125	-3.94	2.08775510204	-2.60963855422
1151	0.5755	0.65625	0.44	6.37959183673	-4.01927710843
1152	0.576	-5.13125	1.9	3.51836734694	0.209638554217
1153	0.5765	0.65625	0.44	0.657142857143	1.61927710843
1154	0.577	0.65625	3.36	0.657142857143	-8.24819277108
1155	0.5775	0.65625	-3.94	-5.06530612245	1.61927710843
1156	0.578	-0.790625	7.74	3.51836734694	-2.60963855422
1157	0.5785	0.65625	-2.48	3.51836734694	-2.60963855422
1158	0.579	3.55	0.44	0.657142857143	-1.2
1159	0.5795	-2.2375	-2.48	-0.773469387755	4.43855421687
1160	0.58	2.103125	-2.48	-6.49591836735	12.8963855422
1161	0.5805	0.65625	-1.02	-6.49591836735	19.9445783133
1162	0.581	-0.790625	-3.94	-7.92653061224	21.3542168675
1163	0.5815	3.55	-6.86	-3.63469387755	14.3060240964
1164	0.582	-2.2375	1.9	-3.63469387755	7.2578313253
1165	0.5825	15.125	0.44	-0.773469387755	-2.60963855422
1166	0.583	0.65625	-2.48	-0.773469387755	-12.4771084337
1167	0.5835	0.65625	1.9	0.657142857143	-23.7542168675
1168	0.584	0.65625	0.44	-9.35714285714	-15.2963855422
1169	0.5845	3.55	0.44	0.657142857143	-13.886746988
1170	0.585	-0.790625	1.9	-0.773469387755	-11.0674698795
1171	0.5855	-9.471875	0.44	3.51836734694	-11.0674698795
1172	0.586	-10.91875	0.44	2.08775510204	-20.934939759
1173	0.5865	-0.790625	-2.48	-3.63469387755	-4.01927710843
1174	0.587	-0.790625	3.36	19.2551020408	-11.0674698795
1175	0.5875	-0.790625	-12.7	4.94897959184	-11.0674698795
1176	0.588	3.55	-6.86	3.51836734694	-13.886746988
1177	0.5885	4.996875	0.44	0.657142857143	-18.1156626506
1178	0.589	-8.025	0.44	3.51836734694	-4.01927710843
1179	0.5895	-0.790625	0.44	-0.773469387755	-23.7542168675
1180	0.59	2.103125	-1.02	-7.92653061224	-13.886746988
1181	0.5905	-0.790625	0.44	4.94897959184	-9.6578313253
1182	0.591	2.103125	4.82	2.08775510204	-9.6578313253
1183	0.5915	-0.790625	-5.4	-0.773469387755	-11.0674698795
1184	0.592	-0.790625	-1.02	0.657142857143	-12.4771084337
1185	0.5925	-10.91875	-2.48	-3.63469387755	7.2578313253
1186	0.593	-2.2375	0.44	2.08775510204	11.486746988
1187	0.5935	-2.2375	0.44	19.2551020408	-8.24819277108
1188	0.594	0.65625	1.9	17.8244897959	-11.0674698795
1189	0.5945	0.65625	17.96	2.08775510204	-8.24819277108
1190	0.595	-0.790625	-3.94	3.51836734694	-4.01927710843
1191	0.5955	-9.471875	1.9	4.94897959184	-1.2
1192	0.596	-6.578125	1.9	0.657142857143	-1.2
1193	0.5965	0.65625	0.44	-0.773469387755	-11.0674698795
1194	0.597	2.103125	3.36	-0.773469387755	8.66746987952
1195	0.5975	0.65625	-1.02	17.8244897959	-11.0674698795
1196	0.598	2.103125	-6.86	-0.773469387755	-15.2963855422
1197	0.5985	-3.684375	20.88	2.08775510204	-19.5253012048
1198	0.599	-12.365625	0.44	-0.773469387755	-20.934939759
1199	0.5995	-0.790625	1.9	2.08775510204	-26.5734939759
1200	0.6	0.65625	0.44	3.51836734694	-30.8024096386
1201	0.6005	0.65625	0.44	-0.773469387755	-35.0313253012
1202	0.601	0.65625	0.44	-7.92653061224	-33.621686747
1203	0.6015	2.103125	15.04	0.657142857143	-44.8987951807
1204	0.602	0.65625	-6.86	3.51836734694	-43.4891566265
1205	0.6025	18.01875	-1.02	4.94897959184	-39.2602409639
1206	0.603	-6.578125	0.44	4.94897959184	-22.3445783133
1207	0.6035	0.65625	1.9	17.8244897959	-35.0313253012
1208	0.604	3.55	0.44	-5.06530612245	-35.0313253012
1209	0.6045	2.103125	0.44	2.08775510204	-36.4409638554
1210	0.605	3.55	1.9	4.94897959184	-35.0313253012
1211	0.6055	-6.578125	1.9	2.08775510204	-37.8506024096
1212	0.606	19.465625	-1.02	2.08775510204	-37.8506024096
1213	0.6065	2.103125	0.44	2.08775510204	-18.1156626506
1214	0.607	0.65625	1.9	22.1163265306	-27.9831325301
1215	0.6075	2.103125	-3.94	20.6857142857	-25.1638554217
1216	0.608	0.65625	-12.7	3.51836734694	-26.5734939759
1217	0.6085	4.996875	0.44	7.81020408163	-23.7542168675
1218	0.609	-10.91875	-6.86	4.94897959184	-22.3445783133
1219	0.6095	3.55	0.44	6.37959183673	-23.7542168675
1220	0.61	-0.790625	0.44	4.94897959184	-13.886746988
1221	0.6105	2.103125	0.44	4.94897959184	-26.5734939759
1222	0.611	-0.790625	-1.02	-6.49591836735	-19.5253012048
1223	0.6115	-0.790625	1.9	-3.63469387755	-27.9831325301
1224	0.612	-2.2375	-1.02	4.94897959184	-26.5734939759
1225	0.6125	-8.025	-1.02	3.51836734694	-26.5734939759
1226	0.613	-3.684375	-1.02	3.51836734694	-29.3927710843
1227	0.6135	0.65625	-1.02	2.08775510204	-37.8506024096
1228	0.614	0.65625	-1.02	-3.63469387755	-35.0313253012
1229	0.6145	3.55	3.36	0.657142857143	-33.621686747
1230	0.615	0.65625	-11.24	-0.773469387755	-35.0313253012
1231	0.6155	3.55	-1.02	0.657142857143	-35.0313253012
1232	0.616	-8.025	-3.94	-5.06530612245	-35.0313253012
1233	0.6165	18.01875	-1.02	-3.63469387755	-39.2602409639
1234	0.617	2.103125	-3.94	2.08775510204	-25.1638554217
1235	0.6175	3.55	1.9	14.9632653061	-27.9831325301
1236	0.618	2.103125	-2.48	7.81020408163	-26.5734939759
1237	0.6185	2.103125	-6.86	-2.20408163265	-29.3927710843
1238	0.619	4.996875	-5.4	-0.773469387755	-25.1638554217
1239	0.6195	2.103125	-8.32	-2.20408163265	-15.2963855422
1240	0.62	19.465625	1.9	0.657142857143	-9.6578313253
1241	0.6205	-0.790625	-1.02	-0.773469387755	1.61927710843
1242	0.621	-0.790625	0.44	4.94897959184	-5.42891566265
1243	0.6215	2.103125	1.9	0.657142857143	-8.24819277108
1244	0.622	0.65625	3.36	-3.63469387755	-20.934939759
1245	0.6225	-0.790625	-6.86	3.51836734694	-40.6698795181
1246	0.623	4.996875	0.44	4.94897959184	-40.6698795181
1247	0.6235	18.01875	-1.02	0.657142857143	-29.3927710843
1248	0.624	0.65625	0.44	-3.63469387755	-26.5734939759
1249	0.6245	0.65625	-1.02	-5.06530612245	-8.24819277108
1250	0.625	2.103125	0.44	14.9632653061	-18.1156626506
1251	0.6255	0.65625	-11.24	0.657142857143	-18.1156626506
1252	0.626	4.996875	20.88	-0.773469387755	-22.3445783133
1253	0.6265	-13.8125	-1.02	0.657142857143	-25.1638554217
1254	0.627	12.23125	0.44	0.657142857143	-29.3927710843
1255	0.6275	-5.13125	0.44	2.08775510204	-8.24819277108
1256	0.628	0.65625	1.9	-2.20408163265	-26.5734939759
1257	0.6285	0.65625	0.44	-7.92653061224	-23.7542168675
1258	0.629	-0.790625	3.36	-7.92653061224	-23.7542168675
1259	0.6295	-2.2375	-8.32	0.657142857143	-23.7542168675
1260	0.63	3.55	0.44	0.657142857143	-23.7542168675
1261	0.6305	22.359375	0.44	-0.773469387755	-22.3445783133
1262	0.631	4.996875	0.44	0.657142857143	-33.621686747
1263	0.6315	0.65625	0.44	-9.35714285714	-18.1156626506
1264	0.632	0.65625	1.9	4.94897959184	-23.7542168675
1265	0.6325	0.65625	3.36	-0.773469387755	-25.1638554217
1266	0.633	2.103125	15.04	-2.20408163265	-25.1638554217
1267	0.6335	-0.790625	16.5	-2.20408163265	-23.7542168675
1268	0.634	-8.025	0.44	-0.773469387755	-23.7542168675
1269	0.6345	-2.2375	0.44	0.657142857143	-27.9831325301
1270	0.635	-0.790625	1.9	-2.20408163265	-22.3445783133
1271	0.6355	-0.790625	-1.02	3.51836734694	-25.1638554217
1272	0.636	2.103125	-3.94	0.657142857143	-25.1638554217
1273	0.6365	2.103125	-8.32	2.08775510204	-20.934939759
1274	0.637	12.23125	-1.02	2.08775510204	-22.3445783133
1275	0.6375	-6.578125	-1.02	2.08775510204	-23.7542168675
1276	0.638	0.65625	-2.48	3.51836734694	-35.0313253012
1277	0.6385	0.65625	0.44	-3.63469387755	-30.8024096386
1278	0.639	-0.790625	3.36	0.657142857143	-33.621686747
1279	0.6395	0.65625	17.96	0.657142857143	-33.621686747
1280	0.64	-13.8125	0.44	4.94897959184	-32.2120481928
1281	0.6405	20.9125	-1.02	4.94897959184	-29.3927710843
1282	0.641	-0.790625	-1.02	0.657142857143	-32.2120481928
1283	0.6415	-0.790625	0.44	0.657142857143	-18.1156626506
1284	0.642	-3.684375	-3.94	13.5326530612	-29.3927710843
1285	0.6425	-2.2375	-8.32	0.657142857143	-30.8024096386
1286	0.643	-0.790625	-1.02	2.08775510204	-35.0313253012
1287	0.6435	-5.13125	-2.48	-0.773469387755	-33.621686747
1288	0.644	18.01875	1.9	3.51836734694	-39.2602409639
1289	0.6445	0.65625	0.44	0.657142857143	-19.5253012048
1290	0.645	-2.2375	-1.02	6.37959183673	-22.3445783133
1291	0.6455	-0.790625	0.44	3.51836734694	-25.1638554217
1292	0.646	0.65625	0.44	-0.773469387755	-26.5734939759
1293	0.6465	-3.684375	-3.94	2.08775510204	-23.7542168675
1294	0.647	-9.471875	-1.02	0.657142857143	-26.5734939759
1295	0.6475	-3.684375	-1.02	0.657142857143	-22.3445783133
1296	0.648	-2.2375	-2.48	-0.773469387755	-27.9831325301
1297	0.6485	-0.790625	1.9	-2.20408163265	-29.3927710843
1298	0.649	-5.13125	0.44	-9.35714285714	-19.5253012048
1299	0.6495	0.65625	16.5	3.51836734694	-18.1156626506
1300	0.65	-3.684375	-5.4	3.51836734694	-19.5253012048
1301	0.6505	12.23125	0.44	-2.20408163265	-29.3927710843
1302	0.651	-2.2375	0.44	0.657142857143	-20.934939759
1303	0.6515	-3.684375	3.36	6.37959183673	-25.1638554217
1304	0.652	-0.790625	1.9	16.393877551	-19.5253012048
1305	0.6525	-3.684375	-11.24	0.657142857143	-12.4771084337
1306	0.653	-2.2375	-11.24	2.08775510204	-9.6578313253
1307	0.6535	0.65625	0.44	2.08775510204	-13.886746988
1308	0.654	10.784375	0.44	4.94897959184	-19.5253012048
1309	0.6545	-3.684375	0.44	3.51836734694	-25.1638554217
1310	0.655	-2.2375	0.44	3.51836734694	-2.60963855422
1311	0.6555	0.65625	0.44	16.393877551	-12.4771084337
1312	0.656	-5.13125	-1.02	2.08775510204	-8.24819277108
1313	0.6565	0.65625	-11.24	3.51836734694	-4.01927710843
1314	0.657	-2.2375	-1.02	-0.773469387755	1.61927710843
1315	0.6575	-12.365625	0.44	3.51836734694	1.61927710843
1316	0.658	-3.684375	-1.02	0.657142857143	-11.0674698795
1317	0.6585	-0.790625	0.44	-3.63469387755	3.02891566265
1318	0.659	-0.790625	-1.02	10.6714285714	-6.83855421687
1319	0.6595	-0.790625	1.9	3.51836734694	-8.24819277108
1320	0.66	-0.790625	9.2	3.51836734694	-9.6578313253
1321	0.6605	0.65625	0.44	2.08775510204	-12.4771084337
1322	0.661	-8.025	0.44	2.08775510204	-12.4771084337
1323	0.6615	0.65625	-1.02	2.08775510204	-22.3445783133
1324	0.662	-0.790625	-1.02	-2.20408163265	-12.4771084337
1325	0.6625	-0.790625	3.36	3.51836734694	-11.0674698795
1326	0.663	0.65625	6.28	-0.773469387755	-12.4771084337
1327	0.6635	-0.790625	13.58	-2.20408163265	-13.886746988
1328	0.664	-3.684375	-1.02	2.08775510204	-15.2963855422
1329	0.6645	18.01875	0.44	2.08775510204	-15.2963855422
1330	0.665	2.103125	0.44	-0.773469387755	4.43855421687
1331	0.6655	-0.790625	0.44	16.393877551	-6.83855421687
1332	0.666	0.65625	-1.02	10.6714285714	-9.6578313253
1333	0.6665	2.103125	-5.4	-0.773469387755	-8.24819277108
1334	0.667	3.55	-3.94	-0.773469387755	-8.24819277108
1335	0.6675	-5.13125	1.9	-0.773469387755	-15.2963855422
1336	0.668	0.65625	0.44	-0.773469387755	-4.01927710843
1337	0.6685	2.103125	0.44	-2.20408163265	-11.0674698795
1338	0.669	0.65625	4.82	17.8244897959	-23.7542168675
1339	0.6695	2.103125	-2.48	12.1020408163	-15.2963855422
1340	0.67	0.65625	0.44	-0.773469387755	-11.0674698795
1341	0.6705	0.65625	-5.4	-2.20408163265	-12.4771084337
1342	0.671	0.65625	-6.86	-0.773469387755	-11.0674698795
1343	0.6715	2.103125	0.44	2.08775510204	-12.4771084337
1344	0.672	3.55	3.36	-2.20408163265	18.534939759
1345	0.6725	0.65625	1.9	12.1020408163	11.486746988
1346	0.673	0.65625	4.82	-3.63469387755	8.66746987952
1347	0.6735	0.65625	7.74	2.08775510204	4.43855421687
1348	0.674	0.65625	15.04	2.08775510204	-4.01927710843
1349	0.6745	-3.684375	1.9	3.51836734694	-15.2963855422
1350	0.675	-9.471875	1.9	4.94897959184	-30.8024096386
1351	0.6755	-2.2375	0.44	3.51836734694	-12.4771084337
1352	0.676	0.65625	1.9	20.6857142857	-23.7542168675
1353	0.6765	-0.790625	0.44	16.393877551	-20.934939759
1354	0.677	2.103125	15.04	3.51836734694	-16.7060240964
1355	0.6775	-0.790625	-2.48	3.51836734694	-16.7060240964
1356	0.678	0.65625	-1.02	6.37959183673	-26.5734939759
1357	0.6785	-3.684375	4.82	4.94897959184	-23.7542168675
1358	0.679	0.65625	1.9	-2.20408163265	-25.1638554217
1359	0.6795	2.103125	1.9	-0.773469387755	-23.7542168675
1360	0.68	3.55	1.9	-3.63469387755	-19.5253012048
1361	0.6805	2.103125	20.88	4.94897959184	-18.1156626506
1362	0.681	-0.790625	-6.86	4.94897959184	-25.1638554217
1363	0.6815	23.80625	1.9	0.657142857143	-32.2120481928
1364	0.682	-5.13125	1.9	4.94897959184	-39.2602409639
1365	0.6825	3.55	-1.02	6.37959183673	-40.6698795181
1366	0.683	2.103125	-2.48	4.94897959184	-40.6698795181
1367	0.6835	0.65625	1.9	13.5326530612	-32.2120481928
1368	0.684	2.103125	7.74	-0.773469387755	-29.3927710843
1369	0.6845	0.65625	0.44	2.08775510204	-30.8024096386
1370	0.685	-5.13125	0.44	0.657142857143	-29.3927710843
1371	0.6855	0.65625	-1.02	-0.773469387755	-25.1638554217
1372	0.686	0.65625	0.44	-2.20408163265	-23.7542168675
1373	0.6865	2.103125	-2.48	-9.35714285714	-25.1638554217
1374	0.687	2.103125	0.44	-7.92653061224	-25.1638554217
1375	0.6875	2.103125	9.2	-0.773469387755	-23.7542168675
1376	0.688	2.103125	-6.86	-0.773469387755	-26.5734939759
1377	0.6885	18.01875	0.44	2.08775510204	-23.7542168675
1378	0.689	-6.578125	1.9	3.51836734694	-12.4771084337
1379	0.6895	0.65625	0.44	17.8244897959	-27.9831325301
1380	0.69	3.55	-1.02	3.51836734694	-25.1638554217
1381	0.6905	0.65625	-11.24	3.51836734694	-23.7542168675
1382	0.691	3.55	-2.48	3.51836734694	-23.7542168675
1383	0.6915	6.44375	-2.48	0.657142857143	-23.7542168675
1384	0.692	0.65625	0.44	3.51836734694	-13.886746988
1385	0.6925	2.103125	0.44	3.51836734694	-32.2120481928
1386	0.693	3.55	0.44	-5.06530612245	-23.7542168675
1387	0.6935	2.103125	3.36	4.94897959184	-23.7542168675
1388	0.694	2.103125	-2.48	3.51836734694	-22.3445783133
1389	0.6945	0.65625	12.12	3.51836734694	-23.7542168675
1390	0.695	-3.684375	-1.02	0.657142857143	-20.934939759
1391	0.6955	18.01875	3.36	3.51836734694	-25.1638554217
1392	0.696	2.103125	0.44	0.657142857143	-22.3445783133
1393	0.6965	0.65625	3.36	-3.63469387755	-18.1156626506
1394	0.697	-2.2375	0.44	-0.773469387755	-23.7542168675
1395	0.6975	0.65625	7.74	0.657142857143	-23.7542168675
1396	0.698	0.65625	9.2	3.51836734694	-22.3445783133
1397	0.6985	0.65625	0.44	2.08775510204	-16.7060240964
1398	0.699	-8.025	0.44	2.08775510204	-18.1156626506
1399	0.6995	-0.790625	0.44	2.08775510204	-15.2963855422
1400	0.7	0.65625	0.44	2.08775510204	-8.24819277108
1401	0.7005	0.65625	0.44	0.657142857143	-9.6578313253
1402	0.701	2.103125	-5.4	2.08775510204	-9.6578313253
1403	0.7015	-0.790625	19.42	4.94897959184	-13.886746988
1404	0.702	-10.91875	1.9	7.81020408163	-12.4771084337
1405	0.7025	-9.471875	0.44	6.37959183673	-13.886746988
1406	0.703	2.103125	1.9	3.51836734694	-20.934939759
1407	0.7035	0.65625	1.9	-6.49591836735	-13.886746988
1408	0.704	3.55	4.82	4.94897959184	-18.1156626506
1409	0.7045	2.103125	-11.24	3.51836734694	-19.5253012048
1410	0.705	7.890625	-2.48	9.24081632653	-8.24819277108
1411	0.7055	-8.025	-1.02	6.37959183673	12.8963855422
1412	0.706	0.65625	1.9	4.94897959184	11.486746988
1413	0.7065	0.65625	0.44	-0.773469387755	21.3542168675
1414	0.707	0.65625	0.44	2.08775510204	12.8963855422
1415	0.7075	0.65625	0.44	20.6857142857	1.61927710843
1416	0.708	0.65625	13.58	4.94897959184	-6.83855421687
1417	0.7085	-0.790625	1.9	7.81020408163	-18.1156626506
1418	0.709	-6.578125	1.9	4.94897959184	-25.1638554217
1419	0.7095	0.65625	-1.02	3.51836734694	-20.934939759
1420	0.71	0.65625	0.44	-3.63469387755	-8.24819277108
1421	0.7105	2.103125	1.9	-7.92653061224	-5.42891566265
1422	0.711	0.65625	20.88	0.657142857143	-4.01927710843
1423	0.7115	3.55	3.36	-0.773469387755	-4.01927710843
1424	0.712	-12.365625	1.9	2.08775510204	-11.0674698795
1425	0.7125	22.359375	0.44	3.51836734694	-13.886746988
1426	0.713	2.103125	-2.48	-5.06530612245	-18.1156626506
1427	0.7135	2.103125	3.36	16.393877551	-16.7060240964
1428	0.714	0.65625	0.44	12.1020408163	-12.4771084337
1429	0.7145	3.55	13.58	4.94897959184	-11.0674698795
1430	0.715	2.103125	-2.48	6.37959183673	-1.2
1431	0.7155	7.890625	-1.02	7.81020408163	-8.24819277108
1432	0.716	-5.13125	0.44	2.08775510204	-6.83855421687
1433	0.7165	-0.790625	1.9	2.08775510204	0.209638554217
1434	0.717	3.55	0.44	2.08775510204	-1.2
1435	0.7175	0.65625	0.44	-5.06530612245	-2.60963855422
1436	0.718	4.996875	16.5	0.657142857143	-9.6578313253
1437	0.7185	0.65625	1.9	-0.773469387755	-22.3445783133
1438	0.719	15.125	0.44	2.08775510204	-29.3927710843
1439	0.7195	0.65625	0.44	0.657142857143	-15.2963855422
1440	0.72	0.65625	-1.02	13.5326530612	-25.1638554217
1441	0.7205	0.65625	1.9	13.5326530612	-23.7542168675
1442	0.721	0.65625	1.9	-2.20408163265	-18.1156626506
1443	0.7215	-0.790625	7.74	0.657142857143	-9.6578313253
1444	0.722	12.23125	1.9	2.08775510204	-12.4771084337
1445	0.7225	-5.13125	1.9	0.657142857143	-4.01927710843
1446	0.723	0.65625	-2.48	-0.773469387755	-9.6578313253
1447	0.7235	2.103125	-1.02	3.51836734694	-13.886746988
1448	0.724	0.65625	-6.86	0.657142857143	-22.3445783133
1449	0.7245	2.103125	0.44	0.657142857143	-26.5734939759
1450	0.725	0.65625	-6.86	3.51836734694	-26.5734939759
1451	0.7255	16.571875	-1.02	0.657142857143	-15.2963855422
1452	0.726	-9.471875	0.44	0.657142857143	-11.0674698795
1453	0.7265	2.103125	0.44	0.657142857143	-11.0674698795
1454	0.727	2.103125	-1.02	3.51836734694	-1.2
1455	0.7275	3.55	3.36	0.657142857143	-4.01927710843
1456	0.728	3.55	16.5	3.51836734694	-8.24819277108
1457	0.7285	-8.025	0.44	-0.773469387755	-18.1156626506
1458	0.729	3.55	0.44	0.657142857143	-22.3445783133
1459	0.7295	-5.13125	-1.02	0.657142857143	-15.2963855422
1460	0.73	3.55	1.9	0.657142857143	-22.3445783133
1461	0.7305	2.103125	3.36	-9.35714285714	-9.6578313253
1462	0.731	2.103125	1.9	-0.773469387755	-8.24819277108
1463	0.7315	3.55	-11.24	0.657142857143	-12.4771084337
1464	0.732	7.890625	-1.02	-0.773469387755	-18.1156626506
1465	0.7325	10.784375	3.36	-0.773469387755	-13.886746988
1466	0.733	3.55	1.9	-0.773469387755	-11.0674698795
1467	0.7335	2.103125	-1.02	0.657142857143	-9.6578313253
1468	0.734	0.65625	1.9	0.657142857143	-18.1156626506
1469	0.7345	-0.790625	0.44	-7.92653061224	-4.01927710843
1470	0.735	0.65625	15.04	0.657142857143	-5.42891566265
1471	0.7355	-8.025	1.9	0.657142857143	-5.42891566265
1472	0.736	19.465625	0.44	0.657142857143	-4.01927710843
1473	0.7365	-0.790625	0.44	-0.773469387755	-9.6578313253
1474	0.737	-0.790625	0.44	-2.20408163265	8.66746987952
1475	0.7375	0.65625	0.44	13.5326530612	11.486746988
1476	0.738	3.55	-9.78	-0.773469387755	22.7638554217
1477	0.7385	0.65625	7.74	0.657142857143	36.8602409639
1478	0.739	-5.13125	0.44	-0.773469387755	38.2698795181
1479	0.7395	-3.684375	0.44	-2.20408163265	32.6313253012
1480	0.74	2.103125	0.44	-0.773469387755	-2.60963855422
1481	0.7405	2.103125	0.44	-7.92653061224	-33.621686747
1482	0.741	2.103125	0.44	-7.92653061224	-32.2120481928
1483	0.7415	0.65625	17.96	-2.20408163265	-18.1156626506
1484	0.742	0.65625	-8.32	0.657142857143	-1.2
1485	0.7425	2.103125	0.44	0.657142857143	15.7156626506
1486	0.743	9.3375	-1.02	2.08775510204	22.7638554217
1487	0.7435	3.55	-1.02	-0.773469387755	26.9927710843
1488	0.744	0.65625	1.9	-0.773469387755	8.66746987952
1489	0.7445	-0.790625	1.9	-5.06530612245	-5.42891566265
1490	0.745	0.65625	0.44	0.657142857143	-20.934939759
1491	0.7455	4.996875	0.44	-0.773469387755	-30.8024096386
1492	0.746	-0.790625	0.44	0.657142857143	-29.3927710843
1493	0.7465	16.571875	-1.02	2.08775510204	-25.1638554217
1494	0.747	2.103125	0.44	-2.20408163265	-30.8024096386
1495	0.7475	0.65625	-1.02	-9.35714285714	-23.7542168675
1496	0.748	2.103125	0.44	0.657142857143	-26.5734939759
1497	0.7485	2.103125	-6.86	3.51836734694	-25.1638554217
1498	0.749	3.55	-6.86	0.657142857143	-16.7060240964
1499	0.7495	15.125	0.44	-0.773469387755	-18.1156626506
1500	0.75	-9.471875	-1.02	2.08775510204	-19.5253012048
1501	0.7505	2.103125	0.44	-0.773469387755	-33.621686747
1502	0.751	-0.790625	-2.48	-5.06530612245	-37.8506024096
1503	0.7515	-0.790625	0.44	0.657142857143	-27.9831325301
1504	0.752	0.65625	17.96	0.657142857143	-26.5734939759
1505	0.7525	-3.684375	-9.78	-0.773469387755	-27.9831325301
1506	0.753	15.125	0.44	-0.773469387755	-26.5734939759
1507	0.7535	-9.471875	1.9	2.08775510204	-12.4771084337
1508	0.754	-0.790625	0.44	3.51836734694	-32.2120481928
1509	0.7545	-0.790625	1.9	-9.35714285714	-20.934939759
1510	0.755	-3.684375	1.9	-0.773469387755	-20.934939759
1511	0.7555	-2.2375	-8.32	0.657142857143	-22.3445783133
1512	0.756	3.55	-1.02	2.08775510204	-18.1156626506
1513	0.7565	19.465625	0.44	-2.20408163265	-9.6578313253
1514	0.757	-2.2375	0.44	0.657142857143	3.02891566265
1515	0.7575	-2.2375	0.44	4.94897959184	8.66746987952
1516	0.758	-0.790625	-2.48	2.08775510204	12.8963855422
1517	0.7585	0.65625	6.28	4.94897959184	5.84819277108
1518	0.759	-3.684375	3.36	2.08775510204	-1.2
1519	0.7595	-0.790625	0.44	2.08775510204	-15.2963855422
1520	0.76	-5.13125	3.36	-0.773469387755	-18.1156626506
1521	0.7605	-2.2375	0.44	2.08775510204	-22.3445783133
1522	0.761	-0.790625	0.44	-2.20408163265	-18.1156626506
1523	0.7615	0.65625	0.44	-7.92653061224	-13.886746988
1524	0.762	0.65625	-6.86	-0.773469387755	-4.01927710843
1525	0.7625	0.65625	-6.86	0.657142857143	-2.60963855422
1526	0.763	-15.259375	-2.48	-0.773469387755	0.209638554217
1527	0.7635	-2.2375	-1.02	-0.773469387755	-1.2
1528	0.764	2.103125	1.9	2.08775510204	-6.83855421687
1529	0.7645	0.65625	0.44	9.24081632653	-6.83855421687
1530	0.765	-0.790625	-2.48	16.393877551	-8.24819277108
1531	0.7655	0.65625	-8.32	0.657142857143	-9.6578313253
1532	0.766	0.65625	19.42	2.08775510204	-8.24819277108
1533	0.7665	-10.91875	-1.02	0.657142857143	-9.6578313253
1534	0.767	18.01875	-2.48	-0.773469387755	-18.1156626506
1535	0.7675	2.103125	1.9	-12.2183673469	-6.83855421687
1536	0.768	0.65625	1.9	16.393877551	-8.24819277108
1537	0.7685	-2.2375	-1.02	0.657142857143	-9.6578313253
1538	0.769	0.65625	-6.86	2.08775510204	-13.886746988
1539	0.7695	2.103125	-1.02	-0.773469387755	-16.7060240964
1540	0.77	-12.365625	0.44	0.657142857143	-11.0674698795
1541	0.7705	0.65625	0.44	-0.773469387755	-13.886746988
1542	0.771	-2.2375	0.44	-0.773469387755	-13.886746988
1543	0.7715	0.65625	0.44	-0.773469387755	-11.0674698795
1544	0.772	0.65625	-2.48	0.657142857143	-12.4771084337
1545	0.7725	-0.790625	4.82	-0.773469387755	-11.0674698795
1546	0.773	0.65625	-2.48	2.08775510204	-11.0674698795
1547	0.7735	2.103125	0.44	2.08775510204	-2.60963855422
1548	0.774	-3.684375	1.9	3.51836734694	-13.886746988
1549	0.7745	-0.790625	-1.02	-5.06530612245	-11.0674698795
1550	0.775	2.103125	1.9	-3.63469387755	-15.2963855422
1551	0.7755	0.65625	-6.86	-2.20408163265	-8.24819277108
1552	0.776	2.103125	3.36	-2.20408163265	-6.83855421687
1553	0.7765	10.784375	0.44	-3.63469387755	-8.24819277108
1554	0.777	3.55	0.44	-2.20408163265	-4.01927710843
1555	0.7775	-0.790625	0.44	-2.20408163265	-8.24819277108
1556	0.778	-0.790625	1.9	2.08775510204	15.7156626506
1557	0.7785	-0.790625	-1.02	23.5469387755	-4.01927710843
1558	0.779	0.65625	-1.02	4.94897959184	-2.60963855422
1559	0.7795	0.65625	-9.78	2.08775510204	-4.01927710843
1560	0.78	18.01875	-1.02	3.51836734694	1.61927710843
1561	0.7805	-9.471875	0.44	2.08775510204	18.534939759
1562	0.781	0.65625	0.44	4.94897959184	17.1253012048
1563	0.7815	-2.2375	0.44	19.2551020408	-2.60963855422
1564	0.782	0.65625	-1.02	3.51836734694	-6.83855421687
1565	0.7825	3.55	19.42	3.51836734694	-4.01927710843
1566	0.783	-2.2375	0.44	3.51836734694	-5.42891566265
1567	0.7835	-6.578125	-2.48	3.51836734694	-8.24819277108
1568	0.784	0.65625	1.9	4.94897959184	-8.24819277108
1569	0.7845	0.65625	0.44	4.94897959184	17.1253012048
1570	0.785	0.65625	3.36	23.5469387755	-2.60963855422
1571	0.7855	-0.790625	-2.48	4.94897959184	-2.60963855422
1572	0.786	-0.790625	-5.4	2.08775510204	0.209638554217
1573	0.7865	4.996875	-1.02	4.94897959184	-2.60963855422
1574	0.787	-9.471875	-1.02	9.24081632653	-1.2
1575	0.7875	2.103125	1.9	12.1020408163	-6.83855421687
1576	0.788	-0.790625	1.9	3.51836734694	-12.4771084337
1577	0.7885	0.65625	3.36	0.657142857143	-8.24819277108
1578	0.789	0.65625	4.82	3.51836734694	-8.24819277108
1579	0.7895	-3.684375	-6.86	2.08775510204	-9.6578313253
1580	0.79	3.55	-1.02	-0.773469387755	-8.24819277108
1581	0.7905	20.9125	3.36	-0.773469387755	-2.60963855422
1582	0.791	-8.025	0.44	-3.63469387755	-2.60963855422
1583	0.7915	0.65625	1.9	14.9632653061	-6.83855421687
1584	0.792	0.65625	1.9	13.5326530612	-6.83855421687
1585	0.7925	0.65625	-11.24	-2.20408163265	-4.01927710843
1586	0.793	2.103125	16.5	-3.63469387755	-4.01927710843
1587	0.7935	-10.91875	0.44	-2.20408163265	-4.01927710843
1588	0.794	16.571875	0.44	-0.773469387755	-6.83855421687
1589	0.7945	0.65625	-1.02	-2.20408163265	-2.60963855422
1590	0.795	0.65625	0.44	6.37959183673	-11.0674698795
1591	0.7955	0.65625	3.36	-3.63469387755	-5.42891566265
1592	0.796	0.65625	13.58	-0.773469387755	-6.83855421687
1593	0.7965	-0.790625	-8.32	0.657142857143	-6.83855421687
1594	0.797	0.65625	0.44	-2.20408163265	-8.24819277108
1595	0.7975	19.465625	-1.02	-3.63469387755	-5.42891566265
1596	0.798	0.65625	0.44	-0.773469387755	-12.4771084337
1597	0.7985	0.65625	1.9	-3.63469387755	-1.2
1598	0.799	0.65625	-5.4	-5.06530612245	-11.0674698795
1599	0.7995	3.55	4.82	-3.63469387755	-11.0674698795
1600	0.8	-0.790625	-3.94	-2.20408163265	-11.0674698795
1601	0.8005	-2.2375	0.44	-0.773469387755	-9.6578313253
1602	0.801	-6.578125	0.44	-2.20408163265	-12.4771084337
1603	0.8015	-0.790625	-1.02	0.657142857143	-20.934939759
1604	0.802	-2.2375	0.44	-13.6489795918	-15.2963855422
1605	0.8025	2.103125	4.82	-0.773469387755	-18.1156626506
1606	0.803	0.65625	-11.24	-0.773469387755	-18.1156626506
1607	0.8035	7.890625	0.44	-0.773469387755	-18.1156626506
1608	0.804	-12.365625	0.44	0.657142857143	-16.7060240964
1609	0.8045	-5.13125	-1.02	2.08775510204	-19.5253012048
1610	0.805	2.103125	1.9	-10.787755102	-22.3445783133
1611	0.8055	3.55	0.44	14.9632653061	-25.1638554217
1612	0.806	-0.790625	-11.24	-0.773469387755	-20.934939759
1613	0.8065	2.103125	-11.24	-0.773469387755	-18.1156626506
1614	0.807	4.996875	0.44	-0.773469387755	-18.1156626506
1615	0.8075	-8.025	-6.86	3.51836734694	-16.7060240964
1616	0.808	2.103125	-1.02	0.657142857143	-22.3445783133
1617	0.8085	-0.790625	0.44	-6.49591836735	-18.1156626506
1618	0.809	-0.790625	0.44	4.94897959184	-18.1156626506
1619	0.8095	-2.2375	0.44	3.51836734694	-16.7060240964
1620	0.81	-3.684375	-1.02	4.94897959184	-12.4771084337
1621	0.8105	-10.91875	0.44	3.51836734694	-9.6578313253
1622	0.811	-3.684375	0.44	2.08775510204	-6.83855421687
1623	0.8115	-0.790625	0.44	3.51836734694	-6.83855421687
1624	0.812	-2.2375	1.9	3.51836734694	-1.2
1625	0.8125	0.65625	1.9	7.81020408163	-8.24819277108
1626	0.813	2.103125	3.36	0.657142857143	-8.24819277108
1627	0.8135	-2.2375	3.36	0.657142857143	-8.24819277108
1628	0.814	3.55	0.44	0.657142857143	-8.24819277108
1629	0.8145	4.996875	0.44	-0.773469387755	-6.83855421687
1630	0.815	-0.790625	-1.02	4.94897959184	-6.83855421687
1631	0.8155	0.65625	1.9	-2.20408163265	-8.24819277108
1632	0.816	2.103125	-3.94	0.657142857143	-9.6578313253
1633	0.8165	3.55	0.44	0.657142857143	-6.83855421687
1634	0.817	3.55	-5.4	-2.20408163265	-8.24819277108
1635	0.8175	12.23125	0.44	-0.773469387755	-6.83855421687
1636	0.818	-5.13125	0.44	-0.773469387755	-2.60963855422
1637	0.8185	-0.790625	-1.02	-0.773469387755	-4.01927710843
1638	0.819	-0.790625	0.44	3.51836734694	-5.42891566265
1639	0.8195	0.65625	4.82	-3.63469387755	1.61927710843
1640	0.82	-0.790625	17.96	0.657142857143	4.43855421687
1641	0.8205	-12.365625	0.44	2.08775510204	4.43855421687
1642	0.821	18.01875	3.36	-0.773469387755	7.2578313253
1643	0.8215	0.65625	0.44	3.51836734694	12.8963855422
1644	0.822	-0.790625	-1.02	4.94897959184	11.486746988
1645	0.8225	-2.2375	-1.02	-2.20408163265	14.3060240964
1646	0.823	-2.2375	4.82	2.08775510204	17.1253012048
1647	0.8235	-0.790625	3.36	-3.63469387755	14.3060240964
1648	0.824	0.65625	0.44	2.08775510204	17.1253012048
1649	0.8245	-0.790625	0.44	2.08775510204	21.3542168675
1650	0.825	-2.2375	0.44	4.94897959184	22.7638554217
1651	0.8255	-0.790625	-1.02	0.657142857143	35.4506024096
1652	0.826	-0.790625	0.44	2.08775510204	19.9445783133
1653	0.8265	-2.2375	-3.94	-3.63469387755	29.8120481928
1654	0.827	0.65625	15.04	2.08775510204	29.8120481928
1655	0.8275	-10.91875	0.44	3.51836734694	31.221686747
1656	0.828	13.678125	-1.02	3.51836734694	32.6313253012
1657	0.8285	-2.2375	1.9	0.657142857143	55.1855421687
1658	0.829	-2.2375	0.44	6.37959183673	46.7277108434
1659	0.8295	-3.684375	-1.02	-5.06530612245	42.4987951807
1660	0.83	-2.2375	1.9	2.08775510204	39.6795180723
1661	0.8305	-5.13125	0.44	3.51836734694	36.8602409639
1662	0.831	-15.259375	0.44	4.94897959184	34.0409638554
1663	0.8315	12.23125	-1.02	4.94897959184	24.1734939759
1664	0.832	-3.684375	-2.48	6.37959183673	42.4987951807
1665	0.8325	-2.2375	3.36	20.6857142857	32.6313253012
1666	0.833	-0.790625	-1.02	17.8244897959	31.221686747
1667	0.8335	-2.2375	-12.7	7.81020408163	26.9927710843
1668	0.834	-2.2375	13.58	2.08775510204	24.1734939759
1669	0.8345	-10.91875	0.44	4.94897959184	22.7638554217
1670	0.835	-0.790625	0.44	7.81020408163	17.1253012048
1671	0.8355	-0.790625	0.44	7.81020408163	11.486746988
1672	0.836	-0.790625	4.82	16.393877551	0.209638554217
1673	0.8365	-3.684375	1.9	10.6714285714	-5.42891566265
1674	0.837	-2.2375	4.82	12.1020408163	-6.83855421687
1675	0.8375	-3.684375	-3.94	9.24081632653	-9.6578313253
1676	0.838	-5.13125	0.44	9.24081632653	-9.6578313253
1677	0.8385	-9.471875	0.44	12.1020408163	-12.4771084337
1678	0.839	-0.790625	0.44	4.94897959184	-23.7542168675
1679	0.8395	-0.790625	1.9	-2.20408163265	-25.1638554217
1680	0.84	-2.2375	4.82	0.657142857143	-39.2602409639
1681	0.8405	-2.2375	-5.4	-0.773469387755	-57.5855421687
1682	0.841	2.103125	-5.4	0.657142857143	-66.043373494
1683	0.8415	-10.91875	0.44	-0.773469387755	-71.6819277108
1684	0.842	10.784375	0.44	-2.20408163265	-73.0915662651
1685	0.8425	-0.790625	0.44	-3.63469387755	-77.3204819277
1686	0.843	-0.790625	0.44	-2.20408163265	-94.2361445783
1687	0.8435	-5.13125	0.44	-10.787755102	-97.0554216867
1688	0.844	-2.2375	19.42	-3.63469387755	-109.742168675
1689	0.8445	-5.13125	17.96	-3.63469387755	-119.609638554
1690	0.845	-16.70625	3.36	-0.773469387755	-129.477108434
1691	0.8455	-2.2375	1.9	-0.773469387755	-140.754216867
1692	0.846	-2.2375	0.44	0.657142857143	-152.031325301
1693	0.8465	-3.684375	1.9	2.08775510204	-164.718072289
1694	0.847	-3.684375	0.44	-6.49591836735	-174.585542169
1695	0.8475	0.65625	6.28	-2.20408163265	-178.814457831
1696	0.848	2.103125	-2.48	-3.63469387755	-184.453012048
1697	0.8485	-10.91875	-3.94	-5.06530612245	-188.681927711
1698	0.849	2.103125	-1.02	-6.49591836735	-190.091566265
1699	0.8495	-0.790625	3.36	-3.63469387755	-194.320481928
1700	0.85	-0.790625	1.9	-5.06530612245	-194.320481928
1701	0.8505	-2.2375	-2.48	-3.63469387755	-192.910843373
1702	0.851	0.65625	15.04	-6.49591836735	-192.910843373
1703	0.8515	-0.790625	-6.86	-5.06530612245	-188.681927711
1704	0.852	19.465625	-1.02	-3.63469387755	-187.272289157
1705	0.8525	-10.91875	0.44	-3.63469387755	-171.76626506
1706	0.853	0.65625	0.44	-2.20408163265	-194.320481928
1707	0.8535	-2.2375	3.36	-15.0795918367	-180.224096386
1708	0.854	0.65625	4.82	-15.0795918367	-181.63373494
1709	0.8545	0.65625	20.88	-7.92653061224	-181.63373494
1710	0.855	-12.365625	3.36	-7.92653061224	-184.453012048
1711	0.8555	23.80625	0.44	-9.35714285714	-185.862650602
1712	0.856	-2.2375	-1.02	-9.35714285714	-175.995180723
1713	0.8565	0.65625	0.44	-10.787755102	-177.404819277
1714	0.857	2.103125	-1.02	-13.6489795918	-181.63373494
1715	0.8575	0.65625	0.44	-16.5102040816	-180.224096386
1716	0.858	3.55	1.9	-13.6489795918	-181.63373494
1717	0.8585	3.55	-5.4	-12.2183673469	-180.224096386
1718	0.859	2.103125	0.44	-16.5102040816	-178.814457831
1719	0.8595	-0.790625	0.44	-17.9408163265	-178.814457831
1720	0.86	0.65625	1.9	-16.5102040816	-180.224096386
1721	0.8605	0.65625	1.9	-12.2183673469	-174.585542169
1722	0.861	-0.790625	-6.86	-22.2326530612	-177.404819277
1723	0.8615	4.996875	-1.02	-20.8020408163	-181.63373494
1724	0.862	-6.578125	3.36	-19.3714285714	-184.453012048
1725	0.8625	3.55	0.44	-20.8020408163	-188.681927711
1726	0.863	4.996875	-1.02	-30.8163265306	-192.910843373
1727	0.8635	4.996875	1.9	-12.2183673469	-199.959036145
1728	0.864	4.996875	0.44	-13.6489795918	-194.320481928
1729	0.8645	4.996875	13.58	-22.2326530612	-190.091566265
1730	0.865	4.996875	-2.48	-22.2326530612	-187.272289157
1731	0.8655	12.23125	0.44	-19.3714285714	-184.453012048
1732	0.866	2.103125	0.44	-20.8020408163	-174.585542169
1733	0.8665	4.996875	0.44	-20.8020408163	-168.946987952
1734	0.867	3.55	-1.02	-10.787755102	-167.537349398
1735	0.8675	3.55	-8.32	-19.3714285714	-166.127710843
1736	0.868	4.996875	15.04	-19.3714285714	-166.127710843
1737	0.8685	2.103125	15.04	-17.9408163265	-168.946987952
1738	0.869	-5.13125	1.9	-15.0795918367	-178.814457831
1739	0.8695	4.996875	1.9	-19.3714285714	-170.356626506
1740	0.87	4.996875	0.44	-23.6632653061	-171.76626506
1741	0.8705	3.55	0.44	-17.9408163265	-166.127710843
1742	0.871	0.65625	-3.94	-15.0795918367	-153.440963855
1743	0.8715	2.103125	-5.4	-15.0795918367	-149.212048193
1744	0.872	-3.684375	0.44	-13.6489795918	-140.754216867
1745	0.8725	-3.684375	0.44	-15.0795918367	-135.115662651
1746	0.873	0.65625	1.9	-13.6489795918	-128.06746988
1747	0.8735	0.65625	0.44	-13.6489795918	-113.971084337
1748	0.874	3.55	-5.4	-10.787755102	-108.33253012
1749	0.8745	2.103125	6.28	-10.787755102	-102.693975904
1750	0.875	4.996875	-2.48	-7.92653061224	-91.4168674699
1751	0.8755	2.103125	0.44	-6.49591836735	-74.5012048193
1752	0.876	-0.790625	-1.02	-7.92653061224	-80.1397590361
1753	0.8765	0.65625	0.44	-15.0795918367	-68.8626506024
1754	0.877	-0.790625	4.82	-6.49591836735	-61.8144578313
1755	0.8775	-0.790625	3.36	-6.49591836735	-57.5855421687
1756	0.878	-2.2375	0.44	-3.63469387755	-54.7662650602
1757	0.8785	-10.91875	0.44	-6.49591836735	-54.7662650602
1758	0.879	2.103125	0.44	-7.92653061224	-49.1277108434
1759	0.8795	0.65625	1.9	-6.49591836735	-15.2963855422
1760	0.88	3.55	0.44	13.5326530612	-16.7060240964
1761	0.8805	2.103125	0.44	-5.06530612245	-8.24819277108
1762	0.881	2.103125	-5.4	-3.63469387755	-22.3445783133
1763	0.8815	-5.13125	1.9	-3.63469387755	-47.7180722892
1764	0.882	15.125	0.44	-2.20408163265	-63.2240963855
1765	0.8825	-0.790625	0.44	-6.49591836735	-49.1277108434
1766	0.883	2.103125	1.9	-5.06530612245	-30.8024096386
1767	0.8835	0.65625	0.44	13.5326530612	-33.621686747
1768	0.884	2.103125	-11.24	-0.773469387755	-20.934939759
1769	0.8845	2.103125	17.96	-5.06530612245	-12.4771084337
1770	0.885	-15.259375	1.9	-3.63469387755	0.209638554217
1771	0.8855	-8.025	3.36	-0.773469387755	-8.24819277108
1772	0.886	-0.790625	3.36	0.657142857143	0.209638554217
1773	0.8865	-0.790625	1.9	-9.35714285714	8.66746987952
1774	0.887	0.65625	4.82	16.393877551	7.2578313253
1775	0.8875	2.103125	1.9	-0.773469387755	14.3060240964
1776	0.888	-0.790625	1.9	2.08775510204	21.3542168675
1777	0.8885	-2.2375	-1.02	0.657142857143	21.3542168675
1778	0.889	-5.13125	0.44	0.657142857143	7.2578313253
1779	0.8895	-0.790625	-1.02	3.51836734694	8.66746987952
1780	0.89	0.65625	4.82	19.2551020408	-18.1156626506
1781	0.8905	0.65625	0.44	19.2551020408	-12.4771084337
1782	0.891	0.65625	16.5	4.94897959184	0.209638554217
1783	0.8915	-2.2375	0.44	4.94897959184	11.486746988
1784	0.892	-10.91875	0.44	6.37959183673	14.3060240964
1785	0.8925	3.55	0.44	7.81020408163	5.84819277108
1786	0.893	0.65625	1.9	-2.20408163265	11.486746988
1787	0.8935	0.65625	1.9	-0.773469387755	21.3542168675
1788	0.894	0.65625	3.36	9.24081632653	21.3542168675
1789	0.8945	-0.790625	0.44	6.37959183673	25.5831325301
1790	0.895	-10.91875	-1.02	7.81020408163	22.7638554217
1791	0.8955	22.359375	-1.02	4.94897959184	29.8120481928
1792	0.896	0.65625	0.44	6.37959183673	45.3180722892
1793	0.8965	0.65625	0.44	17.8244897959	32.6313253012
1794	0.897	2.103125	1.9	14.9632653061	38.2698795181
1795	0.8975	-0.790625	3.36	3.51836734694	39.6795180723
1796	0.898	0.65625	6.28	0.657142857143	39.6795180723
1797	0.8985	9.3375	0.44	2.08775510204	34.0409638554
1798	0.899	-2.2375	0.44	-0.773469387755	35.4506024096
1799	0.8995	0.65625	0.44	-0.773469387755	36.8602409639
1800	0.9	2.103125	0.44	-3.63469387755	42.4987951807
1801	0.9005	0.65625	-6.86	0.657142857143	42.4987951807
1802	0.901	2.103125	-1.02	-0.773469387755	42.4987951807
1803	0.9015	-5.13125	0.44	0.657142857143	43.9084337349
1804	0.902	0.65625	0.44	-0.773469387755	45.3180722892
1805	0.9025	-5.13125	1.9	-0.773469387755	48.1373493976
1806	0.903	0.65625	1.9	2.08775510204	56.5951807229
1807	0.9035	-0.790625	3.36	7.81020408163	43.9084337349
1808	0.904	2.103125	12.12	4.94897959184	45.3180722892
1809	0.9045	-3.684375	13.58	2.08775510204	46.7277108434
1810	0.905	2.103125	0.44	2.08775510204	46.7277108434
1811	0.9055	-2.2375	1.9	2.08775510204	65.0530120482
1812	0.906	-0.790625	0.44	4.94897959184	73.5108433735
1813	0.9065	-2.2375	1.9	6.37959183673	65.0530120482
1814	0.907	0.65625	4.82	-5.06530612245	73.5108433735
1815	0.9075	0.65625	22.34	-0.773469387755	73.5108433735
1816	0.908	-5.13125	-6.86	4.94897959184	65.0530120482
1817	0.9085	20.9125	-1.02	3.51836734694	59.4144578313
1818	0.909	-10.91875	0.44	6.37959183673	49.5469879518
1819	0.9095	-0.790625	-1.02	6.37959183673	31.221686747
1820	0.91	2.103125	-2.48	-5.06530612245	35.4506024096
1821	0.9105	-2.2375	3.36	-2.20408163265	35.4506024096
1822	0.911	-0.790625	17.96	4.94897959184	42.4987951807
1823	0.9115	-6.578125	1.9	4.94897959184	48.1373493976
1824	0.912	18.01875	0.44	6.37959183673	36.8602409639
1825	0.9125	3.55	0.44	4.94897959184	31.221686747
1826	0.913	0.65625	0.44	-2.20408163265	41.0891566265
1827	0.9135	-2.2375	1.9	6.37959183673	41.0891566265
1828	0.914	2.103125	-8.32	4.94897959184	45.3180722892
1829	0.9145	0.65625	-6.86	2.08775510204	43.9084337349
1830	0.915	4.996875	0.44	4.94897959184	36.8602409639
1831	0.9155	2.103125	0.44	0.657142857143	59.4144578313
1832	0.916	2.103125	-1.02	-0.773469387755	62.2337349398
1833	0.9165	2.103125	-1.02	4.94897959184	39.6795180723
1834	0.917	3.55	3.36	-3.63469387755	46.7277108434
1835	0.9175	0.65625	19.42	2.08775510204	46.7277108434
1836	0.918	0.65625	-9.78	-0.773469387755	48.1373493976
1837	0.9185	19.465625	0.44	0.657142857143	43.9084337349
1838	0.919	-9.471875	0.44	6.37959183673	56.5951807229
1839	0.9195	-0.790625	-1.02	7.81020408163	36.8602409639
1840	0.92	-2.2375	-1.02	-6.49591836735	45.3180722892
1841	0.9205	-3.684375	-12.7	-0.773469387755	43.9084337349
1842	0.921	-0.790625	19.42	0.657142857143	43.9084337349
1843	0.9215	-13.8125	0.44	2.08775510204	52.3662650602
1844	0.922	-12.365625	0.44	0.657142857143	45.3180722892
1845	0.9225	-2.2375	0.44	-0.773469387755	43.9084337349
1846	0.923	0.65625	1.9	-6.49591836735	50.956626506
1847	0.9235	0.65625	1.9	-6.49591836735	43.9084337349
1848	0.924	0.65625	16.5	4.94897959184	43.9084337349
1849	0.9245	0.65625	-8.32	-0.773469387755	38.2698795181
1850	0.925	19.465625	0.44	2.08775510204	35.4506024096
1851	0.9255	-9.471875	1.9	4.94897959184	58.0048192771
1852	0.926	0.65625	0.44	3.51836734694	49.5469879518
1853	0.9265	0.65625	-3.94	2.08775510204	50.956626506
1854	0.927	-2.2375	-1.02	2.08775510204	50.956626506
1855	0.9275	3.55	19.42	4.94897959184	43.9084337349
1856	0.928	-8.025	1.9	3.51836734694	38.2698795181
1857	0.9285	22.359375	1.9	3.51836734694	26.9927710843
1858	0.929	3.55	0.44	7.81020408163	42.4987951807
1859	0.9295	-2.2375	0.44	20.6857142857	42.4987951807
1860	0.93	-0.790625	-1.02	17.8244897959	42.4987951807
1861	0.9305	0.65625	-11.24	4.94897959184	41.0891566265
1862	0.931	6.44375	0.44	3.51836734694	46.7277108434
1863	0.9315	-9.471875	1.9	2.08775510204	45.3180722892
1864	0.932	-0.790625	3.36	4.94897959184	43.9084337349
1865	0.9325	-3.684375	0.44	-2.20408163265	28.4024096386
1866	0.933	-0.790625	1.9	7.81020408163	28.4024096386
1867	0.9335	-3.684375	0.44	-0.773469387755	36.8602409639
1868	0.934	2.103125	9.2	0.657142857143	41.0891566265
1869	0.9345	-2.2375	-2.48	3.51836734694	45.3180722892
1870	0.935	-6.578125	0.44	2.08775510204	43.9084337349
1871	0.9355	-3.684375	3.36	3.51836734694	29.8120481928
1872	0.936	-0.790625	1.9	-7.92653061224	35.4506024096
1873	0.9365	-0.790625	3.36	-5.06530612245	31.221686747
1874	0.937	-0.790625	-11.24	-0.773469387755	39.6795180723
1875	0.9375	0.65625	-6.86	2.08775510204	41.0891566265
1876	0.938	6.44375	0.44	2.08775510204	41.0891566265
1877	0.9385	-9.471875	0.44	-0.773469387755	38.2698795181
1878	0.939	-5.13125	0.44	0.657142857143	29.8120481928
1879	0.9395	-0.790625	-1.02	-12.2183673469	34.0409638554
1880	0.94	-2.2375	4.82	2.08775510204	36.8602409639
1881	0.9405	-5.13125	6.28	3.51836734694	38.2698795181
1882	0.941	-5.13125	0.44	4.94897959184	41.0891566265
1883	0.9415	-13.8125	1.9	3.51836734694	42.4987951807
1884	0.942	-0.790625	0.44	2.08775510204	49.5469879518
1885	0.9425	-3.684375	3.36	3.51836734694	66.4626506024
1886	0.943	-2.2375	0.44	2.08775510204	48.1373493976
1887	0.9435	-0.790625	-11.24	2.08775510204	55.1855421687
1888	0.944	-2.2375	19.42	0.657142857143	52.3662650602
1889	0.9445	-3.684375	1.9	-0.773469387755	43.9084337349
1890	0.945	13.678125	0.44	2.08775510204	42.4987951807
1891	0.9455	-0.790625	-1.02	7.81020408163	41.0891566265
1892	0.946	2.103125	1.9	4.94897959184	67.8722891566
1893	0.9465	-0.790625	0.44	6.37959183673	55.1855421687
1894	0.947	0.65625	3.36	0.657142857143	53.7759036145
1895	0.9475	0.65625	-8.32	0.657142857143	50.956626506
1896	0.948	16.571875	0.44	-0.773469387755	55.1855421687
1897	0.9485	-9.471875	3.36	0.657142857143	56.5951807229
1898	0.949	0.65625	-1.02	2.08775510204	38.2698795181
1899	0.9495	-2.2375	1.9	-9.35714285714	48.1373493976
1900	0.95	-3.684375	1.9	3.51836734694	45.3180722892
1901	0.9505	-2.2375	-6.86	-0.773469387755	43.9084337349
1902	0.951	0.65625	0.44	2.08775510204	38.2698795181
1903	0.9515	18.01875	0.44	2.08775510204	36.8602409639
1904	0.952	-9.471875	0.44	2.08775510204	34.0409638554
1905	0.9525	2.103125	-1.02	2.08775510204	25.5831325301
1906	0.953	-0.790625	1.9	-3.63469387755	29.8120481928
1907	0.9535	-2.2375	-1.02	3.51836734694	32.6313253012
1908	0.954	0.65625	-5.4	0.657142857143	32.6313253012
1909	0.9545	-6.578125	3.36	2.08775510204	31.221686747
1910	0.955	7.890625	0.44	2.08775510204	32.6313253012
1911	0.9555	-3.684375	0.44	3.51836734694	26.9927710843
1912	0.956	-2.2375	0.44	-0.773469387755	22.7638554217
1913	0.9565	-0.790625	0.44	-2.20408163265	29.8120481928
1914	0.957	-2.2375	-2.48	0.657142857143	26.9927710843
1915	0.9575	-0.790625	0.44	2.08775510204	29.8120481928
1916	0.958	9.3375	-1.02	3.51836734694	32.6313253012
1917	0.9585	0.65625	0.44	4.94897959184	38.2698795181
1918	0.959	-3.684375	1.9	13.5326530612	38.2698795181
1919	0.9595	-0.790625	0.44	9.24081632653	36.8602409639
1920	0.96	-2.2375	-8.32	0.657142857143	43.9084337349
1921	0.9605	0.65625	16.5	4.94897959184	43.9084337349
1922	0.961	-13.8125	1.9	0.657142857143	43.9084337349
1923	0.9615	13.678125	1.9	3.51836734694	34.0409638554
1924	0.962	-3.684375	3.36	3.51836734694	42.4987951807
1925	0.9625	-2.2375	3.36	16.393877551	45.3180722892
1926	0.963	-0.790625	0.44	13.5326530612	42.4987951807
1927	0.9635	-0.790625	15.04	4.94897959184	38.2698795181
1928	0.964	-0.790625	0.44	0.657142857143	38.2698795181
1929	0.9645	-13.8125	0.44	3.51836734694	36.8602409639
1930	0.965	-3.684375	3.36	2.08775510204	38.2698795181
1931	0.9655	-0.790625	0.44	6.37959183673	31.221686747
1932	0.966	-0.790625	0.44	7.81020408163	32.6313253012
1933	0.9665	0.65625	3.36	0.657142857143	34.0409638554
1934	0.967	-0.790625	17.96	3.51836734694	34.0409638554
1935	0.9675	-12.365625	0.44	4.94897959184	35.4506024096
1936	0.968	20.9125	-1.02	4.94897959184	31.221686747
1937	0.9685	0.65625	1.9	0.657142857143	45.3180722892
1938	0.969	0.65625	-1.02	2.08775510204	43.9084337349
1939	0.9695	-3.684375	0.44	3.51836734694	34.0409638554
1940	0.97	-2.2375	0.44	4.94897959184	34.0409638554
1941	0.9705	0.65625	-8.32	6.37959183673	31.221686747
1942	0.971	3.55	0.44	9.24081632653	32.6313253012
1943	0.9715	-12.365625	0.44	9.24081632653	32.6313253012
1944	0.972	-2.2375	0.44	13.5326530612	26.9927710843
1945	0.9725	0.65625	1.9	12.1020408163	26.9927710843
1946	0.973	-2.2375	1.9	-5.06530612245	36.8602409639
1947	0.9735	-3.684375	-9.78	6.37959183673	36.8602409639
1948	0.974	-2.2375	-9.78	7.81020408163	35.4506024096
1949	0.9745	13.678125	0.44	6.37959183673	35.4506024096
1950	0.975	-10.91875	0.44	6.37959183673	35.4506024096
1951	0.9755	-5.13125	0.44	12.1020408163	22.7638554217
1952	0.976	-2.2375	0.44	0.657142857143	31.221686747
1953	0.9765	-0.790625	-3.94	6.37959183673	29.8120481928
1954	0.977	-0.790625	0.44	7.81020408163	36.8602409639
1955	0.9775	-0.790625	0.44	4.94897959184	38.2698795181
1956	0.978	12.23125	0.44	6.37959183673	43.9084337349
1957	0.9785	-6.578125	1.9	2.08775510204	58.0048192771
1958	0.979	-3.684375	-1.02	3.51836734694	38.2698795181
1959	0.9795	-0.790625	1.9	-2.20408163265	53.7759036145
1960	0.98	0.65625	-3.94	-3.63469387755	56.5951807229
1961	0.9805	0.65625	13.58	-0.773469387755	56.5951807229
1962	0.981	-2.2375	-5.4	-0.773469387755	43.9084337349
1963	0.9815	9.3375	0.44	3.51836734694	26.9927710843
1964	0.982	-8.025	0.44	-0.773469387755	26.9927710843
1965	0.9825	-0.790625	1.9	-0.773469387755	24.1734939759
1966	0.983	-2.2375	3.36	-5.06530612245	22.7638554217
1967	0.9835	-2.2375	-8.32	-0.773469387755	25.5831325301
1968	0.984	-0.790625	-8.32	-2.20408163265	28.4024096386
1969	0.9845	15.125	-1.02	-2.20408163265	32.6313253012
1970	0.985	-8.025	0.44	-2.20408163265	29.8120481928
1971	0.9855	-3.684375	0.44	2.08775510204	25.5831325301
1972	0.986	0.65625	0.44	3.51836734694	29.8120481928
1973	0.9865	-0.790625	3.36	0.657142857143	31.221686747
1974	0.987	-0.790625	17.96	0.657142857143	34.0409638554
1975	0.9875	-2.2375	-5.4	0.657142857143	31.221686747
1976	0.988	16.571875	0.44	-0.773469387755	31.221686747
1977	0.9885	-3.684375	0.44	-0.773469387755	49.5469879518
1978	0.989	-0.790625	-1.02	-2.20408163265	52.3662650602
1979	0.9895	-2.2375	0.44	0.657142857143	24.1734939759
1980	0.99	-2.2375	0.44	-6.49591836735	32.6313253012
1981	0.9905	-2.2375	1.9	0.657142857143	32.6313253012
1982	0.991	-9.471875	-2.48	2.08775510204	31.221686747
1983	0.9915	-5.13125	1.9	0.657142857143	26.9927710843
1984	0.992	-5.13125	0.44	-0.773469387755	24.1734939759
1985	0.9925	-2.2375	-2.48	-9.35714285714	28.4024096386
1986	0.993	-5.13125	0.44	16.393877551	32.6313253012
1987	0.9935	-3.684375	1.9	-0.773469387755	32.6313253012
1988	0.994	-5.13125	9.2	-0.773469387755	35.4506024096
1989	0.9945	2.103125	-1.02	-0.773469387755	22.7638554217
1990	0.995	-5.13125	0.44	0.657142857143	42.4987951807
1991	0.9955	-5.13125	0.44	0.657142857143	34.0409638554
1992	0.996	-2.2375	-2.48	4.94897959184	32.6313253012
1993	0.9965	-0.790625	-6.86	0.657142857143	31.221686747
1994	0.997	-0.790625	16.5	3.51836734694	32.6313253012
1995	0.9975	-3.684375	0.44	0.657142857143	32.6313253012
1996	0.998	9.3375	0.44	2.08775510204	31.221686747
1997	0.9985	-3.684375	0.44	0.657142857143	28.4024096386
1998	0.999	-0.790625	0.44	2.08775510204	31.221686747
1999	0.9995	-2.2375	1.9	-0.773469387755	39.6795180723
2000	1.0	-2.2375	7.74	2.08775510204	29.8120481928
2001	1.0005	-0.790625	-3.94	0.657142857143	32.6313253012
2002	1.001	-12.365625	0.44	0.657142857143	32.6313253012
2003	1.0015	-8.025	3.36	-2.20408163265	35.4506024096
2004	1.002	-2.2375	-1.02	0.657142857143	29.8120481928
2005	1.0025	-2.2375	-1.02	4.94897959184	42.4987951807
2006	1.003	-0.790625	-6.86	0.657142857143	35.4506024096
2007	1.0035	-0.790625	4.82	0.657142857143	34.0409638554
2008	1.004	-3.684375	-1.02	3.51836734694	41.0891566265
2009	1.0045	15.125	0.44	2.08775510204	42.4987951807
2010	1.005	-3.684375	3.36	0.657142857143	38.2698795181
2011	1.0055	-3.684375	-2.48	-0.773469387755	59.4144578313
2012	1.006	-2.2375	6.28	19.2551020408	32.6313253012
2013	1.0065	-3.684375	0.44	0.657142857143	21.3542168675
2014	1.007	-2.2375	-5.4	3.51836734694	12.8963855422
2015	1.0075	-8.025	3.36	2.08775510204	12.8963855422
2016	1.008	-6.578125	0.44	2.08775510204	25.5831325301
2017	1.0085	-3.684375	1.9	3.51836734694	22.7638554217
2018	1.009	-6.578125	3.36	4.94897959184	21.3542168675
2019	1.0095	-3.684375	0.44	-0.773469387755	29.8120481928
2020	1.01	-2.2375	0.44	2.08775510204	26.9927710843
2021	1.0105	3.55	-1.02	3.51836734694	29.8120481928
2022	1.011	-13.8125	-3.94	3.51836734694	26.9927710843
2023	1.0115	-5.13125	0.44	3.51836734694	38.2698795181
2024	1.012	-0.790625	1.9	4.94897959184	31.221686747
2025	1.0125	0.65625	-2.48	3.51836734694	29.8120481928
2026	1.013	-0.790625	4.82	9.24081632653	32.6313253012
2027	1.0135	-0.790625	-3.94	0.657142857143	42.4987951807
2028	1.014	-6.578125	0.44	2.08775510204	43.9084337349
2029	1.0145	-2.2375	1.9	3.51836734694	42.4987951807
2030	1.015	-6.578125	0.44	4.94897959184	42.4987951807
2031	1.0155	-3.684375	0.44	0.657142857143	52.3662650602
2032	1.016	-2.2375	1.9	19.2551020408	31.221686747
2033	1.0165	-0.790625	0.44	2.08775510204	28.4024096386
2034	1.017	2.103125	-8.32	4.94897959184	32.6313253012
2035	1.0175	4.996875	1.9	3.51836734694	34.0409638554
2036	1.018	-8.025	-1.02	7.81020408163	41.0891566265
2037	1.0185	-0.790625	0.44	4.94897959184	31.221686747
2038	1.019	-3.684375	0.44	-5.06530612245	38.2698795181
2039	1.0195	-5.13125	3.36	2.08775510204	35.4506024096
2040	1.02	-2.2375	19.42	4.94897959184	32.6313253012
2041	1.0205	-2.2375	0.44	3.51836734694	34.0409638554
2042	1.021	-13.8125	1.9	2.08775510204	32.6313253012
2043	1.0215	-5.13125	1.9	0.657142857143	36.8602409639
2044	1.022	-2.2375	-1.02	6.37959183673	31.221686747
2045	1.0225	0.65625	1.9	19.2551020408	34.0409638554
2046	1.023	-0.790625	6.28	0.657142857143	34.0409638554
2047	1.0235	-0.790625	19.42	2.08775510204	38.2698795181
2048	1.024	-3.684375	-5.4	2.08775510204	35.4506024096
2049	1.0245	18.01875	0.44	2.08775510204	36.8602409639
2050	1.025	-3.684375	0.44	3.51836734694	38.2698795181
2051	1.0255	-0.790625	0.44	7.81020408163	36.8602409639
2052	1.026	0.65625	0.44	-0.773469387755	34.0409638554
2053	1.0265	-3.684375	0.44	-2.20408163265	38.2698795181
2054	1.027	-3.684375	16.5	2.08775510204	34.0409638554
2055	1.0275	-5.13125	1.9	4.94897959184	32.6313253012
2056	1.028	-12.365625	1.9	2.08775510204	29.8120481928
2057	1.0285	-3.684375	1.9	0.657142857143	31.221686747
2058	1.029	-2.2375	1.9	0.657142857143	52.3662650602
2059	1.0295	-2.2375	3.36	16.393877551	36.8602409639
2060	1.03	-2.2375	1.9	13.5326530612	35.4506024096
2061	1.0305	0.65625	10.66	3.51836734694	34.0409638554
2062	1.031	-3.684375	-2.48	3.51836734694	32.6313253012
2063	1.0315	9.3375	0.44	2.08775510204	29.8120481928
2064	1.032	-8.025	1.9	3.51836734694	22.7638554217
2065	1.0325	-0.790625	0.44	4.94897959184	15.7156626506
2066	1.033	-0.790625	3.36	4.94897959184	14.3060240964
2067	1.0335	-0.790625	1.9	-6.49591836735	25.5831325301
2068	1.034	-0.790625	22.34	4.94897959184	25.5831325301
2069	1.0345	-2.2375	-6.86	4.94897959184	25.5831325301
2070	1.035	20.9125	0.44	3.51836734694	18.534939759
2071	1.0355	-0.790625	-1.02	2.08775510204	29.8120481928
2072	1.036	-5.13125	0.44	6.37959183673	28.4024096386
2073	1.0365	-2.2375	0.44	3.51836734694	25.5831325301
2074	1.037	-2.2375	-1.02	0.657142857143	26.9927710843
2075	1.0375	2.103125	-2.48	2.08775510204	22.7638554217
2076	1.038	0.65625	1.9	3.51836734694	24.1734939759
2077	1.0385	-0.790625	0.44	2.08775510204	26.9927710843
2078	1.039	-5.13125	0.44	3.51836734694	19.9445783133
2079	1.0395	-2.2375	0.44	2.08775510204	14.3060240964
2080	1.04	-0.790625	0.44	-0.773469387755	17.1253012048
2081	1.0405	-0.790625	0.44	-3.63469387755	19.9445783133
2082	1.041	0.65625	0.44	4.94897959184	18.534939759
2083	1.0415	3.55	0.44	2.08775510204	17.1253012048
2084	1.042	7.890625	1.9	6.37959183673	17.1253012048
2085	1.0425	-3.684375	0.44	6.37959183673	18.534939759
2086	1.043	-2.2375	0.44	4.94897959184	7.2578313253
2087	1.0435	-0.790625	0.44	-5.06530612245	17.1253012048
2088	1.044	-3.684375	4.82	3.51836734694	18.534939759
2089	1.0445	-2.2375	3.36	4.94897959184	19.9445783133
2090	1.045	-15.259375	3.36	3.51836734694	17.1253012048
2091	1.0455	-2.2375	0.44	4.94897959184	24.1734939759
2092	1.046	-3.684375	-1.02	9.24081632653	19.9445783133
2093	1.0465	-0.790625	0.44	19.2551020408	21.3542168675
2094	1.047	0.65625	0.44	3.51836734694	19.9445783133
2095	1.0475	0.65625	3.36	4.94897959184	19.9445783133
2096	1.048	-2.2375	-3.94	4.94897959184	21.3542168675
2097	1.0485	-0.790625	-5.4	3.51836734694	18.534939759
2098	1.049	2.103125	0.44	4.94897959184	22.7638554217
2099	1.0495	0.65625	0.44	4.94897959184	24.1734939759
2100	1.05	0.65625	1.9	9.24081632653	21.3542168675
2101	1.0505	-0.790625	4.82	-2.20408163265	34.0409638554
2102	1.051	-0.790625	20.88	6.37959183673	43.9084337349
2103	1.0515	0.65625	-8.32	3.51836734694	53.7759036145
2104	1.052	18.01875	0.44	4.94897959184	50.956626506
2105	1.0525	-2.2375	0.44	2.08775510204	67.8722891566
2106	1.053	-0.790625	0.44	6.37959183673	55.1855421687
2107	1.0535	-0.790625	0.44	9.24081632653	42.4987951807
2108	1.054	-2.2375	-8.32	0.657142857143	43.9084337349
2109	1.0545	0.65625	15.04	-0.773469387755	43.9084337349
2110	1.055	-15.259375	1.9	0.657142857143	49.5469879518
2111	1.0555	-8.025	3.36	-0.773469387755	48.1373493976
2112	1.056	-2.2375	0.44	-0.773469387755	39.6795180723
2113	1.0565	0.65625	1.9	-0.773469387755	35.4506024096
2114	1.057	-3.684375	4.82	-0.773469387755	18.534939759
2115	1.0575	-0.790625	-5.4	-2.20408163265	3.02891566265
2116	1.058	-2.2375	9.2	4.94897959184	-1.2
2117	1.0585	-3.684375	0.44	6.37959183673	-6.83855421687
2118	1.059	12.23125	0.44	3.51836734694	0.209638554217
2119	1.0595	-2.2375	1.9	2.08775510204	11.486746988
2120	1.06	-3.684375	1.9	7.81020408163	-1.2
2121	1.0605	-2.2375	-6.86	-2.20408163265	3.02891566265
2122	1.061	-3.684375	4.82	-2.20408163265	0.209638554217
2123	1.0615	-0.790625	-5.4	3.51836734694	0.209638554217
2124	1.062	2.103125	1.9	4.94897959184	0.209638554217
2125	1.0625	-5.13125	3.36	0.657142857143	14.3060240964
2126	1.063	-2.2375	1.9	4.94897959184	12.8963855422
2127	1.0635	-2.2375	0.44	12.1020408163	7.2578313253
2128	1.064	-0.790625	0.44	7.81020408163	5.84819277108
2129	1.0645	0.65625	9.2	0.657142857143	7.2578313253
2130	1.065	-3.684375	-3.94	3.51836734694	12.8963855422
2131	1.0655	-10.91875	1.9	4.94897959184	7.2578313253
2132	1.066	-5.13125	0.44	0.657142857143	7.2578313253
2133	1.0665	-2.2375	-2.48	2.08775510204	18.534939759
2134	1.067	-0.790625	4.82	12.1020408163	7.2578313253
2135	1.0675	0.65625	-8.32	0.657142857143	8.66746987952
2136	1.068	0.65625	-6.86	0.657142857143	14.3060240964
2137	1.0685	2.103125	-1.02	2.08775510204	15.7156626506
2138	1.069	-12.365625	-3.94	4.94897959184	12.8963855422
2139	1.0695	-0.790625	0.44	3.51836734694	10.0771084337
2140	1.07	-3.684375	1.9	-2.20408163265	26.9927710843
2141	1.0705	-2.2375	3.36	0.657142857143	12.8963855422
2142	1.071	-3.684375	-2.48	3.51836734694	24.1734939759
2143	1.0715	-3.684375	17.96	3.51836734694	19.9445783133
2144	1.072	-10.91875	1.9	4.94897959184	19.9445783133
2145	1.0725	15.125	1.9	0.657142857143	17.1253012048
2146	1.073	-2.2375	0.44	-0.773469387755	31.221686747
2147	1.0735	-0.790625	3.36	22.1163265306	15.7156626506
2148	1.074	-2.2375	-1.02	19.2551020408	18.534939759
2149	1.0745	-5.13125	-11.24	2.08775510204	18.534939759
2150	1.075	0.65625	-1.02	3.51836734694	21.3542168675
2151	1.0755	-15.259375	-1.02	4.94897959184	22.7638554217
2152	1.076	-6.578125	0.44	4.94897959184	21.3542168675
2153	1.0765	-3.684375	1.9	0.657142857143	22.7638554217
2154	1.077	-2.2375	1.9	7.81020408163	15.7156626506
2155	1.0775	-0.790625	-1.02	-6.49591836735	24.1734939759
2156	1.078	-0.790625	-9.78	3.51836734694	22.7638554217
2157	1.0785	-5.13125	17.96	3.51836734694	19.9445783133
2158	1.079	-13.8125	-1.02	0.657142857143	15.7156626506
2159	1.0795	-9.471875	1.9	2.08775510204	12.8963855422
2160	1.08	-0.790625	1.9	2.08775510204	21.3542168675
2161	1.0805	-0.790625	1.9	14.9632653061	12.8963855422
2162	1.081	-0.790625	1.9	3.51836734694	11.486746988
2163	1.0815	0.65625	4.82	3.51836734694	15.7156626506
2164	1.082	-0.790625	-3.94	2.08775510204	18.534939759
2165	1.0825	-5.13125	0.44	2.08775510204	21.3542168675
2166	1.083	-8.025	0.44	2.08775510204	21.3542168675
2167	1.0835	-3.684375	1.9	3.51836734694	15.7156626506
2168	1.084	-2.2375	1.9	-3.63469387755	22.7638554217
2169	1.0845	-0.790625	-2.48	4.94897959184	24.1734939759
2170	1.085	-3.684375	-3.94	3.51836734694	24.1734939759
2171	1.0855	-8.025	3.36	4.94897959184	22.7638554217
2172	1.086	-13.8125	3.36	6.37959183673	24.1734939759
2173	1.0865	-13.8125	0.44	4.94897959184	15.7156626506
2174	1.087	-3.684375	1.9	-6.49591836735	24.1734939759
2175	1.0875	-2.2375	3.36	-6.49591836735	24.1734939759
2176	1.088	-2.2375	3.36	2.08775510204	25.5831325301
2177	1.0885	-8.025	-6.86	3.51836734694	26.9927710843
2178	1.089	-0.790625	1.9	6.37959183673	24.1734939759
2179	1.0895	10.784375	0.44	3.51836734694	24.1734939759
2180	1.09	-0.790625	0.44	4.94897959184	26.9927710843
2181	1.0905	-2.2375	-1.02	0.657142857143	43.9084337349
2182	1.091	-3.684375	1.9	13.5326530612	35.4506024096
2183	1.0915	-2.2375	3.36	4.94897959184	35.4506024096
2184	1.092	-3.684375	1.9	6.37959183673	38.2698795181
2185	1.0925	-5.13125	10.66	4.94897959184	26.9927710843
2186	1.093	-8.025	0.44	2.08775510204	22.7638554217
2187	1.0935	-5.13125	1.9	3.51836734694	18.534939759
2188	1.094	-5.13125	0.44	4.94897959184	38.2698795181
2189	1.0945	-5.13125	3.36	9.24081632653	45.3180722892
2190	1.095	-3.684375	9.2	3.51836734694	60.8240963855
2191	1.0955	0.65625	1.9	4.94897959184	67.8722891566
2192	1.096	-0.790625	1.9	4.94897959184	60.8240963855
2193	1.0965	-3.684375	0.44	2.08775510204	50.956626506
2194	1.097	-2.2375	1.9	4.94897959184	22.7638554217
2195	1.0975	-2.2375	-1.02	4.94897959184	-2.60963855422
2196	1.098	-2.2375	1.9	-0.773469387755	8.66746987952
2197	1.0985	-2.2375	17.96	2.08775510204	19.9445783133
2198	1.099	-3.684375	-6.86	2.08775510204	31.221686747
2199	1.0995	18.01875	-1.02	3.51836734694	28.4024096386
2200	1.1	-2.2375	0.44	4.94897959184	41.0891566265
2201	1.1005	-0.790625	3.36	7.81020408163	32.6313253012
2202	1.101	-3.684375	-1.02	17.8244897959	34.0409638554
2203	1.1015	-5.13125	-12.7	4.94897959184	32.6313253012
2204	1.102	-3.684375	9.2	6.37959183673	34.0409638554
2205	1.1025	-8.025	-1.02	4.94897959184	32.6313253012
2206	1.103	10.784375	0.44	3.51836734694	31.221686747
2207	1.1035	-8.025	0.44	2.08775510204	32.6313253012
2208	1.104	-5.13125	0.44	6.37959183673	35.4506024096
2209	1.1045	-2.2375	0.44	7.81020408163	32.6313253012
2210	1.105	-2.2375	3.36	4.94897959184	31.221686747
2211	1.1055	-5.13125	-3.94	4.94897959184	32.6313253012
2212	1.106	-8.025	-1.02	6.37959183673	31.221686747
2213	1.1065	-5.13125	0.44	4.94897959184	28.4024096386
2214	1.107	-10.91875	-1.02	4.94897959184	29.8120481928
2215	1.1075	-0.790625	-1.02	7.81020408163	26.9927710843
2216	1.108	-0.790625	0.44	9.24081632653	31.221686747
2217	1.1085	-3.684375	4.82	4.94897959184	29.8120481928
2218	1.109	-3.684375	-2.48	4.94897959184	34.0409638554
2219	1.1095	0.65625	0.44	4.94897959184	28.4024096386
2220	1.11	-5.13125	1.9	3.51836734694	28.4024096386
2221	1.1105	-2.2375	0.44	6.37959183673	19.9445783133
2222	1.111	-0.790625	3.36	-5.06530612245	22.7638554217
2223	1.1115	-3.684375	1.9	2.08775510204	26.9927710843
2224	1.112	-5.13125	-8.32	2.08775510204	25.5831325301
2225	1.1125	0.65625	0.44	3.51836734694	21.3542168675
2226	1.113	16.571875	0.44	3.51836734694	25.5831325301
2227	1.1135	-6.578125	0.44	3.51836734694	24.1734939759
2228	1.114	-0.790625	0.44	6.37959183673	19.9445783133
2229	1.1145	-3.684375	-1.02	-0.773469387755	21.3542168675
2230	1.115	-0.790625	4.82	3.51836734694	19.9445783133
2231	1.1155	0.65625	3.36	3.51836734694	19.9445783133
2232	1.116	3.55	0.44	4.94897959184	17.1253012048
2233	1.1165	15.125	0.44	3.51836734694	19.9445783133
2234	1.117	-3.684375	3.36	3.51836734694	28.4024096386
2235	1.1175	-0.790625	0.44	2.08775510204	18.534939759
2236	1.118	-0.790625	-1.02	-0.773469387755	14.3060240964
2237	1.1185	-2.2375	0.44	-0.773469387755	14.3060240964
