	Time	Channel 1	Channel 2	Channel 3	Channel 4
0	0.0	3.52580645161	0.529032258065	0.4	-4.01207729469
1	0.0005	-2.26774193548	0.529032258065	20.6	-12.4758454106
2	0.001	16.5612903226	3.42580645161	1.84285714286	-8.24396135266
3	0.0015	-8.06129032258	0.529032258065	-1.04285714286	-2.60144927536
4	0.002	-0.81935483871	-0.91935483871	-1.04285714286	-1.19082125604
5	0.0025	-0.81935483871	4.87419354839	-1.04285714286	19.9685990338
6	0.003	2.07741935484	0.529032258065	3.28571428571	4.45169082126
7	0.0035	16.5612903226	1.97741935484	1.84285714286	4.45169082126
8	0.004	0.629032258065	0.529032258065	7.61428571429	4.45169082126
9	0.0045	-2.26774193548	-6.71290322581	-3.92857142857	3.04106280193
10	0.005	-9.50967741935	0.529032258065	3.28571428571	18.5579710145
11	0.0055	-0.81935483871	0.529032258065	4.72857142857	3.04106280193
12	0.006	-5.16451612903	0.529032258065	3.28571428571	5.86231884058
13	0.0065	-0.81935483871	-0.91935483871	13.3857142857	7.2729468599
14	0.007	0.629032258065	-0.91935483871	1.84285714286	12.9154589372
15	0.0075	-0.81935483871	0.529032258065	6.17142857143	12.9154589372
16	0.008	-2.26774193548	-3.81612903226	3.28571428571	5.86231884058
17	0.0085	-8.06129032258	-0.91935483871	3.28571428571	5.86231884058
18	0.009	2.07741935484	0.529032258065	3.28571428571	4.45169082126
19	0.0095	-0.81935483871	0.529032258065	4.72857142857	-1.19082125604
20	0.01	0.629032258065	-3.81612903226	1.84285714286	4.45169082126
21	0.0105	-2.26774193548	-11.0580645161	1.84285714286	1.63043478261
22	0.011	3.52580645161	16.4612903226	1.84285714286	-2.60144927536
23	0.0115	-0.81935483871	16.4612903226	4.72857142857	-5.42270531401
24	0.012	-5.16451612903	0.529032258065	4.72857142857	11.5048309179
25	0.0125	0.629032258065	0.529032258065	7.61428571429	4.45169082126
26	0.013	0.629032258065	0.529032258065	1.84285714286	-19.5289855072
27	0.0135	-0.81935483871	0.529032258065	-11.1428571429	-11.0652173913
28	0.014	0.629032258065	1.97741935484	-2.48571428571	-12.4758454106
29	0.0145	-0.81935483871	1.97741935484	0.4	-9.65458937198
30	0.015	-8.06129032258	0.529032258065	-1.04285714286	-19.5289855072
31	0.0155	0.629032258065	0.529032258065	4.72857142857	-18.1183574879
32	0.016	-0.81935483871	0.529032258065	17.7142857143	-12.4758454106
33	0.0165	-2.26774193548	-2.36774193548	0.4	-11.0652173913
34	0.017	-0.81935483871	-9.60967741935	-3.92857142857	-12.4758454106
35	0.0175	4.97419354839	0.529032258065	0.4	-16.7077294686
36	0.018	19.4580645161	0.529032258065	6.17142857143	-19.5289855072
37	0.0185	0.629032258065	0.529032258065	0.4	-1.19082125604
38	0.019	0.629032258065	1.97741935484	14.8285714286	-15.2971014493
39	0.0195	0.629032258065	4.87419354839	-1.04285714286	-12.4758454106
40	0.02	-0.81935483871	17.9096774194	-2.48571428571	-11.0652173913
41	0.0205	-0.81935483871	1.97741935484	-1.04285714286	-11.0652173913
42	0.021	-0.81935483871	9.21935483871	-1.04285714286	-9.65458937198
43	0.0215	-5.16451612903	-0.91935483871	0.4	3.04106280193
44	0.022	-0.81935483871	1.97741935484	-2.48571428571	-5.42270531401
45	0.0225	0.629032258065	1.97741935484	11.9428571429	-5.42270531401
46	0.023	0.629032258065	0.529032258065	17.7142857143	-4.01207729469
47	0.0235	0.629032258065	-6.71290322581	0.4	-1.19082125604
48	0.024	0.629032258065	0.529032258065	-1.04285714286	-1.19082125604
49	0.0245	18.0096774194	0.529032258065	1.84285714286	-8.24396135266
50	0.025	0.629032258065	-0.91935483871	-1.04285714286	-9.65458937198
51	0.0255	2.07741935484	-0.91935483871	-5.37142857143	1.63043478261
52	0.026	-0.81935483871	0.529032258065	3.28571428571	1.63043478261
53	0.0265	-0.81935483871	19.3580645161	6.17142857143	3.04106280193
54	0.027	-0.81935483871	1.97741935484	4.72857142857	0.219806763285
55	0.0275	-15.3032258065	1.97741935484	3.28571428571	-2.60144927536
56	0.028	-2.26774193548	0.529032258065	-1.04285714286	-12.4758454106
57	0.0285	2.07741935484	-0.91935483871	-8.25714285714	-5.42270531401
58	0.029	0.629032258065	1.97741935484	-6.81428571429	-4.01207729469
59	0.0295	0.629032258065	3.42580645161	0.4	-9.65458937198
60	0.03	-2.26774193548	0.529032258065	3.28571428571	-9.65458937198
61	0.0305	-12.4064516129	0.529032258065	1.84285714286	-9.65458937198
62	0.031	-2.26774193548	0.529032258065	3.28571428571	-20.9396135266
63	0.0315	-2.26774193548	-0.91935483871	13.3857142857	-15.2971014493
64	0.032	-0.81935483871	3.42580645161	7.61428571429	-15.2971014493
65	0.0325	-0.81935483871	-9.60967741935	1.84285714286	-15.2971014493
66	0.033	-0.81935483871	7.77096774194	1.84285714286	-13.88647343
67	0.0335	-8.06129032258	1.97741935484	1.84285714286	-15.2971014493
68	0.034	3.52580645161	1.97741935484	0.4	-20.9396135266
69	0.0345	-0.81935483871	3.42580645161	-2.48571428571	-25.1714975845
70	0.035	0.629032258065	1.97741935484	11.9428571429	-18.1183574879
71	0.0355	0.629032258065	-5.26451612903	3.28571428571	-16.7077294686
72	0.036	2.07741935484	-6.71290322581	1.84285714286	-16.7077294686
73	0.0365	2.07741935484	1.97741935484	3.28571428571	-15.2971014493
74	0.037	-10.9580645161	0.529032258065	-1.04285714286	-12.4758454106
75	0.0375	-2.26774193548	1.97741935484	0.4	-19.5289855072
76	0.038	-2.26774193548	3.42580645161	-9.7	-18.1183574879
77	0.0385	-3.71612903226	-2.36774193548	-3.92857142857	-8.24396135266
78	0.039	-3.71612903226	13.564516129	-1.04285714286	0.219806763285
79	0.0395	-0.81935483871	1.97741935484	0.4	1.63043478261
80	0.04	-0.81935483871	0.529032258065	1.84285714286	-2.60144927536
81	0.0405	-5.16451612903	-2.36774193548	1.84285714286	3.04106280193
82	0.041	0.629032258065	-0.91935483871	6.17142857143	5.86231884058
83	0.0415	0.629032258065	1.97741935484	14.8285714286	7.2729468599
84	0.042	2.07741935484	6.32258064516	4.72857142857	10.0942028986
85	0.0425	-10.9580645161	-0.91935483871	4.72857142857	8.68357487923
86	0.043	15.1129032258	0.529032258065	4.72857142857	-1.19082125604
87	0.0435	0.629032258065	0.529032258065	9.05714285714	3.04106280193
88	0.044	0.629032258065	0.529032258065	-6.81428571429	0.219806763285
89	0.0445	-0.81935483871	1.97741935484	3.28571428571	5.86231884058
90	0.045	0.629032258065	1.97741935484	1.84285714286	4.45169082126
91	0.0455	0.629032258065	-0.91935483871	3.28571428571	3.04106280193
92	0.046	-12.4064516129	-0.91935483871	-1.04285714286	0.219806763285
93	0.0465	-2.26774193548	-0.91935483871	-1.04285714286	-6.83333333333
94	0.047	-0.81935483871	-0.91935483871	-1.04285714286	-6.83333333333
95	0.0475	-0.81935483871	1.97741935484	-6.81428571429	0.219806763285
96	0.048	-2.26774193548	15.0129032258	0.4	-2.60144927536
97	0.0485	-0.81935483871	-8.16129032258	0.4	-6.83333333333
98	0.049	0.629032258065	-9.60967741935	-1.04285714286	-2.60144927536
99	0.0495	-0.81935483871	1.97741935484	-1.04285714286	-9.65458937198
100	0.05	-2.26774193548	1.97741935484	-12.5857142857	-1.19082125604
101	0.0505	0.629032258065	-2.36774193548	0.4	-4.01207729469
102	0.051	-0.81935483871	-5.26451612903	-2.48571428571	-6.83333333333
103	0.0515	0.629032258065	6.32258064516	1.84285714286	-6.83333333333
104	0.052	2.07741935484	-0.91935483871	0.4	-5.42270531401
105	0.0525	-5.16451612903	0.529032258065	3.28571428571	-11.0652173913
106	0.053	-0.81935483871	0.529032258065	-1.04285714286	-12.4758454106
107	0.0535	0.629032258065	-2.36774193548	3.28571428571	-8.24396135266
108	0.054	-0.81935483871	-11.0580645161	1.84285714286	0.219806763285
109	0.0545	2.07741935484	-8.16129032258	-1.04285714286	3.04106280193
110	0.055	2.07741935484	0.529032258065	0.4	3.04106280193
111	0.0555	16.5612903226	0.529032258065	-2.48571428571	3.04106280193
112	0.056	-2.26774193548	1.97741935484	-2.48571428571	1.63043478261
113	0.0565	0.629032258065	1.97741935484	-3.92857142857	17.1473429952
114	0.057	-5.16451612903	-3.81612903226	-1.04285714286	3.04106280193
115	0.0575	-0.81935483871	10.6677419355	-1.04285714286	4.45169082126
116	0.058	0.629032258065	-0.91935483871	3.28571428571	4.45169082126
117	0.0585	-10.9580645161	-0.91935483871	4.72857142857	5.86231884058
118	0.059	-9.50967741935	0.529032258065	6.17142857143	5.86231884058
119	0.0595	0.629032258065	-2.36774193548	19.1571428571	3.04106280193
120	0.06	0.629032258065	-0.91935483871	3.28571428571	0.219806763285
121	0.0605	0.629032258065	-2.36774193548	1.84285714286	0.219806763285
122	0.061	2.07741935484	3.42580645161	3.28571428571	0.219806763285
123	0.0615	2.07741935484	4.87419354839	3.28571428571	-4.01207729469
124	0.062	15.1129032258	0.529032258065	4.72857142857	-9.65458937198
125	0.0625	3.52580645161	-0.91935483871	0.4	5.86231884058
126	0.063	0.629032258065	3.42580645161	19.1571428571	-8.24396135266
127	0.0635	0.629032258065	-0.91935483871	19.1571428571	-8.24396135266
128	0.064	2.07741935484	-6.71290322581	-1.04285714286	-8.24396135266
129	0.0645	0.629032258065	0.529032258065	1.84285714286	-8.24396135266
130	0.065	16.5612903226	0.529032258065	3.28571428571	-16.7077294686
131	0.0655	-0.81935483871	0.529032258065	3.28571428571	-15.2971014493
132	0.066	-0.81935483871	1.97741935484	-6.81428571429	-12.4758454106
133	0.0665	-2.26774193548	4.87419354839	1.84285714286	-6.83333333333
134	0.067	-0.81935483871	17.9096774194	0.4	-1.19082125604
135	0.0675	0.629032258065	-0.91935483871	4.72857142857	-1.19082125604
136	0.068	-5.16451612903	0.529032258065	3.28571428571	-4.01207729469
137	0.0685	-0.81935483871	-0.91935483871	1.84285714286	-11.0652173913
138	0.069	0.629032258065	1.97741935484	13.3857142857	-2.60144927536
139	0.0695	-0.81935483871	1.97741935484	3.28571428571	-1.19082125604
140	0.07	0.629032258065	0.529032258065	0.4	-1.19082125604
141	0.0705	-8.06129032258	1.97741935484	1.84285714286	-1.19082125604
142	0.071	-2.26774193548	0.529032258065	4.72857142857	-2.60144927536
143	0.0715	-6.61290322581	1.97741935484	-1.04285714286	0.219806763285
144	0.072	-2.26774193548	0.529032258065	13.3857142857	1.63043478261
145	0.0725	-0.81935483871	0.529032258065	16.2714285714	1.63043478261
146	0.073	-2.26774193548	-9.60967741935	-1.04285714286	-1.19082125604
147	0.0735	-0.81935483871	16.4612903226	-2.48571428571	3.04106280193
148	0.074	-10.9580645161	0.529032258065	1.84285714286	4.45169082126
149	0.0745	-12.4064516129	0.529032258065	1.84285714286	4.45169082126
150	0.075	-0.81935483871	-0.91935483871	19.1571428571	-1.19082125604
151	0.0755	2.07741935484	-0.91935483871	0.4	1.63043478261
152	0.076	0.629032258065	-11.0580645161	0.4	0.219806763285
153	0.0765	0.629032258065	17.9096774194	-2.48571428571	0.219806763285
154	0.077	-8.06129032258	1.97741935484	0.4	1.63043478261
155	0.0775	-10.9580645161	-0.91935483871	-1.04285714286	15.7367149758
156	0.078	0.629032258065	0.529032258065	0.4	12.9154589372
157	0.0785	0.629032258065	1.97741935484	3.28571428571	-12.4758454106
158	0.079	0.629032258065	-2.36774193548	3.28571428571	-6.83333333333
159	0.0795	0.629032258065	9.21935483871	1.84285714286	-2.60144927536
160	0.08	-0.81935483871	0.529032258065	1.84285714286	-6.83333333333
161	0.0805	-5.16451612903	0.529032258065	-1.04285714286	-12.4758454106
162	0.081	2.07741935484	0.529032258065	0.4	-12.4758454106
163	0.0815	0.629032258065	-0.91935483871	-1.04285714286	-15.2971014493
164	0.082	0.629032258065	-3.81612903226	0.4	-8.24396135266
165	0.0825	3.52580645161	-5.26451612903	1.84285714286	-6.83333333333
166	0.083	0.629032258065	0.529032258065	1.84285714286	-2.60144927536
167	0.0835	9.31935483871	0.529032258065	3.28571428571	-2.60144927536
168	0.084	-2.26774193548	1.97741935484	-1.04285714286	-9.65458937198
169	0.0845	2.07741935484	3.42580645161	3.28571428571	-9.65458937198
170	0.085	0.629032258065	0.529032258065	1.84285714286	-4.01207729469
171	0.0855	2.07741935484	9.21935483871	4.72857142857	-5.42270531401
172	0.086	0.629032258065	0.529032258065	1.84285714286	-4.01207729469
173	0.0865	-5.16451612903	1.97741935484	0.4	-2.60144927536
174	0.087	-8.06129032258	-0.91935483871	3.28571428571	0.219806763285
175	0.0875	-3.71612903226	3.42580645161	4.72857142857	-2.60144927536
176	0.088	-0.81935483871	0.529032258065	0.4	0.219806763285
177	0.0885	-2.26774193548	0.529032258065	0.4	4.45169082126
178	0.089	0.629032258065	-5.26451612903	0.4	5.86231884058
179	0.0895	16.5612903226	0.529032258065	-1.04285714286	8.68357487923
180	0.09	-0.81935483871	1.97741935484	-1.04285714286	4.45169082126
181	0.0905	-0.81935483871	3.42580645161	-2.48571428571	3.04106280193
182	0.091	0.629032258065	1.97741935484	-3.92857142857	5.86231884058
183	0.0915	0.629032258065	-0.91935483871	4.72857142857	4.45169082126
184	0.092	-0.81935483871	19.3580645161	3.28571428571	3.04106280193
185	0.0925	-0.81935483871	1.97741935484	3.28571428571	4.45169082126
186	0.093	-12.4064516129	1.97741935484	6.17142857143	7.2729468599
187	0.0935	3.52580645161	1.97741935484	9.05714285714	8.68357487923
188	0.094	2.07741935484	0.529032258065	6.17142857143	-9.65458937198
189	0.0945	-0.81935483871	-2.36774193548	-1.04285714286	-5.42270531401
190	0.095	0.629032258065	3.42580645161	1.84285714286	-4.01207729469
191	0.0955	0.629032258065	-5.26451612903	1.84285714286	-6.83333333333
192	0.096	-3.71612903226	-8.16129032258	1.84285714286	-9.65458937198
193	0.0965	2.07741935484	0.529032258065	1.84285714286	-18.1183574879
194	0.097	-0.81935483871	0.529032258065	-2.48571428571	-11.0652173913
195	0.0975	-2.26774193548	0.529032258065	-2.48571428571	-9.65458937198
196	0.098	2.07741935484	4.87419354839	-6.81428571429	-11.0652173913
197	0.0985	-2.26774193548	1.97741935484	1.84285714286	-8.24396135266
198	0.099	-10.9580645161	3.42580645161	0.4	-8.24396135266
199	0.0995	18.0096774194	1.97741935484	-1.04285714286	-11.0652173913
200	0.1	-0.81935483871	-0.91935483871	-8.25714285714	-8.24396135266
201	0.1005	0.629032258065	3.42580645161	-6.81428571429	-8.24396135266
202	0.101	-3.71612903226	4.87419354839	3.28571428571	-8.24396135266
203	0.1015	-2.26774193548	-9.60967741935	1.84285714286	-6.83333333333
204	0.102	2.07741935484	0.529032258065	1.84285714286	-11.0652173913
205	0.1025	16.5612903226	1.97741935484	3.28571428571	-9.65458937198
206	0.103	-5.16451612903	0.529032258065	0.4	3.04106280193
207	0.1035	-0.81935483871	1.97741935484	-3.92857142857	-6.83333333333
208	0.104	-0.81935483871	1.97741935484	1.84285714286	-5.42270531401
209	0.1045	-0.81935483871	15.0129032258	-1.04285714286	-4.01207729469
210	0.105	-2.26774193548	0.529032258065	0.4	-2.60144927536
211	0.1055	10.7677419355	0.529032258065	3.28571428571	-4.01207729469
212	0.106	-5.16451612903	0.529032258065	1.84285714286	-1.19082125604
213	0.1065	-2.26774193548	0.529032258065	0.4	0.219806763285
214	0.107	-2.26774193548	1.97741935484	-3.92857142857	5.86231884058
215	0.1075	-0.81935483871	-2.36774193548	-6.81428571429	7.2729468599
216	0.108	2.07741935484	17.9096774194	0.4	12.9154589372
217	0.1085	-2.26774193548	1.97741935484	1.84285714286	14.3260869565
218	0.109	-10.9580645161	-0.91935483871	4.72857142857	12.9154589372
219	0.1095	-0.81935483871	1.97741935484	4.72857142857	-2.60144927536
220	0.11	-0.81935483871	-2.36774193548	23.4857142857	4.45169082126
221	0.1105	0.629032258065	-2.36774193548	3.28571428571	4.45169082126
222	0.111	3.52580645161	-9.60967741935	4.72857142857	1.63043478261
223	0.1115	0.629032258065	-0.91935483871	3.28571428571	-1.19082125604
224	0.112	22.3548387097	0.529032258065	3.28571428571	-2.60144927536
225	0.1125	-8.06129032258	0.529032258065	3.28571428571	0.219806763285
226	0.113	0.629032258065	1.97741935484	14.8285714286	-2.60144927536
227	0.1135	2.07741935484	6.32258064516	0.4	-4.01207729469
228	0.114	0.629032258065	16.4612903226	1.84285714286	-2.60144927536
229	0.1145	-0.81935483871	-3.81612903226	1.84285714286	-5.42270531401
230	0.115	0.629032258065	-2.36774193548	3.28571428571	-2.60144927536
231	0.1155	-2.26774193548	-0.91935483871	0.4	-6.83333333333
232	0.116	-2.26774193548	0.529032258065	-6.81428571429	-2.60144927536
233	0.1165	-0.81935483871	1.97741935484	-6.81428571429	-5.42270531401
234	0.117	0.629032258065	13.564516129	3.28571428571	-1.19082125604
235	0.1175	-0.81935483871	0.529032258065	-1.04285714286	0.219806763285
236	0.118	-10.9580645161	1.97741935484	3.28571428571	-1.19082125604
237	0.1185	13.664516129	-0.91935483871	0.4	-1.19082125604
238	0.119	-2.26774193548	-2.36774193548	-8.25714285714	3.04106280193
239	0.1195	-0.81935483871	-0.91935483871	1.84285714286	-1.19082125604
240	0.12	0.629032258065	-8.16129032258	0.4	3.04106280193
241	0.1205	2.07741935484	4.87419354839	0.4	4.45169082126
242	0.121	-8.06129032258	0.529032258065	1.84285714286	3.04106280193
243	0.1215	3.52580645161	0.529032258065	-1.04285714286	7.2729468599
244	0.122	0.629032258065	0.529032258065	-1.04285714286	0.219806763285
245	0.1225	-0.81935483871	-0.91935483871	-5.37142857143	7.2729468599
246	0.123	-0.81935483871	0.529032258065	-11.1428571429	4.45169082126
247	0.1235	0.629032258065	0.529032258065	-1.04285714286	7.2729468599
248	0.124	-3.71612903226	0.529032258065	-1.04285714286	11.5048309179
249	0.1245	-10.9580645161	-2.36774193548	-1.04285714286	10.0942028986
250	0.125	-8.06129032258	0.529032258065	-1.04285714286	14.3260869565
251	0.1255	-0.81935483871	1.97741935484	3.28571428571	1.63043478261
252	0.126	-0.81935483871	-2.36774193548	-8.25714285714	8.68357487923
253	0.1265	2.07741935484	4.87419354839	3.28571428571	5.86231884058
254	0.127	-2.26774193548	-0.91935483871	1.84285714286	3.04106280193
255	0.1275	-13.8548387097	-0.91935483871	0.4	0.219806763285
256	0.128	-0.81935483871	-0.91935483871	-1.04285714286	-6.83333333333
257	0.1285	-0.81935483871	1.97741935484	-9.7	-2.60144927536
258	0.129	-0.81935483871	4.87419354839	-8.25714285714	-2.60144927536
259	0.1295	0.629032258065	0.529032258065	-2.48571428571	-8.24396135266
260	0.13	-0.81935483871	-0.91935483871	-1.04285714286	-4.01207729469
261	0.1305	-10.9580645161	0.529032258065	-1.04285714286	-4.01207729469
262	0.131	-6.61290322581	1.97741935484	1.84285714286	4.45169082126
263	0.1315	-0.81935483871	1.97741935484	3.28571428571	-8.24396135266
264	0.132	0.629032258065	6.32258064516	17.7142857143	-4.01207729469
265	0.1325	-0.81935483871	6.32258064516	0.4	1.63043478261
266	0.133	-2.26774193548	-6.71290322581	-1.04285714286	0.219806763285
267	0.1335	2.07741935484	-8.16129032258	1.84285714286	-4.01207729469
268	0.134	19.4580645161	0.529032258065	0.4	-4.01207729469
269	0.1345	-0.81935483871	0.529032258065	-9.7	-2.60144927536
270	0.135	0.629032258065	-0.91935483871	-8.25714285714	-2.60144927536
271	0.1355	0.629032258065	3.42580645161	-2.48571428571	-2.60144927536
272	0.136	-0.81935483871	17.9096774194	-2.48571428571	-2.60144927536
273	0.1365	-12.4064516129	-0.91935483871	1.84285714286	-1.19082125604
274	0.137	-3.71612903226	0.529032258065	4.72857142857	4.45169082126
275	0.1375	-0.81935483871	0.529032258065	0.4	-4.01207729469
276	0.138	-3.71612903226	3.42580645161	-1.04285714286	3.04106280193
277	0.1385	-5.16451612903	0.529032258065	-5.37142857143	5.86231884058
278	0.139	0.629032258065	7.77096774194	-1.04285714286	8.68357487923
279	0.1395	0.629032258065	-0.91935483871	-2.48571428571	15.7367149758
280	0.14	0.629032258065	0.529032258065	-1.04285714286	5.86231884058
281	0.1405	-6.61290322581	-0.91935483871	3.28571428571	19.9685990338
282	0.141	-0.81935483871	-3.81612903226	3.28571428571	15.7367149758
283	0.1415	-2.26774193548	-5.26451612903	-2.48571428571	14.3260869565
284	0.142	0.629032258065	7.77096774194	-1.04285714286	17.1473429952
285	0.1425	0.629032258065	-0.91935483871	-1.04285714286	19.9685990338
286	0.143	2.07741935484	0.529032258065	-1.04285714286	15.7367149758
287	0.1435	-5.16451612903	0.529032258065	0.4	27.0217391304
288	0.144	0.629032258065	0.529032258065	10.5	15.7367149758
289	0.1445	0.629032258065	0.529032258065	1.84285714286	14.3260869565
290	0.145	0.629032258065	-0.91935483871	-1.04285714286	14.3260869565
291	0.1455	3.52580645161	-9.60967741935	0.4	12.9154589372
292	0.146	-0.81935483871	-0.91935483871	-1.04285714286	11.5048309179
293	0.1465	0.629032258065	1.97741935484	-1.04285714286	1.63043478261
294	0.147	0.629032258065	0.529032258065	-2.48571428571	25.6111111111
295	0.1475	3.52580645161	0.529032258065	17.7142857143	8.68357487923
296	0.148	0.629032258065	-6.71290322581	-1.04285714286	12.9154589372
297	0.1485	0.629032258065	-3.81612903226	-1.04285714286	14.3260869565
298	0.149	-5.16451612903	0.529032258065	-1.04285714286	11.5048309179
299	0.1495	-2.26774193548	0.529032258065	1.84285714286	4.45169082126
300	0.15	0.629032258065	0.529032258065	-8.25714285714	8.68357487923
301	0.1505	-0.81935483871	0.529032258065	-2.48571428571	7.2729468599
302	0.151	0.629032258065	4.87419354839	0.4	7.2729468599
303	0.1515	-5.16451612903	-0.91935483871	-1.04285714286	8.68357487923
304	0.152	-13.8548387097	0.529032258065	-2.48571428571	14.3260869565
305	0.1525	-10.9580645161	1.97741935484	-5.37142857143	12.9154589372
306	0.153	0.629032258065	0.529032258065	-6.81428571429	27.0217391304
307	0.1535	-2.26774193548	-0.91935483871	4.72857142857	15.7367149758
308	0.154	-2.26774193548	0.529032258065	3.28571428571	12.9154589372
309	0.1545	-5.16451612903	1.97741935484	-2.48571428571	12.9154589372
310	0.155	2.07741935484	0.529032258065	-2.48571428571	11.5048309179
311	0.1555	-5.16451612903	-0.91935483871	-3.92857142857	15.7367149758
312	0.156	-0.81935483871	0.529032258065	-3.92857142857	5.86231884058
313	0.1565	-0.81935483871	0.529032258065	6.17142857143	3.04106280193
314	0.157	0.629032258065	-0.91935483871	0.4	0.219806763285
315	0.1575	-0.81935483871	-6.71290322581	1.84285714286	-1.19082125604
316	0.158	-8.06129032258	-0.91935483871	1.84285714286	-8.24396135266
317	0.1585	2.07741935484	-0.91935483871	1.84285714286	-16.7077294686
318	0.159	-2.26774193548	-0.91935483871	3.28571428571	-30.8140096618
319	0.1595	0.629032258065	-2.36774193548	14.8285714286	-27.9927536232
320	0.16	3.52580645161	1.97741935484	3.28571428571	-35.0458937198
321	0.1605	-2.26774193548	-6.71290322581	3.28571428571	-40.6884057971
322	0.161	3.52580645161	-2.36774193548	1.84285714286	-49.152173913
323	0.1615	16.5612903226	0.529032258065	4.72857142857	-54.7946859903
324	0.162	-0.81935483871	-2.36774193548	3.28571428571	-56.2053140097
325	0.1625	-2.26774193548	1.97741935484	0.4	-73.1328502415
326	0.163	-2.26774193548	3.42580645161	1.84285714286	-81.5966183575
327	0.1635	-2.26774193548	19.3580645161	3.28571428571	-87.2391304348
328	0.164	-13.8548387097	0.529032258065	3.28571428571	-92.8816425121
329	0.1645	19.4580645161	0.529032258065	3.28571428571	-108.398550725
330	0.165	-2.26774193548	0.529032258065	11.9428571429	-108.398550725
331	0.1655	-0.81935483871	0.529032258065	11.9428571429	-115.451690821
332	0.166	-0.81935483871	-13.9548387097	6.17142857143	-115.451690821
333	0.1665	-2.26774193548	-9.60967741935	9.05714285714	-121.094202899
334	0.167	0.629032258065	-2.36774193548	4.72857142857	-128.147342995
335	0.1675	15.1129032258	-0.91935483871	6.17142857143	-136.611111111
336	0.168	0.629032258065	0.529032258065	4.72857142857	-139.43236715
337	0.1685	-2.26774193548	-0.91935483871	6.17142857143	-140.842995169
338	0.169	-2.26774193548	-6.71290322581	9.05714285714	-138.02173913
339	0.1695	0.629032258065	6.32258064516	7.61428571429	-139.43236715
340	0.17	-2.26774193548	17.9096774194	4.72857142857	-143.664251208
341	0.1705	-8.06129032258	0.529032258065	6.17142857143	-140.842995169
342	0.171	-2.26774193548	-0.91935483871	7.61428571429	-132.379227053
343	0.1715	0.629032258065	3.42580645161	24.9285714286	-145.074879227
344	0.172	-0.81935483871	0.529032258065	6.17142857143	-140.842995169
345	0.1725	-0.81935483871	20.8064516129	6.17142857143	-140.842995169
346	0.173	-2.26774193548	0.529032258065	7.61428571429	-143.664251208
347	0.1735	-6.61290322581	-0.91935483871	13.3857142857	-152.128019324
348	0.174	-0.81935483871	-2.36774193548	13.3857142857	-143.664251208
349	0.1745	-2.26774193548	0.529032258065	13.3857142857	-132.379227053
350	0.175	0.629032258065	-8.16129032258	9.05714285714	-139.43236715
351	0.1755	2.07741935484	0.529032258065	14.8285714286	-136.611111111
352	0.176	4.97419354839	-6.71290322581	14.8285714286	-132.379227053
353	0.1765	-3.71612903226	-2.36774193548	13.3857142857	-132.379227053
354	0.177	0.629032258065	-0.91935483871	14.8285714286	-135.200483092
355	0.1775	-0.81935483871	0.529032258065	6.17142857143	-128.147342995
356	0.178	-0.81935483871	-0.91935483871	6.17142857143	-130.968599034
357	0.1785	3.52580645161	-11.0580645161	16.2714285714	-135.200483092
358	0.179	2.07741935484	1.97741935484	14.8285714286	-133.789855072
359	0.1795	20.9064516129	0.529032258065	13.3857142857	-132.379227053
360	0.18	-5.16451612903	0.529032258065	6.17142857143	-125.326086957
361	0.1805	0.629032258065	-0.91935483871	4.72857142857	-138.02173913
362	0.181	-0.81935483871	3.42580645161	6.17142857143	-130.968599034
363	0.1815	-0.81935483871	0.529032258065	11.9428571429	-132.379227053
364	0.182	2.07741935484	-8.16129032258	13.3857142857	-130.968599034
365	0.1825	2.07741935484	3.42580645161	11.9428571429	-125.326086957
366	0.183	20.9064516129	1.97741935484	11.9428571429	-121.094202899
367	0.1835	0.629032258065	0.529032258065	6.17142857143	-105.577294686
368	0.184	-0.81935483871	3.42580645161	6.17142857143	-112.630434783
369	0.1845	0.629032258065	3.42580645161	9.05714285714	-111.219806763
370	0.185	3.52580645161	7.77096774194	11.9428571429	-105.577294686
371	0.1855	-3.71612903226	1.97741935484	11.9428571429	-102.756038647
372	0.186	15.1129032258	1.97741935484	11.9428571429	-106.987922705
373	0.1865	-0.81935483871	-0.91935483871	7.61428571429	-104.166666667
374	0.187	0.629032258065	0.529032258065	-2.48571428571	-91.4710144928
375	0.1875	0.629032258065	3.42580645161	9.05714285714	-88.6497584541
376	0.188	-0.81935483871	1.97741935484	9.05714285714	-84.4178743961
377	0.1885	-0.81935483871	-6.71290322581	7.61428571429	-81.5966183575
378	0.189	16.5612903226	1.97741935484	7.61428571429	-84.4178743961
379	0.1895	-2.26774193548	0.529032258065	3.28571428571	-78.7753623188
380	0.19	-0.81935483871	-2.36774193548	-3.92857142857	-61.847826087
381	0.1905	-2.26774193548	-2.36774193548	-2.48571428571	-59.0265700483
382	0.191	-0.81935483871	-12.5064516129	4.72857142857	-59.0265700483
383	0.1915	0.629032258065	-6.71290322581	4.72857142857	-54.7946859903
384	0.192	18.0096774194	-0.91935483871	4.72857142857	-53.384057971
385	0.1925	-2.26774193548	0.529032258065	7.61428571429	-47.7415458937
386	0.193	-2.26774193548	0.529032258065	7.61428571429	-44.9202898551
387	0.1935	0.629032258065	-3.81612903226	-1.04285714286	-43.5096618357
388	0.194	0.629032258065	-6.71290322581	1.84285714286	-43.5096618357
389	0.1945	0.629032258065	4.87419354839	1.84285714286	-37.8671497585
390	0.195	2.07741935484	-0.91935483871	1.84285714286	-40.6884057971
391	0.1955	-5.16451612903	-0.91935483871	4.72857142857	-42.0990338164
392	0.196	0.629032258065	-0.91935483871	4.72857142857	-29.4033816425
393	0.1965	0.629032258065	0.529032258065	4.72857142857	-51.9734299517
394	0.197	0.629032258065	0.529032258065	-8.25714285714	-42.0990338164
395	0.1975	0.629032258065	19.3580645161	0.4	-37.8671497585
396	0.198	-3.71612903226	17.9096774194	1.84285714286	-37.8671497585
397	0.1985	-5.16451612903	1.97741935484	3.28571428571	-35.0458937198
398	0.199	0.629032258065	0.529032258065	4.72857142857	-43.5096618357
399	0.1995	-0.81935483871	3.42580645161	19.1571428571	-33.6352657005
400	0.2	0.629032258065	-2.36774193548	1.84285714286	-32.2246376812
401	0.2005	2.07741935484	-11.0580645161	3.28571428571	-29.4033816425
402	0.201	3.52580645161	-0.91935483871	0.4	-29.4033816425
403	0.2015	15.1129032258	3.42580645161	-1.04285714286	-22.3502415459
404	0.202	0.629032258065	3.42580645161	1.84285714286	-20.9396135266
405	0.2025	-3.71612903226	1.97741935484	3.28571428571	-22.3502415459
406	0.203	-0.81935483871	0.529032258065	0.4	-19.5289855072
407	0.2035	2.07741935484	13.564516129	-1.04285714286	-18.1183574879
408	0.204	-2.26774193548	0.529032258065	0.4	-13.88647343
409	0.2045	-8.06129032258	3.42580645161	-2.48571428571	-12.4758454106
410	0.205	12.2161290323	1.97741935484	0.4	-16.7077294686
411	0.2055	-0.81935483871	3.42580645161	-6.81428571429	-13.88647343
412	0.206	-2.26774193548	1.97741935484	-11.1428571429	0.219806763285
413	0.2065	-2.26774193548	4.87419354839	-2.48571428571	3.04106280193
414	0.207	-3.71612903226	-0.91935483871	-1.04285714286	7.2729468599
415	0.2075	-13.8548387097	0.529032258065	0.4	14.3260869565
416	0.208	-8.06129032258	0.529032258065	-1.04285714286	12.9154589372
417	0.2085	-0.81935483871	-0.91935483871	-2.48571428571	15.7367149758
418	0.209	-0.81935483871	0.529032258065	-3.92857142857	11.5048309179
419	0.2095	-0.81935483871	-8.16129032258	-2.48571428571	8.68357487923
420	0.21	2.07741935484	-8.16129032258	-1.04285714286	7.2729468599
421	0.2105	4.97419354839	0.529032258065	0.4	3.04106280193
422	0.211	-2.26774193548	1.97741935484	0.4	17.1473429952
423	0.2115	2.07741935484	-0.91935483871	0.4	7.2729468599
424	0.212	2.07741935484	0.529032258065	1.84285714286	-4.01207729469
425	0.2125	0.629032258065	-3.81612903226	-1.04285714286	0.219806763285
426	0.213	-0.81935483871	-5.26451612903	-1.04285714286	-1.19082125604
427	0.2135	2.07741935484	-0.91935483871	-2.48571428571	1.63043478261
428	0.214	-8.06129032258	0.529032258065	0.4	-4.01207729469
429	0.2145	0.629032258065	1.97741935484	-1.04285714286	-5.42270531401
430	0.215	0.629032258065	3.42580645161	13.3857142857	-2.60144927536
431	0.2155	-0.81935483871	1.97741935484	1.84285714286	1.63043478261
432	0.216	0.629032258065	-2.36774193548	0.4	0.219806763285
433	0.2165	-3.71612903226	0.529032258065	0.4	-1.19082125604
434	0.217	10.7677419355	0.529032258065	1.84285714286	-1.19082125604
435	0.2175	-0.81935483871	0.529032258065	0.4	7.2729468599
436	0.218	2.07741935484	0.529032258065	3.28571428571	0.219806763285
437	0.2185	-0.81935483871	-8.16129032258	-1.04285714286	4.45169082126
438	0.219	0.629032258065	3.42580645161	-2.48571428571	4.45169082126
439	0.2195	0.629032258065	-3.81612903226	0.4	4.45169082126
440	0.22	-0.81935483871	1.97741935484	-1.04285714286	18.5579710145
441	0.2205	-3.71612903226	0.529032258065	-1.04285714286	7.2729468599
442	0.221	-2.26774193548	0.529032258065	-3.92857142857	5.86231884058
443	0.2215	-2.26774193548	0.529032258065	-6.81428571429	14.3260869565
444	0.222	-0.81935483871	-5.26451612903	-1.04285714286	18.5579710145
445	0.2225	3.52580645161	0.529032258065	-2.48571428571	19.9685990338
446	0.223	13.664516129	1.97741935484	-2.48571428571	27.0217391304
447	0.2235	-2.26774193548	1.97741935484	1.84285714286	34.0748792271
448	0.224	-0.81935483871	3.42580645161	13.3857142857	24.2004830918
449	0.2245	-5.16451612903	4.87419354839	-1.04285714286	27.0217391304
450	0.225	-0.81935483871	16.4612903226	-1.04285714286	28.4323671498
451	0.2255	-10.9580645161	1.97741935484	-1.04285714286	28.4323671498
452	0.226	16.5612903226	-0.91935483871	1.84285714286	25.6111111111
453	0.2265	-0.81935483871	-0.91935483871	-1.04285714286	19.9685990338
454	0.227	-0.81935483871	1.97741935484	-9.7	18.5579710145
455	0.2275	-2.26774193548	4.87419354839	-3.92857142857	19.9685990338
456	0.228	-5.16451612903	-11.0580645161	-3.92857142857	17.1473429952
457	0.2285	4.97419354839	-6.71290322581	0.4	17.1473429952
458	0.229	18.0096774194	-0.91935483871	0.4	14.3260869565
459	0.2295	-2.26774193548	0.529032258065	-2.48571428571	14.3260869565
460	0.23	-0.81935483871	-0.91935483871	7.61428571429	7.2729468599
461	0.2305	-2.26774193548	1.97741935484	6.17142857143	14.3260869565
462	0.231	0.629032258065	4.87419354839	-1.04285714286	14.3260869565
463	0.2315	0.629032258065	3.42580645161	0.4	14.3260869565
464	0.232	4.97419354839	4.87419354839	-2.48571428571	17.1473429952
465	0.2325	-6.61290322581	0.529032258065	-2.48571428571	12.9154589372
466	0.233	-2.26774193548	3.42580645161	-3.92857142857	15.7367149758
467	0.2335	-2.26774193548	0.529032258065	-8.25714285714	15.7367149758
468	0.234	-3.71612903226	-6.71290322581	-1.04285714286	15.7367149758
469	0.2345	0.629032258065	0.529032258065	0.4	14.3260869565
470	0.235	-15.3032258065	0.529032258065	-1.04285714286	17.1473429952
471	0.2355	-12.4064516129	1.97741935484	3.28571428571	29.8429951691
472	0.236	-0.81935483871	0.529032258065	3.28571428571	12.9154589372
473	0.2365	-2.26774193548	-0.91935483871	-5.37142857143	14.3260869565
474	0.237	-0.81935483871	-9.60967741935	-2.48571428571	14.3260869565
475	0.2375	-0.81935483871	-0.91935483871	-1.04285714286	18.5579710145
476	0.238	15.1129032258	0.529032258065	-2.48571428571	17.1473429952
477	0.2385	-2.26774193548	0.529032258065	-3.92857142857	18.5579710145
478	0.239	-2.26774193548	1.97741935484	-12.5857142857	21.3792270531
479	0.2395	0.629032258065	-0.91935483871	-1.04285714286	24.2004830918
480	0.24	2.07741935484	13.564516129	-5.37142857143	22.7898550725
481	0.2405	-2.26774193548	-2.36774193548	-1.04285714286	27.0217391304
482	0.241	-5.16451612903	-5.26451612903	-1.04285714286	27.0217391304
483	0.2415	12.2161290323	1.97741935484	-1.04285714286	27.0217391304
484	0.242	-0.81935483871	1.97741935484	-1.04285714286	43.9492753623
485	0.2425	2.07741935484	3.42580645161	19.1571428571	24.2004830918
486	0.243	0.629032258065	-6.71290322581	1.84285714286	25.6111111111
487	0.2435	2.07741935484	-9.60967741935	1.84285714286	22.7898550725
488	0.244	4.97419354839	0.529032258065	-2.48571428571	19.9685990338
489	0.2445	2.07741935484	1.97741935484	0.4	22.7898550725
490	0.245	0.629032258065	1.97741935484	-11.1428571429	18.5579710145
491	0.2455	2.07741935484	0.529032258065	0.4	21.3792270531
492	0.246	-0.81935483871	3.42580645161	0.4	18.5579710145
493	0.2465	-0.81935483871	-3.81612903226	0.4	15.7367149758
494	0.247	-5.16451612903	0.529032258065	-1.04285714286	14.3260869565
495	0.2475	18.0096774194	0.529032258065	0.4	14.3260869565
496	0.248	0.629032258065	0.529032258065	-1.04285714286	7.2729468599
497	0.2485	2.07741935484	4.87419354839	-12.5857142857	12.9154589372
498	0.249	0.629032258065	6.32258064516	-6.81428571429	12.9154589372
499	0.2495	-2.26774193548	19.3580645161	-1.04285714286	11.5048309179
500	0.25	-13.8548387097	0.529032258065	0.4	12.9154589372
501	0.2505	7.87096774194	0.529032258065	-2.48571428571	12.9154589372
502	0.251	-6.61290322581	1.97741935484	0.4	22.7898550725
503	0.2515	-2.26774193548	0.529032258065	-2.48571428571	28.4323671498
504	0.252	-2.26774193548	1.97741935484	0.4	8.68357487923
505	0.2525	0.629032258065	16.4612903226	-3.92857142857	12.9154589372
506	0.253	-2.26774193548	-8.16129032258	-2.48571428571	14.3260869565
507	0.2535	16.5612903226	1.97741935484	-1.04285714286	8.68357487923
508	0.254	-0.81935483871	1.97741935484	-3.92857142857	4.45169082126
509	0.2545	-0.81935483871	0.529032258065	-12.5857142857	17.1473429952
510	0.255	-0.81935483871	0.529032258065	-12.5857142857	17.1473429952
511	0.2555	-0.81935483871	-8.16129032258	-1.04285714286	19.9685990338
512	0.256	-0.81935483871	1.97741935484	-2.48571428571	21.3792270531
513	0.2565	-10.9580645161	0.529032258065	0.4	24.2004830918
514	0.257	-10.9580645161	3.42580645161	1.84285714286	24.2004830918
515	0.2575	0.629032258065	-0.91935483871	-12.5857142857	27.0217391304
516	0.258	-3.71612903226	-0.91935483871	-6.81428571429	29.8429951691
517	0.2585	0.629032258065	-9.60967741935	0.4	29.8429951691
518	0.259	0.629032258065	-5.26451612903	1.84285714286	27.0217391304
519	0.2595	16.5612903226	0.529032258065	0.4	27.0217391304
520	0.26	-2.26774193548	0.529032258065	3.28571428571	28.4323671498
521	0.2605	-0.81935483871	0.529032258065	1.84285714286	22.7898550725
522	0.261	0.629032258065	1.97741935484	-6.81428571429	21.3792270531
523	0.2615	2.07741935484	3.42580645161	-12.5857142857	18.5579710145
524	0.262	0.629032258065	17.9096774194	-1.04285714286	19.9685990338
525	0.2625	-12.4064516129	1.97741935484	1.84285714286	17.1473429952
526	0.263	19.4580645161	0.529032258065	-1.04285714286	14.3260869565
527	0.2635	-3.71612903226	1.97741935484	-1.04285714286	14.3260869565
528	0.264	0.629032258065	4.87419354839	-1.04285714286	18.5579710145
529	0.2645	-0.81935483871	1.97741935484	-2.48571428571	18.5579710145
530	0.265	0.629032258065	3.42580645161	-1.04285714286	15.7367149758
531	0.2655	-3.71612903226	-0.91935483871	-1.04285714286	15.7367149758
532	0.266	-2.26774193548	1.97741935484	-1.04285714286	8.68357487923
533	0.2665	-5.16451612903	0.529032258065	1.84285714286	22.7898550725
534	0.267	-0.81935483871	1.97741935484	-2.48571428571	28.4323671498
535	0.2675	0.629032258065	3.42580645161	9.05714285714	15.7367149758
536	0.268	-0.81935483871	-5.26451612903	-2.48571428571	14.3260869565
537	0.2685	2.07741935484	-6.71290322581	-3.92857142857	14.3260869565
538	0.269	-2.26774193548	-6.71290322581	-1.04285714286	17.1473429952
539	0.2695	-0.81935483871	0.529032258065	-2.48571428571	8.68357487923
540	0.27	-2.26774193548	1.97741935484	-2.48571428571	12.9154589372
541	0.2705	0.629032258065	0.529032258065	-6.81428571429	21.3792270531
542	0.271	-0.81935483871	13.564516129	-2.48571428571	21.3792270531
543	0.2715	-2.26774193548	-8.16129032258	-2.48571428571	24.2004830918
544	0.272	-2.26774193548	-6.71290322581	-1.04285714286	24.2004830918
545	0.2725	-0.81935483871	0.529032258065	0.4	21.3792270531
546	0.273	-2.26774193548	0.529032258065	0.4	25.6111111111
547	0.2735	0.629032258065	-2.36774193548	-6.81428571429	25.6111111111
548	0.274	0.629032258065	17.9096774194	0.4	27.0217391304
549	0.2745	-3.71612903226	0.529032258065	-1.04285714286	27.0217391304
550	0.275	-13.8548387097	1.97741935484	0.4	28.4323671498
551	0.2755	-10.9580645161	-0.91935483871	-1.04285714286	43.9492753623
552	0.276	-0.81935483871	0.529032258065	-8.25714285714	22.7898550725
553	0.2765	0.629032258065	-0.91935483871	0.4	22.7898550725
554	0.277	0.629032258065	-6.71290322581	0.4	21.3792270531
555	0.2775	2.07741935484	-6.71290322581	0.4	21.3792270531
556	0.278	13.664516129	1.97741935484	1.84285714286	21.3792270531
557	0.2785	-8.06129032258	3.42580645161	0.4	28.4323671498
558	0.279	0.629032258065	1.97741935484	-2.48571428571	15.7367149758
559	0.2795	-0.81935483871	3.42580645161	-8.25714285714	15.7367149758
560	0.28	0.629032258065	16.4612903226	0.4	17.1473429952
561	0.2805	-2.26774193548	-6.71290322581	0.4	15.7367149758
562	0.281	0.629032258065	0.529032258065	-1.04285714286	14.3260869565
563	0.2815	-2.26774193548	1.97741935484	0.4	25.6111111111
564	0.282	2.07741935484	1.97741935484	-2.48571428571	25.6111111111
565	0.2825	0.629032258065	1.97741935484	19.1571428571	12.9154589372
566	0.283	0.629032258065	-11.0580645161	-2.48571428571	15.7367149758
567	0.2835	2.07741935484	-6.71290322581	-1.04285714286	18.5579710145
568	0.284	20.9064516129	-2.36774193548	-1.04285714286	21.3792270531
569	0.2845	-8.06129032258	1.97741935484	1.84285714286	19.9685990338
570	0.285	0.629032258065	0.529032258065	4.72857142857	28.4323671498
571	0.2855	-2.26774193548	0.529032258065	0.4	14.3260869565
572	0.286	0.629032258065	-11.0580645161	0.4	14.3260869565
573	0.2865	0.629032258065	-5.26451612903	-2.48571428571	12.9154589372
574	0.287	0.629032258065	0.529032258065	1.84285714286	12.9154589372
575	0.2875	19.4580645161	0.529032258065	-1.04285714286	12.9154589372
576	0.288	-0.81935483871	0.529032258065	-14.0285714286	14.3260869565
577	0.2885	0.629032258065	0.529032258065	-12.5857142857	17.1473429952
578	0.289	-2.26774193548	4.87419354839	-2.48571428571	18.5579710145
579	0.2895	-0.81935483871	-2.36774193548	0.4	21.3792270531
580	0.29	2.07741935484	-2.36774193548	-1.04285714286	19.9685990338
581	0.2905	19.4580645161	0.529032258065	-1.04285714286	18.5579710145
582	0.291	-3.71612903226	0.529032258065	-9.7	19.9685990338
583	0.2915	0.629032258065	3.42580645161	-3.92857142857	24.2004830918
584	0.292	-0.81935483871	4.87419354839	-1.04285714286	19.9685990338
585	0.2925	-0.81935483871	19.3580645161	3.28571428571	21.3792270531
586	0.293	-8.06129032258	0.529032258065	3.28571428571	19.9685990338
587	0.2935	16.5612903226	-0.91935483871	4.72857142857	12.9154589372
588	0.294	0.629032258065	0.529032258065	-1.04285714286	7.2729468599
589	0.2945	2.07741935484	-0.91935483871	-1.04285714286	4.45169082126
590	0.295	2.07741935484	-3.81612903226	0.4	12.9154589372
591	0.2955	2.07741935484	-8.16129032258	-2.48571428571	11.5048309179
592	0.296	3.52580645161	1.97741935484	0.4	8.68357487923
593	0.2965	0.629032258065	1.97741935484	-2.48571428571	25.6111111111
594	0.297	-0.81935483871	0.529032258065	-6.81428571429	8.68357487923
595	0.2975	-2.26774193548	1.97741935484	-8.25714285714	11.5048309179
596	0.298	0.629032258065	-0.91935483871	0.4	11.5048309179
597	0.2985	0.629032258065	9.21935483871	1.84285714286	4.45169082126
598	0.299	3.52580645161	0.529032258065	-2.48571428571	5.86231884058
599	0.2995	7.87096774194	1.97741935484	-1.04285714286	11.5048309179
600	0.3	2.07741935484	0.529032258065	0.4	5.86231884058
601	0.3005	-0.81935483871	0.529032258065	4.72857142857	11.5048309179
602	0.301	-0.81935483871	-8.16129032258	0.4	14.3260869565
603	0.3015	-2.26774193548	10.6677419355	-1.04285714286	14.3260869565
604	0.302	-13.8548387097	0.529032258065	0.4	18.5579710145
605	0.3025	-2.26774193548	-0.91935483871	0.4	24.2004830918
606	0.303	-0.81935483871	1.97741935484	-1.04285714286	14.3260869565
607	0.3035	0.629032258065	0.529032258065	4.72857142857	15.7367149758
608	0.304	0.629032258065	-9.60967741935	-3.92857142857	15.7367149758
609	0.3045	-0.81935483871	-0.91935483871	0.4	19.9685990338
610	0.305	3.52580645161	3.42580645161	1.84285714286	18.5579710145
611	0.3055	18.0096774194	0.529032258065	-1.04285714286	19.9685990338
612	0.306	0.629032258065	0.529032258065	-11.1428571429	27.0217391304
613	0.3065	0.629032258065	0.529032258065	-9.7	29.8429951691
614	0.307	-0.81935483871	-0.91935483871	-1.04285714286	28.4323671498
615	0.3075	0.629032258065	10.6677419355	-1.04285714286	29.8429951691
616	0.308	-0.81935483871	0.529032258065	0.4	25.6111111111
617	0.3085	-8.06129032258	-0.91935483871	-1.04285714286	21.3792270531
618	0.309	-0.81935483871	-0.91935483871	3.28571428571	32.6642512077
619	0.3095	-0.81935483871	-0.91935483871	-1.04285714286	17.1473429952
620	0.31	-0.81935483871	0.529032258065	3.28571428571	22.7898550725
621	0.3105	2.07741935484	10.6677419355	1.84285714286	15.7367149758
622	0.311	-3.71612903226	0.529032258065	0.4	14.3260869565
623	0.3115	-6.61290322581	1.97741935484	1.84285714286	11.5048309179
624	0.312	-0.81935483871	1.97741935484	-1.04285714286	11.5048309179
625	0.3125	-0.81935483871	-0.91935483871	14.8285714286	4.45169082126
626	0.313	2.07741935484	-2.36774193548	-2.48571428571	3.04106280193
627	0.3135	-0.81935483871	20.8064516129	-2.48571428571	5.86231884058
628	0.314	-12.4064516129	3.42580645161	-1.04285714286	0.219806763285
629	0.3145	23.8032258065	0.529032258065	1.84285714286	1.63043478261
630	0.315	-0.81935483871	0.529032258065	-2.48571428571	-2.60144927536
631	0.3155	0.629032258065	4.87419354839	3.28571428571	3.04106280193
632	0.316	-0.81935483871	1.97741935484	6.17142857143	8.68357487923
633	0.3165	-0.81935483871	-3.81612903226	-2.48571428571	7.2729468599
634	0.317	-5.16451612903	1.97741935484	-1.04285714286	7.2729468599
635	0.3175	-6.61290322581	0.529032258065	-1.04285714286	14.3260869565
636	0.318	-9.50967741935	-0.91935483871	-1.04285714286	29.8429951691
637	0.3185	2.07741935484	1.97741935484	-8.25714285714	18.5579710145
638	0.319	-0.81935483871	0.529032258065	0.4	15.7367149758
639	0.3195	2.07741935484	-2.36774193548	0.4	15.7367149758
640	0.32	-0.81935483871	-8.16129032258	-1.04285714286	17.1473429952
641	0.3205	-2.26774193548	-6.71290322581	-2.48571428571	18.5579710145
642	0.321	-0.81935483871	0.529032258065	-1.04285714286	19.9685990338
643	0.3215	-0.81935483871	0.529032258065	-1.04285714286	27.0217391304
644	0.322	-2.26774193548	3.42580645161	4.72857142857	22.7898550725
645	0.3225	0.629032258065	7.77096774194	3.28571428571	21.3792270531
646	0.323	-3.71612903226	-2.36774193548	0.4	24.2004830918
647	0.3235	-13.8548387097	1.97741935484	1.84285714286	27.0217391304
648	0.324	0.629032258065	0.529032258065	1.84285714286	28.4323671498
649	0.3245	-0.81935483871	0.529032258065	0.4	21.3792270531
650	0.325	2.07741935484	0.529032258065	-5.37142857143	24.2004830918
651	0.3255	0.629032258065	-5.26451612903	1.84285714286	25.6111111111
652	0.326	0.629032258065	4.87419354839	3.28571428571	24.2004830918
653	0.3265	3.52580645161	0.529032258065	3.28571428571	19.9685990338
654	0.327	-5.16451612903	0.529032258065	4.72857142857	31.2536231884
655	0.3275	0.629032258065	1.97741935484	-1.04285714286	19.9685990338
656	0.328	2.07741935484	1.97741935484	-2.48571428571	22.7898550725
657	0.3285	-0.81935483871	9.21935483871	1.84285714286	19.9685990338
658	0.329	-0.81935483871	4.87419354839	0.4	17.1473429952
659	0.3295	-8.06129032258	-0.91935483871	3.28571428571	18.5579710145
660	0.33	10.7677419355	-0.91935483871	0.4	14.3260869565
661	0.3305	0.629032258065	0.529032258065	-1.04285714286	15.7367149758
662	0.331	2.07741935484	0.529032258065	-8.25714285714	8.68357487923
663	0.3315	0.629032258065	-5.26451612903	-3.92857142857	14.3260869565
664	0.332	-2.26774193548	6.32258064516	-2.48571428571	14.3260869565
665	0.3325	4.97419354839	0.529032258065	0.4	7.2729468599
666	0.333	-2.26774193548	0.529032258065	-1.04285714286	-1.19082125604
667	0.3335	0.629032258065	-0.91935483871	-1.04285714286	19.9685990338
668	0.334	0.629032258065	4.87419354839	17.7142857143	4.45169082126
669	0.3345	0.629032258065	-11.0580645161	-1.04285714286	8.68357487923
670	0.335	0.629032258065	-6.71290322581	0.4	7.2729468599
671	0.3355	3.52580645161	-2.36774193548	0.4	8.68357487923
672	0.336	16.5612903226	0.529032258065	0.4	5.86231884058
673	0.3365	-0.81935483871	0.529032258065	-8.25714285714	8.68357487923
674	0.337	-0.81935483871	-0.91935483871	-3.92857142857	8.68357487923
675	0.3375	-0.81935483871	-8.16129032258	-1.04285714286	8.68357487923
676	0.338	-0.81935483871	1.97741935484	0.4	14.3260869565
677	0.3385	2.07741935484	0.529032258065	0.4	14.3260869565
678	0.339	-5.16451612903	1.97741935484	-1.04285714286	24.2004830918
679	0.3395	0.629032258065	0.529032258065	-1.04285714286	22.7898550725
680	0.34	-0.81935483871	1.97741935484	7.61428571429	14.3260869565
681	0.3405	-2.26774193548	1.97741935484	7.61428571429	18.5579710145
682	0.341	2.07741935484	15.0129032258	1.84285714286	22.7898550725
683	0.3415	-2.26774193548	0.529032258065	1.84285714286	18.5579710145
684	0.342	-6.61290322581	0.529032258065	4.72857142857	5.86231884058
685	0.3425	2.07741935484	1.97741935484	3.28571428571	8.68357487923
686	0.343	0.629032258065	1.97741935484	-1.04285714286	12.9154589372
687	0.3435	0.629032258065	-0.91935483871	-1.04285714286	21.3792270531
688	0.344	-0.81935483871	4.87419354839	0.4	18.5579710145
689	0.3445	6.42258064516	-5.26451612903	-1.04285714286	15.7367149758
690	0.345	-6.61290322581	0.529032258065	-2.48571428571	27.0217391304
691	0.3455	0.629032258065	0.529032258065	-11.1428571429	8.68357487923
692	0.346	-0.81935483871	1.97741935484	-3.92857142857	11.5048309179
693	0.3465	-0.81935483871	6.32258064516	1.84285714286	7.2729468599
694	0.347	0.629032258065	22.2548387097	1.84285714286	7.2729468599
695	0.3475	-2.26774193548	-2.36774193548	0.4	8.68357487923
696	0.348	-6.61290322581	0.529032258065	1.84285714286	11.5048309179
697	0.3485	-0.81935483871	3.42580645161	3.28571428571	-4.01207729469
698	0.349	-0.81935483871	0.529032258065	19.1571428571	5.86231884058
699	0.3495	-0.81935483871	-8.16129032258	-1.04285714286	7.2729468599
700	0.35	-0.81935483871	16.4612903226	1.84285714286	7.2729468599
701	0.3505	-5.16451612903	-0.91935483871	-1.04285714286	8.68357487923
702	0.351	-15.3032258065	0.529032258065	0.4	5.86231884058
703	0.3515	-0.81935483871	3.42580645161	6.17142857143	18.5579710145
704	0.352	-0.81935483871	1.97741935484	6.17142857143	3.04106280193
705	0.3525	-2.26774193548	1.97741935484	0.4	7.2729468599
706	0.353	-0.81935483871	12.1161290323	0.4	5.86231884058
707	0.3535	-0.81935483871	6.32258064516	0.4	7.2729468599
708	0.354	-8.06129032258	1.97741935484	-2.48571428571	5.86231884058
709	0.3545	0.629032258065	-0.91935483871	-1.04285714286	4.45169082126
710	0.355	-2.26774193548	1.97741935484	-1.04285714286	5.86231884058
711	0.3555	-0.81935483871	-0.91935483871	-5.37142857143	17.1473429952
712	0.356	-3.71612903226	10.6677419355	1.84285714286	14.3260869565
713	0.3565	-3.71612903226	-0.91935483871	0.4	18.5579710145
714	0.357	-8.06129032258	0.529032258065	0.4	17.1473429952
715	0.3575	-9.50967741935	1.97741935484	0.4	28.4323671498
716	0.358	-3.71612903226	0.529032258065	-2.48571428571	17.1473429952
717	0.3585	-0.81935483871	0.529032258065	3.28571428571	15.7367149758
718	0.359	0.629032258065	9.21935483871	1.84285714286	15.7367149758
719	0.3595	-2.26774193548	-0.91935483871	0.4	15.7367149758
720	0.36	-15.3032258065	0.529032258065	0.4	18.5579710145
721	0.3605	-5.16451612903	1.97741935484	0.4	11.5048309179
722	0.361	-0.81935483871	1.97741935484	-8.25714285714	7.2729468599
723	0.3615	-2.26774193548	-0.91935483871	-8.25714285714	5.86231884058
724	0.362	-0.81935483871	-6.71290322581	0.4	4.45169082126
725	0.3625	0.629032258065	17.9096774194	1.84285714286	3.04106280193
726	0.363	-5.16451612903	-0.91935483871	3.28571428571	-1.19082125604
727	0.3635	-5.16451612903	0.529032258065	1.84285714286	7.2729468599
728	0.364	0.629032258065	0.529032258065	-8.25714285714	4.45169082126
729	0.3645	-2.26774193548	-2.36774193548	-2.48571428571	-1.19082125604
730	0.365	0.629032258065	15.0129032258	-1.04285714286	-2.60144927536
731	0.3655	-2.26774193548	9.21935483871	-3.92857142857	-4.01207729469
732	0.366	-12.4064516129	1.97741935484	-1.04285714286	-4.01207729469
733	0.3665	0.629032258065	1.97741935484	3.28571428571	1.63043478261
734	0.367	-0.81935483871	0.529032258065	6.17142857143	3.04106280193
735	0.3675	-0.81935483871	0.529032258065	-3.92857142857	4.45169082126
736	0.368	-0.81935483871	-5.26451612903	-1.04285714286	4.45169082126
737	0.3685	-0.81935483871	6.32258064516	0.4	4.45169082126
738	0.369	10.7677419355	0.529032258065	1.84285714286	-1.19082125604
739	0.3695	-3.71612903226	1.97741935484	-1.04285714286	5.86231884058
740	0.37	-2.26774193548	0.529032258065	-8.25714285714	7.2729468599
741	0.3705	0.629032258065	0.529032258065	0.4	8.68357487923
742	0.371	-2.26774193548	-6.71290322581	-1.04285714286	12.9154589372
743	0.3715	-0.81935483871	3.42580645161	-1.04285714286	15.7367149758
744	0.372	6.42258064516	-0.91935483871	1.84285714286	18.5579710145
745	0.3725	7.87096774194	0.529032258065	-1.04285714286	25.6111111111
746	0.373	-0.81935483871	-0.91935483871	1.84285714286	32.6642512077
747	0.3735	-3.71612903226	0.529032258065	9.05714285714	27.0217391304
748	0.374	-0.81935483871	-11.0580645161	1.84285714286	25.6111111111
749	0.3745	-0.81935483871	-0.91935483871	3.28571428571	22.7898550725
750	0.375	3.52580645161	0.529032258065	0.4	21.3792270531
751	0.3755	12.2161290323	-0.91935483871	-1.04285714286	18.5579710145
752	0.376	-0.81935483871	-0.91935483871	-6.81428571429	14.3260869565
753	0.3765	0.629032258065	-2.36774193548	-5.37142857143	14.3260869565
754	0.377	0.629032258065	0.529032258065	0.4	19.9685990338
755	0.3775	2.07741935484	-9.60967741935	0.4	15.7367149758
756	0.378	4.97419354839	-2.36774193548	1.84285714286	12.9154589372
757	0.3785	18.0096774194	3.42580645161	0.4	11.5048309179
758	0.379	0.629032258065	0.529032258065	-12.5857142857	5.86231884058
759	0.3795	-2.26774193548	0.529032258065	-5.37142857143	0.219806763285
760	0.38	0.629032258065	4.87419354839	0.4	5.86231884058
761	0.3805	-0.81935483871	20.8064516129	0.4	5.86231884058
762	0.381	-15.3032258065	0.529032258065	-1.04285714286	7.2729468599
763	0.3815	20.9064516129	-2.36774193548	-1.04285714286	5.86231884058
764	0.382	-0.81935483871	0.529032258065	-2.48571428571	-5.42270531401
765	0.3825	0.629032258065	0.529032258065	-12.5857142857	7.2729468599
766	0.383	0.629032258065	4.87419354839	0.4	8.68357487923
767	0.3835	-0.81935483871	-11.0580645161	-1.04285714286	7.2729468599
768	0.384	4.97419354839	-6.71290322581	0.4	8.68357487923
769	0.3845	22.3548387097	0.529032258065	-1.04285714286	5.86231884058
770	0.385	-2.26774193548	0.529032258065	-1.04285714286	-1.19082125604
771	0.3855	0.629032258065	3.42580645161	-9.7	11.5048309179
772	0.386	-2.26774193548	1.97741935484	-8.25714285714	5.86231884058
773	0.3865	-2.26774193548	20.8064516129	0.4	5.86231884058
774	0.387	-9.50967741935	1.97741935484	-3.92857142857	5.86231884058
775	0.3875	10.7677419355	0.529032258065	-2.48571428571	11.5048309179
776	0.388	-2.26774193548	0.529032258065	1.84285714286	5.86231884058
777	0.3885	-2.26774193548	0.529032258065	-1.04285714286	7.2729468599
778	0.389	-2.26774193548	1.97741935484	-3.92857142857	17.1473429952
779	0.3895	0.629032258065	-0.91935483871	0.4	17.1473429952
780	0.39	2.07741935484	-5.26451612903	1.84285714286	15.7367149758
781	0.3905	-2.26774193548	0.529032258065	0.4	27.0217391304
782	0.391	-2.26774193548	0.529032258065	4.72857142857	21.3792270531
783	0.3915	-0.81935483871	0.529032258065	19.1571428571	18.5579710145
784	0.392	3.52580645161	1.97741935484	3.28571428571	18.5579710145
785	0.3925	-0.81935483871	-9.60967741935	1.84285714286	17.1473429952
786	0.393	-5.16451612903	-0.91935483871	1.84285714286	14.3260869565
787	0.3935	12.2161290323	0.529032258065	1.84285714286	5.86231884058
788	0.394	0.629032258065	0.529032258065	1.84285714286	18.5579710145
789	0.3945	2.07741935484	0.529032258065	3.28571428571	8.68357487923
790	0.395	-2.26774193548	3.42580645161	0.4	4.45169082126
791	0.3955	-2.26774193548	0.529032258065	0.4	4.45169082126
792	0.396	-10.9580645161	1.97741935484	-1.04285714286	1.63043478261
793	0.3965	-8.06129032258	-0.91935483871	-1.04285714286	8.68357487923
794	0.397	-0.81935483871	0.529032258065	3.28571428571	-1.19082125604
795	0.3975	0.629032258065	-2.36774193548	3.28571428571	-1.19082125604
796	0.398	0.629032258065	19.3580645161	0.4	-1.19082125604
797	0.3985	-0.81935483871	-0.91935483871	1.84285714286	0.219806763285
798	0.399	-12.4064516129	1.97741935484	-1.04285714286	-4.01207729469
799	0.3995	-10.9580645161	1.97741935484	0.4	15.7367149758
800	0.4	0.629032258065	0.529032258065	19.1571428571	-1.19082125604
801	0.4005	-0.81935483871	-2.36774193548	17.7142857143	1.63043478261
802	0.401	-2.26774193548	0.529032258065	1.84285714286	1.63043478261
803	0.4015	-0.81935483871	0.529032258065	-1.04285714286	1.63043478261
804	0.402	12.2161290323	0.529032258065	1.84285714286	-1.19082125604
805	0.4025	0.629032258065	-0.91935483871	1.84285714286	4.45169082126
806	0.403	-3.71612903226	-0.91935483871	0.4	21.3792270531
807	0.4035	-2.26774193548	0.529032258065	3.28571428571	7.2729468599
808	0.404	-2.26774193548	0.529032258065	-1.04285714286	8.68357487923
809	0.4045	-2.26774193548	-5.26451612903	-1.04285714286	12.9154589372
810	0.405	-0.81935483871	-2.36774193548	0.4	7.2729468599
811	0.4055	-6.61290322581	-0.91935483871	-1.04285714286	11.5048309179
812	0.406	0.629032258065	0.529032258065	-11.1428571429	19.9685990338
813	0.4065	0.629032258065	1.97741935484	-9.7	18.5579710145
814	0.407	3.52580645161	20.8064516129	-1.04285714286	19.9685990338
815	0.4075	-2.26774193548	0.529032258065	0.4	18.5579710145
816	0.408	-0.81935483871	-0.91935483871	-1.04285714286	15.7367149758
817	0.4085	-0.81935483871	0.529032258065	4.72857142857	11.5048309179
818	0.409	0.629032258065	1.97741935484	20.6	15.7367149758
819	0.4095	0.629032258065	-2.36774193548	20.6	15.7367149758
820	0.41	-0.81935483871	-5.26451612903	3.28571428571	12.9154589372
821	0.4105	-0.81935483871	-2.36774193548	0.4	8.68357487923
822	0.411	12.2161290323	0.529032258065	0.4	4.45169082126
823	0.4115	0.629032258065	0.529032258065	-1.04285714286	0.219806763285
824	0.412	-0.81935483871	0.529032258065	-1.04285714286	4.45169082126
825	0.4125	-3.71612903226	1.97741935484	-1.04285714286	0.219806763285
826	0.413	-2.26774193548	-2.36774193548	3.28571428571	-2.60144927536
827	0.4135	4.97419354839	0.529032258065	3.28571428571	-4.01207729469
828	0.414	20.9064516129	0.529032258065	3.28571428571	-15.2971014493
829	0.4145	-0.81935483871	0.529032258065	3.28571428571	-12.4758454106
830	0.415	0.629032258065	0.529032258065	22.0428571429	-5.42270531401
831	0.4155	0.629032258065	-6.71290322581	0.4	-2.60144927536
832	0.416	0.629032258065	13.564516129	3.28571428571	-2.60144927536
833	0.4165	-0.81935483871	3.42580645161	0.4	-4.01207729469
834	0.417	-6.61290322581	0.529032258065	-1.04285714286	-2.60144927536
835	0.4175	2.07741935484	-3.81612903226	0.4	-6.83333333333
836	0.418	0.629032258065	-2.36774193548	1.84285714286	-5.42270531401
837	0.4185	2.07741935484	-8.16129032258	0.4	-8.24396135266
838	0.419	-0.81935483871	0.529032258065	0.4	-11.0652173913
839	0.4195	10.7677419355	0.529032258065	-3.92857142857	-8.24396135266
840	0.42	-0.81935483871	0.529032258065	-1.04285714286	-6.83333333333
841	0.4205	-0.81935483871	3.42580645161	0.4	-9.65458937198
842	0.421	0.629032258065	-0.91935483871	-1.04285714286	0.219806763285
843	0.4215	2.07741935484	0.529032258065	-5.37142857143	-2.60144927536
844	0.422	0.629032258065	6.32258064516	-1.04285714286	-1.19082125604
845	0.4225	0.629032258065	0.529032258065	-1.04285714286	-1.19082125604
846	0.423	9.31935483871	0.529032258065	-2.48571428571	0.219806763285
847	0.4235	0.629032258065	0.529032258065	-3.92857142857	-5.42270531401
848	0.424	-2.26774193548	-0.91935483871	14.8285714286	3.04106280193
849	0.4245	-0.81935483871	-0.91935483871	0.4	3.04106280193
850	0.425	0.629032258065	-8.16129032258	3.28571428571	4.45169082126
851	0.4255	-3.71612903226	0.529032258065	0.4	7.2729468599
852	0.426	9.31935483871	-0.91935483871	1.84285714286	3.04106280193
853	0.4265	2.07741935484	-0.91935483871	3.28571428571	-4.01207729469
854	0.427	0.629032258065	1.97741935484	-3.92857142857	3.04106280193
855	0.4275	2.07741935484	1.97741935484	-6.81428571429	-1.19082125604
856	0.428	0.629032258065	13.564516129	-1.04285714286	-1.19082125604
857	0.4285	0.629032258065	0.529032258065	4.72857142857	-1.19082125604
858	0.429	-8.06129032258	0.529032258065	1.84285714286	-5.42270531401
859	0.4295	0.629032258065	0.529032258065	-1.04285714286	-13.88647343
860	0.43	0.629032258065	-0.91935483871	-3.92857142857	-9.65458937198
861	0.4305	-0.81935483871	0.529032258065	-8.25714285714	-6.83333333333
862	0.431	0.629032258065	-0.91935483871	-8.25714285714	-5.42270531401
863	0.4315	0.629032258065	0.529032258065	-3.92857142857	-5.42270531401
864	0.432	2.07741935484	1.97741935484	0.4	-9.65458937198
865	0.4325	-3.71612903226	0.529032258065	-1.04285714286	3.04106280193
866	0.433	0.629032258065	3.42580645161	-6.81428571429	0.219806763285
867	0.4335	0.629032258065	1.97741935484	-2.48571428571	3.04106280193
868	0.434	-0.81935483871	1.97741935484	-1.04285714286	4.45169082126
869	0.4345	-3.71612903226	-3.81612903226	-1.04285714286	4.45169082126
870	0.435	-6.61290322581	1.97741935484	-1.04285714286	-5.42270531401
871	0.4355	-2.26774193548	0.529032258065	-2.48571428571	-6.83333333333
872	0.436	-0.81935483871	0.529032258065	-14.0285714286	-1.19082125604
873	0.4365	-2.26774193548	0.529032258065	-14.0285714286	5.86231884058
874	0.437	-0.81935483871	16.4612903226	-2.48571428571	10.0942028986
875	0.4375	-3.71612903226	-0.91935483871	-3.92857142857	17.1473429952
876	0.438	-16.7516129032	1.97741935484	0.4	19.9685990338
877	0.4385	-8.06129032258	0.529032258065	-2.48571428571	21.3792270531
878	0.439	-0.81935483871	3.42580645161	17.7142857143	22.7898550725
879	0.4395	-0.81935483871	6.32258064516	-1.04285714286	24.2004830918
880	0.44	-2.26774193548	15.0129032258	0.4	21.3792270531
881	0.4405	-2.26774193548	-5.26451612903	-1.04285714286	19.9685990338
882	0.441	-10.9580645161	0.529032258065	0.4	21.3792270531
883	0.4415	-3.71612903226	0.529032258065	4.72857142857	21.3792270531
884	0.442	0.629032258065	-0.91935483871	14.8285714286	19.9685990338
885	0.4425	0.629032258065	-0.91935483871	1.84285714286	19.9685990338
886	0.443	2.07741935484	-9.60967741935	3.28571428571	17.1473429952
887	0.4435	3.52580645161	-6.71290322581	-1.04285714286	12.9154589372
888	0.444	18.0096774194	0.529032258065	0.4	3.04106280193
889	0.4445	0.629032258065	0.529032258065	1.84285714286	1.63043478261
890	0.445	2.07741935484	3.42580645161	-1.04285714286	-1.19082125604
891	0.4455	0.629032258065	-0.91935483871	-3.92857142857	4.45169082126
892	0.446	2.07741935484	1.97741935484	-8.25714285714	1.63043478261
893	0.4465	0.629032258065	-5.26451612903	3.28571428571	-1.19082125604
894	0.447	0.629032258065	1.97741935484	0.4	-2.60144927536
895	0.4475	9.31935483871	1.97741935484	0.4	-4.01207729469
896	0.448	-0.81935483871	1.97741935484	3.28571428571	-2.60144927536
897	0.4485	-0.81935483871	1.97741935484	6.17142857143	-4.01207729469
898	0.449	0.629032258065	-8.16129032258	0.4	-8.24396135266
899	0.4495	-3.71612903226	9.21935483871	0.4	-9.65458937198
900	0.45	-13.8548387097	1.97741935484	0.4	-8.24396135266
901	0.4505	-9.50967741935	-0.91935483871	1.84285714286	-2.60144927536
902	0.451	0.629032258065	-0.91935483871	16.2714285714	-6.83333333333
903	0.4515	-0.81935483871	-0.91935483871	-8.25714285714	-4.01207729469
904	0.452	-2.26774193548	-2.36774193548	-6.81428571429	-6.83333333333
905	0.4525	-2.26774193548	1.97741935484	-1.04285714286	-5.42270531401
906	0.453	9.31935483871	-2.36774193548	1.84285714286	-16.7077294686
907	0.4535	0.629032258065	3.42580645161	-3.92857142857	-16.7077294686
908	0.454	-0.81935483871	1.97741935484	-2.48571428571	14.3260869565
909	0.4545	-0.81935483871	0.529032258065	-1.04285714286	4.45169082126
910	0.455	0.629032258065	16.4612903226	-1.04285714286	11.5048309179
911	0.4555	0.629032258065	-3.81612903226	0.4	14.3260869565
912	0.456	10.7677419355	0.529032258065	-2.48571428571	15.7367149758
913	0.4565	-0.81935483871	-0.91935483871	3.28571428571	27.0217391304
914	0.457	-2.26774193548	-2.36774193548	4.72857142857	11.5048309179
915	0.4575	0.629032258065	0.529032258065	13.3857142857	14.3260869565
916	0.458	0.629032258065	-6.71290322581	0.4	11.5048309179
917	0.4585	3.52580645161	0.529032258065	1.84285714286	7.2729468599
918	0.459	19.4580645161	-2.36774193548	1.84285714286	-5.42270531401
919	0.4595	-0.81935483871	-0.91935483871	1.84285714286	-4.01207729469
920	0.46	0.629032258065	3.42580645161	-6.81428571429	3.04106280193
921	0.4605	-2.26774193548	0.529032258065	0.4	3.04106280193
922	0.461	-0.81935483871	16.4612903226	0.4	1.63043478261
923	0.4615	-3.71612903226	-0.91935483871	0.4	3.04106280193
924	0.462	-5.16451612903	1.97741935484	0.4	-1.19082125604
925	0.4625	-2.26774193548	1.97741935484	-6.81428571429	-4.01207729469
926	0.463	-0.81935483871	0.529032258065	9.05714285714	-6.83333333333
927	0.4635	-0.81935483871	-0.91935483871	9.05714285714	-1.19082125604
928	0.464	0.629032258065	1.97741935484	1.84285714286	-1.19082125604
929	0.4645	4.97419354839	0.529032258065	3.28571428571	-4.01207729469
930	0.465	16.5612903226	0.529032258065	3.28571428571	-12.4758454106
931	0.4655	2.07741935484	-3.81612903226	4.72857142857	-11.0652173913
932	0.466	-2.26774193548	1.97741935484	16.2714285714	-9.65458937198
933	0.4665	-0.81935483871	-0.91935483871	-1.04285714286	-9.65458937198
934	0.467	0.629032258065	-6.71290322581	3.28571428571	-6.83333333333
935	0.4675	4.97419354839	-0.91935483871	0.4	-9.65458937198
936	0.468	-10.9580645161	-2.36774193548	-1.04285714286	-9.65458937198
937	0.4685	0.629032258065	3.42580645161	0.4	-9.65458937198
938	0.469	-0.81935483871	1.97741935484	-1.04285714286	-6.83333333333
939	0.4695	0.629032258065	3.42580645161	-6.81428571429	-12.4758454106
940	0.47	0.629032258065	3.42580645161	0.4	-13.88647343
941	0.4705	2.07741935484	-3.81612903226	1.84285714286	-11.0652173913
942	0.471	-8.06129032258	-3.81612903226	-1.04285714286	-13.88647343
943	0.4715	-3.71612903226	0.529032258065	-1.04285714286	-13.88647343
944	0.472	-0.81935483871	-2.36774193548	-3.92857142857	-13.88647343
945	0.4725	-0.81935483871	1.97741935484	-11.1428571429	-6.83333333333
946	0.473	-0.81935483871	16.4612903226	-1.04285714286	-2.60144927536
947	0.4735	-0.81935483871	0.529032258065	1.84285714286	3.04106280193
948	0.474	-10.9580645161	-0.91935483871	-1.04285714286	1.63043478261
949	0.4745	-6.61290322581	0.529032258065	1.84285714286	4.45169082126
950	0.475	2.07741935484	0.529032258065	4.72857142857	-2.60144927536
951	0.4755	0.629032258065	-2.36774193548	0.4	5.86231884058
952	0.476	0.629032258065	-11.0580645161	0.4	5.86231884058
953	0.4765	3.52580645161	-11.0580645161	3.28571428571	1.63043478261
954	0.477	19.4580645161	0.529032258065	4.72857142857	1.63043478261
955	0.4775	-0.81935483871	0.529032258065	0.4	-8.24396135266
956	0.478	0.629032258065	1.97741935484	-5.37142857143	3.04106280193
957	0.4785	-0.81935483871	-0.91935483871	4.72857142857	-6.83333333333
958	0.479	-0.81935483871	-3.81612903226	0.4	-5.42270531401
959	0.4795	2.07741935484	-9.60967741935	-1.04285714286	-6.83333333333
960	0.48	16.5612903226	-0.91935483871	1.84285714286	-9.65458937198
961	0.4805	-6.61290322581	0.529032258065	0.4	-8.24396135266
962	0.481	0.629032258065	0.529032258065	6.17142857143	-5.42270531401
963	0.4815	2.07741935484	0.529032258065	-5.37142857143	-2.60144927536
964	0.482	0.629032258065	3.42580645161	-2.48571428571	-2.60144927536
965	0.4825	3.52580645161	-5.26451612903	0.4	0.219806763285
966	0.483	-5.16451612903	1.97741935484	0.4	1.63043478261
967	0.4835	0.629032258065	0.529032258065	0.4	8.68357487923
968	0.484	0.629032258065	-0.91935483871	3.28571428571	3.04106280193
969	0.4845	0.629032258065	1.97741935484	-6.81428571429	3.04106280193
970	0.485	2.07741935484	-6.71290322581	-1.04285714286	0.219806763285
971	0.4855	2.07741935484	-0.91935483871	0.4	0.219806763285
972	0.486	12.2161290323	-0.91935483871	0.4	1.63043478261
973	0.4865	0.629032258065	0.529032258065	1.84285714286	5.86231884058
974	0.487	0.629032258065	0.529032258065	11.9428571429	4.45169082126
975	0.4875	-0.81935483871	-0.91935483871	9.05714285714	4.45169082126
976	0.488	-3.71612903226	-9.60967741935	3.28571428571	4.45169082126
977	0.4885	3.52580645161	-2.36774193548	1.84285714286	5.86231884058
978	0.489	-9.50967741935	-0.91935483871	0.4	7.2729468599
979	0.4895	-2.26774193548	0.529032258065	1.84285714286	8.68357487923
980	0.49	-2.26774193548	3.42580645161	13.3857142857	5.86231884058
981	0.4905	2.07741935484	0.529032258065	9.05714285714	10.0942028986
982	0.491	2.07741935484	-11.0580645161	1.84285714286	7.2729468599
983	0.4915	4.97419354839	-3.81612903226	0.4	7.2729468599
984	0.492	-10.9580645161	-0.91935483871	3.28571428571	8.68357487923
985	0.4925	-0.81935483871	0.529032258065	4.72857142857	8.68357487923
986	0.493	0.629032258065	0.529032258065	-3.92857142857	-1.19082125604
987	0.4935	0.629032258065	4.87419354839	-2.48571428571	1.63043478261
988	0.494	-0.81935483871	-0.91935483871	4.72857142857	1.63043478261
989	0.4945	0.629032258065	-6.71290322581	0.4	-1.19082125604
990	0.495	0.629032258065	1.97741935484	3.28571428571	-1.19082125604
991	0.4955	-9.50967741935	1.97741935484	0.4	-1.19082125604
992	0.496	-0.81935483871	0.529032258065	3.28571428571	11.5048309179
993	0.4965	0.629032258065	0.529032258065	4.72857142857	-11.0652173913
994	0.497	0.629032258065	-11.0580645161	0.4	-6.83333333333
995	0.4975	-0.81935483871	-2.36774193548	0.4	-8.24396135266
996	0.498	3.52580645161	3.42580645161	0.4	-9.65458937198
997	0.4985	19.4580645161	4.87419354839	-1.04285714286	-19.5289855072
998	0.499	0.629032258065	1.97741935484	-1.04285714286	-19.5289855072
999	0.4995	3.52580645161	4.87419354839	-8.25714285714	-12.4758454106
1000	0.5	-0.81935483871	3.42580645161	-2.48571428571	-12.4758454106
1001	0.5005	0.629032258065	19.3580645161	0.4	-6.83333333333
1002	0.501	-0.81935483871	3.42580645161	0.4	-2.60144927536
1003	0.5015	-5.16451612903	3.42580645161	-1.04285714286	-9.65458937198
1004	0.502	0.629032258065	0.529032258065	-2.48571428571	-13.88647343
1005	0.5025	0.629032258065	3.42580645161	4.72857142857	-15.2971014493
1006	0.503	-0.81935483871	1.97741935484	6.17142857143	-8.24396135266
1007	0.5035	0.629032258065	13.564516129	-2.48571428571	-6.83333333333
1008	0.504	3.52580645161	-0.91935483871	-2.48571428571	-8.24396135266
1009	0.5045	-12.4064516129	-3.81612903226	-1.04285714286	-6.83333333333
1010	0.505	0.629032258065	1.97741935484	0.4	-6.83333333333
1011	0.5055	2.07741935484	-0.91935483871	3.28571428571	-6.83333333333
1012	0.506	0.629032258065	-0.91935483871	-5.37142857143	-4.01207729469
1013	0.5065	3.52580645161	17.9096774194	-1.04285714286	-1.19082125604
1014	0.507	0.629032258065	-0.91935483871	1.84285714286	1.63043478261
1015	0.5075	-9.50967741935	0.529032258065	1.84285714286	0.219806763285
1016	0.508	-5.16451612903	0.529032258065	-1.04285714286	18.5579710145
1017	0.5085	-0.81935483871	-0.91935483871	14.8285714286	1.63043478261
1018	0.509	0.629032258065	-0.91935483871	20.6	-2.60144927536
1019	0.5095	-0.81935483871	-2.36774193548	1.84285714286	3.04106280193
1020	0.51	2.07741935484	-2.36774193548	4.72857142857	0.219806763285
1021	0.5105	10.7677419355	0.529032258065	1.84285714286	-1.19082125604
1022	0.511	-5.16451612903	0.529032258065	1.84285714286	-6.83333333333
1023	0.5115	2.07741935484	3.42580645161	-6.81428571429	4.45169082126
1024	0.512	-0.81935483871	4.87419354839	0.4	-4.01207729469
1025	0.5125	0.629032258065	6.32258064516	-1.04285714286	-4.01207729469
1026	0.513	-2.26774193548	1.97741935484	-2.48571428571	-2.60144927536
1027	0.5135	-8.06129032258	0.529032258065	-1.04285714286	-5.42270531401
1028	0.514	0.629032258065	1.97741935484	-6.81428571429	-4.01207729469
1029	0.5145	-0.81935483871	3.42580645161	-2.48571428571	0.219806763285
1030	0.515	-0.81935483871	6.32258064516	-3.92857142857	4.45169082126
1031	0.5155	-0.81935483871	20.8064516129	-1.04285714286	3.04106280193
1032	0.516	-2.26774193548	0.529032258065	-1.04285714286	4.45169082126
1033	0.5165	-8.06129032258	3.42580645161	-1.04285714286	-4.01207729469
1034	0.517	0.629032258065	0.529032258065	-1.04285714286	-1.19082125604
1035	0.5175	-0.81935483871	3.42580645161	0.4	0.219806763285
1036	0.518	-0.81935483871	-0.91935483871	-11.1428571429	4.45169082126
1037	0.5185	-0.81935483871	16.4612903226	0.4	5.86231884058
1038	0.519	-2.26774193548	-6.71290322581	-1.04285714286	0.219806763285
1039	0.5195	10.7677419355	0.529032258065	0.4	-5.42270531401
1040	0.52	-0.81935483871	0.529032258065	-1.04285714286	-8.24396135266
1041	0.5205	-0.81935483871	0.529032258065	-1.04285714286	7.2729468599
1042	0.521	-2.26774193548	-9.60967741935	1.84285714286	-1.19082125604
1043	0.5215	-0.81935483871	-3.81612903226	-1.04285714286	4.45169082126
1044	0.522	3.52580645161	0.529032258065	1.84285714286	3.04106280193
1045	0.5225	-15.3032258065	0.529032258065	-2.48571428571	3.04106280193
1046	0.523	0.629032258065	0.529032258065	3.28571428571	4.45169082126
1047	0.5235	0.629032258065	0.529032258065	9.05714285714	4.45169082126
1048	0.524	-2.26774193548	-5.26451612903	-2.48571428571	7.2729468599
1049	0.5245	0.629032258065	7.77096774194	-1.04285714286	5.86231884058
1050	0.525	-8.06129032258	-8.16129032258	-1.04285714286	5.86231884058
1051	0.5255	4.97419354839	0.529032258065	-1.04285714286	8.68357487923
1052	0.526	-0.81935483871	0.529032258065	-2.48571428571	1.63043478261
1053	0.5265	0.629032258065	0.529032258065	11.9428571429	-2.60144927536
1054	0.527	2.07741935484	-11.0580645161	1.84285714286	3.04106280193
1055	0.5275	2.07741935484	-8.16129032258	3.28571428571	-1.19082125604
1056	0.528	2.07741935484	0.529032258065	-2.48571428571	-1.19082125604
1057	0.5285	22.3548387097	0.529032258065	1.84285714286	-2.60144927536
1058	0.529	0.629032258065	0.529032258065	-3.92857142857	-9.65458937198
1059	0.5295	0.629032258065	3.42580645161	-6.81428571429	-6.83333333333
1060	0.53	0.629032258065	4.87419354839	-1.04285714286	-6.83333333333
1061	0.5305	-0.81935483871	-5.26451612903	-2.48571428571	-12.4758454106
1062	0.531	3.52580645161	-8.16129032258	-3.92857142857	-12.4758454106
1063	0.5315	22.3548387097	-0.91935483871	-3.92857142857	-12.4758454106
1064	0.532	-0.81935483871	1.97741935484	-9.7	-8.24396135266
1065	0.5325	0.629032258065	0.529032258065	-11.1428571429	-4.01207729469
1066	0.533	0.629032258065	-0.91935483871	-2.48571428571	-5.42270531401
1067	0.5335	-0.81935483871	-5.26451612903	-1.04285714286	-4.01207729469
1068	0.534	-6.61290322581	-2.36774193548	-1.04285714286	-11.0652173913
1069	0.5345	0.629032258065	1.97741935484	-1.04285714286	-8.24396135266
1070	0.535	-0.81935483871	-0.91935483871	-1.04285714286	-25.1714975845
1071	0.5355	0.629032258065	0.529032258065	-12.5857142857	-15.2971014493
1072	0.536	-2.26774193548	1.97741935484	-6.81428571429	-12.4758454106
1073	0.5365	0.629032258065	0.529032258065	0.4	-12.4758454106
1074	0.537	6.42258064516	-0.91935483871	-1.04285714286	-9.65458937198
1075	0.5375	-2.26774193548	0.529032258065	-2.48571428571	-5.42270531401
1076	0.538	-2.26774193548	1.97741935484	0.4	4.45169082126
1077	0.5385	-0.81935483871	0.529032258065	-1.04285714286	0.219806763285
1078	0.539	0.629032258065	-8.16129032258	-1.04285714286	3.04106280193
1079	0.5395	3.52580645161	17.9096774194	-1.04285714286	3.04106280193
1080	0.54	-3.71612903226	1.97741935484	-1.04285714286	3.04106280193
1081	0.5405	-5.16451612903	0.529032258065	-1.04285714286	0.219806763285
1082	0.541	0.629032258065	1.97741935484	1.84285714286	25.6111111111
1083	0.5415	-0.81935483871	3.42580645161	1.84285714286	15.7367149758
1084	0.542	2.07741935484	19.3580645161	0.4	15.7367149758
1085	0.5425	-2.26774193548	1.97741935484	1.84285714286	17.1473429952
1086	0.543	-12.4064516129	0.529032258065	0.4	14.3260869565
1087	0.5435	-8.06129032258	-2.36774193548	1.84285714286	5.86231884058
1088	0.544	2.07741935484	0.529032258065	-3.92857142857	5.86231884058
1089	0.5445	2.07741935484	1.97741935484	-5.37142857143	3.04106280193
1090	0.545	2.07741935484	-0.91935483871	1.84285714286	1.63043478261
1091	0.5455	0.629032258065	1.97741935484	-1.04285714286	-1.19082125604
1092	0.546	13.664516129	-0.91935483871	0.4	-9.65458937198
1093	0.5465	-3.71612903226	1.97741935484	-1.04285714286	-5.42270531401
1094	0.547	-0.81935483871	3.42580645161	-9.7	-5.42270531401
1095	0.5475	0.629032258065	3.42580645161	-8.25714285714	-6.83333333333
1096	0.548	0.629032258065	22.2548387097	-1.04285714286	-9.65458937198
1097	0.5485	-2.26774193548	-0.91935483871	0.4	-6.83333333333
1098	0.549	-13.8548387097	0.529032258065	0.4	-5.42270531401
1099	0.5495	-10.9580645161	3.42580645161	0.4	-1.19082125604
1100	0.55	-0.81935483871	1.97741935484	16.2714285714	-6.83333333333
1101	0.5505	-0.81935483871	0.529032258065	1.84285714286	-9.65458937198
1102	0.551	0.629032258065	1.97741935484	-1.04285714286	-6.83333333333
1103	0.5515	0.629032258065	-0.91935483871	-2.48571428571	-5.42270531401
1104	0.552	3.52580645161	0.529032258065	0.4	-6.83333333333
1105	0.5525	-5.16451612903	1.97741935484	-3.92857142857	-12.4758454106
1106	0.553	-0.81935483871	3.42580645161	-2.48571428571	-4.01207729469
1107	0.5535	-2.26774193548	7.77096774194	-3.92857142857	-5.42270531401
1108	0.554	-2.26774193548	16.4612903226	-1.04285714286	-5.42270531401
1109	0.5545	-3.71612903226	-0.91935483871	-1.04285714286	-1.19082125604
1110	0.555	-13.8548387097	0.529032258065	0.4	0.219806763285
1111	0.5555	-0.81935483871	0.529032258065	3.28571428571	-6.83333333333
1112	0.556	-2.26774193548	-0.91935483871	4.72857142857	-4.01207729469
1113	0.5565	-0.81935483871	-0.91935483871	-8.25714285714	4.45169082126
1114	0.557	0.629032258065	1.97741935484	-1.04285714286	7.2729468599
1115	0.5575	-0.81935483871	1.97741935484	1.84285714286	7.2729468599
1116	0.558	-5.16451612903	0.529032258065	-1.04285714286	8.68357487923
1117	0.5585	-0.81935483871	-0.91935483871	-1.04285714286	0.219806763285
1118	0.559	2.07741935484	0.529032258065	6.17142857143	4.45169082126
1119	0.5595	0.629032258065	0.529032258065	1.84285714286	4.45169082126
1120	0.56	-0.81935483871	4.87419354839	0.4	-1.19082125604
1121	0.5605	-2.26774193548	-6.71290322581	1.84285714286	-2.60144927536
1122	0.561	-0.81935483871	0.529032258065	1.84285714286	-13.88647343
1123	0.5615	-0.81935483871	1.97741935484	1.84285714286	-13.88647343
1124	0.562	0.629032258065	0.529032258065	-9.7	-11.0652173913
1125	0.5625	3.52580645161	3.42580645161	-1.04285714286	-13.88647343
1126	0.563	0.629032258065	17.9096774194	-1.04285714286	-9.65458937198
1127	0.5635	-0.81935483871	19.3580645161	-1.04285714286	-13.88647343
1128	0.564	-12.4064516129	0.529032258065	-1.04285714286	-9.65458937198
1129	0.5645	2.07741935484	0.529032258065	0.4	-20.9396135266
1130	0.565	-0.81935483871	1.97741935484	-1.04285714286	-18.1183574879
1131	0.5655	2.07741935484	1.97741935484	-6.81428571429	-15.2971014493
1132	0.566	-0.81935483871	-5.26451612903	-5.37142857143	-13.88647343
1133	0.5665	2.07741935484	0.529032258065	1.84285714286	-12.4758454106
1134	0.567	19.4580645161	0.529032258065	1.84285714286	-23.7608695652
1135	0.5675	-0.81935483871	-0.91935483871	1.84285714286	-18.1183574879
1136	0.568	-0.81935483871	3.42580645161	-12.5857142857	-15.2971014493
1137	0.5685	-0.81935483871	3.42580645161	-1.04285714286	-11.0652173913
1138	0.569	0.629032258065	22.2548387097	-1.04285714286	-11.0652173913
1139	0.5695	-0.81935483871	0.529032258065	-1.04285714286	-6.83333333333
1140	0.57	-12.4064516129	1.97741935484	1.84285714286	-4.01207729469
1141	0.5705	-2.26774193548	0.529032258065	-1.04285714286	-13.88647343
1142	0.571	-2.26774193548	0.529032258065	11.9428571429	-2.60144927536
1143	0.5715	0.629032258065	0.529032258065	-2.48571428571	-1.19082125604
1144	0.572	2.07741935484	-0.91935483871	-2.48571428571	-4.01207729469
1145	0.5725	-5.16451612903	0.529032258065	0.4	-5.42270531401
1146	0.573	9.31935483871	-0.91935483871	0.4	-6.83333333333
1147	0.5735	-8.06129032258	0.529032258065	-1.04285714286	-6.83333333333
1148	0.574	0.629032258065	0.529032258065	-1.04285714286	4.45169082126
1149	0.5745	0.629032258065	4.87419354839	3.28571428571	-1.19082125604
1150	0.575	0.629032258065	10.6677419355	0.4	0.219806763285
1151	0.5755	-2.26774193548	-5.26451612903	3.28571428571	3.04106280193
1152	0.576	-8.06129032258	3.42580645161	3.28571428571	7.2729468599
1153	0.5765	-0.81935483871	1.97741935484	0.4	8.68357487923
1154	0.577	3.52580645161	3.42580645161	17.7142857143	-5.42270531401
1155	0.5775	0.629032258065	3.42580645161	1.84285714286	-8.24396135266
1156	0.578	3.52580645161	20.8064516129	0.4	-6.83333333333
1157	0.5785	-0.81935483871	0.529032258065	1.84285714286	-1.19082125604
1158	0.579	-9.50967741935	0.529032258065	0.4	-8.24396135266
1159	0.5795	-8.06129032258	0.529032258065	3.28571428571	-1.19082125604
1160	0.58	2.07741935484	0.529032258065	4.72857142857	-15.2971014493
1161	0.5805	0.629032258065	-0.91935483871	-1.04285714286	-11.0652173913
1162	0.581	0.629032258065	-11.0580645161	0.4	-13.88647343
1163	0.5815	3.52580645161	-0.91935483871	1.84285714286	-11.0652173913
1164	0.582	16.5612903226	1.97741935484	-1.04285714286	-13.88647343
1165	0.5825	-0.81935483871	1.97741935484	-1.04285714286	-9.65458937198
1166	0.583	-0.81935483871	0.529032258065	-12.5857142857	-16.7077294686
1167	0.5835	0.629032258065	1.97741935484	-2.48571428571	-15.2971014493
1168	0.584	2.07741935484	17.9096774194	0.4	-16.7077294686
1169	0.5845	-0.81935483871	0.529032258065	-1.04285714286	-13.88647343
1170	0.585	-5.16451612903	0.529032258065	-1.04285714286	-13.88647343
1171	0.5855	-5.16451612903	0.529032258065	-1.04285714286	-12.4758454106
1172	0.586	2.07741935484	0.529032258065	9.05714285714	-15.2971014493
1173	0.5865	0.629032258065	1.97741935484	-1.04285714286	-15.2971014493
1174	0.587	0.629032258065	9.21935483871	-1.04285714286	-15.2971014493
1175	0.5875	-0.81935483871	-0.91935483871	-1.04285714286	-15.2971014493
1176	0.588	-10.9580645161	1.97741935484	-3.92857142857	-12.4758454106
1177	0.5885	-2.26774193548	0.529032258065	1.84285714286	-19.5289855072
1178	0.589	0.629032258065	0.529032258065	19.1571428571	-12.4758454106
1179	0.5895	-0.81935483871	-3.81612903226	-9.7	-8.24396135266
1180	0.59	-0.81935483871	-12.5064516129	0.4	-11.0652173913
1181	0.5905	3.52580645161	0.529032258065	-2.48571428571	-4.01207729469
1182	0.591	-8.06129032258	0.529032258065	-1.04285714286	-2.60144927536
1183	0.5915	-8.06129032258	-0.91935483871	4.72857142857	8.68357487923
1184	0.592	2.07741935484	-2.36774193548	1.84285714286	-8.24396135266
1185	0.5925	0.629032258065	-0.91935483871	19.1571428571	-8.24396135266
1186	0.593	0.629032258065	-0.91935483871	1.84285714286	-8.24396135266
1187	0.5935	2.07741935484	-5.26451612903	1.84285714286	-8.24396135266
1188	0.594	-0.81935483871	0.529032258065	0.4	-9.65458937198
1189	0.5945	0.629032258065	0.529032258065	0.4	-8.24396135266
1190	0.595	0.629032258065	1.97741935484	1.84285714286	-20.9396135266
1191	0.5955	-0.81935483871	3.42580645161	-3.92857142857	-18.1183574879
1192	0.596	0.629032258065	4.87419354839	1.84285714286	-20.9396135266
1193	0.5965	2.07741935484	-3.81612903226	-2.48571428571	-19.5289855072
1194	0.597	-10.9580645161	1.97741935484	1.84285714286	-15.2971014493
1195	0.5975	0.629032258065	-0.91935483871	1.84285714286	-19.5289855072
1196	0.598	0.629032258065	0.529032258065	16.2714285714	-16.7077294686
1197	0.5985	0.629032258065	-2.36774193548	-1.04285714286	-12.4758454106
1198	0.599	-0.81935483871	-9.60967741935	1.84285714286	-13.88647343
1199	0.5995	0.629032258065	3.42580645161	0.4	-13.88647343
1200	0.6	20.9064516129	0.529032258065	-1.04285714286	-11.0652173913
1201	0.6005	-9.50967741935	1.97741935484	-1.04285714286	-12.4758454106
1202	0.601	0.629032258065	0.529032258065	-5.37142857143	-11.0652173913
1203	0.6015	0.629032258065	1.97741935484	-3.92857142857	-8.24396135266
1204	0.602	2.07741935484	-5.26451612903	-3.92857142857	-6.83333333333
1205	0.6025	7.87096774194	1.97741935484	0.4	-5.42270531401
1206	0.603	9.31935483871	1.97741935484	3.28571428571	-6.83333333333
1207	0.6035	-5.16451612903	0.529032258065	-1.04285714286	-12.4758454106
1208	0.604	-2.26774193548	0.529032258065	7.61428571429	-13.88647343
1209	0.6045	0.629032258065	3.42580645161	0.4	-12.4758454106
1210	0.605	-2.26774193548	1.97741935484	-1.04285714286	-12.4758454106
1211	0.6055	0.629032258065	-3.81612903226	1.84285714286	-6.83333333333
1212	0.606	10.7677419355	0.529032258065	3.28571428571	-9.65458937198
1213	0.6065	-6.61290322581	1.97741935484	0.4	-1.19082125604
1214	0.607	-0.81935483871	-2.36774193548	-1.04285714286	15.7367149758
1215	0.6075	-0.81935483871	0.529032258065	1.84285714286	0.219806763285
1216	0.608	0.629032258065	4.87419354839	1.84285714286	0.219806763285
1217	0.6085	-0.81935483871	-5.26451612903	1.84285714286	4.45169082126
1218	0.609	-8.06129032258	0.529032258065	3.28571428571	4.45169082126
1219	0.6095	0.629032258065	-0.91935483871	7.61428571429	7.2729468599
1220	0.61	0.629032258065	0.529032258065	3.28571428571	4.45169082126
1221	0.6105	0.629032258065	0.529032258065	0.4	0.219806763285
1222	0.611	2.07741935484	16.4612903226	1.84285714286	-5.42270531401
1223	0.6115	-2.26774193548	0.529032258065	1.84285714286	-4.01207729469
1224	0.612	-12.4064516129	-0.91935483871	0.4	-1.19082125604
1225	0.6125	-6.61290322581	0.529032258065	-1.04285714286	12.9154589372
1226	0.613	0.629032258065	4.87419354839	20.6	-6.83333333333
1227	0.6135	-0.81935483871	-0.91935483871	17.7142857143	-11.0652173913
1228	0.614	-0.81935483871	-11.0580645161	4.72857142857	-6.83333333333
1229	0.6145	6.42258064516	1.97741935484	6.17142857143	-6.83333333333
1230	0.615	19.4580645161	-2.36774193548	0.4	-2.60144927536
1231	0.6155	-8.06129032258	0.529032258065	3.28571428571	-1.19082125604
1232	0.616	-3.71612903226	3.42580645161	22.0428571429	-2.60144927536
1233	0.6165	-0.81935483871	0.529032258065	3.28571428571	-5.42270531401
1234	0.617	-0.81935483871	-8.16129032258	1.84285714286	-1.19082125604
1235	0.6175	-0.81935483871	-8.16129032258	-1.04285714286	-4.01207729469
1236	0.618	16.5612903226	0.529032258065	0.4	-6.83333333333
1237	0.6185	0.629032258065	0.529032258065	0.4	-12.4758454106
1238	0.619	-0.81935483871	0.529032258065	-5.37142857143	-1.19082125604
1239	0.6195	-0.81935483871	0.529032258065	-5.37142857143	-2.60144927536
1240	0.62	0.629032258065	13.564516129	1.84285714286	-4.01207729469
1241	0.6205	-0.81935483871	3.42580645161	0.4	-1.19082125604
1242	0.621	-5.16451612903	0.529032258065	0.4	-2.60144927536
1243	0.6215	-8.06129032258	1.97741935484	3.28571428571	14.3260869565
1244	0.622	-2.26774193548	0.529032258065	-1.04285714286	-1.19082125604
1245	0.6225	0.629032258065	0.529032258065	-1.04285714286	4.45169082126
1246	0.623	-3.71612903226	7.77096774194	4.72857142857	7.2729468599
1247	0.6235	-2.26774193548	3.42580645161	3.28571428571	7.2729468599
1248	0.624	12.2161290323	0.529032258065	4.72857142857	0.219806763285
1249	0.6245	-3.71612903226	1.97741935484	3.28571428571	8.68357487923
1250	0.625	0.629032258065	0.529032258065	7.61428571429	4.45169082126
1251	0.6255	-0.81935483871	-0.91935483871	-1.04285714286	4.45169082126
1252	0.626	0.629032258065	-8.16129032258	3.28571428571	3.04106280193
1253	0.6265	2.07741935484	-0.91935483871	3.28571428571	4.45169082126
1254	0.627	16.5612903226	-0.91935483871	0.4	-1.19082125604
1255	0.6275	0.629032258065	0.529032258065	-1.04285714286	-1.19082125604
1256	0.628	0.629032258065	-0.91935483871	0.4	11.5048309179
1257	0.6285	0.629032258065	-0.91935483871	-1.04285714286	-5.42270531401
1258	0.629	-0.81935483871	-2.36774193548	0.4	-6.83333333333
1259	0.6295	-0.81935483871	-8.16129032258	1.84285714286	-9.65458937198
1260	0.63	0.629032258065	1.97741935484	-2.48571428571	-9.65458937198
1261	0.6305	-0.81935483871	-0.91935483871	-1.04285714286	-2.60144927536
1262	0.631	2.07741935484	1.97741935484	-2.48571428571	-9.65458937198
1263	0.6315	0.629032258065	0.529032258065	9.05714285714	-9.65458937198
1264	0.632	2.07741935484	6.32258064516	-1.04285714286	-12.4758454106
1265	0.6325	-2.26774193548	4.87419354839	-1.04285714286	-12.4758454106
1266	0.633	-8.06129032258	-0.91935483871	-1.04285714286	-9.65458937198
1267	0.6335	0.629032258065	1.97741935484	1.84285714286	-6.83333333333
1268	0.634	-2.26774193548	0.529032258065	0.4	-16.7077294686
1269	0.6345	0.629032258065	4.87419354839	-8.25714285714	-12.4758454106
1270	0.635	-2.26774193548	1.97741935484	-1.04285714286	-11.0652173913
1271	0.6355	0.629032258065	-12.5064516129	-1.04285714286	-9.65458937198
1272	0.636	2.07741935484	1.97741935484	-1.04285714286	-11.0652173913
1273	0.6365	16.5612903226	0.529032258065	-1.04285714286	-11.0652173913
1274	0.637	-5.16451612903	1.97741935484	-1.04285714286	4.45169082126
1275	0.6375	-2.26774193548	-0.91935483871	0.4	-13.88647343
1276	0.638	-0.81935483871	1.97741935484	-11.1428571429	-6.83333333333
1277	0.6385	-2.26774193548	17.9096774194	-1.04285714286	-4.01207729469
1278	0.639	-3.71612903226	-8.16129032258	1.84285714286	-5.42270531401
1279	0.6395	16.5612903226	-0.91935483871	0.4	-2.60144927536
1280	0.64	-8.06129032258	0.529032258065	1.84285714286	-1.19082125604
1281	0.6405	0.629032258065	-0.91935483871	-2.48571428571	-8.24396135266
1282	0.641	0.629032258065	0.529032258065	-3.92857142857	1.63043478261
1283	0.6415	-2.26774193548	-6.71290322581	0.4	1.63043478261
1284	0.642	0.629032258065	0.529032258065	1.84285714286	5.86231884058
1285	0.6425	9.31935483871	-0.91935483871	1.84285714286	4.45169082126
1286	0.643	0.629032258065	-0.91935483871	3.28571428571	-2.60144927536
1287	0.6435	0.629032258065	0.529032258065	-5.37142857143	4.45169082126
1288	0.644	0.629032258065	0.529032258065	-6.81428571429	-5.42270531401
1289	0.6445	2.07741935484	16.4612903226	1.84285714286	-2.60144927536
1290	0.645	-2.26774193548	0.529032258065	1.84285714286	-1.19082125604
1291	0.6455	-12.4064516129	1.97741935484	1.84285714286	-1.19082125604
1292	0.646	-8.06129032258	0.529032258065	-1.04285714286	-1.19082125604
1293	0.6465	0.629032258065	3.42580645161	17.7142857143	-6.83333333333
1294	0.647	0.629032258065	-2.36774193548	-1.04285714286	-6.83333333333
1295	0.6475	0.629032258065	-2.36774193548	0.4	-8.24396135266
1296	0.648	0.629032258065	13.564516129	-1.04285714286	-12.4758454106
1297	0.6485	0.629032258065	0.529032258065	0.4	-12.4758454106
1298	0.649	-8.06129032258	1.97741935484	0.4	-15.2971014493
1299	0.6495	-0.81935483871	1.97741935484	1.84285714286	-23.7608695652
1300	0.65	-2.26774193548	0.529032258065	-5.37142857143	-11.0652173913
1301	0.6505	-0.81935483871	0.529032258065	0.4	-12.4758454106
1302	0.651	-0.81935483871	9.21935483871	-2.48571428571	-12.4758454106
1303	0.6515	10.7677419355	0.529032258065	0.4	-18.1183574879
1304	0.652	-5.16451612903	-0.91935483871	4.72857142857	-12.4758454106
1305	0.6525	-3.71612903226	1.97741935484	-11.1428571429	-15.2971014493
1306	0.653	-0.81935483871	4.87419354839	-11.1428571429	-8.24396135266
1307	0.6535	-3.71612903226	-5.26451612903	-1.04285714286	-8.24396135266
1308	0.654	0.629032258065	-3.81612903226	-2.48571428571	-6.83333333333
1309	0.6545	-0.81935483871	0.529032258065	-2.48571428571	0.219806763285
1310	0.655	-5.16451612903	1.97741935484	0.4	-4.01207729469
1311	0.6555	-2.26774193548	1.97741935484	-1.04285714286	12.9154589372
1312	0.656	-2.26774193548	-0.91935483871	14.8285714286	3.04106280193
1313	0.6565	-3.71612903226	-11.0580645161	1.84285714286	4.45169082126
1314	0.657	-3.71612903226	17.9096774194	1.84285714286	3.04106280193
1315	0.6575	-10.9580645161	0.529032258065	0.4	4.45169082126
1316	0.658	-10.9580645161	1.97741935484	0.4	5.86231884058
1317	0.6585	0.629032258065	-0.91935483871	3.28571428571	14.3260869565
1318	0.659	-0.81935483871	-0.91935483871	4.72857142857	7.2729468599
1319	0.6595	2.07741935484	9.21935483871	0.4	7.2729468599
1320	0.66	-0.81935483871	0.529032258065	1.84285714286	3.04106280193
1321	0.6605	-5.16451612903	0.529032258065	-1.04285714286	4.45169082126
1322	0.661	0.629032258065	0.529032258065	0.4	14.3260869565
1323	0.6615	-0.81935483871	0.529032258065	0.4	0.219806763285
1324	0.662	0.629032258065	3.42580645161	-3.92857142857	-2.60144927536
1325	0.6625	-3.71612903226	0.529032258065	-1.04285714286	-8.24396135266
1326	0.663	0.629032258065	4.87419354839	-1.04285714286	-8.24396135266
1327	0.6635	-5.16451612903	-0.91935483871	-2.48571428571	-8.24396135266
1328	0.664	16.5612903226	0.529032258065	-2.48571428571	-9.65458937198
1329	0.6645	0.629032258065	-0.91935483871	-1.04285714286	-12.4758454106
1330	0.665	-0.81935483871	3.42580645161	-5.37142857143	-11.0652173913
1331	0.6655	0.629032258065	-2.36774193548	-1.04285714286	-5.42270531401
1332	0.666	0.629032258065	7.77096774194	-1.04285714286	-5.42270531401
1333	0.6665	0.629032258065	0.529032258065	1.84285714286	-8.24396135266
1334	0.667	-5.16451612903	1.97741935484	-1.04285714286	-5.42270531401
1335	0.6675	0.629032258065	0.529032258065	0.4	-4.01207729469
1336	0.668	-2.26774193548	-2.36774193548	1.84285714286	-6.83333333333
1337	0.6685	-2.26774193548	-9.60967741935	-2.48571428571	-6.83333333333
1338	0.669	2.07741935484	-2.36774193548	0.4	-5.42270531401
1339	0.6695	9.31935483871	-2.36774193548	-2.48571428571	-8.24396135266
1340	0.67	-9.50967741935	3.42580645161	-1.04285714286	11.5048309179
1341	0.6705	0.629032258065	0.529032258065	-1.04285714286	-4.01207729469
1342	0.671	-0.81935483871	0.529032258065	1.84285714286	-6.83333333333
1343	0.6715	-2.26774193548	3.42580645161	17.7142857143	-2.60144927536
1344	0.672	0.629032258065	-8.16129032258	-2.48571428571	-1.19082125604
1345	0.6725	-3.71612903226	-0.91935483871	0.4	-2.60144927536
1346	0.673	3.52580645161	-0.91935483871	-1.04285714286	1.63043478261
1347	0.6735	-0.81935483871	-0.91935483871	-1.04285714286	14.3260869565
1348	0.674	-0.81935483871	0.529032258065	14.8285714286	-1.19082125604
1349	0.6745	0.629032258065	-2.36774193548	17.7142857143	0.219806763285
1350	0.675	2.07741935484	19.3580645161	1.84285714286	-2.60144927536
1351	0.6755	0.629032258065	1.97741935484	0.4	-1.19082125604
1352	0.676	-6.61290322581	1.97741935484	3.28571428571	-2.60144927536
1353	0.6765	0.629032258065	0.529032258065	0.4	10.0942028986
1354	0.677	-0.81935483871	0.529032258065	3.28571428571	-16.7077294686
1355	0.6775	-0.81935483871	-3.81612903226	1.84285714286	-8.24396135266
1356	0.678	0.629032258065	-6.71290322581	0.4	-9.65458937198
1357	0.6785	-5.16451612903	0.529032258065	0.4	-9.65458937198
1358	0.679	3.52580645161	0.529032258065	3.28571428571	-8.24396135266
1359	0.6795	0.629032258065	0.529032258065	-9.7	-9.65458937198
1360	0.68	-0.81935483871	1.97741935484	-11.1428571429	-12.4758454106
1361	0.6805	-2.26774193548	3.42580645161	-1.04285714286	-12.4758454106
1362	0.681	3.52580645161	16.4612903226	-1.04285714286	-16.7077294686
1363	0.6815	-0.81935483871	1.97741935484	-1.04285714286	-18.1183574879
1364	0.682	9.31935483871	0.529032258065	0.4	-18.1183574879
1365	0.6825	-0.81935483871	0.529032258065	-1.04285714286	-18.1183574879
1366	0.683	-0.81935483871	0.529032258065	0.4	-12.4758454106
1367	0.6835	-3.71612903226	3.42580645161	-2.48571428571	-11.0652173913
1368	0.684	-2.26774193548	4.87419354839	-1.04285714286	-9.65458937198
1369	0.6845	-13.8548387097	0.529032258065	0.4	-5.42270531401
1370	0.685	-9.50967741935	0.529032258065	3.28571428571	5.86231884058
1371	0.6855	-0.81935483871	-0.91935483871	6.17142857143	-13.88647343
1372	0.686	-2.26774193548	0.529032258065	3.28571428571	-12.4758454106
1373	0.6865	0.629032258065	-5.26451612903	1.84285714286	-12.4758454106
1374	0.687	0.629032258065	-5.26451612903	0.4	-12.4758454106
1375	0.6875	-5.16451612903	0.529032258065	1.84285714286	-12.4758454106
1376	0.688	7.87096774194	3.42580645161	0.4	-11.0652173913
1377	0.6885	-2.26774193548	0.529032258065	7.61428571429	-6.83333333333
1378	0.689	-0.81935483871	1.97741935484	0.4	-6.83333333333
1379	0.6895	0.629032258065	1.97741935484	-1.04285714286	-4.01207729469
1380	0.69	2.07741935484	16.4612903226	3.28571428571	-2.60144927536
1381	0.6905	-13.8548387097	0.529032258065	-1.04285714286	-2.60144927536
1382	0.691	-9.50967741935	-2.36774193548	3.28571428571	15.7367149758
1383	0.6915	-2.26774193548	1.97741935484	4.72857142857	-1.19082125604
1384	0.692	-0.81935483871	-2.36774193548	4.72857142857	0.219806763285
1385	0.6925	2.07741935484	-11.0580645161	4.72857142857	3.04106280193
1386	0.693	3.52580645161	-8.16129032258	3.28571428571	1.63043478261
1387	0.6935	-2.26774193548	0.529032258065	3.28571428571	-1.19082125604
1388	0.694	12.2161290323	-0.91935483871	3.28571428571	-4.01207729469
1389	0.6945	0.629032258065	0.529032258065	-3.92857142857	-5.42270531401
1390	0.695	-2.26774193548	-0.91935483871	3.28571428571	-6.83333333333
1391	0.6955	0.629032258065	-9.60967741935	1.84285714286	-12.4758454106
1392	0.696	0.629032258065	0.529032258065	0.4	-16.7077294686
1393	0.6965	3.52580645161	-2.36774193548	-1.04285714286	-15.2971014493
1394	0.697	-3.71612903226	0.529032258065	-1.04285714286	-11.0652173913
1395	0.6975	0.629032258065	1.97741935484	1.84285714286	-9.65458937198
1396	0.698	-0.81935483871	1.97741935484	13.3857142857	-20.9396135266
1397	0.6985	-2.26774193548	-9.60967741935	-2.48571428571	-15.2971014493
1398	0.699	0.629032258065	3.42580645161	0.4	-18.1183574879
1399	0.6995	4.97419354839	3.42580645161	-2.48571428571	-16.7077294686
1400	0.7	16.5612903226	1.97741935484	-1.04285714286	-23.7608695652
1401	0.7005	-2.26774193548	1.97741935484	3.28571428571	-13.88647343
1402	0.701	-2.26774193548	-0.91935483871	-5.37142857143	-18.1183574879
1403	0.7015	-0.81935483871	-11.0580645161	1.84285714286	-18.1183574879
1404	0.702	-0.81935483871	-9.60967741935	-1.04285714286	-15.2971014493
1405	0.7025	4.97419354839	0.529032258065	-1.04285714286	-16.7077294686
1406	0.703	18.0096774194	-0.91935483871	-1.04285714286	-23.7608695652
1407	0.7035	-3.71612903226	0.529032258065	-3.92857142857	-16.7077294686
1408	0.704	0.629032258065	1.97741935484	-1.04285714286	-4.01207729469
1409	0.7045	-0.81935483871	6.32258064516	0.4	-6.83333333333
1410	0.705	0.629032258065	20.8064516129	-1.04285714286	-5.42270531401
1411	0.7055	-0.81935483871	17.9096774194	-1.04285714286	1.63043478261
1412	0.706	-10.9580645161	0.529032258065	1.84285714286	17.1473429952
1413	0.7065	-2.26774193548	-0.91935483871	6.17142857143	4.45169082126
1414	0.707	-2.26774193548	0.529032258065	6.17142857143	4.45169082126
1415	0.7075	-2.26774193548	-9.60967741935	1.84285714286	8.68357487923
1416	0.708	3.52580645161	-6.71290322581	1.84285714286	8.68357487923
1417	0.7085	7.87096774194	1.97741935484	-1.04285714286	5.86231884058
1418	0.709	19.4580645161	-0.91935483871	0.4	-6.83333333333
1419	0.7095	2.07741935484	-0.91935483871	0.4	-5.42270531401
1420	0.71	-2.26774193548	0.529032258065	-9.7	-2.60144927536
1421	0.7105	2.07741935484	1.97741935484	-3.92857142857	-6.83333333333
1422	0.711	-0.81935483871	16.4612903226	-1.04285714286	-4.01207729469
1423	0.7115	-3.71612903226	-2.36774193548	0.4	-8.24396135266
1424	0.712	-10.9580645161	-0.91935483871	-1.04285714286	-8.24396135266
1425	0.7125	-3.71612903226	0.529032258065	3.28571428571	0.219806763285
1426	0.713	0.629032258065	0.529032258065	4.72857142857	-12.4758454106
1427	0.7135	0.629032258065	0.529032258065	6.17142857143	-11.0652173913
1428	0.714	0.629032258065	0.529032258065	0.4	-11.0652173913
1429	0.7145	3.52580645161	0.529032258065	-1.04285714286	-11.0652173913
1430	0.715	13.664516129	0.529032258065	-1.04285714286	-13.88647343
1431	0.7155	-3.71612903226	1.97741935484	1.84285714286	-2.60144927536
1432	0.716	0.629032258065	1.97741935484	-6.81428571429	-5.42270531401
1433	0.7165	-0.81935483871	1.97741935484	9.05714285714	-9.65458937198
1434	0.717	-0.81935483871	0.529032258065	-2.48571428571	-6.83333333333
1435	0.7175	0.629032258065	-3.81612903226	1.84285714286	-8.24396135266
1436	0.718	-6.61290322581	0.529032258065	0.4	-9.65458937198
1437	0.7185	7.87096774194	0.529032258065	-1.04285714286	-12.4758454106
1438	0.719	0.629032258065	0.529032258065	-2.48571428571	-18.1183574879
1439	0.7195	-0.81935483871	1.97741935484	-1.04285714286	-11.0652173913
1440	0.72	0.629032258065	1.97741935484	1.84285714286	-8.24396135266
1441	0.7205	-2.26774193548	0.529032258065	-1.04285714286	-8.24396135266
1442	0.721	-9.50967741935	3.42580645161	-2.48571428571	-8.24396135266
1443	0.7215	-9.50967741935	-0.91935483871	3.28571428571	-18.1183574879
1444	0.722	0.629032258065	-0.91935483871	17.7142857143	-8.24396135266
1445	0.7225	-2.26774193548	-2.36774193548	-2.48571428571	-4.01207729469
1446	0.723	-2.26774193548	-2.36774193548	-1.04285714286	-4.01207729469
1447	0.7235	0.629032258065	-8.16129032258	-1.04285714286	-4.01207729469
1448	0.724	20.9064516129	0.529032258065	1.84285714286	-2.60144927536
1449	0.7245	-9.50967741935	-2.36774193548	4.72857142857	-1.19082125604
1450	0.725	0.629032258065	0.529032258065	3.28571428571	-6.83333333333
1451	0.7255	0.629032258065	-2.36774193548	19.1571428571	-5.42270531401
1452	0.726	-0.81935483871	0.529032258065	-1.04285714286	-2.60144927536
1453	0.7265	3.52580645161	-3.81612903226	1.84285714286	-4.01207729469
1454	0.727	4.97419354839	3.42580645161	3.28571428571	-8.24396135266
1455	0.7275	-2.26774193548	0.529032258065	-1.04285714286	-8.24396135266
1456	0.728	0.629032258065	0.529032258065	-3.92857142857	-11.0652173913
1457	0.7285	0.629032258065	-0.91935483871	1.84285714286	-12.4758454106
1458	0.729	0.629032258065	3.42580645161	0.4	-13.88647343
1459	0.7295	0.629032258065	-0.91935483871	-1.04285714286	-13.88647343
1460	0.73	-13.8548387097	1.97741935484	1.84285714286	-9.65458937198
1461	0.7305	-9.50967741935	0.529032258065	0.4	-22.3502415459
1462	0.731	-3.71612903226	-0.91935483871	-11.1428571429	-15.2971014493
1463	0.7315	0.629032258065	4.87419354839	-8.25714285714	-12.4758454106
1464	0.732	0.629032258065	1.97741935484	0.4	-12.4758454106
1465	0.7325	3.52580645161	-6.71290322581	0.4	-11.0652173913
1466	0.733	-3.71612903226	0.529032258065	-1.04285714286	-12.4758454106
1467	0.7335	19.4580645161	0.529032258065	0.4	-13.88647343
1468	0.734	2.07741935484	0.529032258065	-11.1428571429	-11.0652173913
1469	0.7345	2.07741935484	1.97741935484	-5.37142857143	-9.65458937198
1470	0.735	-0.81935483871	4.87419354839	-1.04285714286	-4.01207729469
1471	0.7355	-0.81935483871	17.9096774194	-1.04285714286	1.63043478261
1472	0.736	-2.26774193548	-2.36774193548	-1.04285714286	4.45169082126
1473	0.7365	0.629032258065	-0.91935483871	0.4	4.45169082126
1474	0.737	-3.71612903226	-0.91935483871	-1.04285714286	-1.19082125604
1475	0.7375	-0.81935483871	0.529032258065	-5.37142857143	4.45169082126
1476	0.738	-0.81935483871	-2.36774193548	-2.48571428571	7.2729468599
1477	0.7385	0.629032258065	-5.26451612903	0.4	11.5048309179
1478	0.739	-2.26774193548	-8.16129032258	-1.04285714286	12.9154589372
1479	0.7395	-2.26774193548	-6.71290322581	-2.48571428571	12.9154589372
1480	0.74	-0.81935483871	1.97741935484	-1.04285714286	1.63043478261
1481	0.7405	-0.81935483871	0.529032258065	-1.04285714286	12.9154589372
1482	0.741	0.629032258065	-0.91935483871	-3.92857142857	15.7367149758
1483	0.7415	-0.81935483871	-0.91935483871	-8.25714285714	14.3260869565
1484	0.742	0.629032258065	1.97741935484	-1.04285714286	8.68357487923
1485	0.7425	-3.71612903226	-0.91935483871	1.84285714286	4.45169082126
1486	0.743	-6.61290322581	1.97741935484	-1.04285714286	5.86231884058
1487	0.7435	-0.81935483871	-0.91935483871	-1.04285714286	17.1473429952
1488	0.744	2.07741935484	0.529032258065	1.84285714286	3.04106280193
1489	0.7445	0.629032258065	0.529032258065	0.4	0.219806763285
1490	0.745	0.629032258065	0.529032258065	0.4	-5.42270531401
1491	0.7455	4.97419354839	1.97741935484	1.84285714286	-5.42270531401
1492	0.746	0.629032258065	0.529032258065	3.28571428571	-5.42270531401
1493	0.7465	0.629032258065	0.529032258065	9.05714285714	-8.24396135266
1494	0.747	0.629032258065	-0.91935483871	-3.92857142857	-9.65458937198
1495	0.7475	0.629032258065	1.97741935484	-1.04285714286	-8.24396135266
1496	0.748	0.629032258065	-3.81612903226	-1.04285714286	-6.83333333333
1497	0.7485	9.31935483871	0.529032258065	-1.04285714286	-11.0652173913
1498	0.749	0.629032258065	1.97741935484	-5.37142857143	-19.5289855072
1499	0.7495	-0.81935483871	3.42580645161	-1.04285714286	-16.7077294686
1500	0.75	-0.81935483871	-2.36774193548	-8.25714285714	-9.65458937198
1501	0.7505	-2.26774193548	-11.0580645161	-1.04285714286	-8.24396135266
1502	0.751	3.52580645161	0.529032258065	-1.04285714286	-8.24396135266
1503	0.7515	-10.9580645161	-2.36774193548	-2.48571428571	-8.24396135266
1504	0.752	7.87096774194	1.97741935484	0.4	-6.83333333333
1505	0.7525	-3.71612903226	0.529032258065	3.28571428571	-6.83333333333
1506	0.753	-2.26774193548	0.529032258065	-1.04285714286	-5.42270531401
1507	0.7535	-0.81935483871	-2.36774193548	-3.92857142857	-6.83333333333
1508	0.754	-0.81935483871	0.529032258065	-2.48571428571	-5.42270531401
1509	0.7545	-6.61290322581	1.97741935484	-2.48571428571	0.219806763285
1510	0.755	-12.4064516129	0.529032258065	1.84285714286	4.45169082126
1511	0.7555	-2.26774193548	-0.91935483871	0.4	-9.65458937198
1512	0.756	-0.81935483871	-2.36774193548	-9.7	1.63043478261
1513	0.7565	-0.81935483871	-11.0580645161	1.84285714286	5.86231884058
1514	0.757	0.629032258065	13.564516129	-1.04285714286	3.04106280193
1515	0.7575	-10.9580645161	-3.81612903226	-1.04285714286	8.68357487923
1516	0.758	7.87096774194	0.529032258065	-1.04285714286	1.63043478261
1517	0.7585	0.629032258065	0.529032258065	0.4	-2.60144927536
1518	0.759	2.07741935484	0.529032258065	-6.81428571429	3.04106280193
1519	0.7595	0.629032258065	-9.60967741935	0.4	4.45169082126
1520	0.76	3.52580645161	17.9096774194	0.4	1.63043478261
1521	0.7605	7.87096774194	0.529032258065	0.4	1.63043478261
1522	0.761	-5.16451612903	0.529032258065	-1.04285714286	3.04106280193
1523	0.7615	0.629032258065	-2.36774193548	-6.81428571429	-12.4758454106
1524	0.762	3.52580645161	-0.91935483871	-2.48571428571	-13.88647343
1525	0.7625	2.07741935484	1.97741935484	-6.81428571429	-8.24396135266
1526	0.763	0.629032258065	7.77096774194	-2.48571428571	-11.0652173913
1527	0.7635	3.52580645161	0.529032258065	-2.48571428571	-11.0652173913
1528	0.764	12.2161290323	0.529032258065	-1.04285714286	-22.3502415459
1529	0.7645	-0.81935483871	0.529032258065	-2.48571428571	-22.3502415459
1530	0.765	0.629032258065	1.97741935484	-5.37142857143	-9.65458937198
1531	0.7655	0.629032258065	3.42580645161	-5.37142857143	-11.0652173913
1532	0.766	0.629032258065	22.2548387097	-2.48571428571	-13.88647343
1533	0.7665	3.52580645161	-5.26451612903	0.4	-12.4758454106
1534	0.767	22.3548387097	1.97741935484	4.72857142857	-22.3502415459
1535	0.7675	-0.81935483871	1.97741935484	-2.48571428571	-20.9396135266
1536	0.768	-0.81935483871	3.42580645161	-5.37142857143	-9.65458937198
1537	0.7685	-2.26774193548	1.97741935484	-8.25714285714	-5.42270531401
1538	0.769	0.629032258065	20.8064516129	-1.04285714286	-6.83333333333
1539	0.7695	-12.4064516129	0.529032258065	-2.48571428571	-9.65458937198
1540	0.77	20.9064516129	0.529032258065	-1.04285714286	-6.83333333333
1541	0.7705	0.629032258065	1.97741935484	-3.92857142857	-13.88647343
1542	0.771	-2.26774193548	3.42580645161	-11.1428571429	0.219806763285
1543	0.7715	-0.81935483871	0.529032258065	-6.81428571429	-1.19082125604
1544	0.772	0.629032258065	16.4612903226	-1.04285714286	4.45169082126
1545	0.7725	-2.26774193548	-9.60967741935	1.84285714286	4.45169082126
1546	0.773	12.2161290323	0.529032258065	0.4	7.2729468599
1547	0.7735	2.07741935484	-0.91935483871	1.84285714286	3.04106280193
1548	0.774	-0.81935483871	0.529032258065	3.28571428571	4.45169082126
1549	0.7745	2.07741935484	1.97741935484	-5.37142857143	12.9154589372
1550	0.775	0.629032258065	9.21935483871	-1.04285714286	10.0942028986
1551	0.7755	4.97419354839	-5.26451612903	1.84285714286	8.68357487923
1552	0.776	2.07741935484	0.529032258065	3.28571428571	14.3260869565
1553	0.7765	2.07741935484	3.42580645161	3.28571428571	4.45169082126
1554	0.777	2.07741935484	-0.91935483871	0.4	10.0942028986
1555	0.7775	-0.81935483871	-9.60967741935	0.4	4.45169082126
1556	0.778	3.52580645161	3.42580645161	-1.04285714286	4.45169082126
1557	0.7785	4.97419354839	-3.81612903226	-1.04285714286	1.63043478261
1558	0.779	7.87096774194	-2.36774193548	1.84285714286	-1.19082125604
1559	0.7795	2.07741935484	1.97741935484	-1.04285714286	-4.01207729469
1560	0.78	3.52580645161	3.42580645161	-1.04285714286	-8.24396135266
1561	0.7805	0.629032258065	-5.26451612903	0.4	-2.60144927536
1562	0.781	2.07741935484	-2.36774193548	-2.48571428571	-1.19082125604
1563	0.7815	3.52580645161	0.529032258065	-2.48571428571	-2.60144927536
1564	0.782	-8.06129032258	-0.91935483871	0.4	-9.65458937198
1565	0.7825	0.629032258065	-0.91935483871	-2.48571428571	-13.88647343
1566	0.783	-0.81935483871	0.529032258065	-9.7	-13.88647343
1567	0.7835	0.629032258065	-0.91935483871	-1.04285714286	-6.83333333333
1568	0.784	2.07741935484	15.0129032258	-1.04285714286	-6.83333333333
1569	0.7845	-0.81935483871	0.529032258065	-2.48571428571	-9.65458937198
1570	0.785	-2.26774193548	0.529032258065	-1.04285714286	-6.83333333333
1571	0.7855	-0.81935483871	1.97741935484	1.84285714286	-13.88647343
1572	0.786	-0.81935483871	3.42580645161	-3.92857142857	-9.65458937198
1573	0.7865	-2.26774193548	1.97741935484	-8.25714285714	-9.65458937198
1574	0.787	-2.26774193548	-0.91935483871	-8.25714285714	-6.83333333333
1575	0.7875	-0.81935483871	1.97741935484	-1.04285714286	-5.42270531401
1576	0.788	3.52580645161	0.529032258065	-1.04285714286	-1.19082125604
1577	0.7885	-6.61290322581	0.529032258065	0.4	8.68357487923
1578	0.789	0.629032258065	0.529032258065	0.4	4.45169082126
1579	0.7895	2.07741935484	-2.36774193548	7.61428571429	5.86231884058
1580	0.79	-0.81935483871	-12.5064516129	-2.48571428571	7.2729468599
1581	0.7905	-0.81935483871	17.9096774194	-1.04285714286	4.45169082126
1582	0.791	-12.4064516129	0.529032258065	-1.04285714286	8.68357487923
1583	0.7915	-10.9580645161	-0.91935483871	0.4	5.86231884058
1584	0.792	-0.81935483871	0.529032258065	-2.48571428571	-1.19082125604
1585	0.7925	0.629032258065	0.529032258065	-2.48571428571	7.2729468599
1586	0.793	-0.81935483871	6.32258064516	-1.04285714286	4.45169082126
1587	0.7935	3.52580645161	-0.91935483871	-2.48571428571	-1.19082125604
1588	0.794	9.31935483871	-0.91935483871	-1.04285714286	3.04106280193
1589	0.7945	-3.71612903226	-0.91935483871	-3.92857142857	5.86231884058
1590	0.795	2.07741935484	1.97741935484	-1.04285714286	8.68357487923
1591	0.7955	-0.81935483871	6.32258064516	-1.04285714286	-4.01207729469
1592	0.796	2.07741935484	-8.16129032258	-2.48571428571	-6.83333333333
1593	0.7965	0.629032258065	-8.16129032258	-1.04285714286	-8.24396135266
1594	0.797	15.1129032258	1.97741935484	0.4	-9.65458937198
1595	0.7975	0.629032258065	0.529032258065	-1.04285714286	-8.24396135266
1596	0.798	0.629032258065	0.529032258065	-5.37142857143	1.63043478261
1597	0.7985	-0.81935483871	4.87419354839	-2.48571428571	-4.01207729469
1598	0.799	-0.81935483871	4.87419354839	-2.48571428571	-6.83333333333
1599	0.7995	-2.26774193548	0.529032258065	0.4	-6.83333333333
1600	0.8	-12.4064516129	0.529032258065	-1.04285714286	-8.24396135266
1601	0.8005	0.629032258065	0.529032258065	-1.04285714286	-16.7077294686
1602	0.801	0.629032258065	1.97741935484	-5.37142857143	5.86231884058
1603	0.8015	0.629032258065	-0.91935483871	9.05714285714	-11.0652173913
1604	0.802	-2.26774193548	0.529032258065	0.4	-9.65458937198
1605	0.8025	2.07741935484	-5.26451612903	0.4	-8.24396135266
1606	0.803	4.97419354839	1.97741935484	0.4	-15.2971014493
1607	0.8035	-3.71612903226	3.42580645161	-3.92857142857	-11.0652173913
1608	0.804	-0.81935483871	1.97741935484	-12.5857142857	-5.42270531401
1609	0.8045	0.629032258065	1.97741935484	-6.81428571429	-6.83333333333
1610	0.805	-0.81935483871	22.2548387097	-5.37142857143	-5.42270531401
1611	0.8055	-2.26774193548	-9.60967741935	-2.48571428571	-1.19082125604
1612	0.806	16.5612903226	-0.91935483871	-2.48571428571	-6.83333333333
1613	0.8065	0.629032258065	0.529032258065	-1.04285714286	-1.19082125604
1614	0.807	2.07741935484	-0.91935483871	-9.7	5.86231884058
1615	0.8075	0.629032258065	3.42580645161	-1.04285714286	1.63043478261
1616	0.808	0.629032258065	16.4612903226	0.4	0.219806763285
1617	0.8085	0.629032258065	0.529032258065	1.84285714286	1.63043478261
1618	0.809	-8.06129032258	-0.91935483871	0.4	4.45169082126
1619	0.8095	3.52580645161	0.529032258065	3.28571428571	14.3260869565
1620	0.81	2.07741935484	0.529032258065	3.28571428571	-8.24396135266
1621	0.8105	-0.81935483871	0.529032258065	0.4	-6.83333333333
1622	0.811	6.42258064516	-8.16129032258	-1.04285714286	-11.0652173913
1623	0.8115	4.97419354839	0.529032258065	0.4	-12.4758454106
1624	0.812	22.3548387097	1.97741935484	0.4	-11.0652173913
1625	0.8125	2.07741935484	1.97741935484	3.28571428571	-15.2971014493
1626	0.813	2.07741935484	0.529032258065	10.5	-15.2971014493
1627	0.8135	0.629032258065	-2.36774193548	14.8285714286	-13.88647343
1628	0.814	0.629032258065	-5.26451612903	-1.04285714286	-15.2971014493
1629	0.8145	4.97419354839	1.97741935484	-1.04285714286	-16.7077294686
1630	0.815	22.3548387097	0.529032258065	-1.04285714286	-29.4033816425
1631	0.8155	-0.81935483871	0.529032258065	-3.92857142857	-25.1714975845
1632	0.816	-0.81935483871	0.529032258065	-12.5857142857	-19.5289855072
1633	0.8165	-0.81935483871	-0.91935483871	-12.5857142857	-19.5289855072
1634	0.817	2.07741935484	19.3580645161	-2.48571428571	-19.5289855072
1635	0.8175	-2.26774193548	20.8064516129	-3.92857142857	-19.5289855072
1636	0.818	-8.06129032258	0.529032258065	-3.92857142857	-18.1183574879
1637	0.8185	3.52580645161	1.97741935484	-1.04285714286	-30.8140096618
1638	0.819	0.629032258065	1.97741935484	13.3857142857	-16.7077294686
1639	0.8195	0.629032258065	0.529032258065	-9.7	-16.7077294686
1640	0.82	0.629032258065	-2.36774193548	-12.5857142857	-15.2971014493
1641	0.8205	0.629032258065	0.529032258065	-3.92857142857	-11.0652173913
1642	0.821	10.7677419355	1.97741935484	-1.04285714286	-19.5289855072
1643	0.8215	-2.26774193548	0.529032258065	-5.37142857143	-23.7608695652
1644	0.822	-2.26774193548	0.529032258065	-6.81428571429	-19.5289855072
1645	0.8225	0.629032258065	0.529032258065	-3.92857142857	-5.42270531401
1646	0.823	0.629032258065	6.32258064516	-1.04285714286	-4.01207729469
1647	0.8235	4.97419354839	0.529032258065	0.4	-5.42270531401
1648	0.824	18.0096774194	-2.36774193548	0.4	-5.42270531401
1649	0.8245	2.07741935484	0.529032258065	1.84285714286	8.68357487923
1650	0.825	2.07741935484	1.97741935484	0.4	-8.24396135266
1651	0.8255	-0.81935483871	-6.71290322581	-1.04285714286	-2.60144927536
1652	0.826	2.07741935484	15.0129032258	-2.48571428571	-2.60144927536
1653	0.8265	-0.81935483871	13.564516129	0.4	-4.01207729469
1654	0.827	0.629032258065	0.529032258065	0.4	-6.83333333333
1655	0.8275	2.07741935484	0.529032258065	3.28571428571	-11.0652173913
1656	0.828	2.07741935484	3.42580645161	7.61428571429	-16.7077294686
1657	0.8285	2.07741935484	-0.91935483871	6.17142857143	-13.88647343
1658	0.829	2.07741935484	1.97741935484	-1.04285714286	-15.2971014493
1659	0.8295	0.629032258065	0.529032258065	-2.48571428571	-16.7077294686
1660	0.83	3.52580645161	1.97741935484	1.84285714286	-25.1714975845
1661	0.8305	-2.26774193548	1.97741935484	-1.04285714286	-18.1183574879
1662	0.831	0.629032258065	1.97741935484	-2.48571428571	-16.7077294686
1663	0.8315	-0.81935483871	3.42580645161	0.4	-16.7077294686
1664	0.832	2.07741935484	17.9096774194	1.84285714286	-15.2971014493
1665	0.8325	0.629032258065	-3.81612903226	-1.04285714286	-12.4758454106
1666	0.833	-13.8548387097	1.97741935484	0.4	-12.4758454106
1667	0.8335	0.629032258065	1.97741935484	0.4	-16.7077294686
1668	0.834	0.629032258065	1.97741935484	16.2714285714	-16.7077294686
1669	0.8345	0.629032258065	-0.91935483871	-1.04285714286	-18.1183574879
1670	0.835	0.629032258065	-9.60967741935	-2.48571428571	-16.7077294686
1671	0.8355	2.07741935484	-11.0580645161	-1.04285714286	-13.88647343
1672	0.836	18.0096774194	0.529032258065	0.4	-23.7608695652
1673	0.8365	-0.81935483871	0.529032258065	-1.04285714286	-25.1714975845
1674	0.837	-0.81935483871	1.97741935484	-9.7	-15.2971014493
1675	0.8375	-0.81935483871	-0.91935483871	-3.92857142857	-13.88647343
1676	0.838	2.07741935484	0.529032258065	-1.04285714286	-11.0652173913
1677	0.8385	3.52580645161	-2.36774193548	-1.04285714286	-8.24396135266
1678	0.839	-12.4064516129	-0.91935483871	-2.48571428571	-4.01207729469
1679	0.8395	0.629032258065	-2.36774193548	1.84285714286	-12.4758454106
1680	0.84	-0.81935483871	0.529032258065	-1.04285714286	-11.0652173913
1681	0.8405	-2.26774193548	0.529032258065	-5.37142857143	0.219806763285
1682	0.841	3.52580645161	3.42580645161	-1.04285714286	1.63043478261
1683	0.8415	-6.61290322581	-0.91935483871	-1.04285714286	0.219806763285
1684	0.842	10.7677419355	-0.91935483871	-1.04285714286	-1.19082125604
1685	0.8425	-2.26774193548	0.529032258065	0.4	-11.0652173913
1686	0.843	0.629032258065	0.529032258065	-1.04285714286	4.45169082126
1687	0.8435	0.629032258065	3.42580645161	-1.04285714286	-4.01207729469
1688	0.844	0.629032258065	-11.0580645161	-3.92857142857	-5.42270531401
1689	0.8445	3.52580645161	-11.0580645161	1.84285714286	-9.65458937198
1690	0.845	19.4580645161	1.97741935484	-2.48571428571	-22.3502415459
1691	0.8455	3.52580645161	0.529032258065	-2.48571428571	-20.9396135266
1692	0.846	0.629032258065	0.529032258065	-8.25714285714	-6.83333333333
1693	0.8465	0.629032258065	0.529032258065	-9.7	-12.4758454106
1694	0.847	2.07741935484	16.4612903226	1.84285714286	-9.65458937198
1695	0.8475	-0.81935483871	0.529032258065	-1.04285714286	-6.83333333333
1696	0.848	-3.71612903226	3.42580645161	-1.04285714286	-9.65458937198
1697	0.8485	-5.16451612903	-0.91935483871	0.4	5.86231884058
1698	0.849	-0.81935483871	0.529032258065	-1.04285714286	-6.83333333333
1699	0.8495	0.629032258065	0.529032258065	0.4	-8.24396135266
1700	0.85	2.07741935484	-0.91935483871	0.4	-6.83333333333
1701	0.8505	2.07741935484	-8.16129032258	3.28571428571	-8.24396135266
1702	0.851	-0.81935483871	0.529032258065	0.4	-6.83333333333
1703	0.8515	0.629032258065	0.529032258065	-3.92857142857	1.63043478261
1704	0.852	-0.81935483871	1.97741935484	3.28571428571	-5.42270531401
1705	0.8525	0.629032258065	-0.91935483871	-3.92857142857	-1.19082125604
1706	0.853	0.629032258065	3.42580645161	-2.48571428571	-1.19082125604
1707	0.8535	-2.26774193548	-0.91935483871	-1.04285714286	1.63043478261
1708	0.854	-15.3032258065	0.529032258065	0.4	7.2729468599
1709	0.8545	-12.4064516129	0.529032258065	-1.04285714286	8.68357487923
1710	0.855	-0.81935483871	1.97741935484	17.7142857143	7.2729468599
1711	0.8555	0.629032258065	0.529032258065	-8.25714285714	7.2729468599
1712	0.856	-0.81935483871	-5.26451612903	-2.48571428571	7.2729468599
1713	0.8565	2.07741935484	-5.26451612903	3.28571428571	8.68357487923
1714	0.857	-0.81935483871	-0.91935483871	1.84285714286	3.04106280193
1715	0.8575	9.31935483871	0.529032258065	-1.04285714286	1.63043478261
1716	0.858	-0.81935483871	-0.91935483871	-3.92857142857	-1.19082125604
1717	0.8585	0.629032258065	0.529032258065	9.05714285714	-1.19082125604
1718	0.859	0.629032258065	-2.36774193548	1.84285714286	0.219806763285
1719	0.8595	0.629032258065	9.21935483871	0.4	-9.65458937198
1720	0.86	2.07741935484	0.529032258065	1.84285714286	-9.65458937198
1721	0.8605	10.7677419355	0.529032258065	1.84285714286	-16.7077294686
1722	0.861	0.629032258065	-0.91935483871	-3.92857142857	-19.5289855072
1723	0.8615	0.629032258065	0.529032258065	-8.25714285714	-18.1183574879
1724	0.862	0.629032258065	0.529032258065	-1.04285714286	-12.4758454106
1725	0.8625	7.87096774194	13.564516129	-1.04285714286	-12.4758454106
1726	0.863	-0.81935483871	1.97741935484	0.4	-12.4758454106
1727	0.8635	-8.06129032258	0.529032258065	-1.04285714286	-9.65458937198
1728	0.864	-8.06129032258	1.97741935484	-1.04285714286	-12.4758454106
1729	0.8645	0.629032258065	0.529032258065	6.17142857143	-9.65458937198
1730	0.865	-0.81935483871	1.97741935484	-2.48571428571	-9.65458937198
1731	0.8655	2.07741935484	4.87419354839	-2.48571428571	-11.0652173913
1732	0.866	3.52580645161	-2.36774193548	-1.04285714286	-9.65458937198
1733	0.8665	4.97419354839	3.42580645161	-1.04285714286	-12.4758454106
1734	0.867	0.629032258065	0.529032258065	-1.04285714286	-18.1183574879
1735	0.8675	0.629032258065	1.97741935484	-1.04285714286	-15.2971014493
1736	0.868	-0.81935483871	0.529032258065	-1.04285714286	-11.0652173913
1737	0.8685	0.629032258065	4.87419354839	-2.48571428571	-9.65458937198
1738	0.869	3.52580645161	-2.36774193548	0.4	-9.65458937198
1739	0.8695	-12.4064516129	-0.91935483871	-2.48571428571	-6.83333333333
1740	0.87	-2.26774193548	0.529032258065	0.4	-11.0652173913
1741	0.8705	0.629032258065	1.97741935484	0.4	-12.4758454106
1742	0.871	-3.71612903226	-0.91935483871	-9.7	-8.24396135266
1743	0.8715	0.629032258065	16.4612903226	-1.04285714286	-1.19082125604
1744	0.872	-0.81935483871	0.529032258065	-1.04285714286	4.45169082126
1745	0.8725	-13.8548387097	0.529032258065	-1.04285714286	7.2729468599
1746	0.873	-12.4064516129	-0.91935483871	0.4	5.86231884058
1747	0.8735	-0.81935483871	1.97741935484	6.17142857143	4.45169082126
1748	0.874	0.629032258065	-0.91935483871	4.72857142857	7.2729468599
1749	0.8745	-0.81935483871	10.6677419355	0.4	4.45169082126
1750	0.875	-0.81935483871	-2.36774193548	0.4	4.45169082126
1751	0.8755	19.4580645161	0.529032258065	1.84285714286	8.68357487923
1752	0.876	-8.06129032258	-0.91935483871	1.84285714286	5.86231884058
1753	0.8765	0.629032258065	0.529032258065	4.72857142857	-8.24396135266
1754	0.877	2.07741935484	-2.36774193548	0.4	-1.19082125604
1755	0.8775	-0.81935483871	9.21935483871	1.84285714286	-6.83333333333
1756	0.878	-0.81935483871	0.529032258065	1.84285714286	-6.83333333333
1757	0.8785	-8.06129032258	0.529032258065	3.28571428571	-19.5289855072
1758	0.879	0.629032258065	0.529032258065	1.84285714286	-19.5289855072
1759	0.8795	2.07741935484	0.529032258065	-6.81428571429	-19.5289855072
1760	0.88	0.629032258065	3.42580645161	-6.81428571429	-9.65458937198
1761	0.8805	2.07741935484	4.87419354839	0.4	-12.4758454106
1762	0.881	7.87096774194	-2.36774193548	0.4	-12.4758454106
1763	0.8815	7.87096774194	0.529032258065	-1.04285714286	-12.4758454106
1764	0.882	-0.81935483871	1.97741935484	-8.25714285714	-16.7077294686
1765	0.8825	0.629032258065	0.529032258065	7.61428571429	-15.2971014493
1766	0.883	0.629032258065	-3.81612903226	6.17142857143	-12.4758454106
1767	0.8835	4.97419354839	-2.36774193548	-1.04285714286	-11.0652173913
1768	0.884	3.52580645161	0.529032258065	0.4	-13.88647343
1769	0.8845	19.4580645161	3.42580645161	-1.04285714286	-25.1714975845
1770	0.885	-0.81935483871	1.97741935484	-1.04285714286	-15.2971014493
1771	0.8855	0.629032258065	1.97741935484	-9.7	-11.0652173913
1772	0.886	-0.81935483871	-0.91935483871	-5.37142857143	-13.88647343
1773	0.8865	0.629032258065	4.87419354839	-2.48571428571	-11.0652173913
1774	0.887	-3.71612903226	-3.81612903226	-1.04285714286	-11.0652173913
1775	0.8875	-10.9580645161	0.529032258065	-2.48571428571	-8.24396135266
1776	0.888	-5.16451612903	0.529032258065	0.4	-6.83333333333
1777	0.8885	0.629032258065	0.529032258065	17.7142857143	-2.60144927536
1778	0.889	-0.81935483871	0.529032258065	-1.04285714286	-1.19082125604
1779	0.8895	2.07741935484	-11.0580645161	0.4	0.219806763285
1780	0.89	0.629032258065	-8.16129032258	0.4	0.219806763285
1781	0.8905	20.9064516129	0.529032258065	-1.04285714286	-6.83333333333
1782	0.891	0.629032258065	-2.36774193548	0.4	-1.19082125604
1783	0.8915	-0.81935483871	-2.36774193548	-6.81428571429	7.2729468599
1784	0.892	0.629032258065	0.529032258065	-5.37142857143	5.86231884058
1785	0.8925	0.629032258065	6.32258064516	3.28571428571	5.86231884058
