	Time	Channel 1	Channel 2	Channel 3	Channel 4
0	0.0	0.609375	10.6677419355	0.283870967742	-13.8463414634
1	0.0005	0.609375	1.97741935484	0.283870967742	-12.4341463415
2	0.001	-0.8375	1.97741935484	0.283870967742	-12.4341463415
3	0.0015	0.609375	16.4612903226	-8.4064516129	-19.4951219512
4	0.002	17.971875	0.529032258065	-2.61290322581	-18.0829268293
5	0.0025	2.05625	3.42580645161	1.73225806452	-19.4951219512
6	0.003	0.609375	1.97741935484	-9.85483870968	-16.6707317073
7	0.0035	2.05625	0.529032258065	-2.61290322581	-15.2585365854
8	0.004	0.609375	1.97741935484	-1.16451612903	-13.8463414634
9	0.0045	6.396875	0.529032258065	-1.16451612903	-12.4341463415
10	0.005	-0.8375	0.529032258065	1.73225806452	0.275609756098
11	0.0055	-0.8375	0.529032258065	-1.16451612903	-23.7317073171
12	0.006	-2.284375	0.529032258065	-2.61290322581	-15.2585365854
13	0.0065	-12.4125	-0.91935483871	0.283870967742	-16.6707317073
14	0.007	-3.73125	1.97741935484	-4.06129032258	-15.2585365854
15	0.0075	-0.8375	1.97741935484	-12.7516129032	-9.60975609756
16	0.008	0.609375	-2.36774193548	-2.61290322581	-8.19756097561
17	0.0085	-0.8375	-9.60967741935	-1.16451612903	-5.37317073171
18	0.009	0.609375	16.4612903226	-1.16451612903	-3.96097560976
19	0.0095	-13.859375	-0.91935483871	-2.61290322581	1.68780487805
20	0.01	-10.965625	-0.91935483871	3.18064516129	0.275609756098
21	0.0105	0.609375	-0.91935483871	1.73225806452	-13.8463414634
22	0.011	-2.284375	0.529032258065	-5.50967741935	-3.96097560976
23	0.0115	0.609375	4.87419354839	-4.06129032258	-6.78536585366
24	0.012	0.609375	6.32258064516	0.283870967742	-5.37317073171
25	0.0125	-0.8375	1.97741935484	-1.16451612903	-5.37317073171
26	0.013	-6.625	1.97741935484	1.73225806452	-13.8463414634
27	0.0135	0.609375	0.529032258065	4.62903225806	-16.6707317073
28	0.014	2.05625	0.529032258065	-9.85483870968	-12.4341463415
29	0.0145	-0.8375	3.42580645161	1.73225806452	-8.19756097561
30	0.015	0.609375	22.2548387097	0.283870967742	-9.60975609756
31	0.0155	-0.8375	-6.71290322581	-1.16451612903	-9.60975609756
32	0.016	19.41875	1.97741935484	6.07741935484	-23.7317073171
33	0.0165	2.05625	1.97741935484	1.73225806452	-22.3195121951
34	0.017	2.05625	1.97741935484	-6.95806451613	-23.7317073171
35	0.0175	0.609375	0.529032258065	-5.50967741935	-18.0829268293
36	0.018	0.609375	7.77096774194	-1.16451612903	-18.0829268293
37	0.0185	0.609375	0.529032258065	0.283870967742	-22.3195121951
38	0.019	3.503125	0.529032258065	-1.16451612903	-22.3195121951
39	0.0195	0.609375	4.87419354839	1.73225806452	-26.556097561
40	0.02	0.609375	4.87419354839	4.62903225806	-19.4951219512
41	0.0205	3.503125	4.87419354839	-4.06129032258	-16.6707317073
42	0.021	3.503125	-8.16129032258	-6.95806451613	-18.0829268293
43	0.0215	3.503125	0.529032258065	-1.16451612903	-16.6707317073
44	0.022	17.971875	1.97741935484	1.73225806452	-23.7317073171
45	0.0225	0.609375	-2.36774193548	-2.61290322581	-20.9073170732
46	0.023	-0.8375	-0.91935483871	-4.06129032258	-13.8463414634
47	0.0235	-0.8375	0.529032258065	-8.4064516129	-2.5487804878
48	0.024	-2.284375	19.3580645161	0.283870967742	-2.5487804878
49	0.0245	-3.73125	-6.71290322581	-1.16451612903	3.1
50	0.025	13.63125	1.97741935484	-1.16451612903	-3.96097560976
51	0.0255	-3.73125	-2.36774193548	0.283870967742	-3.96097560976
52	0.026	3.503125	1.97741935484	-1.16451612903	0.275609756098
53	0.0265	0.609375	-0.91935483871	-5.50967741935	0.275609756098
54	0.027	3.503125	-5.26451612903	3.18064516129	0.275609756098
55	0.0275	4.95	1.97741935484	1.73225806452	0.275609756098
56	0.028	-0.8375	0.529032258065	1.73225806452	0.275609756098
57	0.0285	-3.73125	3.42580645161	0.283870967742	1.68780487805
58	0.029	7.84375	0.529032258065	0.283870967742	-6.78536585366
59	0.0295	4.95	0.529032258065	-5.50967741935	0.275609756098
60	0.03	7.84375	-9.60967741935	3.18064516129	-3.96097560976
61	0.0305	4.95	0.529032258065	0.283870967742	-5.37317073171
62	0.031	-8.071875	0.529032258065	-1.16451612903	-1.13658536585
63	0.0315	-9.51875	3.42580645161	0.283870967742	14.3975609756
64	0.032	0.609375	0.529032258065	3.18064516129	-12.4341463415
65	0.0325	-0.8375	-0.91935483871	-4.06129032258	-5.37317073171
66	0.033	-0.8375	4.87419354839	-4.06129032258	-8.19756097561
67	0.0335	-5.178125	22.2548387097	0.283870967742	-11.0219512195
68	0.034	-12.4125	1.97741935484	3.18064516129	-9.60975609756
69	0.0345	-10.965625	-0.91935483871	1.73225806452	-9.60975609756
70	0.035	0.609375	1.97741935484	4.62903225806	-20.9073170732
71	0.0355	-0.8375	-0.91935483871	-8.4064516129	-12.4341463415
72	0.036	0.609375	-5.26451612903	0.283870967742	-12.4341463415
73	0.0365	2.05625	-0.91935483871	3.18064516129	-12.4341463415
74	0.037	-10.965625	1.97741935484	1.73225806452	-9.60975609756
75	0.0375	-3.73125	1.97741935484	-1.16451612903	4.51219512195
76	0.038	-0.8375	0.529032258065	-11.3032258065	-11.0219512195
77	0.0385	2.05625	6.32258064516	0.283870967742	-12.4341463415
78	0.039	0.609375	19.3580645161	1.73225806452	-8.19756097561
79	0.0395	-3.73125	0.529032258065	0.283870967742	-1.13658536585
80	0.04	-15.30625	1.97741935484	0.283870967742	1.68780487805
81	0.0405	-13.859375	1.97741935484	0.283870967742	18.6341463415
82	0.041	-0.8375	1.97741935484	17.664516129	-1.13658536585
83	0.0415	-0.8375	-2.36774193548	-1.16451612903	0.275609756098
84	0.042	-0.8375	-11.0580645161	-1.16451612903	3.1
85	0.0425	0.609375	-8.16129032258	0.283870967742	1.68780487805
86	0.043	3.503125	-3.81612903226	0.283870967742	3.1
87	0.0435	-0.8375	-0.91935483871	0.283870967742	-1.13658536585
88	0.044	0.609375	-0.91935483871	-4.06129032258	4.51219512195
89	0.0445	0.609375	0.529032258065	11.8709677419	3.1
90	0.045	-0.8375	-2.36774193548	0.283870967742	4.51219512195
91	0.0455	3.503125	-6.71290322581	-1.16451612903	1.68780487805
92	0.046	-3.73125	1.97741935484	-1.16451612903	3.1
93	0.0465	20.865625	4.87419354839	1.73225806452	0.275609756098
94	0.047	3.503125	3.42580645161	-11.3032258065	-6.78536585366
95	0.0475	2.05625	4.87419354839	-9.85483870968	-2.5487804878
96	0.048	2.05625	6.32258064516	-2.61290322581	-3.96097560976
97	0.0485	2.05625	0.529032258065	0.283870967742	-6.78536585366
98	0.049	-6.625	-0.91935483871	0.283870967742	-5.37317073171
99	0.0495	3.503125	-0.91935483871	1.73225806452	-6.78536585366
100	0.05	0.609375	-0.91935483871	0.283870967742	-9.60975609756
101	0.0505	-0.8375	-0.91935483871	-1.16451612903	-11.0219512195
102	0.051	-2.284375	-6.71290322581	1.73225806452	-12.4341463415
103	0.0515	0.609375	-5.26451612903	1.73225806452	-11.0219512195
104	0.052	4.95	-0.91935483871	-1.16451612903	-13.8463414634
105	0.0525	-5.178125	0.529032258065	0.283870967742	1.68780487805
106	0.053	0.609375	0.529032258065	-1.16451612903	-6.78536585366
107	0.0535	2.05625	3.42580645161	19.1129032258	-5.37317073171
108	0.054	0.609375	0.529032258065	19.1129032258	-6.78536585366
109	0.0545	3.503125	-5.26451612903	0.283870967742	-6.78536585366
110	0.055	7.84375	4.87419354839	0.283870967742	-8.19756097561
111	0.0555	22.3125	1.97741935484	-1.16451612903	-18.0829268293
112	0.056	0.609375	1.97741935484	-2.61290322581	-13.8463414634
113	0.0565	3.503125	1.97741935484	-11.3032258065	-3.96097560976
114	0.057	3.503125	4.87419354839	-12.7516129032	-5.37317073171
115	0.0575	2.05625	19.3580645161	-1.16451612903	0.275609756098
116	0.058	3.503125	-6.71290322581	-2.61290322581	3.1
117	0.0585	19.41875	0.529032258065	0.283870967742	-2.5487804878
118	0.059	-0.8375	0.529032258065	4.62903225806	5.9243902439
119	0.0595	-5.178125	0.529032258065	-12.7516129032	7.33658536585
120	0.06	-2.284375	6.32258064516	-9.85483870968	18.6341463415
121	0.0605	-5.178125	20.8064516129	3.18064516129	17.2219512195
122	0.061	-6.625	-2.36774193548	0.283870967742	14.3975609756
123	0.0615	17.971875	0.529032258065	-1.16451612903	12.9853658537
124	0.062	-2.284375	0.529032258065	-4.06129032258	1.68780487805
125	0.0625	2.05625	0.529032258065	-1.16451612903	8.7487804878
126	0.063	2.05625	3.42580645161	0.283870967742	11.5731707317
127	0.0635	2.05625	1.97741935484	-1.16451612903	8.7487804878
128	0.064	3.503125	-3.81612903226	0.283870967742	5.9243902439
129	0.0645	-2.284375	0.529032258065	6.07741935484	-5.37317073171
130	0.065	0.609375	0.529032258065	-1.16451612903	-1.13658536585
131	0.0655	0.609375	-2.36774193548	14.7677419355	0.275609756098
132	0.066	3.503125	0.529032258065	7.52580645161	1.68780487805
133	0.0665	4.95	0.529032258065	-1.16451612903	-1.13658536585
134	0.067	2.05625	0.529032258065	0.283870967742	-3.96097560976
135	0.0675	15.078125	3.42580645161	-1.16451612903	-11.0219512195
136	0.068	-2.284375	-0.91935483871	-1.16451612903	-15.2585365854
137	0.0685	2.05625	0.529032258065	-2.61290322581	3.1
138	0.069	3.503125	3.42580645161	0.283870967742	-3.96097560976
139	0.0695	2.05625	13.564516129	0.283870967742	-2.5487804878
140	0.07	-2.284375	0.529032258065	0.283870967742	-2.5487804878
141	0.0705	13.63125	1.97741935484	1.73225806452	-12.4341463415
142	0.071	-2.284375	1.97741935484	1.73225806452	-6.78536585366
143	0.0715	0.609375	0.529032258065	-2.61290322581	-5.37317073171
144	0.072	-2.284375	0.529032258065	-6.95806451613	0.275609756098
145	0.0725	-0.8375	-2.36774193548	0.283870967742	4.51219512195
146	0.073	2.05625	13.564516129	-1.16451612903	4.51219512195
147	0.0735	0.609375	16.4612903226	-1.16451612903	7.33658536585
148	0.074	-8.071875	3.42580645161	-1.16451612903	15.8097560976
149	0.0745	-0.8375	1.97741935484	-1.16451612903	35.5804878049
150	0.075	0.609375	1.97741935484	3.18064516129	15.8097560976
151	0.0755	2.05625	-11.0580645161	3.18064516129	25.6951219512
152	0.076	3.503125	17.9096774194	1.73225806452	29.9317073171
153	0.0765	-0.8375	17.9096774194	0.283870967742	27.1073170732
154	0.077	-8.071875	0.529032258065	0.283870967742	36.9926829268
155	0.0775	0.609375	0.529032258065	6.07741935484	31.343902439
156	0.078	0.609375	3.42580645161	4.62903225806	32.756097561
157	0.0785	0.609375	-5.26451612903	4.62903225806	24.2829268293
158	0.079	3.503125	0.529032258065	4.62903225806	21.4585365854
159	0.0795	-3.73125	0.529032258065	4.62903225806	22.8707317073
160	0.08	13.63125	-0.91935483871	1.73225806452	10.1609756098
161	0.0805	4.95	1.97741935484	0.283870967742	0.275609756098
162	0.081	0.609375	1.97741935484	0.283870967742	22.8707317073
163	0.0815	0.609375	6.32258064516	3.18064516129	4.51219512195
164	0.082	2.05625	-9.60967741935	-1.16451612903	3.1
165	0.0825	2.05625	-11.0580645161	0.283870967742	-1.13658536585
166	0.083	16.525	1.97741935484	-1.16451612903	-1.13658536585
167	0.0835	-0.8375	1.97741935484	0.283870967742	-6.78536585366
168	0.084	-0.8375	0.529032258065	0.283870967742	-11.0219512195
169	0.0845	-0.8375	4.87419354839	-4.06129032258	-6.78536585366
170	0.085	0.609375	4.87419354839	0.283870967742	-8.19756097561
171	0.0855	-2.284375	1.97741935484	-2.61290322581	-9.60975609756
172	0.086	-10.965625	3.42580645161	1.73225806452	-8.19756097561
173	0.0865	-6.625	1.97741935484	-1.16451612903	-13.8463414634
174	0.087	-0.8375	1.97741935484	-2.61290322581	-18.0829268293
175	0.0875	0.609375	1.97741935484	1.73225806452	-23.7317073171
176	0.088	4.95	-9.60967741935	-1.16451612903	-15.2585365854
177	0.0885	4.95	-8.16129032258	-1.16451612903	-16.6707317073
178	0.089	4.95	-0.91935483871	0.283870967742	-16.6707317073
179	0.0895	19.41875	0.529032258065	-1.16451612903	-15.2585365854
180	0.09	2.05625	3.42580645161	-8.4064516129	-16.6707317073
181	0.0905	3.503125	4.87419354839	-2.61290322581	-12.4341463415
182	0.091	0.609375	4.87419354839	-4.06129032258	-12.4341463415
183	0.0915	-2.284375	-0.91935483871	-4.06129032258	-8.19756097561
184	0.092	-12.4125	1.97741935484	-2.61290322581	-6.78536585366
185	0.0925	9.290625	0.529032258065	-4.06129032258	-9.60975609756
186	0.093	-2.284375	0.529032258065	-1.16451612903	-12.4341463415
187	0.0935	-0.8375	1.97741935484	-9.85483870968	-3.96097560976
188	0.094	-2.284375	3.42580645161	1.73225806452	-2.5487804878
189	0.0945	-2.284375	0.529032258065	3.18064516129	-2.5487804878
190	0.095	-0.8375	0.529032258065	3.18064516129	-2.5487804878
191	0.0955	19.41875	0.529032258065	3.18064516129	-15.2585365854
192	0.096	3.503125	1.97741935484	1.73225806452	-15.2585365854
193	0.0965	3.503125	1.97741935484	4.62903225806	-1.13658536585
194	0.097	0.609375	1.97741935484	8.97419354839	-8.19756097561
195	0.0975	2.05625	-0.91935483871	0.283870967742	-8.19756097561
196	0.098	3.503125	-8.16129032258	0.283870967742	-8.19756097561
197	0.0985	22.3125	0.529032258065	1.73225806452	-9.60975609756
198	0.099	2.05625	3.42580645161	1.73225806452	-6.78536585366
199	0.0995	0.609375	0.529032258065	0.283870967742	-3.96097560976
200	0.1	4.95	0.529032258065	17.664516129	-12.4341463415
201	0.1005	0.609375	-9.60967741935	3.18064516129	-13.8463414634
202	0.101	-0.8375	-2.36774193548	1.73225806452	-13.8463414634
203	0.1015	3.503125	1.97741935484	3.18064516129	-16.6707317073
204	0.102	-5.178125	4.87419354839	3.18064516129	-15.2585365854
205	0.1025	0.609375	0.529032258065	1.73225806452	-15.2585365854
206	0.103	-0.8375	0.529032258065	20.5612903226	-18.0829268293
207	0.1035	0.609375	-0.91935483871	7.52580645161	-13.8463414634
208	0.104	4.95	-3.81612903226	1.73225806452	-15.2585365854
209	0.1045	3.503125	0.529032258065	3.18064516129	-13.8463414634
210	0.105	-10.965625	-0.91935483871	0.283870967742	-12.4341463415
211	0.1055	-5.178125	0.529032258065	0.283870967742	-13.8463414634
212	0.106	2.05625	0.529032258065	-1.16451612903	-11.0219512195
213	0.1065	-2.284375	-0.91935483871	-9.85483870968	-13.8463414634
214	0.107	-0.8375	-11.0580645161	0.283870967742	-12.4341463415
215	0.1075	2.05625	-5.26451612903	-2.61290322581	-11.0219512195
216	0.108	15.078125	0.529032258065	1.73225806452	-8.19756097561
217	0.1085	7.84375	0.529032258065	0.283870967742	-8.19756097561
218	0.109	2.05625	0.529032258065	0.283870967742	-12.4341463415
219	0.1095	0.609375	6.32258064516	-6.95806451613	-3.96097560976
220	0.11	2.05625	7.77096774194	-8.4064516129	-3.96097560976
221	0.1105	0.609375	25.1516129032	1.73225806452	0.275609756098
222	0.111	-9.51875	6.32258064516	0.283870967742	-1.13658536585
223	0.1115	23.759375	6.32258064516	0.283870967742	0.275609756098
224	0.112	2.05625	1.97741935484	-1.16451612903	-9.60975609756
225	0.1125	2.05625	1.97741935484	-5.50967741935	-1.13658536585
226	0.113	3.503125	4.87419354839	4.62903225806	-1.13658536585
227	0.1135	2.05625	17.9096774194	4.62903225806	0.275609756098
228	0.114	-12.4125	-3.81612903226	4.62903225806	-2.5487804878
229	0.1145	22.3125	-2.36774193548	0.283870967742	-2.5487804878
230	0.115	2.05625	-5.26451612903	1.73225806452	-12.4341463415
231	0.1155	0.609375	-0.91935483871	-5.50967741935	-9.60975609756
232	0.116	-0.8375	3.42580645161	-2.61290322581	-6.78536585366
233	0.1165	0.609375	-0.91935483871	-4.06129032258	-11.0219512195
234	0.117	0.609375	15.0129032258	3.18064516129	-12.4341463415
235	0.1175	-2.284375	3.42580645161	1.73225806452	-8.19756097561
236	0.118	-8.071875	0.529032258065	0.283870967742	-13.8463414634
237	0.1185	-0.8375	-3.81612903226	-9.85483870968	-9.60975609756
238	0.119	0.609375	-2.36774193548	-2.61290322581	-9.60975609756
239	0.1195	2.05625	4.87419354839	-1.16451612903	-6.78536585366
240	0.12	-0.8375	-2.36774193548	1.73225806452	-8.19756097561
241	0.1205	-8.071875	3.42580645161	4.62903225806	-3.96097560976
242	0.121	4.95	4.87419354839	3.18064516129	-8.19756097561
243	0.1215	0.609375	0.529032258065	1.73225806452	-15.2585365854
244	0.122	-0.8375	0.529032258065	1.73225806452	-9.60975609756
245	0.1225	-0.8375	0.529032258065	3.18064516129	-9.60975609756
246	0.123	-0.8375	16.4612903226	1.73225806452	-11.0219512195
247	0.1235	-3.73125	0.529032258065	1.73225806452	-12.4341463415
248	0.124	-8.071875	3.42580645161	-1.16451612903	-8.19756097561
249	0.1245	-0.8375	0.529032258065	3.18064516129	-19.4951219512
250	0.125	0.609375	1.97741935484	16.2161290323	-8.19756097561
251	0.1255	-2.284375	-11.0580645161	3.18064516129	-5.37317073171
252	0.126	3.503125	7.77096774194	-1.16451612903	-2.5487804878
253	0.1265	0.609375	-5.26451612903	-1.16451612903	0.275609756098
254	0.127	17.971875	1.97741935484	4.62903225806	0.275609756098
255	0.1275	4.95	-0.91935483871	4.62903225806	4.51219512195
256	0.128	4.95	0.529032258065	4.62903225806	17.2219512195
257	0.1285	0.609375	0.529032258065	1.73225806452	1.68780487805
258	0.129	3.503125	-8.16129032258	4.62903225806	-1.13658536585
259	0.1295	3.503125	-8.16129032258	4.62903225806	1.68780487805
260	0.13	20.865625	3.42580645161	3.18064516129	-6.78536585366
261	0.1305	-2.284375	0.529032258065	4.62903225806	5.9243902439
262	0.131	2.05625	1.97741935484	3.18064516129	-2.5487804878
263	0.1315	3.503125	1.97741935484	19.1129032258	-5.37317073171
264	0.132	0.609375	0.529032258065	20.5612903226	-9.60975609756
265	0.1325	10.7375	-8.16129032258	1.73225806452	-12.4341463415
266	0.133	7.84375	1.97741935484	0.283870967742	-13.8463414634
267	0.1335	25.20625	0.529032258065	1.73225806452	-23.7317073171
268	0.134	2.05625	3.42580645161	-2.61290322581	-20.9073170732
269	0.1345	7.84375	6.32258064516	-2.61290322581	-16.6707317073
270	0.135	0.609375	6.32258064516	0.283870967742	-15.2585365854
271	0.1355	-0.8375	9.21935483871	3.18064516129	-16.6707317073
272	0.136	3.503125	-5.26451612903	0.283870967742	-13.8463414634
273	0.1365	15.078125	-0.91935483871	1.73225806452	-15.2585365854
274	0.137	2.05625	1.97741935484	0.283870967742	-18.0829268293
275	0.1375	-0.8375	0.529032258065	-6.95806451613	-8.19756097561
276	0.138	-3.73125	3.42580645161	-5.50967741935	-6.78536585366
277	0.1385	-0.8375	-2.36774193548	0.283870967742	-1.13658536585
278	0.139	0.609375	-8.16129032258	1.73225806452	-1.13658536585
279	0.1395	4.95	-6.71290322581	3.18064516129	-1.13658536585
280	0.14	-0.8375	0.529032258065	-1.16451612903	-6.78536585366
281	0.1405	-0.8375	-0.91935483871	-4.06129032258	-3.96097560976
282	0.141	0.609375	1.97741935484	16.2161290323	-1.13658536585
283	0.1415	3.503125	3.42580645161	0.283870967742	1.68780487805
284	0.142	-0.8375	-9.60967741935	0.283870967742	4.51219512195
285	0.1425	-10.965625	1.97741935484	-1.16451612903	4.51219512195
286	0.143	19.41875	1.97741935484	-1.16451612903	-1.13658536585
287	0.1435	-3.73125	-0.91935483871	0.283870967742	0.275609756098
288	0.144	0.609375	0.529032258065	3.18064516129	7.33658536585
289	0.1445	-2.284375	-5.26451612903	1.73225806452	4.51219512195
290	0.145	0.609375	7.77096774194	-1.16451612903	7.33658536585
291	0.1455	2.05625	1.97741935484	3.18064516129	7.33658536585
292	0.146	0.609375	0.529032258065	3.18064516129	4.51219512195
293	0.1465	7.84375	0.529032258065	4.62903225806	-3.96097560976
294	0.147	0.609375	1.97741935484	-6.95806451613	-5.37317073171
295	0.1475	-2.284375	0.529032258065	-8.4064516129	-1.13658536585
296	0.148	2.05625	20.8064516129	0.283870967742	-1.13658536585
297	0.1485	2.05625	3.42580645161	3.18064516129	-5.37317073171
298	0.149	-9.51875	1.97741935484	3.18064516129	-3.96097560976
299	0.1495	-3.73125	0.529032258065	-1.16451612903	4.51219512195
300	0.15	4.95	1.97741935484	-1.16451612903	-1.13658536585
301	0.1505	3.503125	7.77096774194	-1.16451612903	-8.19756097561
302	0.151	6.396875	15.0129032258	0.283870967742	-2.5487804878
303	0.1515	3.503125	1.97741935484	-1.16451612903	-1.13658536585
304	0.152	16.525	0.529032258065	1.73225806452	-3.96097560976
305	0.1525	-0.8375	0.529032258065	3.18064516129	-1.13658536585
306	0.153	3.503125	1.97741935484	-1.16451612903	12.9853658537
307	0.1535	0.609375	-0.91935483871	19.1129032258	-8.19756097561
308	0.154	3.503125	-6.71290322581	-2.61290322581	-11.0219512195
309	0.1545	0.609375	-6.71290322581	0.283870967742	-9.60975609756
310	0.155	-2.284375	1.97741935484	-1.16451612903	-12.4341463415
311	0.1555	-8.071875	0.529032258065	-1.16451612903	-8.19756097561
312	0.156	-3.73125	1.97741935484	-2.61290322581	-18.0829268293
313	0.1565	-2.284375	3.42580645161	-4.06129032258	-16.6707317073
314	0.157	-0.8375	1.97741935484	1.73225806452	-11.0219512195
315	0.1575	-0.8375	-8.16129032258	0.283870967742	-6.78536585366
316	0.158	-3.73125	0.529032258065	1.73225806452	-8.19756097561
317	0.1585	19.41875	0.529032258065	0.283870967742	-8.19756097561
318	0.159	0.609375	0.529032258065	0.283870967742	8.7487804878
319	0.1595	2.05625	1.97741935484	17.664516129	-3.96097560976
320	0.16	2.05625	4.87419354839	-4.06129032258	-6.78536585366
321	0.1605	3.503125	3.42580645161	1.73225806452	-6.78536585366
322	0.161	3.503125	-8.16129032258	1.73225806452	-3.96097560976
323	0.1615	16.525	0.529032258065	1.73225806452	-3.96097560976
324	0.162	-5.178125	3.42580645161	3.18064516129	-2.5487804878
325	0.1625	3.503125	0.529032258065	6.07741935484	-13.8463414634
326	0.163	3.503125	0.529032258065	-4.06129032258	-3.96097560976
327	0.1635	3.503125	-6.71290322581	4.62903225806	-8.19756097561
328	0.164	3.503125	16.4612903226	1.73225806452	-9.60975609756
329	0.1645	-5.178125	0.529032258065	1.73225806452	-6.78536585366
330	0.165	-6.625	3.42580645161	4.62903225806	7.33658536585
331	0.1655	0.609375	0.529032258065	1.73225806452	1.68780487805
332	0.166	0.609375	1.97741935484	6.07741935484	-13.8463414634
333	0.1665	-0.8375	-11.0580645161	0.283870967742	-15.2585365854
334	0.167	0.609375	0.529032258065	1.73225806452	-13.8463414634
335	0.1675	3.503125	0.529032258065	3.18064516129	-15.2585365854
336	0.168	-0.8375	3.42580645161	0.283870967742	-15.2585365854
337	0.1685	0.609375	0.529032258065	0.283870967742	-23.7317073171
338	0.169	2.05625	0.529032258065	-12.7516129032	-26.556097561
339	0.1695	-0.8375	0.529032258065	-11.3032258065	-15.2585365854
340	0.17	2.05625	22.2548387097	-4.06129032258	-18.0829268293
341	0.1705	-2.284375	0.529032258065	-1.16451612903	-13.8463414634
342	0.171	-13.859375	0.529032258065	-1.16451612903	-16.6707317073
343	0.1715	-3.73125	0.529032258065	1.73225806452	-8.19756097561
344	0.172	-2.284375	-0.91935483871	0.283870967742	-19.4951219512
345	0.1725	0.609375	-0.91935483871	-4.06129032258	-13.8463414634
346	0.173	2.05625	-8.16129032258	-1.16451612903	-11.0219512195
347	0.1735	0.609375	1.97741935484	-5.50967741935	-6.78536585366
348	0.174	0.609375	0.529032258065	1.73225806452	-5.37317073171
349	0.1745	-6.625	3.42580645161	-1.16451612903	-2.5487804878
350	0.175	2.05625	3.42580645161	-1.16451612903	-6.78536585366
351	0.1755	7.84375	1.97741935484	-2.61290322581	15.8097560976
352	0.176	7.84375	3.42580645161	1.73225806452	1.68780487805
353	0.1765	7.84375	-6.71290322581	-2.61290322581	4.51219512195
354	0.177	9.290625	-6.71290322581	1.73225806452	5.9243902439
355	0.1775	23.759375	3.42580645161	4.62903225806	5.9243902439
356	0.178	0.609375	6.32258064516	0.283870967742	11.5731707317
357	0.1785	-2.284375	1.97741935484	7.52580645161	8.7487804878
358	0.179	0.609375	3.42580645161	7.52580645161	4.51219512195
359	0.1795	-2.284375	-0.91935483871	4.62903225806	1.68780487805
360	0.18	0.609375	-0.91935483871	0.283870967742	4.51219512195
361	0.1805	-3.73125	1.97741935484	3.18064516129	3.1
362	0.181	17.971875	3.42580645161	4.62903225806	-1.13658536585
363	0.1815	2.05625	4.87419354839	3.18064516129	-6.78536585366
364	0.182	3.503125	3.42580645161	1.73225806452	-9.60975609756
365	0.1825	4.95	-6.71290322581	-1.16451612903	-3.96097560976
366	0.183	9.290625	-5.26451612903	0.283870967742	-8.19756097561
367	0.1835	10.7375	0.529032258065	0.283870967742	-6.78536585366
368	0.184	16.525	3.42580645161	-1.16451612903	-8.19756097561
369	0.1845	-2.284375	1.97741935484	-1.16451612903	5.9243902439
370	0.185	2.05625	1.97741935484	-2.61290322581	-6.78536585366
371	0.1855	2.05625	1.97741935484	-5.50967741935	-1.13658536585
372	0.186	-0.8375	0.529032258065	-6.95806451613	-3.96097560976
373	0.1865	-0.8375	-6.71290322581	0.283870967742	-3.96097560976
374	0.187	-8.071875	-0.91935483871	3.18064516129	-5.37317073171
375	0.1875	0.609375	1.97741935484	-1.16451612903	-12.4341463415
376	0.188	2.05625	-0.91935483871	-1.16451612903	-1.13658536585
377	0.1885	-0.8375	0.529032258065	0.283870967742	0.275609756098
378	0.189	-2.284375	13.564516129	0.283870967742	-2.5487804878
379	0.1895	-0.8375	1.97741935484	3.18064516129	3.1
380	0.19	2.05625	1.97741935484	-1.16451612903	5.9243902439
381	0.1905	-5.178125	0.529032258065	0.283870967742	7.33658536585
382	0.191	0.609375	1.97741935484	1.73225806452	-1.13658536585
383	0.1915	0.609375	3.42580645161	16.2161290323	7.33658536585
384	0.192	-0.8375	-3.81612903226	-1.16451612903	4.51219512195
385	0.1925	3.503125	19.3580645161	1.73225806452	7.33658536585
386	0.193	3.503125	0.529032258065	0.283870967742	11.5731707317
387	0.1935	-5.178125	0.529032258065	1.73225806452	14.3975609756
388	0.194	3.503125	1.97741935484	4.62903225806	12.9853658537
389	0.1945	3.503125	4.87419354839	17.664516129	11.5731707317
390	0.195	4.95	7.77096774194	-2.61290322581	14.3975609756
391	0.1955	3.503125	15.0129032258	0.283870967742	15.8097560976
392	0.196	7.84375	1.97741935484	0.283870967742	15.8097560976
393	0.1965	10.7375	6.32258064516	3.18064516129	8.7487804878
394	0.197	-2.284375	4.87419354839	0.283870967742	24.2829268293
395	0.1975	3.503125	6.32258064516	-1.16451612903	31.343902439
396	0.198	2.05625	4.87419354839	0.283870967742	21.4585365854
397	0.1985	2.05625	22.2548387097	-1.16451612903	22.8707317073
398	0.199	2.05625	3.42580645161	0.283870967742	18.6341463415
399	0.1995	-5.178125	1.97741935484	-1.16451612903	18.6341463415
400	0.2	-2.284375	0.529032258065	1.73225806452	21.4585365854
401	0.2005	2.05625	3.42580645161	7.52580645161	15.8097560976
402	0.201	4.95	1.97741935484	-6.95806451613	20.0463414634
403	0.2015	-0.8375	-5.26451612903	-1.16451612903	18.6341463415
404	0.202	0.609375	10.6677419355	-1.16451612903	21.4585365854
405	0.2025	-0.8375	1.97741935484	-1.16451612903	20.0463414634
406	0.203	9.290625	1.97741935484	0.283870967742	14.3975609756
407	0.2035	0.609375	1.97741935484	-4.06129032258	11.5731707317
408	0.204	0.609375	6.32258064516	16.2161290323	18.6341463415
409	0.2045	0.609375	-5.26451612903	-1.16451612903	20.0463414634
410	0.205	0.609375	-3.81612903226	-1.16451612903	20.0463414634
411	0.2055	4.95	6.32258064516	1.73225806452	20.0463414634
412	0.206	22.3125	0.529032258065	-1.16451612903	7.33658536585
413	0.2065	-2.284375	3.42580645161	-2.61290322581	21.4585365854
414	0.207	-0.8375	6.32258064516	-2.61290322581	18.6341463415
415	0.2075	-0.8375	3.42580645161	3.18064516129	15.8097560976
416	0.208	-0.8375	0.529032258065	-5.50967741935	12.9853658537
417	0.2085	-3.73125	13.564516129	-2.61290322581	11.5731707317
418	0.209	-6.625	1.97741935484	-1.16451612903	8.7487804878
419	0.2095	-8.071875	-0.91935483871	-1.16451612903	25.6951219512
420	0.21	-0.8375	1.97741935484	-14.2	4.51219512195
421	0.2105	0.609375	3.42580645161	-2.61290322581	4.51219512195
422	0.211	0.609375	17.9096774194	0.283870967742	0.275609756098
423	0.2115	-2.284375	-2.36774193548	0.283870967742	-3.96097560976
424	0.212	7.84375	-0.91935483871	-1.16451612903	-5.37317073171
425	0.2125	0.609375	1.97741935484	1.73225806452	3.1
426	0.213	3.503125	3.42580645161	1.73225806452	-11.0219512195
427	0.2135	2.05625	4.87419354839	20.5612903226	-27.9682926829
428	0.214	-0.8375	-9.60967741935	1.73225806452	-35.0292682927
429	0.2145	4.95	-0.91935483871	4.62903225806	-42.0902439024
430	0.215	4.95	6.32258064516	3.18064516129	-54.8
431	0.2155	7.84375	4.87419354839	3.18064516129	-61.8609756098
432	0.216	-2.284375	0.529032258065	3.18064516129	-73.1585365854
433	0.2165	3.503125	6.32258064516	20.5612903226	-77.3951219512
434	0.217	0.609375	7.77096774194	1.73225806452	-80.2195121951
435	0.2175	0.609375	23.7032258065	3.18064516129	-85.8682926829
436	0.218	-2.284375	1.97741935484	4.62903225806	-87.2804878049
437	0.2185	-5.178125	0.529032258065	4.62903225806	-94.3414634146
438	0.219	-9.51875	0.529032258065	1.73225806452	-101.402439024
439	0.2195	-5.178125	0.529032258065	4.62903225806	-105.63902439
440	0.22	-6.625	3.42580645161	20.5612903226	-112.7
441	0.2205	-5.178125	-8.16129032258	6.07741935484	-118.348780488
442	0.221	-5.178125	17.9096774194	6.07741935484	-119.76097561
443	0.2215	-16.753125	0.529032258065	7.52580645161	-123.997560976
444	0.222	-13.859375	1.97741935484	6.07741935484	-115.524390244
445	0.2225	-0.8375	0.529032258065	-2.61290322581	-139.531707317
446	0.223	-2.284375	3.42580645161	-2.61290322581	-140.943902439
447	0.2235	-5.178125	3.42580645161	4.62903225806	-139.531707317
448	0.224	-5.178125	0.529032258065	1.73225806452	-143.768292683
449	0.2245	-16.753125	1.97741935484	1.73225806452	-140.943902439
450	0.225	-2.284375	0.529032258065	3.18064516129	-133.882926829
451	0.2255	0.609375	1.97741935484	6.07741935484	-145.180487805
452	0.226	-0.8375	0.529032258065	8.97419354839	-139.531707317
453	0.2265	-2.284375	0.529032258065	-2.61290322581	-138.119512195
454	0.227	0.609375	4.87419354839	3.18064516129	-139.531707317
455	0.2275	2.05625	1.97741935484	6.07741935484	-136.707317073
456	0.228	-5.178125	-0.91935483871	7.52580645161	-136.707317073
457	0.2285	2.05625	-5.26451612903	6.07741935484	-148.004878049
458	0.229	-2.284375	-0.91935483871	24.9064516129	-142.356097561
459	0.2295	0.609375	-2.36774193548	0.283870967742	-138.119512195
460	0.23	-0.8375	-11.0580645161	11.8709677419	-138.119512195
461	0.2305	4.95	-2.36774193548	8.97419354839	-138.119512195
462	0.231	-10.965625	-5.26451612903	7.52580645161	-140.943902439
463	0.2315	3.503125	-2.36774193548	11.8709677419	-138.119512195
464	0.232	0.609375	-5.26451612903	7.52580645161	-136.707317073
465	0.2325	0.609375	-0.91935483871	1.73225806452	-135.295121951
466	0.233	0.609375	0.529032258065	8.97419354839	-135.295121951
467	0.2335	-3.73125	-9.60967741935	8.97419354839	-131.058536585
468	0.234	3.503125	-3.81612903226	4.62903225806	-129.646341463
469	0.2345	16.525	-0.91935483871	8.97419354839	-132.470731707
470	0.235	-0.8375	-0.91935483871	3.18064516129	-135.295121951
471	0.2355	0.609375	-0.91935483871	16.2161290323	-128.234146341
472	0.236	-2.284375	0.529032258065	11.8709677419	-126.82195122
473	0.2365	0.609375	-0.91935483871	11.8709677419	-125.409756098
474	0.237	2.05625	-5.26451612903	8.97419354839	-121.173170732
475	0.2375	17.971875	0.529032258065	8.97419354839	-121.173170732
476	0.238	3.503125	1.97741935484	7.52580645161	-101.402439024
477	0.2385	0.609375	0.529032258065	-1.16451612903	-115.524390244
478	0.239	0.609375	4.87419354839	4.62903225806	-112.7
479	0.2395	0.609375	17.9096774194	6.07741935484	-104.226829268
480	0.24	-5.178125	-2.36774193548	8.97419354839	-99.9902439024
481	0.2405	-19.646875	-0.91935483871	7.52580645161	-92.9292682927
482	0.241	-8.071875	1.97741935484	4.62903225806	-92.9292682927
483	0.2415	-5.178125	1.97741935484	16.2161290323	-85.8682926829
484	0.242	-3.73125	0.529032258065	-1.16451612903	-78.8073170732
485	0.2425	-2.284375	0.529032258065	6.07741935484	-74.5707317073
486	0.243	-0.8375	13.564516129	7.52580645161	-71.7463414634
487	0.2435	-3.73125	17.9096774194	8.97419354839	-64.6853658537
488	0.244	-9.51875	3.42580645161	13.3193548387	-49.1512195122
489	0.2445	-0.8375	0.529032258065	11.8709677419	-60.4487804878
490	0.245	-0.8375	0.529032258065	27.8032258065	-53.387804878
491	0.2455	0.609375	4.87419354839	6.07741935484	-50.5634146341
492	0.246	3.503125	13.564516129	7.52580645161	-49.1512195122
493	0.2465	3.503125	-0.91935483871	8.97419354839	-47.7390243902
494	0.247	4.95	0.529032258065	4.62903225806	-49.1512195122
495	0.2475	-5.178125	1.97741935484	6.07741935484	-44.9146341463
496	0.248	0.609375	1.97741935484	8.97419354839	-29.3804878049
497	0.2485	-2.284375	1.97741935484	6.07741935484	-43.5024390244
498	0.249	3.503125	1.97741935484	4.62903225806	-42.0902439024
499	0.2495	3.503125	0.529032258065	1.73225806452	-40.6780487805
500	0.25	20.865625	7.77096774194	1.73225806452	-33.6170731707
501	0.2505	-8.071875	6.32258064516	0.283870967742	-19.4951219512
502	0.251	2.05625	6.32258064516	-8.4064516129	-29.3804878049
503	0.2515	2.05625	6.32258064516	-4.06129032258	-25.143902439
504	0.252	0.609375	7.77096774194	4.62903225806	-16.6707317073
505	0.2525	-0.8375	0.529032258065	3.18064516129	-18.0829268293
506	0.253	-9.51875	0.529032258065	1.73225806452	-15.2585365854
507	0.2535	10.7375	-2.36774193548	0.283870967742	-15.2585365854
508	0.254	0.609375	-3.81612903226	-1.16451612903	-15.2585365854
509	0.2545	-0.8375	-5.26451612903	-12.7516129032	-2.5487804878
510	0.255	-0.8375	-5.26451612903	-5.50967741935	-2.5487804878
511	0.2555	0.609375	10.6677419355	0.283870967742	1.68780487805
512	0.256	-0.8375	-3.81612903226	-4.06129032258	3.1
513	0.2565	-5.178125	1.97741935484	-1.16451612903	4.51219512195
514	0.257	17.971875	3.42580645161	0.283870967742	0.275609756098
515	0.2575	0.609375	1.97741935484	-11.3032258065	14.3975609756
516	0.258	-0.8375	1.97741935484	-8.4064516129	21.4585365854
517	0.2585	0.609375	1.97741935484	-4.06129032258	27.1073170732
518	0.259	2.05625	-5.26451612903	-2.61290322581	31.343902439
519	0.2595	-2.284375	0.529032258065	-1.16451612903	34.1682926829
520	0.26	-8.071875	-2.36774193548	-1.16451612903	39.8170731707
521	0.2605	2.05625	1.97741935484	0.283870967742	31.343902439
522	0.261	2.05625	0.529032258065	1.73225806452	31.343902439
523	0.2615	0.609375	-0.91935483871	-2.61290322581	32.756097561
524	0.262	3.503125	10.6677419355	-1.16451612903	34.1682926829
525	0.2625	2.05625	-2.36774193548	-2.61290322581	34.1682926829
526	0.263	4.95	0.529032258065	0.283870967742	28.5195121951
527	0.2635	-5.178125	0.529032258065	0.283870967742	44.0536585366
528	0.264	2.05625	0.529032258065	-12.7516129032	27.1073170732
529	0.2645	2.05625	4.87419354839	-5.50967741935	25.6951219512
530	0.265	2.05625	3.42580645161	3.18064516129	27.1073170732
531	0.2655	-0.8375	-0.91935483871	3.18064516129	27.1073170732
532	0.266	-3.73125	0.529032258065	-1.16451612903	24.2829268293
533	0.2665	17.971875	0.529032258065	-1.16451612903	14.3975609756
534	0.267	0.609375	-0.91935483871	-4.06129032258	17.2219512195
535	0.2675	0.609375	4.87419354839	-12.7516129032	24.2829268293
536	0.268	0.609375	4.87419354839	-5.50967741935	31.343902439
537	0.2685	0.609375	10.6677419355	-2.61290322581	28.5195121951
538	0.269	0.609375	-3.81612903226	-1.16451612903	28.5195121951
539	0.2695	9.290625	1.97741935484	-1.16451612903	31.343902439
540	0.27	-8.071875	1.97741935484	0.283870967742	31.343902439
541	0.2705	-2.284375	0.529032258065	1.73225806452	27.1073170732
542	0.271	-5.178125	-0.91935483871	13.3193548387	27.1073170732
543	0.2715	-0.8375	-11.0580645161	-1.16451612903	25.6951219512
544	0.272	0.609375	0.529032258065	0.283870967742	27.1073170732
545	0.2725	13.63125	0.529032258065	-1.16451612903	32.756097561
546	0.273	4.95	-0.91935483871	1.73225806452	32.756097561
547	0.2735	-2.284375	1.97741935484	0.283870967742	29.9317073171
548	0.274	-2.284375	3.42580645161	-8.4064516129	34.1682926829
549	0.2745	-0.8375	-0.91935483871	-1.16451612903	34.1682926829
550	0.275	-3.73125	15.0129032258	-1.16451612903	38.4048780488
551	0.2755	-2.284375	1.97741935484	-1.16451612903	42.6414634146
552	0.276	-10.965625	0.529032258065	0.283870967742	46.8780487805
553	0.2765	0.609375	3.42580645161	0.283870967742	58.1756097561
554	0.277	2.05625	1.97741935484	3.18064516129	39.8170731707
555	0.2775	0.609375	-2.36774193548	0.283870967742	44.0536585366
556	0.278	0.609375	0.529032258065	-4.06129032258	41.2292682927
557	0.2785	4.95	3.42580645161	0.283870967742	41.2292682927
558	0.279	0.609375	0.529032258065	0.283870967742	49.7024390244
559	0.2795	-5.178125	1.97741935484	1.73225806452	32.756097561
560	0.28	0.609375	-0.91935483871	20.5612903226	45.4658536585
561	0.2805	-0.8375	0.529032258065	0.283870967742	45.4658536585
562	0.281	0.609375	-5.26451612903	0.283870967742	38.4048780488
563	0.2815	2.05625	3.42580645161	1.73225806452	34.1682926829
564	0.282	0.609375	4.87419354839	-1.16451612903	29.9317073171
565	0.2825	-8.071875	1.97741935484	1.73225806452	29.9317073171
566	0.283	0.609375	0.529032258065	-1.16451612903	18.6341463415
567	0.2835	0.609375	1.97741935484	17.664516129	22.8707317073
568	0.284	2.05625	1.97741935484	0.283870967742	21.4585365854
569	0.2845	0.609375	-6.71290322581	0.283870967742	20.0463414634
570	0.285	0.609375	0.529032258065	-1.16451612903	18.6341463415
571	0.2855	22.3125	0.529032258065	-2.61290322581	7.33658536585
572	0.286	0.609375	3.42580645161	-1.16451612903	10.1609756098
573	0.2865	0.609375	0.529032258065	-12.7516129032	21.4585365854
574	0.287	2.05625	-2.36774193548	-4.06129032258	18.6341463415
575	0.2875	2.05625	12.1161290323	-1.16451612903	21.4585365854
576	0.288	-2.284375	7.77096774194	-4.06129032258	20.0463414634
577	0.2885	-6.625	0.529032258065	-1.16451612903	21.4585365854
578	0.289	0.609375	1.97741935484	0.283870967742	36.9926829268
579	0.2895	-2.284375	0.529032258065	-8.4064516129	24.2829268293
580	0.29	-2.284375	1.97741935484	-9.85483870968	28.5195121951
581	0.2905	-5.178125	3.42580645161	-1.16451612903	28.5195121951
582	0.291	-5.178125	-8.16129032258	-1.16451612903	28.5195121951
583	0.2915	0.609375	1.97741935484	-1.16451612903	29.9317073171
584	0.292	13.63125	0.529032258065	-1.16451612903	28.5195121951
585	0.2925	-6.625	0.529032258065	-1.16451612903	45.4658536585
586	0.293	2.05625	1.97741935484	-2.61290322581	41.2292682927
587	0.2935	0.609375	-0.91935483871	-1.16451612903	41.2292682927
588	0.294	2.05625	17.9096774194	-1.16451612903	42.6414634146
589	0.2945	-0.8375	-8.16129032258	-1.16451612903	41.2292682927
590	0.295	-6.625	-0.91935483871	0.283870967742	32.756097561
591	0.2955	0.609375	-0.91935483871	-2.61290322581	22.8707317073
592	0.296	0.609375	1.97741935484	-1.16451612903	32.756097561
593	0.2965	0.609375	0.529032258065	8.97419354839	25.6951219512
594	0.297	2.05625	1.97741935484	1.73225806452	22.8707317073
595	0.2975	3.503125	-5.26451612903	0.283870967742	20.0463414634
596	0.298	-0.8375	3.42580645161	1.73225806452	21.4585365854
597	0.2985	23.759375	0.529032258065	-1.16451612903	11.5731707317
598	0.299	0.609375	1.97741935484	-2.61290322581	20.0463414634
599	0.2995	0.609375	1.97741935484	-8.4064516129	21.4585365854
600	0.3	0.609375	4.87419354839	-5.50967741935	27.1073170732
601	0.3005	-2.284375	-6.71290322581	-4.06129032258	29.9317073171
602	0.301	0.609375	3.42580645161	0.283870967742	28.5195121951
603	0.3015	7.84375	-0.91935483871	0.283870967742	29.9317073171
604	0.302	-2.284375	3.42580645161	-1.16451612903	20.0463414634
605	0.3025	0.609375	3.42580645161	-4.06129032258	24.2829268293
606	0.303	0.609375	6.32258064516	-9.85483870968	24.2829268293
607	0.3035	-2.284375	3.42580645161	-4.06129032258	24.2829268293
608	0.304	-3.73125	0.529032258065	1.73225806452	22.8707317073
609	0.3045	-12.4125	4.87419354839	0.283870967742	21.4585365854
610	0.305	9.290625	3.42580645161	0.283870967742	20.0463414634
611	0.3055	-0.8375	3.42580645161	-2.61290322581	12.9853658537
612	0.306	0.609375	-0.91935483871	17.664516129	21.4585365854
613	0.3065	-0.8375	-2.36774193548	1.73225806452	21.4585365854
614	0.307	-0.8375	-12.5064516129	0.283870967742	21.4585365854
615	0.3075	4.95	-0.91935483871	-1.16451612903	21.4585365854
616	0.308	12.184375	0.529032258065	-2.61290322581	29.9317073171
617	0.3085	7.84375	1.97741935484	0.283870967742	29.9317073171
618	0.309	2.05625	3.42580645161	-1.16451612903	32.756097561
619	0.3095	3.503125	0.529032258065	-4.06129032258	31.343902439
620	0.31	3.503125	-0.91935483871	4.62903225806	31.343902439
621	0.3105	2.05625	-9.60967741935	3.18064516129	25.6951219512
622	0.311	7.84375	-2.36774193548	6.07741935484	25.6951219512
623	0.3115	22.3125	-0.91935483871	6.07741935484	15.8097560976
624	0.312	0.609375	-0.91935483871	6.07741935484	21.4585365854
625	0.3125	0.609375	0.529032258065	-8.4064516129	27.1073170732
626	0.313	2.05625	3.42580645161	6.07741935484	27.1073170732
627	0.3135	0.609375	15.0129032258	6.07741935484	24.2829268293
628	0.314	-2.284375	-0.91935483871	3.18064516129	24.2829268293
629	0.3145	-5.178125	1.97741935484	3.18064516129	20.0463414634
630	0.315	0.609375	0.529032258065	1.73225806452	7.33658536585
631	0.3155	0.609375	0.529032258065	-11.3032258065	15.8097560976
632	0.316	2.05625	-0.91935483871	-1.16451612903	14.3975609756
633	0.3165	0.609375	4.87419354839	7.52580645161	17.2219512195
634	0.317	-0.8375	-5.26451612903	0.283870967742	15.8097560976
635	0.3175	-5.178125	0.529032258065	-1.16451612903	11.5731707317
636	0.318	13.63125	3.42580645161	-1.16451612903	1.68780487805
637	0.3185	-3.73125	-0.91935483871	-1.16451612903	4.51219512195
638	0.319	-0.8375	1.97741935484	-9.85483870968	15.8097560976
639	0.3195	-2.284375	1.97741935484	-4.06129032258	14.3975609756
640	0.32	-0.8375	20.8064516129	-1.16451612903	14.3975609756
641	0.3205	-2.284375	-2.36774193548	-1.16451612903	8.7487804878
642	0.321	12.184375	0.529032258065	0.283870967742	8.7487804878
643	0.3215	-8.071875	1.97741935484	3.18064516129	8.7487804878
644	0.322	3.503125	1.97741935484	3.18064516129	4.51219512195
645	0.3225	3.503125	4.87419354839	7.52580645161	1.68780487805
646	0.323	3.503125	-0.91935483871	-2.61290322581	3.1
647	0.3235	4.95	3.42580645161	-1.16451612903	7.33658536585
648	0.324	-0.8375	3.42580645161	-1.16451612903	8.7487804878
649	0.3245	-8.071875	3.42580645161	0.283870967742	12.9853658537
650	0.325	-3.73125	1.97741935484	-1.16451612903	4.51219512195
651	0.3255	-3.73125	-0.91935483871	3.18064516129	15.8097560976
652	0.326	-5.178125	-5.26451612903	-1.16451612903	20.0463414634
653	0.3265	-3.73125	6.32258064516	-4.06129032258	20.0463414634
654	0.327	-3.73125	0.529032258065	-1.16451612903	25.6951219512
655	0.3275	-12.4125	0.529032258065	0.283870967742	29.9317073171
656	0.328	-8.071875	0.529032258065	3.18064516129	36.9926829268
657	0.3285	-0.8375	0.529032258065	4.62903225806	21.4585365854
658	0.329	2.05625	0.529032258065	-1.16451612903	21.4585365854
659	0.3295	7.84375	-6.71290322581	1.73225806452	21.4585365854
660	0.33	7.84375	4.87419354839	1.73225806452	22.8707317073
661	0.3305	10.7375	-0.91935483871	-1.16451612903	20.0463414634
662	0.331	-2.284375	0.529032258065	0.283870967742	21.4585365854
663	0.3315	4.95	1.97741935484	1.73225806452	34.1682926829
664	0.332	4.95	-0.91935483871	1.73225806452	3.1
665	0.3325	2.05625	-2.36774193548	-9.85483870968	11.5731707317
666	0.333	3.503125	20.8064516129	-1.16451612903	11.5731707317
667	0.3335	-0.8375	13.564516129	3.18064516129	7.33658536585
668	0.334	-10.965625	0.529032258065	0.283870967742	3.1
669	0.3345	-2.284375	0.529032258065	0.283870967742	8.7487804878
670	0.335	-5.178125	0.529032258065	0.283870967742	14.3975609756
671	0.3355	-8.071875	0.529032258065	-8.4064516129	-1.13658536585
672	0.336	-6.625	-3.81612903226	0.283870967742	-2.5487804878
673	0.3365	-5.178125	-5.26451612903	-1.16451612903	-1.13658536585
674	0.337	-6.625	3.42580645161	0.283870967742	-1.13658536585
675	0.3375	13.63125	0.529032258065	-1.16451612903	-8.19756097561
676	0.338	-0.8375	0.529032258065	3.18064516129	-11.0219512195
677	0.3385	0.609375	0.529032258065	-11.3032258065	-1.13658536585
678	0.339	0.609375	-12.5064516129	-2.61290322581	1.68780487805
679	0.3395	0.609375	-3.81612903226	-1.16451612903	0.275609756098
680	0.34	2.05625	0.529032258065	-1.16451612903	1.68780487805
681	0.3405	12.184375	1.97741935484	-4.06129032258	-2.5487804878
682	0.341	-5.178125	0.529032258065	-4.06129032258	8.7487804878
683	0.3415	-2.284375	0.529032258065	-11.3032258065	3.1
684	0.342	-2.284375	4.87419354839	-4.06129032258	8.7487804878
685	0.3425	-2.284375	10.6677419355	-2.61290322581	8.7487804878
686	0.343	-2.284375	-2.36774193548	0.283870967742	12.9853658537
687	0.3435	-3.73125	-0.91935483871	0.283870967742	7.33658536585
688	0.344	0.609375	-2.36774193548	-2.61290322581	1.68780487805
689	0.3445	-0.8375	1.97741935484	-4.06129032258	14.3975609756
690	0.345	0.609375	3.42580645161	-5.50967741935	5.9243902439
691	0.3455	2.05625	4.87419354839	-1.16451612903	7.33658536585
692	0.346	-0.8375	-3.81612903226	0.283870967742	7.33658536585
693	0.3465	-2.284375	0.529032258065	0.283870967742	4.51219512195
694	0.347	-5.178125	0.529032258065	0.283870967742	1.68780487805
695	0.3475	3.503125	0.529032258065	-2.61290322581	17.2219512195
696	0.348	3.503125	0.529032258065	11.8709677419	-2.5487804878
697	0.3485	2.05625	0.529032258065	1.73225806452	-1.13658536585
698	0.349	0.609375	10.6677419355	-1.16451612903	-1.13658536585
699	0.3495	3.503125	1.97741935484	-2.61290322581	-2.5487804878
700	0.35	-5.178125	1.97741935484	-1.16451612903	-6.78536585366
701	0.3505	0.609375	1.97741935484	0.283870967742	-9.60975609756
702	0.351	0.609375	3.42580645161	7.52580645161	-6.78536585366
703	0.3515	-0.8375	1.97741935484	-1.16451612903	-8.19756097561
704	0.352	0.609375	-3.81612903226	0.283870967742	-6.78536585366
705	0.3525	-6.625	1.97741935484	-1.16451612903	-5.37317073171
706	0.353	10.7375	-2.36774193548	0.283870967742	-6.78536585366
707	0.3535	-0.8375	1.97741935484	-2.61290322581	-16.6707317073
708	0.354	-0.8375	-0.91935483871	11.8709677419	-12.4341463415
709	0.3545	0.609375	0.529032258065	-1.16451612903	-11.0219512195
710	0.355	2.05625	-3.81612903226	0.283870967742	-8.19756097561
711	0.3555	-0.8375	0.529032258065	0.283870967742	-8.19756097561
712	0.356	17.971875	1.97741935484	-4.06129032258	-13.8463414634
713	0.3565	3.503125	-0.91935483871	-4.06129032258	-15.2585365854
714	0.357	2.05625	0.529032258065	-12.7516129032	-12.4341463415
715	0.3575	0.609375	3.42580645161	-14.2	-3.96097560976
716	0.358	0.609375	4.87419354839	-2.61290322581	-6.78536585366
717	0.3585	0.609375	-2.36774193548	-2.61290322581	-2.5487804878
718	0.359	-8.071875	0.529032258065	-1.16451612903	-2.5487804878
719	0.3595	0.609375	1.97741935484	-1.16451612903	-2.5487804878
720	0.36	0.609375	4.87419354839	-2.61290322581	17.2219512195
721	0.3605	0.609375	1.97741935484	1.73225806452	4.51219512195
722	0.361	-0.8375	-8.16129032258	0.283870967742	3.1
723	0.3615	-0.8375	-6.71290322581	0.283870967742	1.68780487805
724	0.362	3.503125	-0.91935483871	1.73225806452	0.275609756098
725	0.3625	16.525	0.529032258065	1.73225806452	0.275609756098
726	0.363	-0.8375	1.97741935484	0.283870967742	4.51219512195
727	0.3635	0.609375	3.42580645161	14.7677419355	-6.78536585366
728	0.364	2.05625	1.97741935484	11.8709677419	-2.5487804878
729	0.3645	2.05625	0.529032258065	1.73225806452	-3.96097560976
730	0.365	3.503125	3.42580645161	1.73225806452	-3.96097560976
731	0.3655	3.503125	4.87419354839	-1.16451612903	-8.19756097561
732	0.366	-5.178125	6.32258064516	-1.16451612903	-15.2585365854
733	0.3665	-0.8375	6.32258064516	0.283870967742	-6.78536585366
734	0.367	-0.8375	7.77096774194	-1.16451612903	-6.78536585366
735	0.3675	0.609375	4.87419354839	-1.16451612903	-8.19756097561
736	0.368	3.503125	-5.26451612903	-2.61290322581	-8.19756097561
737	0.3685	19.41875	0.529032258065	-1.16451612903	-5.37317073171
738	0.369	-5.178125	0.529032258065	-1.16451612903	8.7487804878
739	0.3695	3.503125	-3.81612903226	-5.50967741935	-5.37317073171
740	0.37	4.95	-0.91935483871	-8.4064516129	-6.78536585366
741	0.3705	0.609375	-0.91935483871	-1.16451612903	-3.96097560976
742	0.371	-2.284375	-3.81612903226	-2.61290322581	-3.96097560976
743	0.3715	-12.4125	0.529032258065	-1.16451612903	-5.37317073171
744	0.372	15.078125	3.42580645161	-1.16451612903	-2.5487804878
745	0.3725	-2.284375	1.97741935484	-11.3032258065	-1.13658536585
746	0.373	0.609375	3.42580645161	4.62903225806	-3.96097560976
747	0.3735	-5.178125	-3.81612903226	-4.06129032258	-2.5487804878
748	0.374	-0.8375	9.21935483871	-1.16451612903	0.275609756098
749	0.3745	-3.73125	-3.81612903226	-1.16451612903	-1.13658536585
750	0.375	9.290625	0.529032258065	1.73225806452	-1.13658536585
751	0.3755	-2.284375	-2.36774193548	0.283870967742	-3.96097560976
752	0.376	-0.8375	0.529032258065	17.664516129	5.9243902439
753	0.3765	0.609375	-2.36774193548	0.283870967742	12.9853658537
754	0.377	-0.8375	-11.0580645161	-1.16451612903	14.3975609756
755	0.3775	4.95	0.529032258065	-1.16451612903	14.3975609756
756	0.378	-10.965625	1.97741935484	0.283870967742	17.2219512195
757	0.3785	-5.178125	1.97741935484	1.73225806452	21.4585365854
758	0.379	0.609375	0.529032258065	-2.61290322581	11.5731707317
759	0.3795	0.609375	-0.91935483871	0.283870967742	7.33658536585
760	0.38	-0.8375	-2.36774193548	-4.06129032258	12.9853658537
761	0.3805	-3.73125	10.6677419355	1.73225806452	8.7487804878
762	0.381	-3.73125	3.42580645161	4.62903225806	4.51219512195
763	0.3815	19.41875	0.529032258065	1.73225806452	-1.13658536585
764	0.382	0.609375	-0.91935483871	-1.16451612903	-11.0219512195
765	0.3825	-0.8375	-0.91935483871	-4.06129032258	17.2219512195
766	0.383	0.609375	-2.36774193548	19.1129032258	-1.13658536585
767	0.3835	-2.284375	-8.16129032258	1.73225806452	0.275609756098
768	0.384	-3.73125	22.2548387097	0.283870967742	1.68780487805
769	0.3845	-10.965625	3.42580645161	-1.16451612903	4.51219512195
770	0.385	-10.965625	0.529032258065	1.73225806452	20.0463414634
771	0.3855	-0.8375	0.529032258065	0.283870967742	-2.5487804878
772	0.386	2.05625	0.529032258065	-11.3032258065	11.5731707317
773	0.3865	3.503125	4.87419354839	-8.4064516129	11.5731707317
774	0.387	-2.284375	0.529032258065	-1.16451612903	5.9243902439
775	0.3875	-13.859375	0.529032258065	0.283870967742	5.9243902439
776	0.388	22.3125	-0.91935483871	-1.16451612903	-2.5487804878
777	0.3885	3.503125	0.529032258065	-2.61290322581	-13.8463414634
778	0.389	0.609375	0.529032258065	-11.3032258065	-3.96097560976
779	0.3895	-0.8375	4.87419354839	-1.16451612903	-2.5487804878
780	0.39	0.609375	-9.60967741935	-1.16451612903	-3.96097560976
781	0.3905	0.609375	3.42580645161	-1.16451612903	-3.96097560976
782	0.391	17.971875	-0.91935483871	-1.16451612903	-1.13658536585
783	0.3915	-12.4125	-0.91935483871	-5.50967741935	14.3975609756
784	0.392	-0.8375	0.529032258065	20.5612903226	-2.5487804878
785	0.3925	-0.8375	3.42580645161	1.73225806452	-1.13658536585
786	0.393	0.609375	-11.0580645161	-2.61290322581	3.1
787	0.3935	2.05625	-9.60967741935	-1.16451612903	4.51219512195
788	0.394	19.41875	-0.91935483871	0.283870967742	8.7487804878
789	0.3945	-8.071875	-0.91935483871	0.283870967742	12.9853658537
790	0.395	0.609375	1.97741935484	4.62903225806	21.4585365854
791	0.3955	-0.8375	1.97741935484	3.18064516129	8.7487804878
792	0.396	-0.8375	1.97741935484	1.73225806452	5.9243902439
793	0.3965	2.05625	-6.71290322581	1.73225806452	5.9243902439
794	0.397	9.290625	1.97741935484	-1.16451612903	5.9243902439
795	0.3975	-6.625	3.42580645161	1.73225806452	7.33658536585
796	0.398	2.05625	1.97741935484	6.07741935484	15.8097560976
797	0.3985	2.05625	3.42580645161	11.8709677419	4.51219512195
798	0.399	0.609375	6.32258064516	-4.06129032258	1.68780487805
799	0.3995	-2.284375	4.87419354839	4.62903225806	1.68780487805
800	0.4	2.05625	15.0129032258	3.18064516129	-1.13658536585
801	0.4005	-5.178125	0.529032258065	1.73225806452	3.1
802	0.401	-9.51875	0.529032258065	0.283870967742	18.6341463415
803	0.4015	-2.284375	0.529032258065	20.5612903226	0.275609756098
804	0.402	0.609375	1.97741935484	0.283870967742	1.68780487805
805	0.4025	0.609375	17.9096774194	3.18064516129	0.275609756098
806	0.403	-2.284375	1.97741935484	0.283870967742	3.1
807	0.4035	-12.4125	0.529032258065	0.283870967742	5.9243902439
808	0.404	0.609375	1.97741935484	-4.06129032258	-1.13658536585
809	0.4045	-2.284375	-0.91935483871	-2.61290322581	0.275609756098
810	0.405	-0.8375	-0.91935483871	-9.85483870968	4.51219512195
811	0.4055	-0.8375	19.3580645161	1.73225806452	4.51219512195
812	0.406	-2.284375	-5.26451612903	0.283870967742	5.9243902439
813	0.4065	-8.071875	0.529032258065	1.73225806452	4.51219512195
814	0.407	4.95	0.529032258065	-1.16451612903	4.51219512195
815	0.4075	-0.8375	0.529032258065	-2.61290322581	5.9243902439
816	0.408	-0.8375	1.97741935484	16.2161290323	11.5731707317
817	0.4085	-2.284375	1.97741935484	-4.06129032258	11.5731707317
818	0.409	-2.284375	20.8064516129	0.283870967742	14.3975609756
819	0.4095	-5.178125	0.529032258065	3.18064516129	14.3975609756
820	0.41	-3.73125	3.42580645161	3.18064516129	12.9853658537
821	0.4105	-3.73125	0.529032258065	0.283870967742	7.33658536585
822	0.411	2.05625	1.97741935484	1.73225806452	21.4585365854
823	0.4115	3.503125	6.32258064516	-1.16451612903	17.2219512195
824	0.412	0.609375	13.564516129	-1.16451612903	20.0463414634
825	0.4125	-0.8375	-0.91935483871	0.283870967742	18.6341463415
826	0.413	-5.178125	3.42580645161	3.18064516129	15.8097560976
827	0.4135	3.503125	0.529032258065	4.62903225806	17.2219512195
828	0.414	-0.8375	1.97741935484	10.4225806452	14.3975609756
829	0.4145	-2.284375	-0.91935483871	-4.06129032258	15.8097560976
830	0.415	0.609375	-3.81612903226	3.18064516129	14.3975609756
831	0.4155	0.609375	0.529032258065	3.18064516129	12.9853658537
832	0.416	0.609375	-0.91935483871	3.18064516129	14.3975609756
833	0.4165	9.290625	0.529032258065	3.18064516129	5.9243902439
834	0.417	-0.8375	0.529032258065	1.73225806452	3.1
835	0.4175	0.609375	0.529032258065	-6.95806451613	7.33658536585
836	0.418	-0.8375	0.529032258065	-5.50967741935	8.7487804878
837	0.4185	-0.8375	13.564516129	3.18064516129	7.33658536585
838	0.419	-2.284375	-2.36774193548	0.283870967742	8.7487804878
839	0.4195	12.184375	3.42580645161	3.18064516129	3.1
840	0.42	-2.284375	1.97741935484	0.283870967742	-2.5487804878
841	0.4205	-2.284375	0.529032258065	-8.4064516129	3.1
842	0.421	-2.284375	3.42580645161	0.283870967742	1.68780487805
843	0.4215	0.609375	20.8064516129	0.283870967742	1.68780487805
844	0.422	-2.284375	0.529032258065	3.18064516129	3.1
845	0.4225	-6.625	0.529032258065	1.73225806452	5.9243902439
846	0.423	-0.8375	3.42580645161	-1.16451612903	1.68780487805
847	0.4235	0.609375	3.42580645161	-1.16451612903	14.3975609756
848	0.424	-0.8375	1.97741935484	1.73225806452	11.5731707317
849	0.4245	0.609375	1.97741935484	-6.95806451613	15.8097560976
850	0.425	-0.8375	1.97741935484	-2.61290322581	15.8097560976
851	0.4255	-2.284375	3.42580645161	-2.61290322581	18.6341463415
852	0.426	-5.178125	1.97741935484	-1.16451612903	20.0463414634
853	0.4265	3.503125	3.42580645161	4.62903225806	7.33658536585
854	0.427	2.05625	0.529032258065	-9.85483870968	20.0463414634
855	0.4275	2.05625	-11.0580645161	1.73225806452	15.8097560976
856	0.428	7.84375	19.3580645161	1.73225806452	15.8097560976
857	0.4285	-12.4125	0.529032258065	0.283870967742	12.9853658537
858	0.429	-5.178125	1.97741935484	4.62903225806	7.33658536585
859	0.4295	2.05625	-0.91935483871	-6.95806451613	5.9243902439
860	0.43	3.503125	-0.91935483871	7.52580645161	4.51219512195
861	0.4305	-2.284375	0.529032258065	16.2161290323	4.51219512195
862	0.431	-5.178125	-0.91935483871	3.18064516129	3.1
863	0.4315	-6.625	-0.91935483871	1.73225806452	-1.13658536585
864	0.432	15.078125	1.97741935484	0.283870967742	-3.96097560976
865	0.4325	-3.73125	0.529032258065	0.283870967742	11.5731707317
866	0.433	-0.8375	0.529032258065	17.664516129	-6.78536585366
867	0.4335	-0.8375	4.87419354839	-1.16451612903	-8.19756097561
868	0.434	0.609375	13.564516129	1.73225806452	-11.0219512195
869	0.4345	0.609375	-0.91935483871	0.283870967742	-11.0219512195
870	0.435	12.184375	4.87419354839	-1.16451612903	-8.19756097561
871	0.4355	-9.51875	1.97741935484	-1.16451612903	-6.78536585366
872	0.436	2.05625	1.97741935484	3.18064516129	1.68780487805
873	0.4365	-0.8375	-2.36774193548	8.97419354839	-8.19756097561
874	0.437	-2.284375	-2.36774193548	-1.16451612903	-9.60975609756
875	0.4375	-0.8375	13.564516129	1.73225806452	-11.0219512195
876	0.438	-5.178125	0.529032258065	4.62903225806	-8.19756097561
877	0.4385	-10.965625	1.97741935484	4.62903225806	7.33658536585
878	0.439	-0.8375	4.87419354839	4.62903225806	-11.0219512195
879	0.4395	-2.284375	6.32258064516	16.2161290323	-9.60975609756
880	0.44	-0.8375	7.77096774194	0.283870967742	-9.60975609756
881	0.4405	-5.178125	-3.81612903226	-1.16451612903	-8.19756097561
882	0.441	2.05625	-0.91935483871	0.283870967742	-6.78536585366
883	0.4415	10.7375	4.87419354839	0.283870967742	-8.19756097561
884	0.442	-6.625	3.42580645161	0.283870967742	-1.13658536585
885	0.4425	-0.8375	4.87419354839	13.3193548387	-1.13658536585
886	0.443	0.609375	4.87419354839	-1.16451612903	3.1
887	0.4435	3.503125	17.9096774194	-1.16451612903	1.68780487805
888	0.444	0.609375	-3.81612903226	0.283870967742	3.1
889	0.4445	16.525	3.42580645161	3.18064516129	-1.13658536585
890	0.445	2.05625	-0.91935483871	0.283870967742	-1.13658536585
891	0.4455	3.503125	0.529032258065	0.283870967742	-2.5487804878
892	0.446	0.609375	0.529032258065	-8.4064516129	4.51219512195
893	0.4465	0.609375	20.8064516129	0.283870967742	0.275609756098
894	0.447	0.609375	3.42580645161	1.73225806452	3.1
895	0.4475	-10.965625	1.97741935484	-1.16451612903	-2.5487804878
896	0.448	22.3125	1.97741935484	3.18064516129	-11.0219512195
897	0.4485	2.05625	1.97741935484	-11.3032258065	-9.60975609756
898	0.449	-0.8375	0.529032258065	-5.50967741935	-8.19756097561
899	0.4495	0.609375	4.87419354839	-8.4064516129	-8.19756097561
900	0.45	0.609375	4.87419354839	1.73225806452	-11.0219512195
901	0.4505	-13.859375	6.32258064516	1.73225806452	-3.96097560976
902	0.451	-8.071875	0.529032258065	1.73225806452	1.68780487805
903	0.4515	0.609375	6.32258064516	1.73225806452	-12.4341463415
904	0.452	-0.8375	3.42580645161	3.18064516129	-8.19756097561
905	0.4525	-0.8375	1.97741935484	-4.06129032258	-8.19756097561
906	0.453	-5.178125	15.0129032258	0.283870967742	-6.78536585366
907	0.4535	-3.73125	0.529032258065	1.73225806452	-6.78536585366
908	0.454	-15.30625	1.97741935484	1.73225806452	-6.78536585366
909	0.4545	-8.071875	1.97741935484	1.73225806452	-3.96097560976
910	0.455	-2.284375	0.529032258065	6.07741935484	-1.13658536585
911	0.4555	-2.284375	-0.91935483871	-2.61290322581	-1.13658536585
912	0.456	-2.284375	-0.91935483871	0.283870967742	-2.5487804878
913	0.4565	-2.284375	-5.26451612903	0.283870967742	-1.13658536585
914	0.457	-3.73125	-8.16129032258	0.283870967742	0.275609756098
915	0.4575	17.971875	-0.91935483871	-1.16451612903	3.1
916	0.458	-2.284375	0.529032258065	-11.3032258065	7.33658536585
917	0.4585	-3.73125	3.42580645161	-8.4064516129	10.1609756098
918	0.459	-3.73125	6.32258064516	-5.50967741935	7.33658536585
919	0.4595	0.609375	22.2548387097	0.283870967742	4.51219512195
920	0.46	-10.965625	-0.91935483871	0.283870967742	1.68780487805
921	0.4605	22.3125	3.42580645161	4.62903225806	-11.0219512195
922	0.461	-0.8375	3.42580645161	3.18064516129	0.275609756098
923	0.4615	-0.8375	3.42580645161	1.73225806452	5.9243902439
924	0.462	0.609375	4.87419354839	8.97419354839	-5.37317073171
925	0.4625	2.05625	3.42580645161	3.18064516129	-8.19756097561
926	0.463	3.503125	-5.26451612903	4.62903225806	-5.37317073171
927	0.4635	6.396875	0.529032258065	-1.16451612903	-6.78536585366
928	0.464	4.95	1.97741935484	1.73225806452	-11.0219512195
929	0.4645	2.05625	1.97741935484	-1.16451612903	3.1
930	0.465	2.05625	0.529032258065	3.18064516129	-11.0219512195
931	0.4655	7.84375	0.529032258065	1.73225806452	-12.4341463415
932	0.466	4.95	-5.26451612903	-1.16451612903	-11.0219512195
933	0.4665	2.05625	3.42580645161	-1.16451612903	-13.8463414634
934	0.467	2.05625	1.97741935484	-1.16451612903	-20.9073170732
935	0.4675	0.609375	1.97741935484	-1.16451612903	4.51219512195
936	0.468	-2.284375	4.87419354839	13.3193548387	-11.0219512195
937	0.4685	-0.8375	-0.91935483871	-1.16451612903	-11.0219512195
938	0.469	-3.73125	-3.81612903226	0.283870967742	-11.0219512195
939	0.4695	-10.965625	-5.26451612903	-1.16451612903	-8.19756097561
940	0.47	-6.625	3.42580645161	-1.16451612903	-16.6707317073
941	0.4705	-8.071875	4.87419354839	0.283870967742	-11.0219512195
942	0.471	-5.178125	1.97741935484	-1.16451612903	-13.8463414634
943	0.4715	-5.178125	-3.81612903226	-1.16451612903	-16.6707317073
944	0.472	-0.8375	-0.91935483871	3.18064516129	-18.0829268293
945	0.4725	4.95	-0.91935483871	0.283870967742	-13.8463414634
946	0.473	13.63125	3.42580645161	0.283870967742	-19.4951219512
947	0.4735	0.609375	1.97741935484	-6.95806451613	-9.60975609756
948	0.474	-0.8375	4.87419354839	-8.4064516129	-8.19756097561
949	0.4745	-0.8375	1.97741935484	-9.85483870968	-6.78536585366
950	0.475	-3.73125	0.529032258065	-1.16451612903	-5.37317073171
951	0.4755	-0.8375	1.97741935484	-1.16451612903	-2.5487804878
952	0.476	4.95	3.42580645161	-1.16451612903	0.275609756098
953	0.4765	0.609375	3.42580645161	-1.16451612903	1.68780487805
954	0.477	0.609375	1.97741935484	-4.06129032258	0.275609756098
955	0.4775	-2.284375	-8.16129032258	-2.61290322581	-2.5487804878
956	0.478	2.05625	1.97741935484	0.283870967742	-1.13658536585
957	0.4785	3.503125	-0.91935483871	1.73225806452	1.68780487805
958	0.479	-6.625	1.97741935484	0.283870967742	12.9853658537
959	0.4795	-2.284375	0.529032258065	-6.95806451613	-1.13658536585
960	0.48	-0.8375	3.42580645161	17.664516129	-2.5487804878
961	0.4805	-0.8375	-2.36774193548	19.1129032258	1.68780487805
962	0.481	0.609375	22.2548387097	0.283870967742	-1.13658536585
963	0.4815	-0.8375	25.1516129032	3.18064516129	-1.13658536585
964	0.482	-9.51875	4.87419354839	1.73225806452	12.9853658537
965	0.4825	-0.8375	3.42580645161	1.73225806452	-13.8463414634
966	0.483	2.05625	1.97741935484	-6.95806451613	-16.6707317073
967	0.4835	4.95	0.529032258065	-6.95806451613	-8.19756097561
968	0.484	3.503125	13.564516129	0.283870967742	-12.4341463415
969	0.4845	2.05625	1.97741935484	0.283870967742	-16.6707317073
970	0.485	16.525	3.42580645161	3.18064516129	-16.6707317073
971	0.4855	2.05625	4.87419354839	3.18064516129	-6.78536585366
972	0.486	3.503125	9.21935483871	4.62903225806	-22.3195121951
973	0.4865	-0.8375	6.32258064516	-6.95806451613	-18.0829268293
974	0.487	-0.8375	26.6	-1.16451612903	-16.6707317073
975	0.4875	-6.625	26.6	-1.16451612903	-19.4951219512
976	0.488	-16.753125	1.97741935484	-2.61290322581	-16.6707317073
977	0.4885	-3.73125	6.32258064516	1.73225806452	-22.3195121951
978	0.489	-5.178125	-0.91935483871	3.18064516129	-16.6707317073
979	0.4895	-6.625	-5.26451612903	-1.16451612903	-13.8463414634
980	0.49	-5.178125	0.529032258065	-1.16451612903	-6.78536585366
981	0.4905	-5.178125	-8.16129032258	-1.16451612903	-1.13658536585
982	0.491	-5.178125	-6.71290322581	-1.16451612903	-1.13658536585
983	0.4915	12.184375	-3.81612903226	-1.16451612903	-5.37317073171
984	0.492	-0.8375	1.97741935484	-1.16451612903	21.4585365854
985	0.4925	-2.284375	3.42580645161	13.3193548387	11.5731707317
986	0.493	-0.8375	6.32258064516	16.2161290323	8.7487804878
987	0.4935	3.503125	0.529032258065	-1.16451612903	12.9853658537
988	0.494	3.503125	6.32258064516	1.73225806452	3.1
989	0.4945	20.865625	4.87419354839	3.18064516129	-2.5487804878
990	0.495	3.503125	4.87419354839	0.283870967742	-5.37317073171
991	0.4955	2.05625	6.32258064516	19.1129032258	3.1
992	0.496	2.05625	-6.71290322581	3.18064516129	-1.13658536585
993	0.4965	2.05625	0.529032258065	-1.16451612903	-1.13658536585
994	0.497	2.05625	1.97741935484	0.283870967742	-2.5487804878
995	0.4975	-3.73125	1.97741935484	1.73225806452	-2.5487804878
996	0.498	-10.965625	3.42580645161	1.73225806452	12.9853658537
997	0.4985	-2.284375	1.97741935484	3.18064516129	-16.6707317073
998	0.499	-2.284375	1.97741935484	-5.50967741935	-13.8463414634
999	0.4995	-0.8375	-0.91935483871	-6.95806451613	-13.8463414634
1000	0.5	-2.284375	16.4612903226	4.62903225806	-11.0219512195
1001	0.5005	-3.73125	1.97741935484	1.73225806452	-8.19756097561
1002	0.501	-10.965625	-0.91935483871	3.18064516129	5.9243902439
1003	0.5015	-0.8375	1.97741935484	4.62903225806	-5.37317073171
1004	0.502	0.609375	0.529032258065	22.0096774194	-8.19756097561
1005	0.5025	0.609375	-11.0580645161	1.73225806452	-3.96097560976
1006	0.503	3.503125	22.2548387097	-1.16451612903	-5.37317073171
1007	0.5035	-13.859375	4.87419354839	-1.16451612903	-1.13658536585
1008	0.504	-10.965625	3.42580645161	-2.61290322581	14.3975609756
1009	0.5045	-0.8375	1.97741935484	-11.3032258065	-2.5487804878
1010	0.505	-2.284375	4.87419354839	-1.16451612903	-1.13658536585
1011	0.5055	-0.8375	3.42580645161	6.07741935484	-2.5487804878
1012	0.506	-0.8375	-2.36774193548	0.283870967742	-1.13658536585
1013	0.5065	-5.178125	1.97741935484	0.283870967742	-1.13658536585
1014	0.507	12.184375	0.529032258065	-1.16451612903	-9.60975609756
1015	0.5075	-0.8375	1.97741935484	-1.16451612903	-12.4341463415
1016	0.508	-2.284375	1.97741935484	-8.4064516129	-2.5487804878
1017	0.5085	-0.8375	4.87419354839	-1.16451612903	-1.13658536585
1018	0.509	-0.8375	19.3580645161	-1.16451612903	-1.13658536585
1019	0.5095	-5.178125	16.4612903226	0.283870967742	1.68780487805
1020	0.51	-8.071875	0.529032258065	0.283870967742	5.9243902439
1021	0.5105	-0.8375	0.529032258065	4.62903225806	-3.96097560976
1022	0.511	0.609375	1.97741935484	19.1129032258	3.1
1023	0.5115	0.609375	3.42580645161	0.283870967742	4.51219512195
1024	0.512	3.503125	-5.26451612903	3.18064516129	4.51219512195
1025	0.5125	-0.8375	6.32258064516	4.62903225806	1.68780487805
1026	0.513	-5.178125	1.97741935484	3.18064516129	1.68780487805
1027	0.5135	0.609375	3.42580645161	-1.16451612903	-5.37317073171
1028	0.514	3.503125	3.42580645161	0.283870967742	-6.78536585366
1029	0.5145	3.503125	1.97741935484	-1.16451612903	-2.5487804878
1030	0.515	2.05625	1.97741935484	1.73225806452	-1.13658536585
1031	0.5155	4.95	0.529032258065	-1.16451612903	-6.78536585366
1032	0.516	10.7375	-2.36774193548	3.18064516129	-9.60975609756
1033	0.5165	-2.284375	1.97741935484	4.62903225806	-5.37317073171
1034	0.517	0.609375	0.529032258065	1.73225806452	-3.96097560976
1035	0.5175	-2.284375	-11.0580645161	1.73225806452	-6.78536585366
1036	0.518	0.609375	3.42580645161	-1.16451612903	-11.0219512195
1037	0.5185	0.609375	0.529032258065	1.73225806452	-11.0219512195
1038	0.519	9.290625	1.97741935484	1.73225806452	-15.2585365854
1039	0.5195	-6.625	3.42580645161	-1.16451612903	-8.19756097561
1040	0.52	-0.8375	1.97741935484	-6.95806451613	-12.4341463415
1041	0.5205	-3.73125	3.42580645161	8.97419354839	-12.4341463415
1042	0.521	-2.284375	13.564516129	0.283870967742	-11.0219512195
1043	0.5215	-13.859375	6.32258064516	1.73225806452	-12.4341463415
1044	0.522	16.525	3.42580645161	1.73225806452	-22.3195121951
1045	0.5225	-0.8375	0.529032258065	0.283870967742	-22.3195121951
1046	0.523	-0.8375	3.42580645161	-11.3032258065	-9.60975609756
1047	0.5235	-2.284375	1.97741935484	0.283870967742	-2.5487804878
1048	0.524	-0.8375	13.564516129	-1.16451612903	-2.5487804878
1049	0.5245	-2.284375	0.529032258065	-1.16451612903	3.1
1050	0.525	-12.4125	0.529032258065	-1.16451612903	7.33658536585
1051	0.5255	-8.071875	0.529032258065	-1.16451612903	11.5731707317
1052	0.526	-0.8375	1.97741935484	17.664516129	8.7487804878
1053	0.5265	0.609375	3.42580645161	0.283870967742	11.5731707317
1054	0.527	0.609375	17.9096774194	0.283870967742	14.3975609756
1055	0.5275	0.609375	-9.60967741935	-1.16451612903	14.3975609756
1056	0.528	23.759375	-2.36774193548	0.283870967742	1.68780487805
1057	0.5285	2.05625	1.97741935484	-1.16451612903	4.51219512195
1058	0.529	7.84375	-0.91935483871	-1.16451612903	29.9317073171
1059	0.5295	3.503125	0.529032258065	1.73225806452	12.9853658537
1060	0.53	7.84375	9.21935483871	0.283870967742	12.9853658537
1061	0.5305	4.95	0.529032258065	0.283870967742	11.5731707317
1062	0.531	0.609375	3.42580645161	0.283870967742	5.9243902439
1063	0.5315	-3.73125	1.97741935484	0.283870967742	17.2219512195
1064	0.532	-2.284375	3.42580645161	-4.06129032258	11.5731707317
1065	0.5325	-3.73125	6.32258064516	4.62903225806	8.7487804878
1066	0.533	-8.071875	4.87419354839	0.283870967742	11.5731707317
1067	0.5335	-8.071875	1.97741935484	4.62903225806	8.7487804878
1068	0.534	-10.965625	1.97741935484	7.52580645161	1.68780487805
1069	0.5345	-6.625	0.529032258065	1.73225806452	1.68780487805
1070	0.535	-2.284375	0.529032258065	6.07741935484	11.5731707317
1071	0.5355	-3.73125	0.529032258065	-5.50967741935	11.5731707317
1072	0.536	0.609375	3.42580645161	0.283870967742	8.7487804878
1073	0.5365	-0.8375	0.529032258065	1.73225806452	8.7487804878
1074	0.537	-0.8375	1.97741935484	-1.16451612903	8.7487804878
1075	0.5375	-9.51875	0.529032258065	1.73225806452	7.33658536585
1076	0.538	-0.8375	1.97741935484	-1.16451612903	4.51219512195
1077	0.5385	-2.284375	-0.91935483871	-1.16451612903	12.9853658537
1078	0.539	0.609375	-8.16129032258	-1.16451612903	11.5731707317
1079	0.5395	3.503125	-9.60967741935	-2.61290322581	14.3975609756
1080	0.54	17.971875	1.97741935484	-4.06129032258	11.5731707317
1081	0.5405	-5.178125	-0.91935483871	-2.61290322581	29.9317073171
1082	0.541	-0.8375	3.42580645161	-12.7516129032	20.0463414634
1083	0.5415	-0.8375	6.32258064516	-5.50967741935	21.4585365854
1084	0.542	-0.8375	-9.60967741935	-4.06129032258	25.6951219512
1085	0.5425	3.503125	-6.71290322581	3.18064516129	22.8707317073
1086	0.543	23.759375	4.87419354839	0.283870967742	25.6951219512
1087	0.5435	-6.625	0.529032258065	1.73225806452	29.9317073171
1088	0.544	2.05625	4.87419354839	16.2161290323	24.2829268293
1089	0.5445	0.609375	0.529032258065	16.2161290323	24.2829268293
1090	0.545	0.609375	-6.71290322581	1.73225806452	27.1073170732
1091	0.5455	3.503125	1.97741935484	-1.16451612903	28.5195121951
1092	0.546	-8.071875	1.97741935484	0.283870967742	27.1073170732
1093	0.5465	0.609375	0.529032258065	0.283870967742	31.343902439
1094	0.547	-3.73125	1.97741935484	-6.95806451613	18.6341463415
1095	0.5475	-3.73125	3.42580645161	6.07741935484	18.6341463415
1096	0.548	-0.8375	3.42580645161	3.18064516129	15.8097560976
1097	0.5485	-5.178125	9.21935483871	3.18064516129	11.5731707317
1098	0.549	-3.73125	0.529032258065	0.283870967742	12.9853658537
1099	0.5495	-8.071875	0.529032258065	0.283870967742	4.51219512195
1100	0.55	-2.284375	1.97741935484	3.18064516129	1.68780487805
1101	0.5505	-0.8375	-0.91935483871	-6.95806451613	-3.96097560976
1102	0.551	-0.8375	1.97741935484	0.283870967742	5.9243902439
1103	0.5515	0.609375	6.32258064516	-1.16451612903	1.68780487805
1104	0.552	-2.284375	3.42580645161	-1.16451612903	7.33658536585
1105	0.5525	-5.178125	-0.91935483871	3.18064516129	-3.96097560976
1106	0.553	-0.8375	0.529032258065	3.18064516129	-2.5487804878
1107	0.5535	-0.8375	-0.91935483871	16.2161290323	12.9853658537
1108	0.554	2.05625	-0.91935483871	0.283870967742	8.7487804878
1109	0.5545	3.503125	-8.16129032258	3.18064516129	8.7487804878
1110	0.555	4.95	0.529032258065	1.73225806452	4.51219512195
1111	0.5555	20.865625	-0.91935483871	0.283870967742	12.9853658537
1112	0.556	-10.965625	0.529032258065	3.18064516129	8.7487804878
1113	0.5565	0.609375	0.529032258065	11.8709677419	8.7487804878
1114	0.557	0.609375	1.97741935484	-4.06129032258	8.7487804878
1115	0.5575	-5.178125	-0.91935483871	-1.16451612903	12.9853658537
1116	0.558	-5.178125	6.32258064516	-2.61290322581	14.3975609756
1117	0.5585	-6.625	0.529032258065	-1.16451612903	17.2219512195
1118	0.559	-9.51875	-0.91935483871	0.283870967742	17.2219512195
1119	0.5595	-2.284375	1.97741935484	11.8709677419	18.6341463415
1120	0.56	-2.284375	-0.91935483871	-4.06129032258	18.6341463415
1121	0.5605	-0.8375	-5.26451612903	-4.06129032258	21.4585365854
1122	0.561	0.609375	-5.26451612903	1.73225806452	22.8707317073
1123	0.5615	-12.4125	1.97741935484	-1.16451612903	24.2829268293
1124	0.562	-3.73125	-0.91935483871	-1.16451612903	20.0463414634
1125	0.5625	0.609375	0.529032258065	-8.4064516129	20.0463414634
1126	0.563	3.503125	-0.91935483871	-2.61290322581	18.6341463415
1127	0.5635	0.609375	16.4612903226	3.18064516129	17.2219512195
1128	0.564	0.609375	-2.36774193548	1.73225806452	18.6341463415
1129	0.5645	-10.965625	-2.36774193548	-1.16451612903	15.8097560976
1130	0.565	20.865625	1.97741935484	3.18064516129	8.7487804878
1131	0.5655	-0.8375	-0.91935483871	-6.95806451613	1.68780487805
1132	0.566	-2.284375	1.97741935484	0.283870967742	3.1
1133	0.5665	-2.284375	3.42580645161	0.283870967742	4.51219512195
1134	0.567	-0.8375	1.97741935484	0.283870967742	5.9243902439
1135	0.5675	0.609375	0.529032258065	3.18064516129	4.51219512195
1136	0.568	22.3125	3.42580645161	1.73225806452	-6.78536585366
1137	0.5685	-0.8375	-0.91935483871	0.283870967742	-6.78536585366
1138	0.569	0.609375	0.529032258065	-9.85483870968	3.1
1139	0.5695	-0.8375	1.97741935484	6.07741935484	-1.13658536585
1140	0.57	0.609375	-0.91935483871	1.73225806452	-1.13658536585
1141	0.5705	3.503125	-6.71290322581	1.73225806452	1.68780487805
1142	0.571	22.3125	0.529032258065	0.283870967742	7.33658536585
1143	0.5715	-9.51875	-0.91935483871	0.283870967742	8.7487804878
1144	0.572	-0.8375	-0.91935483871	4.62903225806	20.0463414634
1145	0.5725	0.609375	-0.91935483871	-4.06129032258	5.9243902439
1146	0.573	-2.284375	-0.91935483871	-4.06129032258	7.33658536585
1147	0.5735	-0.8375	0.529032258065	3.18064516129	11.5731707317
1148	0.574	13.63125	0.529032258065	-1.16451612903	8.7487804878
1149	0.5745	-6.625	1.97741935484	-2.61290322581	7.33658536585
1150	0.575	0.609375	0.529032258065	-1.16451612903	4.51219512195
1151	0.5755	-2.284375	-0.91935483871	-2.61290322581	11.5731707317
1152	0.576	-3.73125	-6.71290322581	-1.16451612903	15.8097560976
1153	0.5765	-3.73125	-6.71290322581	0.283870967742	14.3975609756
1154	0.577	0.609375	-0.91935483871	0.283870967742	12.9853658537
1155	0.5775	7.84375	1.97741935484	1.73225806452	4.51219512195
1156	0.578	-0.8375	0.529032258065	6.07741935484	8.7487804878
1157	0.5785	-0.8375	0.529032258065	-4.06129032258	5.9243902439
1158	0.579	-3.73125	-2.36774193548	1.73225806452	8.7487804878
1159	0.5795	-2.284375	-0.91935483871	4.62903225806	7.33658536585
1160	0.58	-3.73125	-2.36774193548	1.73225806452	5.9243902439
1161	0.5805	-9.51875	-0.91935483871	0.283870967742	3.1
1162	0.581	-0.8375	0.529032258065	4.62903225806	-5.37317073171
1163	0.5815	0.609375	-0.91935483871	20.5612903226	0.275609756098
1164	0.582	2.05625	-9.60967741935	3.18064516129	-1.13658536585
1165	0.5825	3.503125	17.9096774194	3.18064516129	-2.5487804878
1166	0.583	-2.284375	20.8064516129	3.18064516129	-1.13658536585
1167	0.5835	-9.51875	0.529032258065	1.73225806452	14.3975609756
1168	0.584	-3.73125	1.97741935484	1.73225806452	-6.78536585366
1169	0.5845	-2.284375	3.42580645161	19.1129032258	-9.60975609756
1170	0.585	-0.8375	0.529032258065	17.664516129	-3.96097560976
1171	0.5855	2.05625	-6.71290322581	-1.16451612903	-3.96097560976
1172	0.586	3.503125	1.97741935484	0.283870967742	-3.96097560976
1173	0.5865	17.971875	1.97741935484	-1.16451612903	-5.37317073171
1174	0.587	-0.8375	1.97741935484	-9.85483870968	-5.37317073171
1175	0.5875	-2.284375	4.87419354839	-6.95806451613	-2.5487804878
1176	0.588	0.609375	6.32258064516	-1.16451612903	-1.13658536585
1177	0.5885	0.609375	16.4612903226	0.283870967742	-2.5487804878
1178	0.589	-3.73125	0.529032258065	0.283870967742	0.275609756098
1179	0.5895	-15.30625	0.529032258065	-1.16451612903	4.51219512195
1180	0.59	0.609375	0.529032258065	3.18064516129	15.8097560976
1181	0.5905	-3.73125	3.42580645161	4.62903225806	3.1
1182	0.591	-0.8375	1.97741935484	16.2161290323	0.275609756098
1183	0.5915	0.609375	-6.71290322581	0.283870967742	5.9243902439
1184	0.592	0.609375	3.42580645161	-1.16451612903	8.7487804878
1185	0.5925	16.525	-0.91935483871	-1.16451612903	14.3975609756
1186	0.593	-2.284375	1.97741935484	3.18064516129	11.5731707317
1187	0.5935	-0.8375	3.42580645161	14.7677419355	12.9853658537
1188	0.594	-0.8375	-0.91935483871	13.3193548387	18.6341463415
1189	0.5945	2.05625	-11.0580645161	0.283870967742	17.2219512195
1190	0.595	9.290625	1.97741935484	1.73225806452	15.8097560976
1191	0.5955	19.41875	-0.91935483871	3.18064516129	17.2219512195
1192	0.596	0.609375	1.97741935484	1.73225806452	17.2219512195
1193	0.5965	3.503125	4.87419354839	7.52580645161	5.9243902439
1194	0.597	0.609375	-0.91935483871	4.62903225806	11.5731707317
1195	0.5975	-0.8375	0.529032258065	-4.06129032258	7.33658536585
1196	0.598	2.05625	0.529032258065	0.283870967742	5.9243902439
1197	0.5985	4.95	-0.91935483871	1.73225806452	5.9243902439
1198	0.599	-9.51875	-0.91935483871	1.73225806452	3.1
1199	0.5995	-6.625	1.97741935484	3.18064516129	-2.5487804878
1200	0.6	-5.178125	3.42580645161	3.18064516129	0.275609756098
1201	0.6005	-2.284375	-3.81612903226	0.283870967742	0.275609756098
1202	0.601	3.503125	0.529032258065	3.18064516129	0.275609756098
1203	0.6015	10.7375	0.529032258065	3.18064516129	-9.60975609756
1204	0.602	-3.73125	1.97741935484	-1.16451612903	3.1
1205	0.6025	0.609375	1.97741935484	-6.95806451613	-1.13658536585
1206	0.603	-0.8375	3.42580645161	4.62903225806	-6.78536585366
1207	0.6035	-3.73125	6.32258064516	3.18064516129	-9.60975609756
1208	0.604	-0.8375	-6.71290322581	3.18064516129	-11.0219512195
1209	0.6045	-2.284375	-0.91935483871	-1.16451612903	-9.60975609756
1210	0.605	-6.625	0.529032258065	3.18064516129	-2.5487804878
1211	0.6055	0.609375	-2.36774193548	4.62903225806	-8.19756097561
1212	0.606	-0.8375	0.529032258065	-4.06129032258	-8.19756097561
1213	0.6065	0.609375	6.32258064516	-1.16451612903	-5.37317073171
1214	0.607	-0.8375	-5.26451612903	-1.16451612903	-3.96097560976
1215	0.6075	-5.178125	0.529032258065	0.283870967742	0.275609756098
1216	0.608	-0.8375	-0.91935483871	-1.16451612903	8.7487804878
1217	0.6085	-2.284375	1.97741935484	3.18064516129	3.1
1218	0.609	-3.73125	-0.91935483871	-4.06129032258	4.51219512195
1219	0.6095	0.609375	-6.71290322581	-1.16451612903	8.7487804878
1220	0.61	2.05625	4.87419354839	0.283870967742	8.7487804878
1221	0.6105	15.078125	4.87419354839	0.283870967742	12.9853658537
1222	0.611	-0.8375	3.42580645161	4.62903225806	15.8097560976
1223	0.6115	-0.8375	6.32258064516	19.1129032258	11.5731707317
1224	0.612	0.609375	1.97741935484	19.1129032258	12.9853658537
1225	0.6125	-0.8375	-9.60967741935	1.73225806452	11.5731707317
1226	0.613	2.05625	-0.91935483871	3.18064516129	7.33658536585
1227	0.6135	-6.625	0.529032258065	1.73225806452	5.9243902439
1228	0.614	-6.625	-3.81612903226	0.283870967742	7.33658536585
1229	0.6145	0.609375	-2.36774193548	7.52580645161	0.275609756098
1230	0.615	-2.284375	-6.71290322581	0.283870967742	1.68780487805
1231	0.6155	-0.8375	-12.5064516129	1.73225806452	1.68780487805
1232	0.616	0.609375	-15.4032258065	1.73225806452	-1.13658536585
1233	0.6165	3.503125	-0.91935483871	3.18064516129	-3.96097560976
1234	0.617	3.503125	1.97741935484	1.73225806452	11.5731707317
1235	0.6175	3.503125	1.97741935484	-2.61290322581	-5.37317073171
1236	0.618	3.503125	3.42580645161	17.664516129	-2.5487804878
1237	0.6185	3.503125	1.97741935484	17.664516129	-5.37317073171
1238	0.619	3.503125	-5.26451612903	3.18064516129	-3.96097560976
1239	0.6195	0.609375	1.97741935484	0.283870967742	-5.37317073171
1240	0.62	17.971875	0.529032258065	1.73225806452	-2.5487804878
1241	0.6205	0.609375	0.529032258065	1.73225806452	-1.13658536585
1242	0.621	-0.8375	3.42580645161	16.2161290323	-5.37317073171
1243	0.6215	-3.73125	-2.36774193548	-1.16451612903	-6.78536585366
1244	0.622	-2.284375	13.564516129	-1.16451612903	-6.78536585366
1245	0.6225	0.609375	1.97741935484	1.73225806452	-6.78536585366
1246	0.623	3.503125	3.42580645161	1.73225806452	-6.78536585366
1247	0.6235	-5.178125	3.42580645161	-1.16451612903	-11.0219512195
1248	0.624	-8.071875	6.32258064516	-6.95806451613	-2.5487804878
1249	0.6245	-6.625	6.32258064516	-2.61290322581	-1.13658536585
1250	0.625	-5.178125	19.3580645161	-4.06129032258	-1.13658536585
1251	0.6255	-6.625	0.529032258065	0.283870967742	0.275609756098
1252	0.626	-5.178125	0.529032258065	1.73225806452	3.1
1253	0.6265	0.609375	-0.91935483871	-1.16451612903	17.2219512195
1254	0.627	0.609375	0.529032258065	-1.16451612903	0.275609756098
1255	0.6275	0.609375	1.97741935484	-8.4064516129	5.9243902439
1256	0.628	-0.8375	3.42580645161	-2.61290322581	7.33658536585
1257	0.6285	4.95	0.529032258065	-1.16451612903	10.1609756098
1258	0.629	3.503125	0.529032258065	4.62903225806	14.3975609756
1259	0.6295	4.95	0.529032258065	-1.16451612903	14.3975609756
1260	0.63	4.95	0.529032258065	16.2161290323	7.33658536585
1261	0.6305	3.503125	0.529032258065	11.8709677419	5.9243902439
1262	0.631	3.503125	0.529032258065	3.18064516129	5.9243902439
1263	0.6315	-3.73125	1.97741935484	0.283870967742	8.7487804878
1264	0.632	0.609375	4.87419354839	0.283870967742	4.51219512195
1265	0.6325	0.609375	1.97741935484	-4.06129032258	0.275609756098
1266	0.633	2.05625	4.87419354839	-5.50967741935	8.7487804878
1267	0.6335	0.609375	7.77096774194	-5.50967741935	7.33658536585
1268	0.634	2.05625	22.2548387097	-1.16451612903	3.1
1269	0.6345	-5.178125	-6.71290322581	0.283870967742	3.1
1270	0.635	17.971875	1.97741935484	1.73225806452	0.275609756098
1271	0.6355	-16.753125	3.42580645161	0.283870967742	4.51219512195
1272	0.636	-10.965625	3.42580645161	16.2161290323	-1.13658536585
1273	0.6365	-10.965625	0.529032258065	16.2161290323	-1.13658536585
1274	0.637	-5.178125	-0.91935483871	3.18064516129	0.275609756098
1275	0.6375	-3.73125	-6.71290322581	-1.16451612903	0.275609756098
1276	0.638	10.7375	0.529032258065	-1.16451612903	3.1
1277	0.6385	-10.965625	-2.36774193548	3.18064516129	5.9243902439
1278	0.639	0.609375	0.529032258065	19.1129032258	4.51219512195
1279	0.6395	-0.8375	1.97741935484	16.2161290323	4.51219512195
1280	0.64	-0.8375	-5.26451612903	0.283870967742	1.68780487805
1281	0.6405	-2.284375	16.4612903226	-1.16451612903	0.275609756098
1282	0.641	-5.178125	0.529032258065	-1.16451612903	1.68780487805
1283	0.6415	-6.625	0.529032258065	-1.16451612903	3.1
1284	0.642	-0.8375	-0.91935483871	0.283870967742	-2.5487804878
1285	0.6425	-0.8375	-2.36774193548	-9.85483870968	8.7487804878
1286	0.643	-0.8375	3.42580645161	-11.3032258065	12.9853658537
1287	0.6435	-0.8375	0.529032258065	-1.16451612903	11.5731707317
1288	0.644	-10.965625	3.42580645161	-4.06129032258	11.5731707317
1289	0.6445	-9.51875	1.97741935484	-1.16451612903	5.9243902439
1290	0.645	3.503125	1.97741935484	-11.3032258065	8.7487804878
1291	0.6455	0.609375	4.87419354839	-9.85483870968	4.51219512195
1292	0.646	3.503125	6.32258064516	3.18064516129	4.51219512195
1293	0.6465	0.609375	0.529032258065	4.62903225806	-1.13658536585
1294	0.647	-13.859375	0.529032258065	1.73225806452	-2.5487804878
1295	0.6475	16.525	1.97741935484	1.73225806452	-15.2585365854
1296	0.648	-0.8375	4.87419354839	-11.3032258065	-3.96097560976
1297	0.6485	2.05625	1.97741935484	-2.61290322581	-3.96097560976
1298	0.649	0.609375	7.77096774194	-4.06129032258	-9.60975609756
1299	0.6495	-0.8375	3.42580645161	7.52580645161	-12.4341463415
1300	0.65	-15.30625	-0.91935483871	4.62903225806	-8.19756097561
1301	0.6505	-16.753125	0.529032258065	3.18064516129	-12.4341463415
1302	0.651	-6.625	0.529032258065	-4.06129032258	-25.143902439
1303	0.6515	-5.178125	1.97741935484	-8.4064516129	-16.6707317073
1304	0.652	-5.178125	4.87419354839	-4.06129032258	-19.4951219512
1305	0.6525	-2.284375	19.3580645161	1.73225806452	-18.0829268293
1306	0.653	-13.859375	3.42580645161	0.283870967742	-15.2585365854
1307	0.6535	16.525	4.87419354839	-1.16451612903	-12.4341463415
1308	0.654	0.609375	4.87419354839	3.18064516129	-13.8463414634
1309	0.6545	2.05625	4.87419354839	14.7677419355	-11.0219512195
1310	0.655	2.05625	1.97741935484	-2.61290322581	-11.0219512195
1311	0.6555	3.503125	0.529032258065	-1.16451612903	-11.0219512195
1312	0.656	4.95	1.97741935484	0.283870967742	-8.19756097561
1313	0.6565	0.609375	1.97741935484	-1.16451612903	-8.19756097561
1314	0.657	-8.071875	0.529032258065	1.73225806452	7.33658536585
1315	0.6575	-2.284375	-2.36774193548	0.283870967742	-3.96097560976
1316	0.658	-3.73125	-6.71290322581	19.1129032258	1.68780487805
1317	0.6585	-3.73125	-12.5064516129	0.283870967742	8.7487804878
1318	0.659	0.609375	-11.0580645161	0.283870967742	15.8097560976
1319	0.6595	16.525	0.529032258065	0.283870967742	17.2219512195
1320	0.66	-2.284375	3.42580645161	-1.16451612903	29.9317073171
1321	0.6605	0.609375	4.87419354839	-11.3032258065	15.8097560976
1322	0.661	0.609375	3.42580645161	0.283870967742	18.6341463415
1323	0.6615	-2.284375	15.0129032258	1.73225806452	20.0463414634
1324	0.662	-2.284375	-3.81612903226	1.73225806452	15.8097560976
1325	0.6625	-9.51875	-3.81612903226	4.62903225806	12.9853658537
1326	0.663	-2.284375	-5.26451612903	0.283870967742	1.68780487805
1327	0.6635	2.05625	-0.91935483871	1.73225806452	15.8097560976
1328	0.664	-2.284375	0.529032258065	4.62903225806	5.9243902439
1329	0.6645	0.609375	4.87419354839	3.18064516129	1.68780487805
1330	0.665	-0.8375	6.32258064516	1.73225806452	-5.37317073171
1331	0.6655	0.609375	0.529032258065	0.283870967742	-3.96097560976
1332	0.666	-9.51875	0.529032258065	0.283870967742	-9.60975609756
1333	0.6665	-0.8375	0.529032258065	4.62903225806	-13.8463414634
1334	0.667	0.609375	-0.91935483871	20.5612903226	-2.5487804878
1335	0.6675	0.609375	-2.36774193548	-8.4064516129	-8.19756097561
1336	0.668	-2.284375	19.3580645161	0.283870967742	-8.19756097561
1337	0.6685	-5.178125	0.529032258065	0.283870967742	-3.96097560976
1338	0.669	-10.965625	3.42580645161	-1.16451612903	-2.5487804878
1339	0.6695	-10.965625	-0.91935483871	-4.06129032258	12.9853658537
1340	0.67	-2.284375	0.529032258065	16.2161290323	-8.19756097561
1341	0.6705	-0.8375	0.529032258065	11.8709677419	-2.5487804878
1342	0.671	-0.8375	-6.71290322581	0.283870967742	-1.13658536585
1343	0.6715	0.609375	0.529032258065	1.73225806452	0.275609756098
1344	0.672	-0.8375	3.42580645161	-1.16451612903	4.51219512195
1345	0.6725	7.84375	3.42580645161	-1.16451612903	4.51219512195
1346	0.673	-5.178125	1.97741935484	-5.50967741935	11.5731707317
1347	0.6735	-2.284375	1.97741935484	-8.4064516129	11.5731707317
1348	0.674	-5.178125	-2.36774193548	1.73225806452	11.5731707317
1349	0.6745	0.609375	-5.26451612903	1.73225806452	5.9243902439
1350	0.675	0.609375	0.529032258065	-1.16451612903	7.33658536585
1351	0.6755	-10.965625	1.97741935484	-1.16451612903	25.6951219512
1352	0.676	-0.8375	3.42580645161	3.18064516129	7.33658536585
1353	0.6765	0.609375	0.529032258065	1.73225806452	8.7487804878
1354	0.677	-0.8375	1.97741935484	0.283870967742	11.5731707317
1355	0.6775	2.05625	-3.81612903226	-1.16451612903	8.7487804878
1356	0.678	4.95	0.529032258065	3.18064516129	5.9243902439
1357	0.6785	19.41875	1.97741935484	0.283870967742	0.275609756098
1358	0.679	-0.8375	1.97741935484	0.283870967742	-1.13658536585
1359	0.6795	2.05625	3.42580645161	-8.4064516129	4.51219512195
1360	0.68	3.503125	6.32258064516	0.283870967742	7.33658536585
1361	0.6805	-0.8375	17.9096774194	0.283870967742	5.9243902439
1362	0.681	-12.4125	0.529032258065	0.283870967742	4.51219512195
1363	0.6815	15.078125	0.529032258065	4.62903225806	1.68780487805
1364	0.682	-2.284375	1.97741935484	1.73225806452	4.51219512195
1365	0.6825	0.609375	7.77096774194	11.8709677419	-1.13658536585
1366	0.683	-3.73125	4.87419354839	-4.06129032258	-1.13658536585
1367	0.6835	-0.8375	4.87419354839	-1.16451612903	-1.13658536585
1368	0.684	-2.284375	-5.26451612903	0.283870967742	-2.5487804878
1369	0.6845	7.84375	-0.91935483871	1.73225806452	-1.13658536585
1370	0.685	-6.625	0.529032258065	1.73225806452	11.5731707317
1371	0.6855	-3.73125	1.97741935484	-1.16451612903	-1.13658536585
1372	0.686	-0.8375	1.97741935484	-4.06129032258	1.68780487805
1373	0.6865	-0.8375	17.9096774194	0.283870967742	4.51219512195
1374	0.687	-3.73125	0.529032258065	1.73225806452	5.9243902439
1375	0.6875	-10.965625	-0.91935483871	3.18064516129	4.51219512195
1376	0.688	-9.51875	0.529032258065	3.18064516129	20.0463414634
1377	0.6885	-3.73125	3.42580645161	0.283870967742	-8.19756097561
1378	0.689	-0.8375	1.97741935484	-5.50967741935	0.275609756098
1379	0.6895	-5.178125	-5.26451612903	-1.16451612903	1.68780487805
1380	0.69	-2.284375	15.0129032258	-1.16451612903	3.1
1381	0.6905	-3.73125	17.9096774194	-1.16451612903	5.9243902439
1382	0.691	-12.4125	0.529032258065	0.283870967742	24.2829268293
1383	0.6915	-5.178125	3.42580645161	0.283870967742	11.5731707317
1384	0.692	-5.178125	1.97741935484	20.5612903226	12.9853658537
1385	0.6925	-3.73125	6.32258064516	-1.16451612903	20.0463414634
1386	0.693	-5.178125	-0.91935483871	1.73225806452	20.0463414634
1387	0.6935	3.503125	1.97741935484	3.18064516129	21.4585365854
1388	0.694	10.7375	0.529032258065	1.73225806452	21.4585365854
1389	0.6945	-3.73125	0.529032258065	3.18064516129	22.8707317073
1390	0.695	-3.73125	3.42580645161	6.07741935484	25.6951219512
1391	0.6955	-2.284375	0.529032258065	6.07741935484	21.4585365854
1392	0.696	2.05625	9.21935483871	6.07741935484	21.4585365854
1393	0.6965	-6.625	0.529032258065	7.52580645161	18.6341463415
1394	0.697	10.7375	1.97741935484	6.07741935484	14.3975609756
1395	0.6975	-5.178125	-0.91935483871	3.18064516129	21.4585365854
1396	0.698	0.609375	1.97741935484	-1.16451612903	24.2829268293
1397	0.6985	0.609375	4.87419354839	4.62903225806	12.9853658537
1398	0.699	0.609375	-3.81612903226	3.18064516129	8.7487804878
1399	0.6995	3.503125	-8.16129032258	3.18064516129	7.33658536585
1400	0.7	2.05625	1.97741935484	4.62903225806	5.9243902439
1401	0.7005	0.609375	3.42580645161	3.18064516129	-1.13658536585
1402	0.701	-0.8375	1.97741935484	0.283870967742	5.9243902439
1403	0.7015	0.609375	0.529032258065	-4.06129032258	4.51219512195
1404	0.702	-3.73125	-6.71290322581	3.18064516129	1.68780487805
1405	0.7025	0.609375	-6.71290322581	3.18064516129	4.51219512195
1406	0.703	-0.8375	0.529032258065	3.18064516129	0.275609756098
1407	0.7035	-0.8375	-0.91935483871	4.62903225806	-1.13658536585
1408	0.704	-0.8375	-0.91935483871	-6.95806451613	4.51219512195
1409	0.7045	-2.284375	0.529032258065	-9.85483870968	-1.13658536585
1410	0.705	-2.284375	16.4612903226	0.283870967742	0.275609756098
1411	0.7055	-0.8375	-9.60967741935	-1.16451612903	4.51219512195
1412	0.706	-13.859375	-3.81612903226	0.283870967742	-1.13658536585
1413	0.7065	-0.8375	1.97741935484	0.283870967742	-3.96097560976
1414	0.707	-0.8375	0.529032258065	14.7677419355	3.1
1415	0.7075	-5.178125	0.529032258065	1.73225806452	3.1
1416	0.708	-3.73125	-6.71290322581	0.283870967742	4.51219512195
1417	0.7085	2.05625	-8.16129032258	0.283870967742	7.33658536585
1418	0.709	4.95	-6.71290322581	-1.16451612903	15.8097560976
1419	0.7095	-0.8375	0.529032258065	1.73225806452	4.51219512195
1420	0.71	-2.284375	1.97741935484	-8.4064516129	15.8097560976
1421	0.7105	-0.8375	0.529032258065	-5.50967741935	15.8097560976
1422	0.711	-0.8375	17.9096774194	0.283870967742	15.8097560976
1423	0.7115	-2.284375	-6.71290322581	1.73225806452	18.6341463415
1424	0.712	0.609375	0.529032258065	3.18064516129	15.8097560976
1425	0.7125	0.609375	0.529032258065	-1.16451612903	34.1682926829
1426	0.713	-0.8375	0.529032258065	-1.16451612903	31.343902439
1427	0.7135	-0.8375	1.97741935484	19.1129032258	11.5731707317
1428	0.714	-0.8375	-9.60967741935	-1.16451612903	11.5731707317
1429	0.7145	-3.73125	-6.71290322581	1.73225806452	8.7487804878
1430	0.715	6.396875	1.97741935484	3.18064516129	4.51219512195
1431	0.7155	9.290625	0.529032258065	0.283870967742	0.275609756098
1432	0.716	-0.8375	0.529032258065	-11.3032258065	7.33658536585
1433	0.7165	-2.284375	3.42580645161	-8.4064516129	-5.37317073171
1434	0.717	-2.284375	0.529032258065	-4.06129032258	-1.13658536585
1435	0.7175	-2.284375	6.32258064516	0.283870967742	-3.96097560976
1436	0.718	2.05625	3.42580645161	0.283870967742	-3.96097560976
1437	0.7185	-5.178125	1.97741935484	0.283870967742	-1.13658536585
1438	0.719	-0.8375	4.87419354839	-6.95806451613	-9.60975609756
1439	0.7195	-0.8375	3.42580645161	-5.50967741935	-11.0219512195
1440	0.72	0.609375	4.87419354839	-5.50967741935	-6.78536585366
1441	0.7205	3.503125	20.8064516129	3.18064516129	-6.78536585366
1442	0.721	-3.73125	6.32258064516	1.73225806452	-3.96097560976
1443	0.7215	-12.4125	12.1161290323	-1.16451612903	-5.37317073171
1444	0.722	2.05625	7.77096774194	0.283870967742	-3.96097560976
1445	0.7225	-2.284375	7.77096774194	0.283870967742	-13.8463414634
1446	0.723	-0.8375	6.32258064516	-1.16451612903	-6.78536585366
1447	0.7235	-3.73125	10.6677419355	-1.16451612903	-5.37317073171
1448	0.724	-5.178125	0.529032258065	-1.16451612903	-3.96097560976
1449	0.7245	-15.30625	-2.36774193548	-1.16451612903	3.1
1450	0.725	-10.965625	-0.91935483871	0.283870967742	3.1
1451	0.7255	-2.284375	-5.26451612903	7.52580645161	3.1
1452	0.726	0.609375	-9.60967741935	-1.16451612903	4.51219512195
1453	0.7265	0.609375	-9.60967741935	-1.16451612903	4.51219512195
1454	0.727	0.609375	-13.9548387097	3.18064516129	0.275609756098
1455	0.7275	2.05625	-3.81612903226	-1.16451612903	7.33658536585
1456	0.728	20.865625	0.529032258065	-1.16451612903	4.51219512195
1457	0.7285	-0.8375	0.529032258065	-2.61290322581	14.3975609756
1458	0.729	-0.8375	1.97741935484	10.4225806452	-2.5487804878
1459	0.7295	-3.73125	1.97741935484	-5.50967741935	8.7487804878
1460	0.73	-2.284375	-6.71290322581	3.18064516129	4.51219512195
1461	0.7305	-0.8375	-0.91935483871	3.18064516129	1.68780487805
1462	0.731	12.184375	-2.36774193548	1.73225806452	1.68780487805
1463	0.7315	-8.071875	0.529032258065	1.73225806452	-2.5487804878
1464	0.732	0.609375	-0.91935483871	6.07741935484	-11.0219512195
1465	0.7325	0.609375	0.529032258065	-2.61290322581	-5.37317073171
1466	0.733	-0.8375	-0.91935483871	-1.16451612903	-6.78536585366
1467	0.7335	0.609375	3.42580645161	3.18064516129	-6.78536585366
1468	0.734	2.05625	0.529032258065	1.73225806452	-5.37317073171
1469	0.7345	-8.071875	0.529032258065	-1.16451612903	-8.19756097561
1470	0.735	-5.178125	0.529032258065	3.18064516129	-18.0829268293
1471	0.7355	-3.73125	-0.91935483871	-8.4064516129	-8.19756097561
1472	0.736	-3.73125	4.87419354839	-4.06129032258	-11.0219512195
1473	0.7365	0.609375	10.6677419355	1.73225806452	-6.78536585366
1474	0.737	4.95	1.97741935484	1.73225806452	-6.78536585366
1475	0.7375	10.7375	0.529032258065	1.73225806452	-9.60975609756
1476	0.738	-3.73125	-0.91935483871	3.18064516129	-15.2585365854
1477	0.7385	-0.8375	3.42580645161	4.62903225806	-8.19756097561
1478	0.739	0.609375	-11.0580645161	0.283870967742	-9.60975609756
1479	0.7395	0.609375	13.564516129	0.283870967742	-9.60975609756
1480	0.74	0.609375	-5.26451612903	-1.16451612903	-11.0219512195
1481	0.7405	9.290625	1.97741935484	-2.61290322581	-6.78536585366
1482	0.741	-0.8375	0.529032258065	-1.16451612903	-11.0219512195
1483	0.7415	-5.178125	-0.91935483871	-9.85483870968	-5.37317073171
1484	0.742	-0.8375	4.87419354839	-5.50967741935	3.1
1485	0.7425	2.05625	16.4612903226	-1.16451612903	4.51219512195
1486	0.743	-0.8375	9.21935483871	1.73225806452	5.9243902439
1487	0.7435	0.609375	-0.91935483871	4.62903225806	15.8097560976
1488	0.744	-0.8375	0.529032258065	4.62903225806	7.33658536585
1489	0.7445	2.05625	0.529032258065	1.73225806452	14.3975609756
1490	0.745	0.609375	-2.36774193548	-2.61290322581	12.9853658537
1491	0.7455	0.609375	15.0129032258	1.73225806452	14.3975609756
1492	0.746	-0.8375	15.0129032258	4.62903225806	11.5731707317
1493	0.7465	-6.625	0.529032258065	4.62903225806	7.33658536585
1494	0.747	-3.73125	0.529032258065	1.73225806452	20.0463414634
1495	0.7475	4.95	0.529032258065	16.2161290323	3.1
1496	0.748	-0.8375	0.529032258065	1.73225806452	3.1
1497	0.7485	-0.8375	20.8064516129	3.18064516129	-1.13658536585
1498	0.749	-5.178125	3.42580645161	1.73225806452	-1.13658536585
1499	0.7495	-16.753125	3.42580645161	1.73225806452	0.275609756098
1500	0.75	-0.8375	4.87419354839	3.18064516129	-5.37317073171
1501	0.7505	-0.8375	0.529032258065	6.07741935484	-1.13658536585
1502	0.751	0.609375	-2.36774193548	3.18064516129	0.275609756098
1503	0.7515	0.609375	4.87419354839	-1.16451612903	-1.13658536585
1504	0.752	0.609375	-5.26451612903	-1.16451612903	-1.13658536585
1505	0.7525	-3.73125	3.42580645161	-2.61290322581	0.275609756098
1506	0.753	-0.8375	0.529032258065	1.73225806452	-1.13658536585
1507	0.7535	2.05625	0.529032258065	-5.50967741935	4.51219512195
1508	0.754	3.503125	-2.36774193548	-8.4064516129	4.51219512195
1509	0.7545	3.503125	-11.0580645161	0.283870967742	1.68780487805
1510	0.755	7.84375	-0.91935483871	1.73225806452	0.275609756098
1511	0.7555	-12.4125	0.529032258065	1.73225806452	-1.13658536585
1512	0.756	-8.071875	0.529032258065	-1.16451612903	11.5731707317
1513	0.7565	-2.284375	-0.91935483871	-11.3032258065	-3.96097560976
1514	0.757	-0.8375	1.97741935484	-9.85483870968	-3.96097560976
1515	0.7575	-3.73125	-11.0580645161	-4.06129032258	0.275609756098
1516	0.758	-3.73125	0.529032258065	-1.16451612903	-1.13658536585
1517	0.7585	-0.8375	1.97741935484	-1.16451612903	-2.5487804878
1518	0.759	-6.625	1.97741935484	-1.16451612903	-2.5487804878
1519	0.7595	-3.73125	0.529032258065	0.283870967742	1.68780487805
1520	0.76	-2.284375	4.87419354839	0.283870967742	-1.13658536585
1521	0.7605	-2.284375	-2.36774193548	1.73225806452	7.33658536585
1522	0.761	-0.8375	-2.36774193548	0.283870967742	1.68780487805
1523	0.7615	-0.8375	1.97741935484	1.73225806452	4.51219512195
1524	0.762	-8.071875	-0.91935483871	1.73225806452	-5.37317073171
1525	0.7625	0.609375	-0.91935483871	1.73225806452	-3.96097560976
1526	0.763	0.609375	0.529032258065	19.1129032258	4.51219512195
1527	0.7635	-0.8375	-0.91935483871	-6.95806451613	8.7487804878
1528	0.764	0.609375	17.9096774194	4.62903225806	4.51219512195
1529	0.7645	-3.73125	1.97741935484	1.73225806452	4.51219512195
1530	0.765	17.971875	0.529032258065	0.283870967742	-1.13658536585
1531	0.7655	0.609375	0.529032258065	-1.16451612903	-12.4341463415
1532	0.766	2.05625	-0.91935483871	1.73225806452	-11.0219512195
1533	0.7665	0.609375	4.87419354839	1.73225806452	-2.5487804878
1534	0.767	2.05625	22.2548387097	-1.16451612903	-8.19756097561
1535	0.7675	-2.284375	0.529032258065	-1.16451612903	-5.37317073171
1536	0.768	-12.4125	0.529032258065	0.283870967742	-5.37317073171
1537	0.7685	-9.51875	0.529032258065	0.283870967742	8.7487804878
1538	0.769	-0.8375	0.529032258065	1.73225806452	5.9243902439
1539	0.7695	-2.284375	-2.36774193548	0.283870967742	-8.19756097561
1540	0.77	-0.8375	0.529032258065	0.283870967742	-5.37317073171
1541	0.7705	-0.8375	-8.16129032258	0.283870967742	-1.13658536585
1542	0.771	-9.51875	3.42580645161	-2.61290322581	3.1
1543	0.7715	-13.859375	1.97741935484	4.62903225806	5.9243902439
1544	0.772	-5.178125	0.529032258065	1.73225806452	4.51219512195
1545	0.7725	0.609375	1.97741935484	1.73225806452	5.9243902439
1546	0.773	-0.8375	0.529032258065	0.283870967742	4.51219512195
1547	0.7735	-0.8375	-11.0580645161	0.283870967742	4.51219512195
1548	0.774	17.971875	-2.36774193548	0.283870967742	8.7487804878
1549	0.7745	-9.51875	1.97741935484	-5.50967741935	27.1073170732
1550	0.775	-0.8375	1.97741935484	-9.85483870968	7.33658536585
1551	0.7755	-3.73125	1.97741935484	-9.85483870968	7.33658536585
1552	0.776	-2.284375	3.42580645161	-8.4064516129	8.7487804878
1553	0.7765	-3.73125	0.529032258065	-1.16451612903	10.1609756098
1554	0.777	-8.071875	1.97741935484	-1.16451612903	15.8097560976
1555	0.7775	-9.51875	1.97741935484	3.18064516129	3.1
1556	0.778	0.609375	0.529032258065	-8.4064516129	4.51219512195
1557	0.7785	3.503125	-0.91935483871	-6.95806451613	11.5731707317
1558	0.779	3.503125	-13.9548387097	4.62903225806	12.9853658537
1559	0.7795	4.95	-11.0580645161	0.283870967742	8.7487804878
1560	0.78	10.7375	0.529032258065	3.18064516129	4.51219512195
1561	0.7805	0.609375	0.529032258065	3.18064516129	-5.37317073171
1562	0.781	0.609375	1.97741935484	-8.4064516129	-1.13658536585
1563	0.7815	4.95	3.42580645161	0.283870967742	1.68780487805
1564	0.782	0.609375	3.42580645161	4.62903225806	-2.5487804878
1565	0.7825	-0.8375	-2.36774193548	3.18064516129	-3.96097560976
1566	0.783	-10.965625	-2.36774193548	3.18064516129	-5.37317073171
1567	0.7835	-0.8375	-0.91935483871	0.283870967742	-8.19756097561
1568	0.784	-0.8375	0.529032258065	-2.61290322581	-13.8463414634
1569	0.7845	-2.284375	0.529032258065	0.283870967742	-11.0219512195
1570	0.785	-3.73125	-5.26451612903	-8.4064516129	-2.5487804878
1571	0.7855	-3.73125	16.4612903226	1.73225806452	0.275609756098
1572	0.786	-5.178125	19.3580645161	-1.16451612903	-1.13658536585
1573	0.7865	-12.4125	1.97741935484	0.283870967742	5.9243902439
1574	0.787	-2.284375	0.529032258065	-1.16451612903	-3.96097560976
1575	0.7875	-0.8375	1.97741935484	-4.06129032258	-6.78536585366
1576	0.788	-2.284375	-0.91935483871	-1.16451612903	-1.13658536585
1577	0.7885	-0.8375	6.32258064516	-1.16451612903	1.68780487805
1578	0.789	-0.8375	-8.16129032258	-2.61290322581	1.68780487805
1579	0.7895	-6.625	0.529032258065	0.283870967742	1.68780487805
1580	0.79	-3.73125	0.529032258065	4.62903225806	8.7487804878
1581	0.7905	-2.284375	0.529032258065	-1.16451612903	12.9853658537
1582	0.791	-5.178125	0.529032258065	4.62903225806	3.1
1583	0.7915	-3.73125	9.21935483871	-1.16451612903	4.51219512195
1584	0.792	-3.73125	-2.36774193548	-1.16451612903	4.51219512195
1585	0.7925	-10.965625	0.529032258065	1.73225806452	7.33658536585
1586	0.793	-0.8375	0.529032258065	0.283870967742	11.5731707317
1587	0.7935	-2.284375	-0.91935483871	-5.50967741935	5.9243902439
1588	0.794	0.609375	0.529032258065	4.62903225806	4.51219512195
1589	0.7945	0.609375	1.97741935484	-1.16451612903	12.9853658537
1590	0.795	-0.8375	-2.36774193548	0.283870967742	12.9853658537
1591	0.7955	-6.625	-0.91935483871	1.73225806452	12.9853658537
1592	0.796	2.05625	-0.91935483871	3.18064516129	21.4585365854
1593	0.7965	4.95	-0.91935483871	6.07741935484	4.51219512195
1594	0.797	0.609375	-2.36774193548	-1.16451612903	4.51219512195
1595	0.7975	2.05625	-6.71290322581	1.73225806452	0.275609756098
1596	0.798	3.503125	0.529032258065	3.18064516129	-1.13658536585
1597	0.7985	-13.859375	4.87419354839	-1.16451612903	-2.5487804878
1598	0.799	-2.284375	0.529032258065	0.283870967742	-8.19756097561
1599	0.7995	-3.73125	0.529032258065	7.52580645161	-12.4341463415
1600	0.8	-3.73125	1.97741935484	7.52580645161	-11.0219512195
1601	0.8005	-2.284375	-6.71290322581	1.73225806452	-12.4341463415
1602	0.801	-0.8375	-3.81612903226	3.18064516129	-13.8463414634
1603	0.8015	-8.071875	-0.91935483871	-2.61290322581	-18.0829268293
1604	0.802	3.503125	0.529032258065	0.283870967742	-18.0829268293
1605	0.8025	0.609375	1.97741935484	1.73225806452	-23.7317073171
1606	0.803	0.609375	0.529032258065	-4.06129032258	-12.4341463415
1607	0.8035	2.05625	-0.91935483871	1.73225806452	-12.4341463415
1608	0.804	3.503125	-5.26451612903	0.283870967742	-9.60975609756
1609	0.8045	2.05625	0.529032258065	-1.16451612903	-9.60975609756
1610	0.805	19.41875	0.529032258065	-2.61290322581	-16.6707317073
1611	0.8055	-3.73125	0.529032258065	-1.16451612903	-1.13658536585
1612	0.806	0.609375	0.529032258065	-4.06129032258	-8.19756097561
1613	0.8065	-0.8375	4.87419354839	-6.95806451613	-1.13658536585
1614	0.807	-0.8375	-0.91935483871	-8.4064516129	-1.13658536585
1615	0.8075	-2.284375	15.0129032258	-2.61290322581	-1.13658536585
1616	0.808	-5.178125	0.529032258065	-1.16451612903	-1.13658536585
1617	0.8085	-10.965625	0.529032258065	-1.16451612903	-5.37317073171
1618	0.809	-0.8375	-0.91935483871	-11.3032258065	-1.13658536585
1619	0.8095	-2.284375	-2.36774193548	-6.95806451613	-3.96097560976
1620	0.81	-5.178125	3.42580645161	1.73225806452	-1.13658536585
1621	0.8105	-3.73125	13.564516129	4.62903225806	-1.13658536585
1622	0.811	-12.4125	0.529032258065	0.283870967742	-1.13658536585
1623	0.8115	0.609375	0.529032258065	3.18064516129	-1.13658536585
1624	0.812	0.609375	-0.91935483871	3.18064516129	-5.37317073171
1625	0.8125	-2.284375	-0.91935483871	-2.61290322581	-6.78536585366
1626	0.813	-2.284375	-3.81612903226	1.73225806452	-6.78536585366
1627	0.8135	-0.8375	-9.60967741935	1.73225806452	-6.78536585366
1628	0.814	0.609375	0.529032258065	0.283870967742	-9.60975609756
1629	0.8145	19.41875	3.42580645161	1.73225806452	-9.60975609756
1630	0.815	-0.8375	0.529032258065	-9.85483870968	-15.2585365854
1631	0.8155	2.05625	1.97741935484	1.73225806452	-12.4341463415
1632	0.816	0.609375	0.529032258065	-1.16451612903	-15.2585365854
1633	0.8165	-2.284375	-8.16129032258	-2.61290322581	-13.8463414634
1634	0.817	3.503125	-0.91935483871	1.73225806452	-12.4341463415
1635	0.8175	3.503125	0.529032258065	1.73225806452	-13.8463414634
1636	0.818	-5.178125	1.97741935484	3.18064516129	0.275609756098
1637	0.8185	-0.8375	0.529032258065	-1.16451612903	4.51219512195
1638	0.819	-0.8375	1.97741935484	1.73225806452	-8.19756097561
1639	0.8195	-0.8375	-0.91935483871	0.283870967742	-6.78536585366
1640	0.82	-2.284375	15.0129032258	0.283870967742	-6.78536585366
1641	0.8205	-2.284375	1.97741935484	0.283870967742	-8.19756097561
1642	0.821	-6.625	0.529032258065	-1.16451612903	1.68780487805
1643	0.8215	-0.8375	0.529032258065	0.283870967742	7.33658536585
1644	0.822	-2.284375	-0.91935483871	1.73225806452	-16.6707317073
1645	0.8225	-2.284375	-3.81612903226	0.283870967742	-8.19756097561
1646	0.823	-3.73125	7.77096774194	0.283870967742	-8.19756097561
1647	0.8235	0.609375	-0.91935483871	1.73225806452	-6.78536585366
1648	0.824	-3.73125	0.529032258065	1.73225806452	-3.96097560976
1649	0.8245	-2.284375	-0.91935483871	0.283870967742	-8.19756097561
1650	0.825	-0.8375	0.529032258065	17.664516129	-3.96097560976
1651	0.8255	0.609375	3.42580645161	1.73225806452	-2.5487804878
1652	0.826	0.609375	-3.81612903226	3.18064516129	1.68780487805
1653	0.8265	7.84375	3.42580645161	1.73225806452	3.1
1654	0.827	23.759375	-0.91935483871	3.18064516129	-5.37317073171
1655	0.8275	2.05625	0.529032258065	4.62903225806	-1.13658536585
1656	0.828	3.503125	-0.91935483871	-8.4064516129	0.275609756098
1657	0.8285	7.84375	4.87419354839	4.62903225806	3.1
1658	0.829	9.290625	1.97741935484	1.73225806452	3.1
1659	0.8295	2.05625	0.529032258065	3.18064516129	0.275609756098
1660	0.83	16.525	0.529032258065	3.18064516129	-1.13658536585
1661	0.8305	-2.284375	1.97741935484	4.62903225806	-5.37317073171
1662	0.831	-5.178125	0.529032258065	22.0096774194	-3.96097560976
1663	0.8315	-6.625	-2.36774193548	1.73225806452	-5.37317073171
1664	0.832	-5.178125	-5.26451612903	-2.61290322581	-6.78536585366
1665	0.8325	-2.284375	0.529032258065	-4.06129032258	-11.0219512195
1666	0.833	10.7375	-0.91935483871	0.283870967742	-12.4341463415
1667	0.8335	-10.965625	1.97741935484	-2.61290322581	-9.60975609756
1668	0.834	-2.284375	1.97741935484	-1.16451612903	-6.78536585366
1669	0.8345	0.609375	0.529032258065	-6.95806451613	-8.19756097561
1670	0.835	-2.284375	-0.91935483871	-11.3032258065	-2.5487804878
1671	0.8355	-0.8375	17.9096774194	0.283870967742	-2.5487804878
1672	0.836	-10.965625	0.529032258065	-1.16451612903	4.51219512195
1673	0.8365	-6.625	0.529032258065	0.283870967742	5.9243902439
1674	0.837	2.05625	0.529032258065	16.2161290323	1.68780487805
1675	0.8375	3.503125	0.529032258065	13.3193548387	0.275609756098
1676	0.838	0.609375	-6.71290322581	-2.61290322581	-1.13658536585
1677	0.8385	0.609375	0.529032258065	-1.16451612903	0.275609756098
1678	0.839	-3.73125	0.529032258065	-2.61290322581	-1.13658536585
1679	0.8395	17.971875	0.529032258065	-1.16451612903	-9.60975609756
1680	0.84	-3.73125	0.529032258065	4.62903225806	-6.78536585366
1681	0.8405	-2.284375	0.529032258065	-11.3032258065	-3.96097560976
1682	0.841	-3.73125	6.32258064516	0.283870967742	1.68780487805
1683	0.8415	-3.73125	1.97741935484	-4.06129032258	5.9243902439
1684	0.842	-6.625	-0.91935483871	-1.16451612903	7.33658536585
1685	0.8425	-13.859375	0.529032258065	-1.16451612903	8.7487804878
1686	0.843	-2.284375	1.97741935484	-5.50967741935	1.68780487805
1687	0.8435	-2.284375	0.529032258065	-15.6483870968	10.1609756098
1688	0.844	2.05625	0.529032258065	-9.85483870968	17.2219512195
1689	0.8445	-2.284375	-6.71290322581	0.283870967742	17.2219512195
1690	0.845	0.609375	-2.36774193548	-1.16451612903	15.8097560976
1691	0.8455	-13.859375	-0.91935483871	1.73225806452	20.0463414634
1692	0.846	-6.625	-3.81612903226	3.18064516129	17.2219512195
1693	0.8465	0.609375	0.529032258065	-8.4064516129	11.5731707317
1694	0.847	-2.284375	-3.81612903226	-5.50967741935	14.3975609756
1695	0.8475	-0.8375	-12.5064516129	0.283870967742	11.5731707317
1696	0.848	0.609375	-9.60967741935	1.73225806452	10.1609756098
1697	0.8485	19.41875	-0.91935483871	-1.16451612903	5.9243902439
1698	0.849	-8.071875	0.529032258065	-2.61290322581	17.2219512195
1699	0.8495	-5.178125	-2.36774193548	-8.4064516129	-5.37317073171
1700	0.85	-2.284375	1.97741935484	16.2161290323	-5.37317073171
1701	0.8505	0.609375	-5.26451612903	-1.16451612903	-6.78536585366
1702	0.851	0.609375	-5.26451612903	-1.16451612903	-5.37317073171
1703	0.8515	-6.625	1.97741935484	-1.16451612903	-6.78536585366
1704	0.852	-8.071875	1.97741935484	1.73225806452	-6.78536585366
1705	0.8525	-3.73125	3.42580645161	4.62903225806	-11.0219512195
1706	0.853	-2.284375	6.32258064516	-6.95806451613	-9.60975609756
1707	0.8535	-0.8375	-0.91935483871	0.283870967742	-12.4341463415
1708	0.854	-3.73125	13.564516129	-1.16451612903	-11.0219512195
1709	0.8545	-2.284375	19.3580645161	-1.16451612903	-12.4341463415
1710	0.855	-9.51875	-0.91935483871	0.283870967742	0.275609756098
1711	0.8555	-0.8375	-2.36774193548	1.73225806452	-11.0219512195
1712	0.856	-0.8375	-3.81612903226	17.664516129	-15.2585365854
1713	0.8565	0.609375	-3.81612903226	0.283870967742	-12.4341463415
1714	0.857	-2.284375	10.6677419355	-1.16451612903	-13.8463414634
1715	0.8575	-13.859375	-6.71290322581	-1.16451612903	-12.4341463415
1716	0.858	15.078125	-6.71290322581	-2.61290322581	-13.8463414634
1717	0.8585	-3.73125	0.529032258065	-4.06129032258	-16.6707317073
1718	0.859	-0.8375	3.42580645161	-8.4064516129	-5.37317073171
1719	0.8595	-0.8375	1.97741935484	0.283870967742	-3.96097560976
1720	0.86	-0.8375	17.9096774194	1.73225806452	-6.78536585366
1721	0.8605	-2.284375	-0.91935483871	0.283870967742	-3.96097560976
1722	0.861	-8.071875	-0.91935483871	0.283870967742	-6.78536585366
1723	0.8615	-0.8375	-2.36774193548	3.18064516129	5.9243902439
1724	0.862	-2.284375	0.529032258065	20.5612903226	-9.60975609756
1725	0.8625	2.05625	0.529032258065	0.283870967742	-6.78536585366
1726	0.863	-0.8375	16.4612903226	1.73225806452	-8.19756097561
1727	0.8635	-0.8375	-2.36774193548	1.73225806452	-6.78536585366
1728	0.864	-6.625	-0.91935483871	4.62903225806	-6.78536585366
1729	0.8645	-2.284375	0.529032258065	6.07741935484	-15.2585365854
1730	0.865	2.05625	-0.91935483871	14.7677419355	-11.0219512195
1731	0.8655	0.609375	-0.91935483871	-2.61290322581	-12.4341463415
1732	0.866	-0.8375	19.3580645161	0.283870967742	-16.6707317073
1733	0.8665	-2.284375	0.529032258065	0.283870967742	-16.6707317073
1734	0.867	-13.859375	-0.91935483871	0.283870967742	-15.2585365854
1735	0.8675	-8.071875	-0.91935483871	3.18064516129	-3.96097560976
1736	0.868	-3.73125	0.529032258065	19.1129032258	-19.4951219512
1737	0.8685	-0.8375	-2.36774193548	14.7677419355	-20.9073170732
1738	0.869	-2.284375	-2.36774193548	-2.61290322581	-25.143902439
1739	0.8695	0.609375	-0.91935483871	1.73225806452	-22.3195121951
1740	0.87	12.184375	-0.91935483871	3.18064516129	-22.3195121951
1741	0.8705	-0.8375	-2.36774193548	4.62903225806	-20.9073170732
1742	0.871	-2.284375	-0.91935483871	7.52580645161	-22.3195121951
1743	0.8715	0.609375	-3.81612903226	-2.61290322581	-23.7317073171
1744	0.872	-2.284375	0.529032258065	-1.16451612903	-23.7317073171
1745	0.8725	3.503125	-2.36774193548	1.73225806452	-23.7317073171
1746	0.873	9.290625	-5.26451612903	0.283870967742	-23.7317073171
1747	0.8735	2.05625	-3.81612903226	-1.16451612903	-22.3195121951
1748	0.874	-3.73125	0.529032258065	1.73225806452	-20.9073170732
1749	0.8745	-5.178125	-0.91935483871	-1.16451612903	-16.6707317073
1750	0.875	-6.625	0.529032258065	-8.4064516129	-13.8463414634
1751	0.8755	0.609375	9.21935483871	0.283870967742	-12.4341463415
1752	0.876	-3.73125	0.529032258065	0.283870967742	-12.4341463415
1753	0.8765	10.7375	0.529032258065	1.73225806452	-11.0219512195
1754	0.877	-0.8375	-0.91935483871	3.18064516129	-16.6707317073
1755	0.8775	2.05625	0.529032258065	-6.95806451613	-6.78536585366
1756	0.878	-0.8375	-0.91935483871	1.73225806452	-6.78536585366
1757	0.8785	-0.8375	20.8064516129	1.73225806452	-6.78536585366
1758	0.879	-0.8375	0.529032258065	4.62903225806	-2.5487804878
1759	0.8795	-10.965625	0.529032258065	4.62903225806	1.68780487805
1760	0.88	2.05625	0.529032258065	3.18064516129	5.9243902439
1761	0.8805	0.609375	-2.36774193548	14.7677419355	-5.37317073171
1762	0.881	-0.8375	-11.0580645161	1.73225806452	-6.78536585366
1763	0.8815	3.503125	-2.36774193548	4.62903225806	-9.60975609756
1764	0.882	0.609375	-8.16129032258	4.62903225806	-9.60975609756
1765	0.8825	7.84375	-2.36774193548	0.283870967742	-12.4341463415
1766	0.883	-0.8375	-2.36774193548	1.73225806452	-18.0829268293
1767	0.8835	2.05625	-2.36774193548	0.283870967742	-16.6707317073
1768	0.884	0.609375	-0.91935483871	-4.06129032258	-12.4341463415
1769	0.8845	2.05625	0.529032258065	1.73225806452	-13.8463414634
1770	0.885	3.503125	-5.26451612903	3.18064516129	-11.0219512195
1771	0.8855	-12.4125	1.97741935484	0.283870967742	-9.60975609756
1772	0.886	2.05625	1.97741935484	3.18064516129	-18.0829268293
1773	0.8865	0.609375	0.529032258065	6.07741935484	-18.0829268293
1774	0.887	-0.8375	-0.91935483871	-5.50967741935	-11.0219512195
1775	0.8875	-0.8375	10.6677419355	3.18064516129	-11.0219512195
1776	0.888	0.609375	0.529032258065	4.62903225806	-12.4341463415
1777	0.8885	-2.284375	1.97741935484	-1.16451612903	-18.0829268293
1778	0.889	-6.625	1.97741935484	0.283870967742	-3.96097560976
1779	0.8895	0.609375	-0.91935483871	1.73225806452	-13.8463414634
1780	0.89	-0.8375	-6.71290322581	-1.16451612903	-15.2585365854
1781	0.8905	0.609375	0.529032258065	-1.16451612903	-16.6707317073
1782	0.891	0.609375	-6.71290322581	-2.61290322581	-13.8463414634
1783	0.8915	7.84375	0.529032258065	-1.16451612903	-13.8463414634
1784	0.892	-2.284375	0.529032258065	1.73225806452	-19.4951219512
1785	0.8925	0.609375	0.529032258065	-5.50967741935	-9.60975609756
1786	0.893	0.609375	-3.81612903226	0.283870967742	-11.0219512195
1787	0.8935	-2.284375	-8.16129032258	1.73225806452	-8.19756097561
1788	0.894	2.05625	-12.5064516129	-1.16451612903	-5.37317073171
1789	0.8945	22.3125	-0.91935483871	1.73225806452	-6.78536585366
1790	0.895	0.609375	-2.36774193548	0.283870967742	-19.4951219512
1791	0.8955	0.609375	-0.91935483871	-1.16451612903	-1.13658536585
1792	0.896	0.609375	0.529032258065	0.283870967742	-9.60975609756
1793	0.8965	0.609375	-11.0580645161	1.73225806452	-11.0219512195
1794	0.897	2.05625	-8.16129032258	-1.16451612903	-13.8463414634
1795	0.8975	10.7375	0.529032258065	3.18064516129	-16.6707317073
1796	0.898	-5.178125	0.529032258065	3.18064516129	-13.8463414634
1797	0.8985	0.609375	-0.91935483871	3.18064516129	-25.143902439
1798	0.899	0.609375	-0.91935483871	-9.85483870968	-20.9073170732
1799	0.8995	0.609375	4.87419354839	-8.4064516129	-19.4951219512
1800	0.9	2.05625	20.8064516129	1.73225806452	-18.0829268293
1801	0.9005	-5.178125	-2.36774193548	1.73225806452	-15.2585365854
1802	0.901	-10.965625	-0.91935483871	3.18064516129	-3.96097560976
1803	0.9015	-2.284375	-0.91935483871	-1.16451612903	-13.8463414634
1804	0.902	0.609375	0.529032258065	17.664516129	-12.4341463415
1805	0.9025	-0.8375	-0.91935483871	16.2161290323	-12.4341463415
1806	0.903	3.503125	-9.60967741935	3.18064516129	-13.8463414634
1807	0.9035	-0.8375	0.529032258065	1.73225806452	-16.6707317073
1808	0.904	16.525	0.529032258065	0.283870967742	-25.143902439
1809	0.9045	-0.8375	-0.91935483871	1.73225806452	-26.556097561
1810	0.905	2.05625	0.529032258065	19.1129032258	-22.3195121951
1811	0.9055	-0.8375	-12.5064516129	0.283870967742	-22.3195121951
1812	0.906	2.05625	19.3580645161	-1.16451612903	-22.3195121951
1813	0.9065	-3.73125	0.529032258065	-1.16451612903	-23.7317073171
1814	0.907	-5.178125	1.97741935484	-2.61290322581	-25.143902439
1815	0.9075	-8.071875	1.97741935484	-1.16451612903	-23.7317073171
1816	0.908	-0.8375	3.42580645161	-4.06129032258	-8.19756097561
1817	0.9085	-3.73125	1.97741935484	1.73225806452	-16.6707317073
1818	0.909	-0.8375	-5.26451612903	0.283870967742	-12.4341463415
1819	0.9095	0.609375	-5.26451612903	3.18064516129	-8.19756097561
1820	0.91	16.525	-0.91935483871	3.18064516129	-18.0829268293
1821	0.9105	0.609375	0.529032258065	3.18064516129	-18.0829268293
1822	0.911	-0.8375	1.97741935484	-8.4064516129	-9.60975609756
1823	0.9115	0.609375	0.529032258065	-4.06129032258	-12.4341463415
1824	0.912	2.05625	-11.0580645161	3.18064516129	-8.19756097561
1825	0.9125	0.609375	-6.71290322581	3.18064516129	-8.19756097561
1826	0.913	23.759375	0.529032258065	1.73225806452	-11.0219512195
1827	0.9135	-0.8375	0.529032258065	3.18064516129	-13.8463414634
1828	0.914	0.609375	3.42580645161	4.62903225806	-19.4951219512
1829	0.9145	-2.284375	0.529032258065	8.97419354839	-16.6707317073
1830	0.915	-2.284375	-6.71290322581	4.62903225806	-16.6707317073
1831	0.9155	0.609375	0.529032258065	4.62903225806	-19.4951219512
1832	0.916	-0.8375	-6.71290322581	1.73225806452	-18.0829268293
1833	0.9165	9.290625	0.529032258065	-1.16451612903	-23.7317073171
1834	0.917	0.609375	0.529032258065	-4.06129032258	-30.7926829268
1835	0.9175	2.05625	-0.91935483871	-4.06129032258	-3.96097560976
1836	0.918	4.95	1.97741935484	1.73225806452	-22.3195121951
1837	0.9185	3.503125	17.9096774194	-1.16451612903	-18.0829268293
1838	0.919	2.05625	-5.26451612903	0.283870967742	-16.6707317073
1839	0.9195	17.971875	0.529032258065	0.283870967742	-16.6707317073
1840	0.92	2.05625	1.97741935484	0.283870967742	-19.4951219512
1841	0.9205	7.84375	0.529032258065	-1.16451612903	-9.60975609756
1842	0.921	3.503125	1.97741935484	3.18064516129	-15.2585365854
1843	0.9215	3.503125	7.77096774194	3.18064516129	-13.8463414634
1844	0.922	0.609375	-8.16129032258	0.283870967742	-12.4341463415
1845	0.9225	-5.178125	0.529032258065	0.283870967742	-13.8463414634
1846	0.923	3.503125	0.529032258065	-1.16451612903	-18.0829268293
1847	0.9235	-8.071875	-0.91935483871	-2.61290322581	-19.4951219512
1848	0.924	-12.4125	1.97741935484	-6.95806451613	-13.8463414634
1849	0.9245	-10.965625	0.529032258065	0.283870967742	-12.4341463415
1850	0.925	-8.071875	-8.16129032258	-1.16451612903	-11.0219512195
1851	0.9255	-6.625	0.529032258065	1.73225806452	-8.19756097561
1852	0.926	9.290625	-0.91935483871	1.73225806452	-13.8463414634
1853	0.9265	-3.73125	0.529032258065	4.62903225806	-13.8463414634
1854	0.927	0.609375	-0.91935483871	-6.95806451613	-1.13658536585
1855	0.9275	0.609375	1.97741935484	-6.95806451613	-1.13658536585
1856	0.928	0.609375	22.2548387097	0.283870967742	-3.96097560976
1857	0.9285	-16.753125	0.529032258065	1.73225806452	-1.13658536585
1858	0.929	-9.51875	3.42580645161	1.73225806452	-2.5487804878
1859	0.9295	-0.8375	-0.91935483871	1.73225806452	-18.0829268293
1860	0.93	0.609375	1.97741935484	-4.06129032258	-5.37317073171
1861	0.9305	-2.284375	1.97741935484	1.73225806452	-8.19756097561
1862	0.931	-0.8375	15.0129032258	3.18064516129	-8.19756097561
1863	0.9315	0.609375	-2.36774193548	3.18064516129	-9.60975609756
1864	0.932	2.05625	4.87419354839	6.07741935484	-9.60975609756
1865	0.9325	3.503125	0.529032258065	4.62903225806	-18.0829268293
1866	0.933	-3.73125	1.97741935484	-5.50967741935	-8.19756097561
1867	0.9335	-2.284375	7.77096774194	1.73225806452	-12.4341463415
1868	0.934	-0.8375	6.32258064516	1.73225806452	-12.4341463415
1869	0.9345	-0.8375	-5.26451612903	3.18064516129	-12.4341463415
1870	0.935	-3.73125	1.97741935484	0.283870967742	-11.0219512195
1871	0.9355	2.05625	1.97741935484	3.18064516129	-18.0829268293
1872	0.936	0.609375	0.529032258065	-2.61290322581	-13.8463414634
1873	0.9365	4.95	1.97741935484	-4.06129032258	-6.78536585366
1874	0.937	0.609375	19.3580645161	3.18064516129	-5.37317073171
1875	0.9375	-2.284375	-5.26451612903	0.283870967742	-3.96097560976
1876	0.938	-12.4125	1.97741935484	1.73225806452	-6.78536585366
1877	0.9385	-0.8375	-0.91935483871	1.73225806452	-2.5487804878
1878	0.939	-2.284375	3.42580645161	3.18064516129	-9.60975609756
1879	0.9395	-5.178125	3.42580645161	7.52580645161	-3.96097560976
1880	0.94	-6.625	-6.71290322581	-5.50967741935	-6.78536585366
1881	0.9405	-3.73125	1.97741935484	0.283870967742	-8.19756097561
1882	0.941	-3.73125	-8.16129032258	0.283870967742	-3.96097560976
1883	0.9415	4.95	1.97741935484	0.283870967742	-11.0219512195
1884	0.942	-3.73125	0.529032258065	-1.16451612903	-12.4341463415
1885	0.9425	-0.8375	0.529032258065	-6.95806451613	-3.96097560976
1886	0.943	0.609375	0.529032258065	-6.95806451613	-1.13658536585
1887	0.9435	-0.8375	3.42580645161	1.73225806452	-1.13658536585
1888	0.944	-0.8375	0.529032258065	0.283870967742	0.275609756098
1889	0.9445	-12.4125	1.97741935484	3.18064516129	1.68780487805
1890	0.945	-5.178125	1.97741935484	3.18064516129	1.68780487805
1891	0.9455	-0.8375	4.87419354839	16.2161290323	-2.5487804878
1892	0.946	2.05625	6.32258064516	-1.16451612903	-2.5487804878
1893	0.9465	2.05625	6.32258064516	1.73225806452	-3.96097560976
1894	0.947	0.609375	-6.71290322581	-1.16451612903	-9.60975609756
1895	0.9475	17.971875	-0.91935483871	1.73225806452	-6.78536585366
1896	0.948	-10.965625	0.529032258065	0.283870967742	8.7487804878
1897	0.9485	0.609375	-2.36774193548	-8.4064516129	-13.8463414634
1898	0.949	-0.8375	0.529032258065	-5.50967741935	-15.2585365854
1899	0.9495	-5.178125	1.97741935484	0.283870967742	-15.2585365854
1900	0.95	-2.284375	-6.71290322581	-1.16451612903	-15.2585365854
1901	0.9505	3.503125	0.529032258065	-1.16451612903	-11.0219512195
1902	0.951	-3.73125	-0.91935483871	0.283870967742	-12.4341463415
1903	0.9515	0.609375	1.97741935484	1.73225806452	-19.4951219512
1904	0.952	0.609375	3.42580645161	-1.16451612903	-23.7317073171
1905	0.9525	0.609375	-2.36774193548	0.283870967742	-18.0829268293
1906	0.953	2.05625	16.4612903226	1.73225806452	-15.2585365854
1907	0.9535	-0.8375	19.3580645161	0.283870967742	-15.2585365854
