	Time	Channel 1	Channel 2	Channel 3	Channel 4
0	0.0	-2.1	8.13333333333	7.290625	-4.45
1	0.0005	12.275	9.56	0.05625	-3.03448275862
2	0.001	0.775	19.5466666667	1.503125	-3.03448275862
3	0.0015	-0.6625	6.70666666667	2.95	-1.61896551724
4	0.002	-0.6625	8.13333333333	4.396875	-3.03448275862
5	0.0025	0.775	6.70666666667	4.396875	-3.03448275862
6	0.003	2.2125	-3.28	1.503125	12.5362068966
7	0.0035	-2.1	-4.70666666667	2.95	-0.203448275862
8	0.004	-9.2875	6.70666666667	2.95	-3.03448275862
9	0.0045	0.775	3.85333333333	1.503125	-1.61896551724
10	0.005	-0.6625	-4.70666666667	2.95	-1.61896551724
11	0.0055	-2.1	-0.426666666667	4.396875	-1.61896551724
12	0.006	-7.85	6.70666666667	2.95	-3.03448275862
13	0.0065	20.9	5.28	4.396875	1.21206896552
14	0.007	-6.4125	5.28	1.503125	-4.45
15	0.0075	2.2125	5.28	0.05625	-1.61896551724
16	0.008	10.8375	5.28	1.503125	-0.203448275862
17	0.0085	18.025	5.28	2.95	-5.86551724138
18	0.009	-4.975	5.28	4.396875	-12.9431034483
19	0.0095	-10.725	6.70666666667	2.95	-11.5275862069
20	0.01	-0.6625	5.28	1.503125	-0.203448275862
21	0.0105	-2.1	5.28	4.396875	-12.9431034483
22	0.011	-0.6625	2.42666666667	7.290625	-8.69655172414
23	0.0115	0.775	5.28	-1.390625	-4.45
24	0.012	0.775	6.70666666667	2.95	-8.69655172414
25	0.0125	0.775	6.70666666667	4.396875	-3.03448275862
26	0.013	0.775	9.56	15.971875	-3.03448275862
27	0.0135	-0.6625	9.56	4.396875	-3.03448275862
28	0.014	3.65	10.9866666667	15.971875	-4.45
29	0.0145	-0.6625	8.13333333333	20.3125	-4.45
30	0.015	-0.6625	8.13333333333	20.3125	-11.5275862069
31	0.0155	-0.6625	6.70666666667	0.05625	-4.45
32	0.016	2.2125	10.9866666667	1.503125	-7.28103448276
33	0.0165	0.775	-4.70666666667	1.503125	-4.45
34	0.017	2.2125	-3.28	2.95	-4.45
35	0.0175	2.2125	16.6933333333	1.503125	-7.28103448276
36	0.018	2.2125	-0.426666666667	1.503125	-5.86551724138
37	0.0185	0.775	6.70666666667	-2.8375	-5.86551724138
38	0.019	2.2125	19.5466666667	2.95	-1.61896551724
39	0.0195	3.65	28.1066666667	1.503125	-3.03448275862
40	0.02	-0.6625	22.4	0.05625	-1.61896551724
41	0.0205	0.775	3.85333333333	2.95	-3.03448275862
42	0.021	5.0875	9.56	4.396875	-3.03448275862
43	0.0215	3.65	5.28	2.95	-1.61896551724
44	0.022	-0.6625	9.56	2.95	-3.03448275862
45	0.0225	2.2125	9.56	-1.390625	-1.61896551724
46	0.023	7.9625	6.70666666667	1.503125	-5.86551724138
47	0.0235	19.4625	9.56	1.503125	-3.03448275862
48	0.024	16.5875	8.13333333333	-1.390625	-3.03448275862
49	0.0245	0.775	5.28	0.05625	-4.45
50	0.025	-9.2875	9.56	-1.390625	-10.1120689655
51	0.0255	0.775	6.70666666667	2.95	-3.03448275862
52	0.026	10.8375	6.70666666667	1.503125	-3.03448275862
53	0.0265	-0.6625	5.28	1.503125	-1.61896551724
54	0.027	0.775	8.13333333333	1.503125	-1.61896551724
55	0.0275	2.2125	8.13333333333	5.84375	-0.203448275862
56	0.028	0.775	6.70666666667	1.503125	1.21206896552
57	0.0285	2.2125	8.13333333333	1.503125	-3.03448275862
58	0.029	3.65	5.28	-1.390625	-7.28103448276
59	0.0295	0.775	5.28	4.396875	-10.1120689655
60	0.03	2.2125	8.13333333333	-2.8375	-5.86551724138
61	0.0305	0.775	6.70666666667	1.503125	-10.1120689655
62	0.031	0.775	5.28	-7.178125	-4.45
63	0.0315	0.775	3.85333333333	2.95	-5.86551724138
64	0.032	0.775	6.70666666667	2.95	-10.1120689655
65	0.0325	-0.6625	9.56	15.971875	-8.69655172414
66	0.033	0.775	5.28	-2.8375	-3.03448275862
67	0.0335	0.775	5.28	-1.390625	-1.61896551724
68	0.034	-0.6625	-7.56	0.05625	-1.61896551724
69	0.0345	2.2125	-1.85333333333	0.05625	-0.203448275862
70	0.035	0.775	2.42666666667	0.05625	-0.203448275862
71	0.0355	3.65	-6.13333333333	0.05625	-3.03448275862
72	0.036	2.2125	-6.13333333333	-7.178125	-1.61896551724
73	0.0365	2.2125	10.9866666667	0.05625	-0.203448275862
74	0.037	3.65	23.8266666667	1.503125	-3.03448275862
75	0.0375	5.0875	25.2533333333	2.95	-3.03448275862
76	0.038	3.65	3.85333333333	-1.390625	-1.61896551724
77	0.0385	-3.5375	6.70666666667	1.503125	-1.61896551724
78	0.039	2.2125	8.13333333333	2.95	-3.03448275862
79	0.0395	3.65	8.13333333333	0.05625	-1.61896551724
80	0.04	-13.6	5.28	1.503125	-3.03448275862
81	0.0405	-9.2875	6.70666666667	2.95	-1.61896551724
82	0.041	7.9625	5.28	-1.390625	-1.61896551724
83	0.0415	-4.975	8.13333333333	2.95	-14.3586206897
84	0.042	-7.85	3.85333333333	1.503125	-10.1120689655
85	0.0425	-3.5375	5.28	2.95	-5.86551724138
86	0.043	-0.6625	6.70666666667	1.503125	-7.28103448276
87	0.0435	-2.1	6.70666666667	2.95	-11.5275862069
88	0.044	2.2125	6.70666666667	4.396875	-8.69655172414
89	0.0445	0.775	6.70666666667	5.84375	-11.5275862069
90	0.045	2.2125	5.28	1.503125	-10.1120689655
91	0.0455	0.775	2.42666666667	2.95	-8.69655172414
92	0.046	-0.6625	6.70666666667	0.05625	-1.61896551724
93	0.0465	0.775	6.70666666667	-1.390625	13.9517241379
94	0.047	0.775	3.85333333333	-10.071875	16.7827586207
95	0.0475	0.775	6.70666666667	-2.8375	-0.203448275862
96	0.048	2.2125	5.28	1.503125	-3.03448275862
97	0.0485	2.2125	6.70666666667	17.41875	-0.203448275862
98	0.049	-2.1	8.13333333333	-1.390625	-0.203448275862
99	0.0495	-0.6625	-1.85333333333	1.503125	-3.03448275862
100	0.05	-0.6625	6.70666666667	1.503125	-0.203448275862
101	0.0505	0.775	9.56	-1.390625	-3.03448275862
102	0.051	2.2125	-1.85333333333	1.503125	-4.45
103	0.0515	2.2125	3.85333333333	1.503125	-4.45
104	0.052	2.2125	26.68	0.05625	-1.61896551724
105	0.0525	-0.6625	3.85333333333	0.05625	-4.45
106	0.053	0.775	9.56	2.95	-3.03448275862
107	0.0535	3.65	23.8266666667	-1.390625	-5.86551724138
108	0.054	-0.6625	1.0	-1.390625	-7.28103448276
109	0.0545	-0.6625	8.13333333333	-1.390625	-5.86551724138
110	0.055	-3.5375	6.70666666667	0.05625	-3.03448275862
111	0.0555	-13.6	5.28	1.503125	-7.28103448276
112	0.056	-12.1625	6.70666666667	0.05625	-7.28103448276
113	0.0565	-2.1	6.70666666667	1.503125	-4.45
114	0.057	-6.4125	5.28	0.05625	-7.28103448276
115	0.0575	-10.725	5.28	2.95	-7.28103448276
116	0.058	-10.725	6.70666666667	1.503125	-10.1120689655
117	0.0585	-2.1	3.85333333333	0.05625	-5.86551724138
118	0.059	7.9625	3.85333333333	2.95	-3.03448275862
119	0.0595	-0.6625	3.85333333333	0.05625	4.04310344828
120	0.06	-3.5375	3.85333333333	2.95	-1.61896551724
121	0.0605	-3.5375	5.28	2.95	-10.1120689655
122	0.061	-3.5375	6.70666666667	1.503125	-1.61896551724
123	0.0615	2.2125	5.28	2.95	-4.45
124	0.062	2.2125	2.42666666667	0.05625	-0.203448275862
125	0.0625	5.0875	5.28	-8.625	-0.203448275862
126	0.063	2.2125	5.28	-10.071875	-0.203448275862
127	0.0635	2.2125	3.85333333333	-2.8375	2.6275862069
128	0.064	0.775	5.28	7.290625	-0.203448275862
129	0.0645	2.2125	5.28	0.05625	-7.28103448276
130	0.065	2.2125	2.42666666667	4.396875	-10.1120689655
131	0.0655	0.775	6.70666666667	-1.390625	-0.203448275862
132	0.066	0.775	3.85333333333	-4.284375	-0.203448275862
133	0.0665	0.775	2.42666666667	-5.73125	16.7827586207
134	0.067	-0.6625	-7.56	2.95	-0.203448275862
135	0.0675	0.775	1.0	0.05625	1.21206896552
136	0.068	0.775	6.70666666667	15.971875	-5.86551724138
137	0.0685	2.2125	23.8266666667	1.503125	-1.61896551724
138	0.069	0.775	13.84	2.95	-3.03448275862
139	0.0695	2.2125	3.85333333333	-4.284375	-0.203448275862
140	0.07	-0.6625	-1.85333333333	-1.390625	-1.61896551724
141	0.0705	-3.5375	-3.28	-1.390625	-3.03448275862
142	0.071	-3.5375	-3.28	0.05625	1.21206896552
143	0.0715	-3.5375	-6.13333333333	0.05625	-0.203448275862
144	0.072	-10.725	5.28	0.05625	-1.61896551724
145	0.0725	-7.85	2.42666666667	0.05625	-3.03448275862
146	0.073	-4.975	5.28	1.503125	-1.61896551724
147	0.0735	16.5875	3.85333333333	0.05625	-0.203448275862
148	0.074	20.9	3.85333333333	1.503125	-3.03448275862
149	0.0745	18.025	3.85333333333	1.503125	-1.61896551724
150	0.075	-3.5375	2.42666666667	2.95	-8.69655172414
151	0.0755	-6.4125	3.85333333333	1.503125	-11.5275862069
152	0.076	-6.4125	2.42666666667	1.503125	-12.9431034483
153	0.0765	-2.1	2.42666666667	1.503125	4.04310344828
154	0.077	-3.5375	5.28	0.05625	-4.45
155	0.0775	-0.6625	2.42666666667	4.396875	-11.5275862069
156	0.078	-0.6625	2.42666666667	4.396875	-8.69655172414
157	0.0785	0.775	3.85333333333	-2.8375	-7.28103448276
158	0.079	2.2125	5.28	0.05625	-10.1120689655
159	0.0795	-0.6625	3.85333333333	4.396875	-12.9431034483
160	0.08	-2.1	6.70666666667	18.865625	-5.86551724138
161	0.0805	0.775	3.85333333333	4.396875	-5.86551724138
162	0.081	0.775	3.85333333333	8.7375	-5.86551724138
163	0.0815	2.2125	5.28	2.95	-14.3586206897
164	0.082	3.65	9.56	1.503125	-5.86551724138
165	0.0825	0.775	6.70666666667	11.63125	-8.69655172414
166	0.083	3.65	3.85333333333	-5.73125	-5.86551724138
167	0.0835	0.775	8.13333333333	2.95	-3.03448275862
168	0.084	0.775	20.9733333333	1.503125	-3.03448275862
169	0.0845	0.775	16.6933333333	0.05625	-1.61896551724
170	0.085	0.775	2.42666666667	-1.390625	-0.203448275862
171	0.0855	-2.1	-4.70666666667	-1.390625	-3.03448275862
172	0.086	-2.1	-6.13333333333	1.503125	-1.61896551724
173	0.0865	-2.1	2.42666666667	-1.390625	-3.03448275862
174	0.087	0.775	8.13333333333	0.05625	-1.61896551724
175	0.0875	2.2125	6.70666666667	2.95	-1.61896551724
176	0.088	-12.1625	3.85333333333	0.05625	-0.203448275862
177	0.0885	-10.725	8.13333333333	0.05625	2.6275862069
178	0.089	-9.2875	6.70666666667	1.503125	1.21206896552
179	0.0895	0.775	5.28	0.05625	1.21206896552
180	0.09	20.9	3.85333333333	0.05625	2.6275862069
181	0.0905	15.15	3.85333333333	0.05625	1.21206896552
182	0.091	-2.1	5.28	2.95	-1.61896551724
183	0.0915	-10.725	5.28	1.503125	-1.61896551724
184	0.092	-0.6625	5.28	1.503125	4.04310344828
185	0.0925	12.275	3.85333333333	1.503125	1.21206896552
186	0.093	-0.6625	6.70666666667	-1.390625	4.04310344828
187	0.0935	-2.1	5.28	0.05625	-0.203448275862
188	0.094	-4.975	6.70666666667	0.05625	-7.28103448276
189	0.0945	0.775	3.85333333333	4.396875	-5.86551724138
190	0.095	0.775	5.28	1.503125	-0.203448275862
191	0.0955	-0.6625	5.28	0.05625	5.45862068966
192	0.096	-0.6625	5.28	-5.73125	-1.61896551724
193	0.0965	0.775	6.70666666667	-10.071875	-0.203448275862
194	0.097	0.775	6.70666666667	14.525	2.6275862069
195	0.0975	-0.6625	6.70666666667	7.290625	-0.203448275862
196	0.098	-2.1	6.70666666667	1.503125	-3.03448275862
197	0.0985	0.775	9.56	14.525	-1.61896551724
198	0.099	-2.1	3.85333333333	-8.625	-1.61896551724
199	0.0995	2.2125	6.70666666667	0.05625	-3.03448275862
200	0.1	-2.1	6.70666666667	-1.390625	-1.61896551724
201	0.1005	-2.1	5.28	-7.178125	-1.61896551724
202	0.101	-2.1	6.70666666667	1.503125	-3.03448275862
203	0.1015	0.775	18.12	4.396875	-3.03448275862
204	0.102	0.775	9.56	0.05625	-0.203448275862
205	0.1025	-2.1	3.85333333333	0.05625	-0.203448275862
206	0.103	-0.6625	3.85333333333	-4.284375	-0.203448275862
207	0.1035	-0.6625	-4.70666666667	1.503125	-3.03448275862
208	0.104	-2.1	-1.85333333333	1.503125	-0.203448275862
209	0.1045	-3.5375	-6.13333333333	0.05625	-1.61896551724
210	0.105	-0.6625	3.85333333333	0.05625	-4.45
211	0.1055	-2.1	2.42666666667	1.503125	-0.203448275862
212	0.106	-0.6625	3.85333333333	2.95	-0.203448275862
213	0.1065	3.65	3.85333333333	1.503125	-0.203448275862
214	0.107	3.65	3.85333333333	-1.390625	-0.203448275862
215	0.1075	18.025	5.28	-1.390625	-3.03448275862
216	0.108	10.8375	6.70666666667	2.95	-3.03448275862
217	0.1085	-4.975	5.28	1.503125	-4.45
218	0.109	13.7125	1.0	1.503125	1.21206896552
219	0.1095	0.775	5.28	1.503125	8.28965517241
220	0.11	-0.6625	3.85333333333	1.503125	2.6275862069
221	0.1105	-2.1	1.0	2.95	-5.86551724138
222	0.111	-0.6625	5.28	0.05625	-8.69655172414
223	0.1115	0.775	3.85333333333	-1.390625	-10.1120689655
224	0.112	-0.6625	2.42666666667	-11.51875	-8.69655172414
225	0.1125	-0.6625	2.42666666667	-8.625	-3.03448275862
226	0.113	-0.6625	2.42666666667	-10.071875	-5.86551724138
227	0.1135	-0.6625	2.42666666667	-11.51875	-3.03448275862
228	0.114	-0.6625	5.28	0.05625	8.28965517241
229	0.1145	0.775	2.42666666667	-1.390625	-4.45
230	0.115	-0.6625	5.28	4.396875	-8.69655172414
231	0.1155	0.775	6.70666666667	7.290625	-10.1120689655
232	0.116	-0.6625	5.28	11.63125	-5.86551724138
233	0.1165	0.775	6.70666666667	1.503125	-7.28103448276
234	0.117	-2.1	6.70666666667	0.05625	-5.86551724138
235	0.1175	0.775	6.70666666667	14.525	-7.28103448276
236	0.118	-0.6625	13.84	-4.284375	-5.86551724138
237	0.1185	0.775	3.85333333333	-2.8375	-7.28103448276
238	0.119	2.2125	5.28	1.503125	-5.86551724138
239	0.1195	0.775	1.0	1.503125	-5.86551724138
240	0.12	-0.6625	-3.28	2.95	-3.03448275862
241	0.1205	-2.1	-1.85333333333	1.503125	-3.03448275862
242	0.121	3.65	3.85333333333	1.503125	-0.203448275862
243	0.1215	0.775	-1.85333333333	0.05625	-3.03448275862
244	0.122	-3.5375	5.28	0.05625	1.21206896552
245	0.1225	-2.1	2.42666666667	0.05625	-3.03448275862
246	0.123	0.775	5.28	1.503125	-1.61896551724
247	0.1235	-10.725	3.85333333333	1.503125	-3.03448275862
248	0.124	18.025	2.42666666667	2.95	-0.203448275862
249	0.1245	-7.85	6.70666666667	0.05625	-1.61896551724
250	0.125	13.7125	1.0	-1.390625	-0.203448275862
251	0.1255	-3.5375	5.28	1.503125	-5.86551724138
252	0.126	-4.975	6.70666666667	2.95	-4.45
253	0.1265	-3.5375	5.28	4.396875	-10.1120689655
254	0.127	-0.6625	5.28	-1.390625	16.7827586207
255	0.1275	-0.6625	2.42666666667	-1.390625	12.5362068966
256	0.128	-0.6625	5.28	-7.178125	-3.03448275862
257	0.1285	-3.5375	3.85333333333	-5.73125	-1.61896551724
258	0.129	-0.6625	5.28	2.95	-4.45
259	0.1295	-0.6625	5.28	2.95	-10.1120689655
260	0.13	0.775	6.70666666667	18.865625	-3.03448275862
261	0.1305	0.775	5.28	13.078125	-0.203448275862
262	0.131	0.775	2.42666666667	4.396875	-0.203448275862
263	0.1315	-2.1	3.85333333333	8.7375	-0.203448275862
264	0.132	-0.6625	1.0	18.865625	-1.61896551724
265	0.1325	-2.1	5.28	7.290625	-10.1120689655
266	0.133	0.775	3.85333333333	0.05625	-1.61896551724
267	0.1335	-0.6625	6.70666666667	1.503125	-1.61896551724
268	0.134	-0.6625	6.70666666667	-1.390625	1.21206896552
269	0.1345	0.775	-3.28	1.503125	-3.03448275862
270	0.135	-0.6625	9.56	2.95	-0.203448275862
271	0.1355	-0.6625	19.5466666667	2.95	-1.61896551724
272	0.136	2.2125	22.4	0.05625	-3.03448275862
273	0.1365	2.2125	5.28	-2.8375	-1.61896551724
274	0.137	0.775	1.0	0.05625	-1.61896551724
275	0.1375	0.775	-3.28	2.95	-0.203448275862
276	0.138	-3.5375	-1.85333333333	-7.178125	1.21206896552
277	0.1385	-3.5375	-4.70666666667	0.05625	-1.61896551724
278	0.139	-12.1625	5.28	-1.390625	-3.03448275862
279	0.1395	-10.725	1.0	1.503125	-5.86551724138
280	0.14	-9.2875	5.28	-1.390625	-5.86551724138
281	0.1405	13.7125	2.42666666667	1.503125	-5.86551724138
282	0.141	5.0875	5.28	1.503125	-5.86551724138
283	0.1415	-6.4125	2.42666666667	4.396875	-14.3586206897
284	0.142	-6.4125	5.28	2.95	-11.5275862069
285	0.1425	-4.975	2.42666666667	2.95	-11.5275862069
286	0.143	-7.85	5.28	0.05625	-7.28103448276
287	0.1435	-7.85	3.85333333333	0.05625	-15.774137931
288	0.144	0.775	5.28	1.503125	-7.28103448276
289	0.1445	-0.6625	5.28	1.503125	-4.45
290	0.145	0.775	3.85333333333	-1.390625	8.28965517241
291	0.1455	-0.6625	2.42666666667	2.95	-0.203448275862
292	0.146	-0.6625	5.28	-7.178125	-3.03448275862
293	0.1465	-0.6625	2.42666666667	-8.625	-5.86551724138
294	0.147	-0.6625	2.42666666667	1.503125	-1.61896551724
295	0.1475	0.775	3.85333333333	14.525	-0.203448275862
296	0.148	0.775	3.85333333333	18.865625	-1.61896551724
297	0.1485	-0.6625	1.0	1.503125	-11.5275862069
298	0.149	-3.5375	6.70666666667	-1.390625	-0.203448275862
299	0.1495	-2.1	1.0	-4.284375	-0.203448275862
300	0.15	-0.6625	2.42666666667	0.05625	5.45862068966
301	0.1505	-2.1	1.0	-2.8375	-0.203448275862
302	0.151	-0.6625	-7.56	0.05625	1.21206896552
303	0.1515	0.775	-8.98666666667	-5.73125	1.21206896552
304	0.152	-3.5375	-7.56	0.05625	1.21206896552
305	0.1525	0.775	-7.56	2.95	-0.203448275862
306	0.153	-0.6625	1.0	2.95	2.6275862069
307	0.1535	0.775	-1.85333333333	1.503125	-0.203448275862
308	0.154	0.775	1.0	11.63125	-3.03448275862
309	0.1545	2.2125	-0.426666666667	1.503125	1.21206896552
310	0.155	2.2125	-0.426666666667	1.503125	-0.203448275862
311	0.1555	3.65	1.0	2.95	-1.61896551724
312	0.156	0.775	-1.85333333333	1.503125	1.21206896552
313	0.1565	-9.2875	-0.426666666667	0.05625	-0.203448275862
314	0.157	9.4	1.0	2.95	1.21206896552
315	0.1575	3.65	-1.85333333333	1.503125	1.21206896552
316	0.158	-3.5375	2.42666666667	1.503125	-0.203448275862
317	0.1585	-7.85	1.0	4.396875	-8.69655172414
318	0.159	-7.85	2.42666666667	2.95	-5.86551724138
319	0.1595	-6.4125	2.42666666667	1.503125	-4.45
320	0.16	-3.5375	2.42666666667	4.396875	-3.03448275862
321	0.1605	-0.6625	2.42666666667	0.05625	12.5362068966
322	0.161	0.775	2.42666666667	1.503125	-0.203448275862
323	0.1615	0.775	1.0	0.05625	-1.61896551724
324	0.162	-0.6625	2.42666666667	1.503125	-5.86551724138
325	0.1625	2.2125	2.42666666667	2.95	-5.86551724138
326	0.163	-0.6625	2.42666666667	-10.071875	-3.03448275862
327	0.1635	-2.1	1.0	-8.625	-3.03448275862
328	0.164	0.775	2.42666666667	-10.071875	-4.45
329	0.1645	-0.6625	3.85333333333	2.95	2.6275862069
330	0.165	0.775	1.0	5.84375	-0.203448275862
331	0.1655	-0.6625	1.0	11.63125	-1.61896551724
332	0.166	-0.6625	1.0	8.7375	-3.03448275862
333	0.1665	-0.6625	1.0	4.396875	-1.61896551724
334	0.167	-2.1	2.42666666667	2.95	-1.61896551724
335	0.1675	0.775	3.85333333333	1.503125	-1.61896551724
336	0.168	0.775	-8.98666666667	1.503125	-1.61896551724
337	0.1685	0.775	-8.98666666667	4.396875	-3.03448275862
338	0.169	-0.6625	-3.28	1.503125	-1.61896551724
339	0.1695	-0.6625	-0.426666666667	4.396875	-1.61896551724
340	0.17	0.775	-0.426666666667	0.05625	1.21206896552
341	0.1705	-0.6625	-3.28	2.95	-0.203448275862
342	0.171	-3.5375	-4.70666666667	1.503125	-1.61896551724
343	0.1715	-12.1625	2.42666666667	2.95	-3.03448275862
344	0.172	-12.1625	2.42666666667	1.503125	-0.203448275862
345	0.1725	16.5875	2.42666666667	1.503125	-3.03448275862
346	0.173	10.8375	2.42666666667	1.503125	-1.61896551724
347	0.1735	-4.975	2.42666666667	1.503125	-3.03448275862
348	0.174	18.025	2.42666666667	2.95	-4.45
349	0.1745	-7.85	1.0	2.95	-1.61896551724
350	0.175	-3.5375	-0.426666666667	2.95	-0.203448275862
351	0.1755	10.8375	3.85333333333	0.05625	-0.203448275862
352	0.176	0.775	2.42666666667	-1.390625	12.5362068966
353	0.1765	-0.6625	2.42666666667	-1.390625	-0.203448275862
354	0.177	-0.6625	3.85333333333	0.05625	-1.61896551724
355	0.1775	-3.5375	1.0	2.95	-10.1120689655
356	0.178	-0.6625	2.42666666667	4.396875	-11.5275862069
357	0.1785	-3.5375	1.0	-8.625	-4.45
358	0.179	-0.6625	1.0	-7.178125	-4.45
359	0.1795	-3.5375	1.0	-4.284375	-5.86551724138
360	0.18	-2.1	1.0	7.290625	-4.45
361	0.1805	-0.6625	5.28	13.078125	-7.28103448276
362	0.181	-2.1	3.85333333333	4.396875	-8.69655172414
363	0.1815	-0.6625	6.70666666667	0.05625	-1.61896551724
364	0.182	-0.6625	3.85333333333	0.05625	-0.203448275862
365	0.1825	-0.6625	5.28	-1.390625	-0.203448275862
366	0.183	-2.1	5.28	-1.390625	1.21206896552
367	0.1835	-0.6625	1.0	1.503125	-0.203448275862
368	0.184	-2.1	-0.426666666667	0.05625	-0.203448275862
369	0.1845	0.775	18.12	1.503125	-0.203448275862
370	0.185	0.775	23.8266666667	0.05625	1.21206896552
371	0.1855	-0.6625	20.9733333333	1.503125	-0.203448275862
372	0.186	-3.5375	-0.426666666667	4.396875	1.21206896552
373	0.1865	-4.975	3.85333333333	0.05625	1.21206896552
374	0.187	-0.6625	3.85333333333	2.95	1.21206896552
375	0.1875	-2.1	1.0	2.95	1.21206896552
376	0.188	-2.1	15.2666666667	1.503125	-0.203448275862
377	0.1885	16.5875	3.85333333333	-1.390625	4.04310344828
378	0.189	18.025	2.42666666667	2.95	1.21206896552
379	0.1895	18.025	1.0	1.503125	1.21206896552
380	0.19	18.025	-0.426666666667	2.95	2.6275862069
381	0.1905	-6.4125	1.0	2.95	-3.03448275862
382	0.191	3.65	3.85333333333	4.396875	8.28965517241
383	0.1915	-0.6625	3.85333333333	0.05625	13.9517241379
384	0.192	-0.6625	2.42666666667	1.503125	16.7827586207
385	0.1925	-2.1	2.42666666667	4.396875	-4.45
386	0.193	-0.6625	1.0	1.503125	-1.61896551724
387	0.1935	-0.6625	-0.426666666667	1.503125	4.04310344828
388	0.194	-4.975	2.42666666667	0.05625	-0.203448275862
389	0.1945	0.775	2.42666666667	-8.625	-1.61896551724
390	0.195	-2.1	1.0	1.503125	1.21206896552
391	0.1955	-0.6625	-0.426666666667	-1.390625	-1.61896551724
392	0.196	0.775	-0.426666666667	4.396875	-5.86551724138
393	0.1965	-2.1	2.42666666667	0.05625	-3.03448275862
394	0.197	0.775	5.28	1.503125	-1.61896551724
395	0.1975	0.775	6.70666666667	1.503125	-3.03448275862
396	0.198	2.2125	5.28	4.396875	-11.5275862069
397	0.1985	0.775	18.12	1.503125	-0.203448275862
398	0.199	2.2125	15.2666666667	-1.390625	-1.61896551724
399	0.1995	-0.6625	9.56	1.503125	-0.203448275862
400	0.2	-0.6625	6.70666666667	0.05625	-3.03448275862
401	0.2005	0.775	-0.426666666667	1.503125	-1.61896551724
402	0.201	0.775	2.42666666667	2.95	-1.61896551724
403	0.2015	2.2125	2.42666666667	0.05625	-0.203448275862
404	0.202	0.775	3.85333333333	0.05625	-0.203448275862
405	0.2025	-13.6	3.85333333333	1.503125	-1.61896551724
406	0.203	-9.2875	3.85333333333	0.05625	-1.61896551724
407	0.2035	3.65	1.0	0.05625	1.21206896552
408	0.204	9.4	2.42666666667	1.503125	-0.203448275862
409	0.2045	-7.85	3.85333333333	1.503125	1.21206896552
410	0.205	18.025	2.42666666667	-1.390625	-0.203448275862
411	0.2055	0.775	2.42666666667	0.05625	12.5362068966
412	0.206	-2.1	-0.426666666667	1.503125	12.5362068966
413	0.2065	-0.6625	1.0	0.05625	-4.45
414	0.207	-2.1	1.0	2.95	5.45862068966
415	0.2075	-2.1	1.0	-1.390625	-3.03448275862
416	0.208	-0.6625	3.85333333333	-2.8375	-1.61896551724
417	0.2085	0.775	1.0	-4.284375	-1.61896551724
418	0.209	-0.6625	2.42666666667	-8.625	-0.203448275862
419	0.2095	-2.1	3.85333333333	-5.73125	-3.03448275862
420	0.21	0.775	3.85333333333	17.41875	-1.61896551724
421	0.2105	-3.5375	2.42666666667	-5.73125	-1.61896551724
422	0.211	-0.6625	1.0	0.05625	15.3672413793
423	0.2115	-2.1	2.42666666667	-1.390625	-1.61896551724
424	0.212	-0.6625	-0.426666666667	1.503125	-4.45
425	0.2125	-0.6625	-1.85333333333	8.7375	-4.45
426	0.213	-2.1	1.0	1.503125	-1.61896551724
427	0.2135	-0.6625	-7.56	1.503125	-3.03448275862
428	0.214	0.775	-8.98666666667	-1.390625	-5.86551724138
429	0.2145	-2.1	-4.70666666667	2.95	-1.61896551724
430	0.215	-0.6625	-4.70666666667	1.503125	-3.03448275862
431	0.2155	0.775	-3.28	2.95	-1.61896551724
432	0.216	3.65	2.42666666667	0.05625	-3.03448275862
433	0.2165	2.2125	-0.426666666667	0.05625	-3.03448275862
434	0.217	0.775	1.0	0.05625	-3.03448275862
435	0.2175	10.8375	2.42666666667	0.05625	-5.86551724138
436	0.218	0.775	2.42666666667	0.05625	-7.28103448276
437	0.2185	-6.4125	5.28	0.05625	-3.03448275862
438	0.219	-12.1625	1.0	0.05625	-7.28103448276
439	0.2195	-7.85	3.85333333333	1.503125	-10.1120689655
440	0.22	-9.2875	5.28	0.05625	-5.86551724138
441	0.2205	-2.1	2.42666666667	2.95	-8.69655172414
442	0.221	-4.975	-0.426666666667	1.503125	-10.1120689655
443	0.2215	-4.975	2.42666666667	1.503125	-12.9431034483
444	0.222	-6.4125	1.0	1.503125	-12.9431034483
445	0.2225	-0.6625	3.85333333333	-1.390625	-1.61896551724
446	0.223	0.775	-0.426666666667	2.95	-3.03448275862
447	0.2235	-2.1	1.0	1.503125	-0.203448275862
448	0.224	0.775	1.0	5.84375	-3.03448275862
449	0.2245	-2.1	1.0	-1.390625	-1.61896551724
450	0.225	-0.6625	2.42666666667	0.05625	-0.203448275862
451	0.2255	0.775	1.0	-7.178125	-3.03448275862
452	0.226	0.775	-1.85333333333	-7.178125	-0.203448275862
453	0.2265	0.775	-0.426666666667	-2.8375	-1.61896551724
454	0.227	0.775	1.0	-8.625	9.70517241379
455	0.2275	-0.6625	-1.85333333333	-1.390625	-3.03448275862
456	0.228	0.775	-1.85333333333	0.05625	-3.03448275862
457	0.2285	0.775	-1.85333333333	7.290625	-5.86551724138
458	0.229	0.775	1.0	-1.390625	-5.86551724138
459	0.2295	2.2125	23.8266666667	0.05625	-7.28103448276
460	0.23	-0.6625	3.85333333333	15.971875	-7.28103448276
461	0.2305	0.775	13.84	1.503125	-7.28103448276
462	0.231	2.2125	-3.28	0.05625	-7.28103448276
463	0.2315	-3.5375	2.42666666667	-1.390625	-3.03448275862
464	0.232	2.2125	2.42666666667	0.05625	-5.86551724138
465	0.2325	3.65	3.85333333333	-1.390625	-1.61896551724
466	0.233	5.0875	20.9733333333	-1.390625	-3.03448275862
467	0.2335	3.65	1.0	1.503125	-5.86551724138
468	0.234	-2.1	1.0	0.05625	-3.03448275862
469	0.2345	20.9	1.0	-1.390625	-1.61896551724
470	0.235	15.15	-0.426666666667	1.503125	-1.61896551724
471	0.2355	5.0875	-0.426666666667	0.05625	-4.45
472	0.236	-6.4125	2.42666666667	2.95	-0.203448275862
473	0.2365	-7.85	5.28	1.503125	-0.203448275862
474	0.237	-6.4125	2.42666666667	1.503125	-5.86551724138
475	0.2375	-0.6625	1.0	-2.8375	-0.203448275862
476	0.238	0.775	-0.426666666667	1.503125	-0.203448275862
477	0.2385	0.775	-0.426666666667	1.503125	2.6275862069
478	0.239	-0.6625	1.0	0.05625	-8.69655172414
479	0.2395	-0.6625	1.0	-7.178125	-1.61896551724
480	0.24	-0.6625	1.0	-7.178125	-1.61896551724
481	0.2405	0.775	2.42666666667	-1.390625	-4.45
482	0.241	0.775	5.28	-8.625	-0.203448275862
483	0.2415	0.775	1.0	-4.284375	-4.45
484	0.242	-0.6625	1.0	17.41875	-3.03448275862
485	0.2425	-3.5375	1.0	-5.73125	-1.61896551724
486	0.243	0.775	2.42666666667	2.95	-0.203448275862
487	0.2435	0.775	3.85333333333	14.525	-5.86551724138
488	0.244	-0.6625	1.0	-7.178125	-5.86551724138
489	0.2445	-0.6625	-0.426666666667	0.05625	-4.45
490	0.245	0.775	1.0	1.503125	-1.61896551724
491	0.2455	0.775	5.28	15.971875	-11.5275862069
492	0.246	0.775	5.28	1.503125	-1.61896551724
493	0.2465	0.775	1.0	2.95	-11.5275862069
494	0.247	0.775	1.0	1.503125	-3.03448275862
495	0.2475	0.775	-7.56	1.503125	-3.03448275862
496	0.248	-0.6625	2.42666666667	-11.51875	-1.61896551724
497	0.2485	0.775	9.56	0.05625	-5.86551724138
498	0.249	2.2125	16.6933333333	-1.390625	-0.203448275862
499	0.2495	5.0875	-0.426666666667	0.05625	-1.61896551724
500	0.25	2.2125	-3.28	2.95	-1.61896551724
501	0.2505	0.775	1.0	1.503125	-0.203448275862
502	0.251	3.65	3.85333333333	0.05625	-3.03448275862
503	0.2515	5.0875	-0.426666666667	2.95	-4.45
504	0.252	0.775	2.42666666667	2.95	-0.203448275862
505	0.2525	19.4625	3.85333333333	1.503125	-3.03448275862
506	0.253	15.15	2.42666666667	0.05625	-4.45
507	0.2535	3.65	1.0	1.503125	-3.03448275862
508	0.254	-6.4125	1.0	0.05625	-4.45
509	0.2545	22.3375	3.85333333333	0.05625	-3.03448275862
510	0.255	-2.1	2.42666666667	2.95	-4.45
511	0.2555	0.775	1.0	0.05625	-3.03448275862
512	0.256	3.65	1.0	1.503125	-1.61896551724
513	0.2565	2.2125	2.42666666667	-1.390625	13.9517241379
514	0.257	-0.6625	2.42666666667	0.05625	-0.203448275862
515	0.2575	0.775	1.0	1.503125	-3.03448275862
516	0.258	0.775	2.42666666667	-2.8375	-11.5275862069
517	0.2585	3.65	5.28	4.396875	-11.5275862069
518	0.259	2.2125	1.0	-7.178125	-11.5275862069
519	0.2595	0.775	1.0	-10.071875	-3.03448275862
520	0.26	2.2125	-1.85333333333	-8.625	-5.86551724138
521	0.2605	0.775	1.0	-8.625	-3.03448275862
522	0.261	2.2125	-0.426666666667	1.503125	-4.45
523	0.2615	3.65	-0.426666666667	-2.8375	-0.203448275862
524	0.262	-0.6625	1.0	14.525	-0.203448275862
525	0.2625	0.775	1.0	18.865625	-0.203448275862
526	0.263	2.2125	3.85333333333	17.41875	2.6275862069
527	0.2635	0.775	-0.426666666667	11.63125	-3.03448275862
528	0.264	2.2125	-1.85333333333	-2.8375	2.6275862069
529	0.2645	-0.6625	-8.98666666667	-1.390625	-0.203448275862
530	0.265	-0.6625	-10.4133333333	-1.390625	-0.203448275862
531	0.2655	-0.6625	-3.28	8.7375	-3.03448275862
532	0.266	0.775	16.6933333333	0.05625	1.21206896552
533	0.2665	5.0875	13.84	1.503125	-3.03448275862
534	0.267	2.2125	8.13333333333	2.95	1.21206896552
535	0.2675	3.65	15.2666666667	0.05625	-1.61896551724
536	0.268	2.2125	18.12	0.05625	-3.03448275862
537	0.2685	3.65	-0.426666666667	-1.390625	-0.203448275862
538	0.269	-6.4125	1.0	1.503125	-0.203448275862
539	0.2695	3.65	1.0	2.95	-1.61896551724
540	0.27	3.65	1.0	0.05625	-3.03448275862
541	0.2705	-7.85	2.42666666667	2.95	1.21206896552
542	0.271	-3.5375	-0.426666666667	1.503125	-1.61896551724
543	0.2715	18.025	-0.426666666667	1.503125	1.21206896552
544	0.272	19.4625	-0.426666666667	1.503125	-3.03448275862
545	0.2725	0.775	-0.426666666667	-1.390625	-1.61896551724
546	0.273	9.4	-1.85333333333	1.503125	-3.03448275862
547	0.2735	-7.85	2.42666666667	0.05625	-10.1120689655
548	0.274	-2.1	1.0	-1.390625	-7.28103448276
549	0.2745	-6.4125	-1.85333333333	0.05625	-1.61896551724
550	0.275	0.775	-0.426666666667	-1.390625	12.5362068966
551	0.2755	-2.1	-1.85333333333	0.05625	16.7827586207
552	0.276	-2.1	-0.426666666667	2.95	-1.61896551724
553	0.2765	2.2125	1.0	2.95	1.21206896552
554	0.277	2.2125	-0.426666666667	1.503125	9.70517241379
555	0.2775	2.2125	-0.426666666667	2.95	1.21206896552
556	0.278	-0.6625	1.0	-10.071875	-0.203448275862
557	0.2785	2.2125	1.0	-10.071875	-0.203448275862
558	0.279	-0.6625	-0.426666666667	1.503125	-0.203448275862
559	0.2795	2.2125	-1.85333333333	4.396875	1.21206896552
560	0.28	0.775	-1.85333333333	8.7375	-1.61896551724
561	0.2805	2.2125	1.0	14.525	-0.203448275862
562	0.281	2.2125	-1.85333333333	15.971875	-10.1120689655
563	0.2815	2.2125	5.28	-1.390625	-3.03448275862
564	0.282	2.2125	2.42666666667	-1.390625	-3.03448275862
565	0.2825	-0.6625	-8.98666666667	2.95	-3.03448275862
566	0.283	0.775	1.0	8.7375	-3.03448275862
567	0.2835	3.65	-0.426666666667	0.05625	-3.03448275862
568	0.284	0.775	-3.28	0.05625	-1.61896551724
569	0.2845	0.775	-8.98666666667	2.95	-4.45
570	0.285	-0.6625	-10.4133333333	0.05625	-4.45
571	0.2855	-2.1	-7.56	-1.390625	-4.45
572	0.286	-2.1	2.42666666667	1.503125	-3.03448275862
573	0.2865	-0.6625	6.70666666667	4.396875	-3.03448275862
574	0.287	2.2125	1.0	-1.390625	-3.03448275862
575	0.2875	0.775	16.6933333333	-1.390625	-3.03448275862
576	0.288	9.4	-0.426666666667	1.503125	-3.03448275862
577	0.2885	16.5875	1.0	1.503125	-4.45
578	0.289	2.2125	1.0	1.503125	-1.61896551724
579	0.2895	9.4	1.0	2.95	-0.203448275862
580	0.29	10.8375	1.0	0.05625	-1.61896551724
581	0.2905	-10.725	1.0	0.05625	-10.1120689655
582	0.291	-7.85	2.42666666667	0.05625	-7.28103448276
583	0.2915	0.775	-0.426666666667	1.503125	2.6275862069
584	0.292	0.775	2.42666666667	1.503125	4.04310344828
585	0.2925	0.775	-0.426666666667	1.503125	5.45862068966
586	0.293	0.775	1.0	0.05625	8.28965517241
587	0.2935	-0.6625	-1.85333333333	1.503125	-0.203448275862
588	0.294	-3.5375	-1.85333333333	-10.071875	-0.203448275862
589	0.2945	-0.6625	-1.85333333333	-8.625	-1.61896551724
590	0.295	-0.6625	1.0	1.503125	-0.203448275862
591	0.2955	0.775	-0.426666666667	5.84375	-1.61896551724
592	0.296	0.775	5.28	8.7375	-1.61896551724
593	0.2965	0.775	2.42666666667	0.05625	-10.1120689655
594	0.297	-0.6625	2.42666666667	0.05625	-3.03448275862
595	0.2975	-0.6625	2.42666666667	-1.390625	-3.03448275862
596	0.298	-0.6625	-1.85333333333	-4.284375	-4.45
597	0.2985	0.775	1.0	-4.284375	-3.03448275862
598	0.299	0.775	3.85333333333	0.05625	-4.45
599	0.2995	0.775	-10.4133333333	2.95	-5.86551724138
600	0.3	-2.1	10.9866666667	0.05625	-10.1120689655
601	0.3005	0.775	-0.426666666667	1.503125	-7.28103448276
602	0.301	0.775	-10.4133333333	2.95	-5.86551724138
603	0.3015	-0.6625	13.84	2.95	-5.86551724138
604	0.302	-0.6625	-6.13333333333	-1.390625	-4.45
605	0.3025	-4.975	-7.56	0.05625	-3.03448275862
606	0.303	-3.5375	-7.56	1.503125	-5.86551724138
607	0.3035	-2.1	-1.85333333333	2.95	-5.86551724138
608	0.304	-2.1	-3.28	0.05625	-3.03448275862
609	0.3045	0.775	15.2666666667	0.05625	-3.03448275862
610	0.305	0.775	-1.85333333333	4.396875	-4.45
611	0.3055	-7.85	-0.426666666667	1.503125	-0.203448275862
612	0.306	13.7125	-0.426666666667	2.95	-0.203448275862
613	0.3065	19.4625	-1.85333333333	1.503125	-1.61896551724
614	0.307	15.15	-1.85333333333	1.503125	-1.61896551724
615	0.3075	5.0875	-0.426666666667	2.95	-4.45
616	0.308	-7.85	-0.426666666667	1.503125	-12.9431034483
617	0.3085	-10.725	-1.85333333333	1.503125	-4.45
618	0.309	-9.2875	-1.85333333333	2.95	-10.1120689655
619	0.3095	0.775	-1.85333333333	-1.390625	-5.86551724138
620	0.31	2.2125	-1.85333333333	0.05625	8.28965517241
621	0.3105	0.775	-3.28	0.05625	-3.03448275862
622	0.311	2.2125	-1.85333333333	-2.8375	9.70517241379
623	0.3115	0.775	-3.28	-1.390625	9.70517241379
624	0.312	3.65	-1.85333333333	-11.51875	-7.28103448276
625	0.3125	2.2125	-0.426666666667	11.63125	-7.28103448276
626	0.313	0.775	-1.85333333333	-1.390625	-3.03448275862
627	0.3135	0.775	-3.28	4.396875	-3.03448275862
628	0.314	2.2125	-1.85333333333	5.84375	-4.45
629	0.3145	0.775	-0.426666666667	8.7375	-3.03448275862
630	0.315	2.2125	-0.426666666667	-2.8375	-10.1120689655
631	0.3155	0.775	3.85333333333	-2.8375	-1.61896551724
632	0.316	-0.6625	1.0	0.05625	-3.03448275862
633	0.3165	-0.6625	-0.426666666667	-1.390625	-3.03448275862
634	0.317	0.775	-8.98666666667	0.05625	-1.61896551724
635	0.3175	0.775	-3.28	1.503125	-0.203448275862
636	0.318	0.775	-1.85333333333	0.05625	-1.61896551724
637	0.3185	0.775	13.84	0.05625	-0.203448275862
638	0.319	0.775	13.84	1.503125	-1.61896551724
639	0.3195	0.775	6.70666666667	1.503125	-1.61896551724
640	0.32	0.775	3.85333333333	2.95	-3.03448275862
641	0.3205	-0.6625	-6.13333333333	-1.390625	-3.03448275862
642	0.321	-2.1	-11.84	1.503125	-1.61896551724
643	0.3215	0.775	-7.56	-1.390625	-0.203448275862
644	0.322	-7.85	-4.70666666667	0.05625	1.21206896552
645	0.3225	2.2125	5.28	-1.390625	-0.203448275862
646	0.323	2.2125	-4.70666666667	0.05625	-0.203448275862
647	0.3235	2.2125	-1.85333333333	1.503125	-1.61896551724
648	0.324	16.5875	-1.85333333333	0.05625	-3.03448275862
649	0.3245	7.9625	-3.28	0.05625	-3.03448275862
650	0.325	7.9625	-4.70666666667	0.05625	-0.203448275862
651	0.3255	-7.85	-1.85333333333	4.396875	-11.5275862069
652	0.326	0.775	-6.13333333333	0.05625	-8.69655172414
653	0.3265	-0.6625	-3.28	1.503125	-7.28103448276
654	0.327	-4.975	-1.85333333333	1.503125	1.21206896552
655	0.3275	0.775	-1.85333333333	0.05625	15.3672413793
656	0.328	0.775	-1.85333333333	-1.390625	16.7827586207
657	0.3285	-2.1	-1.85333333333	-1.390625	-0.203448275862
658	0.329	-0.6625	-4.70666666667	-8.625	-3.03448275862
659	0.3295	-0.6625	-3.28	-7.178125	-3.03448275862
660	0.33	0.775	-0.426666666667	-1.390625	1.21206896552
661	0.3305	-0.6625	-1.85333333333	0.05625	-5.86551724138
662	0.331	0.775	-4.70666666667	17.41875	-0.203448275862
663	0.3315	-2.1	-0.426666666667	18.865625	-0.203448275862
664	0.332	0.775	-1.85333333333	-7.178125	-0.203448275862
665	0.3325	-0.6625	-4.70666666667	0.05625	-10.1120689655
666	0.333	-2.1	-0.426666666667	-2.8375	-0.203448275862
667	0.3335	0.775	-4.70666666667	-5.73125	2.6275862069
668	0.334	0.775	-6.13333333333	-8.625	16.7827586207
669	0.3345	-4.975	-13.2666666667	-1.390625	2.6275862069
670	0.335	0.775	-8.98666666667	0.05625	1.21206896552
671	0.3355	-0.6625	-1.85333333333	14.525	-4.45
672	0.336	-0.6625	-0.426666666667	0.05625	-0.203448275862
673	0.3365	0.775	15.2666666667	-1.390625	1.21206896552
674	0.337	-0.6625	3.85333333333	-1.390625	-0.203448275862
675	0.3375	-0.6625	-4.70666666667	2.95	1.21206896552
676	0.338	-0.6625	-10.4133333333	2.95	4.04310344828
677	0.3385	-2.1	-13.2666666667	1.503125	1.21206896552
678	0.339	0.775	-3.28	1.503125	2.6275862069
679	0.3395	3.65	-6.13333333333	2.95	-0.203448275862
680	0.34	-0.6625	-6.13333333333	1.503125	2.6275862069
681	0.3405	-3.5375	-10.4133333333	0.05625	-0.203448275862
682	0.341	-3.5375	-10.4133333333	-5.73125	-0.203448275862
683	0.3415	-12.1625	-4.70666666667	-1.390625	-0.203448275862
684	0.342	-15.0375	-3.28	2.95	-0.203448275862
685	0.3425	-7.85	-4.70666666667	0.05625	-3.03448275862
686	0.343	0.775	-3.28	2.95	-1.61896551724
687	0.3435	10.8375	-4.70666666667	0.05625	-4.45
688	0.344	18.025	-1.85333333333	0.05625	-3.03448275862
689	0.3445	18.025	-3.28	0.05625	-5.86551724138
690	0.345	-2.1	-4.70666666667	1.503125	-8.69655172414
691	0.3455	-3.5375	-4.70666666667	4.396875	-8.69655172414
692	0.346	0.775	-1.85333333333	-2.8375	9.70517241379
693	0.3465	-0.6625	-1.85333333333	0.05625	6.87413793103
694	0.347	-2.1	-1.85333333333	1.503125	8.28965517241
695	0.3475	-0.6625	-1.85333333333	-2.8375	-5.86551724138
696	0.348	-0.6625	-1.85333333333	1.503125	-5.86551724138
697	0.3485	2.2125	-3.28	1.503125	-12.9431034483
698	0.349	0.775	-1.85333333333	2.95	-12.9431034483
699	0.3495	-0.6625	-0.426666666667	15.971875	-3.03448275862
700	0.35	-0.6625	-1.85333333333	2.95	-3.03448275862
701	0.3505	0.775	-6.13333333333	-5.73125	-3.03448275862
702	0.351	0.775	-4.70666666667	-5.73125	-5.86551724138
703	0.3515	0.775	-4.70666666667	-7.178125	-4.45
704	0.352	-0.6625	-0.426666666667	-1.390625	-3.03448275862
705	0.3525	0.775	-1.85333333333	-1.390625	-5.86551724138
706	0.353	2.2125	-3.28	-8.625	-3.03448275862
707	0.3535	3.65	-11.84	1.503125	-3.03448275862
708	0.354	2.2125	-1.85333333333	-1.390625	-4.45
709	0.3545	-0.6625	-4.70666666667	4.396875	-4.45
710	0.355	0.775	-3.28	-1.390625	-1.61896551724
711	0.3555	3.65	9.56	-1.390625	-0.203448275862
712	0.356	2.2125	16.6933333333	1.503125	-4.45
713	0.3565	-0.6625	-7.56	2.95	-4.45
714	0.357	-0.6625	-8.98666666667	0.05625	-3.03448275862
715	0.3575	-2.1	-10.4133333333	0.05625	-3.03448275862
716	0.358	-12.1625	-1.85333333333	1.503125	-3.03448275862
717	0.3585	-9.2875	-0.426666666667	2.95	-0.203448275862
718	0.359	10.8375	-0.426666666667	-1.390625	-3.03448275862
719	0.3595	-7.85	-0.426666666667	0.05625	-5.86551724138
720	0.36	9.4	-0.426666666667	0.05625	-0.203448275862
721	0.3605	16.5875	-0.426666666667	4.396875	-0.203448275862
722	0.361	-9.2875	-1.85333333333	0.05625	-0.203448275862
723	0.3615	18.025	-1.85333333333	2.95	-3.03448275862
724	0.362	-3.5375	-4.70666666667	2.95	-10.1120689655
725	0.3625	-3.5375	-3.28	1.503125	-11.5275862069
726	0.363	-6.4125	1.0	2.95	-14.3586206897
727	0.3635	-0.6625	-0.426666666667	4.396875	-10.1120689655
728	0.364	-3.5375	-0.426666666667	-5.73125	-7.28103448276
729	0.3645	-2.1	-1.85333333333	-2.8375	-4.45
730	0.365	0.775	-1.85333333333	-4.284375	-7.28103448276
731	0.3655	-0.6625	-0.426666666667	-4.284375	-0.203448275862
732	0.366	-0.6625	-1.85333333333	13.078125	-7.28103448276
733	0.3665	0.775	-0.426666666667	20.3125	-5.86551724138
734	0.367	0.775	-6.13333333333	-8.625	-7.28103448276
735	0.3675	0.775	-1.85333333333	2.95	-7.28103448276
736	0.368	0.775	-1.85333333333	-2.8375	-5.86551724138
737	0.3685	2.2125	-4.70666666667	-4.284375	-5.86551724138
738	0.369	-0.6625	-1.85333333333	-5.73125	-5.86551724138
739	0.3695	-0.6625	-4.70666666667	-10.071875	-4.45
740	0.37	0.775	-10.4133333333	0.05625	-5.86551724138
741	0.3705	3.65	-10.4133333333	1.503125	-5.86551724138
742	0.371	5.0875	6.70666666667	1.503125	-7.28103448276
743	0.3715	-0.6625	2.42666666667	2.95	-7.28103448276
744	0.372	-0.6625	-0.426666666667	2.95	-4.45
745	0.3725	-2.1	-6.13333333333	0.05625	-7.28103448276
746	0.373	-3.5375	-7.56	1.503125	-4.45
747	0.3735	-3.5375	-8.98666666667	0.05625	-5.86551724138
748	0.374	-3.5375	-7.56	1.503125	-0.203448275862
749	0.3745	-9.2875	-0.426666666667	1.503125	-1.61896551724
750	0.375	-2.1	-1.85333333333	1.503125	-3.03448275862
751	0.3755	-4.975	1.0	0.05625	-4.45
752	0.376	-12.1625	1.0	-1.390625	-3.03448275862
753	0.3765	-13.6	1.0	0.05625	-3.03448275862
754	0.377	-10.725	2.42666666667	2.95	-3.03448275862
755	0.3775	5.0875	1.0	-1.390625	-1.61896551724
756	0.378	13.7125	-0.426666666667	2.95	-3.03448275862
757	0.3785	20.9	-3.28	0.05625	-3.03448275862
758	0.379	19.4625	-3.28	0.05625	-1.61896551724
759	0.3795	-0.6625	1.0	2.95	-8.69655172414
760	0.38	2.2125	-1.85333333333	-1.390625	8.28965517241
761	0.3805	0.775	1.0	0.05625	9.70517241379
762	0.381	-0.6625	1.0	-1.390625	8.28965517241
763	0.3815	0.775	-3.28	1.503125	-3.03448275862
764	0.382	0.775	-0.426666666667	2.95	-11.5275862069
765	0.3825	-0.6625	-0.426666666667	-10.071875	-4.45
766	0.383	-0.6625	1.0	-2.8375	-7.28103448276
767	0.3835	-0.6625	-0.426666666667	1.503125	-3.03448275862
768	0.384	-0.6625	-0.426666666667	18.865625	-3.03448275862
769	0.3845	0.775	1.0	13.078125	-4.45
770	0.385	-0.6625	1.0	1.503125	-7.28103448276
771	0.3855	-0.6625	-4.70666666667	-5.73125	-3.03448275862
772	0.386	0.775	-4.70666666667	-2.8375	-5.86551724138
773	0.3865	-0.6625	-1.85333333333	-4.284375	-1.61896551724
774	0.387	0.775	-0.426666666667	0.05625	-5.86551724138
775	0.3875	0.775	-0.426666666667	0.05625	-5.86551724138
776	0.388	0.775	-7.56	-1.390625	-7.28103448276
777	0.3885	2.2125	-4.70666666667	1.503125	-7.28103448276
778	0.389	0.775	2.42666666667	0.05625	-7.28103448276
779	0.3895	-0.6625	-11.84	2.95	-7.28103448276
780	0.39	-0.6625	1.0	1.503125	-4.45
781	0.3905	0.775	6.70666666667	1.503125	-4.45
782	0.391	0.775	10.9866666667	0.05625	-5.86551724138
783	0.3915	5.0875	-0.426666666667	1.503125	-3.03448275862
784	0.392	3.65	1.0	2.95	-4.45
785	0.3925	5.0875	-0.426666666667	2.95	-4.45
786	0.393	2.2125	-3.28	1.503125	-3.03448275862
787	0.3935	-4.975	1.0	2.95	-1.61896551724
788	0.394	0.775	1.0	0.05625	-5.86551724138
789	0.3945	-12.1625	1.0	0.05625	-5.86551724138
790	0.395	13.7125	2.42666666667	0.05625	-3.03448275862
791	0.3955	-6.4125	2.42666666667	-1.390625	-3.03448275862
792	0.396	7.9625	1.0	1.503125	-3.03448275862
793	0.3965	18.025	2.42666666667	2.95	-3.03448275862
794	0.397	-10.725	1.0	0.05625	-8.69655172414
795	0.3975	-7.85	1.0	1.503125	-5.86551724138
796	0.398	2.2125	-0.426666666667	0.05625	-1.61896551724
797	0.3985	0.775	1.0	-1.390625	8.28965517241
798	0.399	-0.6625	1.0	1.503125	-1.61896551724
799	0.3995	-2.1	1.0	0.05625	-7.28103448276
800	0.4	-0.6625	-0.426666666667	0.05625	-3.03448275862
801	0.4005	0.775	1.0	4.396875	-11.5275862069
802	0.401	0.775	-1.85333333333	4.396875	-7.28103448276
803	0.4015	0.775	-0.426666666667	2.95	-3.03448275862
804	0.402	0.775	1.0	2.95	5.45862068966
805	0.4025	0.775	1.0	0.05625	-4.45
806	0.403	2.2125	1.0	-10.071875	-1.61896551724
807	0.4035	-0.6625	-1.85333333333	-4.284375	-4.45
808	0.404	-0.6625	1.0	-1.390625	8.28965517241
809	0.4045	0.775	-0.426666666667	5.84375	-1.61896551724
810	0.405	-2.1	1.0	-1.390625	-1.61896551724
811	0.4055	-0.6625	2.42666666667	1.503125	-1.61896551724
812	0.406	-2.1	5.28	2.95	-3.03448275862
813	0.4065	-0.6625	-0.426666666667	15.971875	-10.1120689655
814	0.407	-0.6625	13.84	0.05625	-1.61896551724
815	0.4075	0.775	8.13333333333	4.396875	-1.61896551724
816	0.408	-0.6625	6.70666666667	0.05625	-5.86551724138
817	0.4085	-0.6625	10.9866666667	0.05625	-3.03448275862
818	0.409	0.775	2.42666666667	1.503125	-0.203448275862
819	0.4095	3.65	2.42666666667	1.503125	-3.03448275862
820	0.41	2.2125	1.0	1.503125	-1.61896551724
821	0.4105	3.65	2.42666666667	1.503125	-3.03448275862
822	0.411	9.4	-0.426666666667	4.396875	-1.61896551724
823	0.4115	0.775	2.42666666667	2.95	-3.03448275862
824	0.412	-6.4125	1.0	1.503125	-3.03448275862
825	0.4125	-10.725	1.0	1.503125	-4.45
826	0.413	-7.85	3.85333333333	2.95	-5.86551724138
827	0.4135	-4.975	1.0	1.503125	-3.03448275862
828	0.414	2.2125	1.0	1.503125	-1.61896551724
829	0.4145	-2.1	1.0	0.05625	15.3672413793
830	0.415	-2.1	-1.85333333333	0.05625	5.45862068966
831	0.4155	3.65	2.42666666667	4.396875	4.04310344828
832	0.416	3.65	1.0	0.05625	-4.45
833	0.4165	0.775	1.0	-1.390625	-11.5275862069
834	0.417	-0.6625	1.0	2.95	-12.9431034483
835	0.4175	0.775	2.42666666667	0.05625	-5.86551724138
836	0.418	-0.6625	2.42666666667	15.971875	-7.28103448276
837	0.4185	3.65	1.0	5.84375	-1.61896551724
838	0.419	-0.6625	1.0	11.63125	-5.86551724138
839	0.4195	0.775	3.85333333333	18.865625	-5.86551724138
840	0.42	3.65	3.85333333333	15.971875	-1.61896551724
841	0.4205	2.2125	2.42666666667	-4.284375	-3.03448275862
842	0.421	-0.6625	-1.85333333333	-5.73125	-4.45
843	0.4215	0.775	6.70666666667	4.396875	-3.03448275862
844	0.422	0.775	2.42666666667	-1.390625	-7.28103448276
845	0.4225	0.775	3.85333333333	1.503125	-7.28103448276
846	0.423	2.2125	3.85333333333	-2.8375	-5.86551724138
847	0.4235	0.775	5.28	1.503125	-7.28103448276
848	0.424	0.775	1.0	1.503125	-7.28103448276
849	0.4245	0.775	-6.13333333333	1.503125	-10.1120689655
850	0.425	-2.1	-7.56	2.95	-7.28103448276
851	0.4255	-0.6625	-4.70666666667	0.05625	-8.69655172414
852	0.426	-0.6625	-10.4133333333	-8.625	-7.28103448276
853	0.4265	-0.6625	-8.98666666667	-2.8375	-5.86551724138
854	0.427	-9.2875	1.0	-1.390625	-7.28103448276
855	0.4275	-10.725	1.0	0.05625	-7.28103448276
856	0.428	-7.85	1.0	0.05625	-5.86551724138
857	0.4285	-4.975	-1.85333333333	-1.390625	-1.61896551724
858	0.429	-3.5375	1.0	1.503125	-5.86551724138
859	0.4295	12.275	1.0	-1.390625	-5.86551724138
860	0.43	18.025	1.0	-1.390625	-1.61896551724
861	0.4305	16.5875	-0.426666666667	1.503125	-3.03448275862
862	0.431	20.9	1.0	1.503125	-7.28103448276
863	0.4315	-2.1	1.0	2.95	-5.86551724138
864	0.432	-2.1	2.42666666667	1.503125	-7.28103448276
865	0.4325	-4.975	-1.85333333333	1.503125	-5.86551724138
866	0.433	-0.6625	1.0	1.503125	-4.45
867	0.4335	-0.6625	-0.426666666667	-1.390625	-8.69655172414
868	0.434	0.775	-1.85333333333	2.95	-3.03448275862
869	0.4345	0.775	-3.28	-1.390625	-8.69655172414
870	0.435	-0.6625	-4.70666666667	-1.390625	-5.86551724138
871	0.4355	-0.6625	-3.28	7.290625	-7.28103448276
872	0.436	-3.5375	-1.85333333333	13.078125	-7.28103448276
873	0.4365	0.775	-3.28	15.971875	-7.28103448276
874	0.437	2.2125	-1.85333333333	15.971875	-15.774137931
875	0.4375	0.775	1.0	0.05625	-7.28103448276
876	0.438	-0.6625	1.0	0.05625	-7.28103448276
877	0.4385	0.775	-1.85333333333	-1.390625	-4.45
878	0.439	-2.1	-16.12	-2.8375	-1.61896551724
879	0.4395	-0.6625	-0.426666666667	-1.390625	-0.203448275862
880	0.44	-2.1	-6.13333333333	-7.178125	-0.203448275862
881	0.4405	-2.1	-10.4133333333	0.05625	-3.03448275862
882	0.441	-0.6625	-8.98666666667	2.95	-0.203448275862
883	0.4415	-2.1	-13.2666666667	1.503125	5.45862068966
884	0.442	2.2125	-3.28	-1.390625	4.04310344828
885	0.4425	0.775	-7.56	-1.390625	6.87413793103
886	0.443	2.2125	-8.98666666667	-2.8375	12.5362068966
887	0.4435	-0.6625	-8.98666666667	-4.284375	12.5362068966
888	0.444	0.775	-11.84	-1.390625	13.9517241379
889	0.4445	7.9625	-10.4133333333	-1.390625	13.9517241379
890	0.445	-0.6625	-10.4133333333	0.05625	16.7827586207
891	0.4455	7.9625	-10.4133333333	0.05625	19.6137931034
892	0.446	12.275	-13.2666666667	1.503125	21.0293103448
893	0.4465	15.15	-10.4133333333	-1.390625	23.8603448276
894	0.447	12.275	-10.4133333333	-1.390625	28.1068965517
895	0.4475	-7.85	-11.84	1.503125	26.6913793103
896	0.448	-6.4125	-11.84	1.503125	23.8603448276
897	0.4485	-10.725	-14.6933333333	0.05625	38.0155172414
898	0.449	-4.975	-16.12	-1.390625	40.8465517241
899	0.4495	-6.4125	-17.5466666667	0.05625	52.1706896552
900	0.45	-4.975	-16.12	-1.390625	60.6637931034
901	0.4505	-4.975	-14.6933333333	2.95	49.3396551724
902	0.451	-4.975	-14.6933333333	1.503125	50.7551724138
903	0.4515	-4.975	-17.5466666667	5.84375	56.4172413793
904	0.452	-4.975	-17.5466666667	11.63125	64.9103448276
905	0.4525	-4.975	-20.4	4.396875	71.9879310345
906	0.453	-6.4125	-18.9733333333	14.525	66.325862069
907	0.4535	-3.5375	-18.9733333333	1.503125	74.8189655172
908	0.454	-3.5375	-17.5466666667	-2.8375	74.8189655172
909	0.4545	0.775	-20.4	-5.73125	76.2344827586
910	0.455	-4.975	-18.9733333333	0.05625	73.4034482759
911	0.4555	-3.5375	-17.5466666667	7.290625	69.1568965517
912	0.456	-2.1	-20.4	1.503125	71.9879310345
913	0.4565	-0.6625	-16.12	4.396875	71.9879310345
914	0.457	0.775	-16.12	5.84375	63.4948275862
915	0.4575	2.2125	1.0	2.95	67.7413793103
916	0.458	2.2125	-0.426666666667	4.396875	63.4948275862
917	0.4585	-0.6625	-4.70666666667	0.05625	56.4172413793
918	0.459	0.775	-13.2666666667	4.396875	55.0017241379
919	0.4595	0.775	-17.5466666667	2.95	47.924137931
920	0.46	0.775	-17.5466666667	2.95	46.5086206897
921	0.4605	2.2125	-16.12	2.95	42.2620689655
922	0.461	2.2125	-11.84	5.84375	33.7689655172
923	0.4615	-3.5375	-6.13333333333	4.396875	32.3534482759
924	0.462	15.15	-3.28	5.84375	28.1068965517
925	0.4625	9.4	-4.70666666667	5.84375	26.6913793103
926	0.463	3.65	-6.13333333333	8.7375	22.4448275862
927	0.4635	3.65	-1.85333333333	2.95	18.1982758621
928	0.464	20.9	-1.85333333333	4.396875	21.0293103448
929	0.4645	5.0875	-3.28	1.503125	29.5224137931
930	0.465	9.4	-3.28	5.84375	18.1982758621
931	0.4655	3.65	-1.85333333333	7.290625	5.45862068966
932	0.466	7.9625	1.0	2.95	30.9379310345
933	0.4665	7.9625	-1.85333333333	2.95	23.8603448276
934	0.467	7.9625	1.0	4.396875	22.4448275862
935	0.4675	7.9625	1.0	-2.8375	5.45862068966
936	0.468	7.9625	1.0	2.95	-1.61896551724
937	0.4685	3.65	2.42666666667	1.503125	1.21206896552
938	0.469	7.9625	1.0	-1.390625	1.21206896552
939	0.4695	3.65	3.85333333333	-2.8375	-1.61896551724
940	0.47	6.525	1.0	-2.8375	-1.61896551724
941	0.4705	6.525	-1.85333333333	-2.8375	-4.45
942	0.471	6.525	-1.85333333333	-1.390625	-4.45
943	0.4715	5.0875	1.0	-1.390625	-7.28103448276
944	0.472	5.0875	-1.85333333333	-2.8375	-7.28103448276
945	0.4725	7.9625	-10.4133333333	4.396875	-4.45
946	0.473	7.9625	-10.4133333333	7.290625	-5.86551724138
947	0.4735	10.8375	13.84	7.290625	-5.86551724138
948	0.474	10.8375	-1.85333333333	5.84375	-7.28103448276
949	0.4745	7.9625	-7.56	5.84375	-7.28103448276
950	0.475	6.525	19.5466666667	2.95	-7.28103448276
951	0.4755	7.9625	-1.85333333333	5.84375	-5.86551724138
952	0.476	9.4	-3.28	4.396875	-7.28103448276
953	0.4765	7.9625	-7.56	7.290625	-7.28103448276
954	0.477	5.0875	1.0	4.396875	-5.86551724138
955	0.4775	9.4	1.0	4.396875	-5.86551724138
956	0.478	9.4	1.0	4.396875	-8.69655172414
957	0.4785	20.9	-0.426666666667	2.95	-8.69655172414
958	0.479	13.7125	-0.426666666667	2.95	-8.69655172414
959	0.4795	7.9625	-1.85333333333	2.95	-4.45
960	0.48	-4.975	-1.85333333333	2.95	-5.86551724138
961	0.4805	-4.975	-0.426666666667	5.84375	-11.5275862069
962	0.481	2.2125	1.0	4.396875	-10.1120689655
963	0.4815	0.775	1.0	4.396875	-5.86551724138
964	0.482	3.65	2.42666666667	1.503125	8.28965517241
965	0.4825	5.0875	2.42666666667	1.503125	12.5362068966
966	0.483	5.0875	1.0	4.396875	-3.03448275862
967	0.4835	5.0875	-0.426666666667	2.95	5.45862068966
968	0.484	2.2125	3.85333333333	7.290625	8.28965517241
969	0.4845	3.65	3.85333333333	8.7375	-11.5275862069
970	0.485	3.65	2.42666666667	4.396875	-5.86551724138
971	0.4855	2.2125	2.42666666667	2.95	-11.5275862069
972	0.486	3.65	3.85333333333	18.865625	-7.28103448276
973	0.4865	2.2125	5.28	18.865625	-8.69655172414
974	0.487	3.65	3.85333333333	20.3125	-10.1120689655
975	0.4875	3.65	1.0	4.396875	-15.774137931
976	0.488	3.65	6.70666666667	0.05625	-8.69655172414
977	0.4885	3.65	9.56	2.95	-7.28103448276
978	0.489	7.9625	8.13333333333	0.05625	-10.1120689655
979	0.4895	3.65	6.70666666667	0.05625	-7.28103448276
980	0.49	2.2125	5.28	1.503125	-8.69655172414
981	0.4905	7.9625	20.9733333333	2.95	-8.69655172414
982	0.491	5.0875	22.4	2.95	-11.5275862069
983	0.4915	3.65	22.4	1.503125	-14.3586206897
984	0.492	-0.6625	-6.13333333333	1.503125	-12.9431034483
985	0.4925	7.9625	2.42666666667	1.503125	-12.9431034483
986	0.493	5.0875	20.9733333333	4.396875	-12.9431034483
987	0.4935	3.65	1.0	2.95	-11.5275862069
988	0.494	5.0875	-0.426666666667	1.503125	-11.5275862069
989	0.4945	-0.6625	1.0	0.05625	-14.3586206897
990	0.495	19.4625	1.0	0.05625	-11.5275862069
991	0.4955	19.4625	2.42666666667	1.503125	-14.3586206897
992	0.496	19.4625	5.28	-1.390625	-15.774137931
993	0.4965	13.7125	2.42666666667	2.95	-14.3586206897
994	0.497	-4.975	3.85333333333	0.05625	-25.6827586207
995	0.4975	-7.85	3.85333333333	0.05625	-28.5137931034
996	0.498	0.775	3.85333333333	-1.390625	-4.45
997	0.4985	-0.6625	1.0	-1.390625	-14.3586206897
998	0.499	-3.5375	2.42666666667	1.503125	-18.6051724138
999	0.4995	0.775	5.28	2.95	-24.2672413793
1000	0.5	-0.6625	5.28	-11.51875	-21.4362068966
1001	0.5005	-0.6625	2.42666666667	1.503125	-14.3586206897
1002	0.501	2.2125	3.85333333333	2.95	-14.3586206897
1003	0.5015	0.775	5.28	-1.390625	-15.774137931
1004	0.502	2.2125	2.42666666667	0.05625	-7.28103448276
1005	0.5025	2.2125	3.85333333333	-2.8375	-0.203448275862
1006	0.503	0.775	3.85333333333	-10.071875	-14.3586206897
1007	0.5035	0.775	2.42666666667	-12.965625	-0.203448275862
1008	0.504	0.775	1.0	-2.8375	-17.1896551724
1009	0.5045	-0.6625	2.42666666667	-7.178125	-17.1896551724
1010	0.505	-2.1	-4.70666666667	1.503125	-15.774137931
1011	0.5055	0.775	1.0	-1.390625	-12.9431034483
1012	0.506	0.775	-4.70666666667	0.05625	-14.3586206897
1013	0.5065	2.2125	6.70666666667	1.503125	-21.4362068966
1014	0.507	2.2125	19.5466666667	1.503125	-14.3586206897
1015	0.5075	0.775	13.84	1.503125	-15.774137931
1016	0.508	0.775	10.9866666667	-1.390625	-14.3586206897
1017	0.5085	2.2125	-1.85333333333	-1.390625	-14.3586206897
1018	0.509	-0.6625	-6.13333333333	-8.625	-14.3586206897
1019	0.5095	-3.5375	-6.13333333333	0.05625	-14.3586206897
1020	0.51	-10.725	5.28	0.05625	-15.774137931
1021	0.5105	-6.4125	1.0	1.503125	-14.3586206897
1022	0.511	-6.4125	9.56	0.05625	-15.774137931
1023	0.5115	15.15	5.28	0.05625	-11.5275862069
1024	0.512	18.025	2.42666666667	-1.390625	-11.5275862069
1025	0.5125	16.5875	2.42666666667	1.503125	-12.9431034483
1026	0.513	16.5875	5.28	-1.390625	-14.3586206897
1027	0.5135	18.025	3.85333333333	-1.390625	-14.3586206897
1028	0.514	-3.5375	5.28	1.503125	-10.1120689655
1029	0.5145	-3.5375	1.0	-1.390625	-14.3586206897
1030	0.515	-4.975	6.70666666667	1.503125	-14.3586206897
1031	0.5155	-0.6625	2.42666666667	1.503125	-20.0206896552
1032	0.516	-0.6625	5.28	4.396875	-22.8517241379
1033	0.5165	0.775	8.13333333333	0.05625	-22.8517241379
1034	0.517	-0.6625	5.28	1.503125	-21.4362068966
1035	0.5175	-2.1	3.85333333333	0.05625	-18.6051724138
1036	0.518	0.775	5.28	15.971875	-14.3586206897
1037	0.5185	-2.1	3.85333333333	17.41875	-14.3586206897
1038	0.519	-2.1	5.28	1.503125	-24.2672413793
1039	0.5195	-0.6625	5.28	-1.390625	-12.9431034483
1040	0.52	-3.5375	3.85333333333	-4.284375	-14.3586206897
1041	0.5205	-0.6625	6.70666666667	-1.390625	-14.3586206897
1042	0.521	-0.6625	3.85333333333	-4.284375	-14.3586206897
1043	0.5215	-2.1	3.85333333333	-4.284375	-14.3586206897
1044	0.522	0.775	2.42666666667	0.05625	-12.9431034483
1045	0.5225	-0.6625	-3.28	-1.390625	-12.9431034483
1046	0.523	0.775	23.8266666667	1.503125	-14.3586206897
1047	0.5235	-2.1	3.85333333333	-11.51875	-15.774137931
1048	0.524	0.775	1.0	-1.390625	-12.9431034483
1049	0.5245	-2.1	3.85333333333	1.503125	-15.774137931
1050	0.525	-0.6625	-0.426666666667	0.05625	-15.774137931
1051	0.5255	-2.1	6.70666666667	0.05625	-12.9431034483
1052	0.526	0.775	5.28	2.95	-14.3586206897
1053	0.5265	2.2125	3.85333333333	0.05625	-12.9431034483
1054	0.527	2.2125	6.70666666667	-1.390625	-11.5275862069
1055	0.5275	10.8375	3.85333333333	1.503125	-14.3586206897
1056	0.528	5.0875	6.70666666667	0.05625	-14.3586206897
1057	0.5285	7.9625	3.85333333333	0.05625	-14.3586206897
1058	0.529	10.8375	5.28	-1.390625	-12.9431034483
1059	0.5295	-10.725	5.28	2.95	-20.0206896552
1060	0.53	-2.1	6.70666666667	4.396875	-10.1120689655
1061	0.5305	-2.1	6.70666666667	0.05625	-21.4362068966
1062	0.531	-4.975	5.28	2.95	-22.8517241379
1063	0.5315	-6.4125	2.42666666667	1.503125	-24.2672413793
1064	0.532	-0.6625	2.42666666667	-1.390625	-0.203448275862
1065	0.5325	-3.5375	5.28	-7.178125	-15.774137931
1066	0.533	0.775	5.28	-4.284375	-14.3586206897
1067	0.5335	-0.6625	3.85333333333	-1.390625	-18.6051724138
1068	0.534	0.775	3.85333333333	0.05625	-11.5275862069
1069	0.5345	0.775	5.28	-1.390625	-20.0206896552
1070	0.535	0.775	2.42666666667	15.971875	-12.9431034483
1071	0.5355	-2.1	2.42666666667	-7.178125	-8.69655172414
1072	0.536	-3.5375	5.28	2.95	-21.4362068966
1073	0.5365	-2.1	5.28	-1.390625	-11.5275862069
1074	0.537	0.775	5.28	-1.390625	-11.5275862069
1075	0.5375	-0.6625	3.85333333333	0.05625	-15.774137931
1076	0.538	-2.1	5.28	1.503125	-14.3586206897
1077	0.5385	2.2125	-6.13333333333	0.05625	-15.774137931
1078	0.539	0.775	20.9733333333	1.503125	-10.1120689655
1079	0.5395	-0.6625	1.0	-10.071875	-11.5275862069
1080	0.54	-0.6625	6.70666666667	1.503125	-11.5275862069
1081	0.5405	-0.6625	8.13333333333	-1.390625	-10.1120689655
1082	0.541	0.775	10.9866666667	2.95	-10.1120689655
1083	0.5415	-3.5375	-3.28	0.05625	-11.5275862069
1084	0.542	-0.6625	15.2666666667	0.05625	-10.1120689655
1085	0.5425	0.775	3.85333333333	1.503125	-10.1120689655
1086	0.543	2.2125	3.85333333333	-1.390625	-11.5275862069
1087	0.5435	0.775	2.42666666667	-1.390625	-10.1120689655
1088	0.544	-4.975	5.28	-2.8375	-10.1120689655
1089	0.5445	16.5875	2.42666666667	0.05625	-10.1120689655
1090	0.545	18.025	1.0	-1.390625	-8.69655172414
1091	0.5455	15.15	3.85333333333	1.503125	-11.5275862069
1092	0.546	5.0875	2.42666666667	0.05625	-12.9431034483
1093	0.5465	3.65	3.85333333333	1.503125	-10.1120689655
1094	0.547	12.275	3.85333333333	0.05625	-7.28103448276
1095	0.5475	-2.1	5.28	0.05625	-7.28103448276
1096	0.548	-0.6625	5.28	2.95	-15.774137931
1097	0.5485	-4.975	5.28	-1.390625	-11.5275862069
1098	0.549	-6.4125	6.70666666667	0.05625	-8.69655172414
1099	0.5495	-2.1	3.85333333333	1.503125	-11.5275862069
1100	0.55	0.775	6.70666666667	-1.390625	-4.45
1101	0.5505	-2.1	3.85333333333	1.503125	1.21206896552
1102	0.551	0.775	2.42666666667	1.503125	2.6275862069
1103	0.5515	-0.6625	2.42666666667	-11.51875	-11.5275862069
1104	0.552	-0.6625	1.0	-1.390625	-5.86551724138
1105	0.5525	-2.1	1.0	-10.071875	-11.5275862069
1106	0.553	-2.1	1.0	-4.284375	-10.1120689655
1107	0.5535	-3.5375	-0.426666666667	-1.390625	-11.5275862069
1108	0.554	-6.4125	3.85333333333	-1.390625	-10.1120689655
1109	0.5545	-3.5375	3.85333333333	-2.8375	-11.5275862069
1110	0.555	-2.1	3.85333333333	-4.284375	-11.5275862069
1111	0.5555	-0.6625	3.85333333333	-4.284375	-11.5275862069
1112	0.556	-3.5375	1.0	1.503125	-11.5275862069
1113	0.5565	-2.1	3.85333333333	-1.390625	-11.5275862069
1114	0.557	-0.6625	-4.70666666667	-1.390625	-11.5275862069
1115	0.5575	-4.975	-6.13333333333	-5.73125	-12.9431034483
1116	0.558	-4.975	-4.70666666667	1.503125	-11.5275862069
1117	0.5585	-4.975	-7.56	0.05625	-11.5275862069
1118	0.559	-3.5375	6.70666666667	1.503125	-7.28103448276
1119	0.5595	-3.5375	3.85333333333	0.05625	-12.9431034483
1120	0.56	-2.1	20.9733333333	1.503125	-14.3586206897
1121	0.5605	-0.6625	3.85333333333	1.503125	-10.1120689655
1122	0.561	-0.6625	3.85333333333	1.503125	-14.3586206897
1123	0.5615	3.65	5.28	-1.390625	-12.9431034483
1124	0.562	7.9625	5.28	0.05625	-12.9431034483
1125	0.5625	-9.2875	-0.426666666667	2.95	-11.5275862069
1126	0.563	-9.2875	2.42666666667	0.05625	-22.8517241379
1127	0.5635	-12.1625	5.28	2.95	-17.1896551724
1128	0.564	-9.2875	5.28	0.05625	-18.6051724138
1129	0.5645	-2.1	2.42666666667	1.503125	-18.6051724138
1130	0.565	0.775	3.85333333333	2.95	-0.203448275862
1131	0.5655	-0.6625	1.0	1.503125	-10.1120689655
1132	0.566	-0.6625	5.28	-2.8375	6.87413793103
1133	0.5665	-3.5375	5.28	-11.51875	-14.3586206897
1134	0.567	-2.1	3.85333333333	0.05625	-10.1120689655
1135	0.5675	-2.1	3.85333333333	-2.8375	-12.9431034483
1136	0.568	-2.1	6.70666666667	0.05625	-15.774137931
1137	0.5685	-0.6625	3.85333333333	17.41875	-8.69655172414
1138	0.569	-4.975	6.70666666667	17.41875	-8.69655172414
1139	0.5695	-0.6625	1.0	-4.284375	-7.28103448276
1140	0.57	-3.5375	6.70666666667	2.95	-20.0206896552
1141	0.5705	-3.5375	3.85333333333	-2.8375	-11.5275862069
1142	0.571	-4.975	3.85333333333	-4.284375	-11.5275862069
1143	0.5715	-2.1	1.0	-8.625	-7.28103448276
1144	0.572	-2.1	-7.56	1.503125	-10.1120689655
1145	0.5725	-0.6625	-7.56	-7.178125	-10.1120689655
1146	0.573	-0.6625	-1.85333333333	2.95	-10.1120689655
1147	0.5735	-0.6625	5.28	1.503125	-7.28103448276
1148	0.574	0.775	20.9733333333	0.05625	-8.69655172414
1149	0.5745	-4.975	-4.70666666667	1.503125	-8.69655172414
1150	0.575	-0.6625	9.56	18.865625	-8.69655172414
1151	0.5755	2.2125	2.42666666667	-1.390625	-7.28103448276
1152	0.576	0.775	-0.426666666667	-1.390625	-10.1120689655
1153	0.5765	-2.1	-1.85333333333	0.05625	-10.1120689655
1154	0.577	-3.5375	-4.70666666667	1.503125	-8.69655172414
1155	0.5775	-16.475	2.42666666667	1.503125	-10.1120689655
1156	0.578	-10.725	2.42666666667	1.503125	-8.69655172414
1157	0.5785	0.775	3.85333333333	1.503125	-11.5275862069
1158	0.579	-7.85	1.0	-1.390625	-11.5275862069
1159	0.5795	-12.1625	1.0	0.05625	-8.69655172414
1160	0.58	-13.6	1.0	0.05625	-8.69655172414
1161	0.5805	-7.85	3.85333333333	1.503125	-10.1120689655
1162	0.581	-4.975	3.85333333333	0.05625	-17.1896551724
1163	0.5815	-7.85	3.85333333333	2.95	-18.6051724138
1164	0.582	-13.6	5.28	1.503125	-12.9431034483
1165	0.5825	-7.85	2.42666666667	-1.390625	-11.5275862069
1166	0.583	-2.1	3.85333333333	0.05625	5.45862068966
1167	0.5835	-3.5375	3.85333333333	-2.8375	6.87413793103
1168	0.584	-0.6625	2.42666666667	1.503125	-7.28103448276
1169	0.5845	-3.5375	3.85333333333	0.05625	-0.203448275862
1170	0.585	-2.1	5.28	0.05625	-14.3586206897
1171	0.5855	-2.1	3.85333333333	1.503125	-18.6051724138
1172	0.586	-3.5375	2.42666666667	-8.625	-11.5275862069
1173	0.5865	-2.1	2.42666666667	-5.73125	-11.5275862069
1174	0.587	-3.5375	3.85333333333	-4.284375	-12.9431034483
1175	0.5875	-3.5375	3.85333333333	-4.284375	-11.5275862069
1176	0.588	-0.6625	1.0	-7.178125	-11.5275862069
1177	0.5885	-2.1	2.42666666667	-1.390625	-10.1120689655
1178	0.589	-0.6625	3.85333333333	-4.284375	-1.61896551724
1179	0.5895	-2.1	5.28	14.525	-8.69655172414
1180	0.59	-2.1	8.13333333333	1.503125	-7.28103448276
1181	0.5905	-0.6625	6.70666666667	18.865625	-4.45
1182	0.591	-2.1	6.70666666667	-1.390625	-5.86551724138
1183	0.5915	-0.6625	6.70666666667	-4.284375	-7.28103448276
1184	0.592	-0.6625	-3.28	-1.390625	-7.28103448276
1185	0.5925	-2.1	-7.56	0.05625	-4.45
1186	0.593	-3.5375	-8.98666666667	1.503125	-5.86551724138
1187	0.5935	-0.6625	9.56	2.95	-7.28103448276
1188	0.594	-0.6625	6.70666666667	0.05625	-8.69655172414
1189	0.5945	-2.1	-1.85333333333	0.05625	-5.86551724138
1190	0.595	-4.975	-3.28	0.05625	-5.86551724138
1191	0.5955	0.775	1.0	1.503125	-7.28103448276
1192	0.596	-10.725	1.0	-1.390625	-7.28103448276
1193	0.5965	-7.85	2.42666666667	-1.390625	-5.86551724138
1194	0.597	-2.1	1.0	0.05625	-7.28103448276
1195	0.5975	-2.1	2.42666666667	-2.8375	-3.03448275862
1196	0.598	-12.1625	3.85333333333	-2.8375	-5.86551724138
1197	0.5985	18.025	2.42666666667	2.95	-7.28103448276
1198	0.599	-9.2875	1.0	0.05625	-7.28103448276
1199	0.5995	-3.5375	3.85333333333	-1.390625	-5.86551724138
1200	0.6	-6.4125	1.0	2.95	-18.6051724138
1201	0.6005	-3.5375	2.42666666667	-1.390625	5.45862068966
1202	0.601	-2.1	2.42666666667	-1.390625	2.6275862069
1203	0.6015	-0.6625	3.85333333333	1.503125	-7.28103448276
1204	0.602	-4.975	2.42666666667	0.05625	-8.69655172414
1205	0.6025	-3.5375	2.42666666667	2.95	-17.1896551724
1206	0.603	-3.5375	2.42666666667	0.05625	-8.69655172414
1207	0.6035	-2.1	2.42666666667	4.396875	-12.9431034483
1208	0.604	0.775	2.42666666667	-1.390625	-15.774137931
1209	0.6045	-2.1	2.42666666667	0.05625	-5.86551724138
1210	0.605	-0.6625	1.0	-4.284375	-10.1120689655
1211	0.6055	-3.5375	5.28	15.971875	-7.28103448276
1212	0.606	-3.5375	1.0	-1.390625	-8.69655172414
1213	0.6065	-3.5375	1.0	-8.625	-5.86551724138
1214	0.607	-3.5375	3.85333333333	-4.284375	-8.69655172414
1215	0.6075	-3.5375	1.0	-2.8375	-7.28103448276
1216	0.608	-3.5375	2.42666666667	-4.284375	-5.86551724138
1217	0.6085	-2.1	-3.28	0.05625	-5.86551724138
1218	0.609	-4.975	-6.13333333333	1.503125	-4.45
1219	0.6095	-3.5375	-6.13333333333	0.05625	-4.45
1220	0.61	0.775	6.70666666667	-1.390625	-5.86551724138
1221	0.6105	-2.1	-4.70666666667	-1.390625	-5.86551724138
1222	0.611	0.775	16.6933333333	-1.390625	-7.28103448276
1223	0.6115	-6.4125	-6.13333333333	1.503125	-7.28103448276
1224	0.612	-0.6625	2.42666666667	1.503125	-5.86551724138
1225	0.6125	-6.4125	2.42666666667	0.05625	-4.45
1226	0.613	-0.6625	6.70666666667	0.05625	-4.45
1227	0.6135	0.775	1.0	0.05625	-4.45
1228	0.614	-0.6625	1.0	-1.390625	-5.86551724138
1229	0.6145	-16.475	-0.426666666667	-1.390625	-4.45
1230	0.615	-16.475	-0.426666666667	1.503125	-7.28103448276
1231	0.6155	-13.6	-0.426666666667	0.05625	-7.28103448276
1232	0.616	-3.5375	1.0	-2.8375	-4.45
1233	0.6165	-2.1	1.0	-1.390625	-3.03448275862
1234	0.617	3.65	2.42666666667	-1.390625	-4.45
1235	0.6175	-9.2875	1.0	0.05625	-4.45
1236	0.618	-3.5375	1.0	-1.390625	8.28965517241
1237	0.6185	-4.975	-1.85333333333	2.95	2.6275862069
1238	0.619	-0.6625	-0.426666666667	1.503125	-5.86551724138
1239	0.6195	-3.5375	-0.426666666667	-2.8375	-12.9431034483
1240	0.62	-2.1	-1.85333333333	2.95	-12.9431034483
1241	0.6205	-2.1	1.0	4.396875	-17.1896551724
1242	0.621	-2.1	-0.426666666667	1.503125	-17.1896551724
1243	0.6215	-4.975	1.0	4.396875	-14.3586206897
1244	0.622	-6.4125	1.0	17.41875	-10.1120689655
1245	0.6225	-0.6625	1.0	15.971875	-17.1896551724
1246	0.623	-2.1	2.42666666667	13.078125	-10.1120689655
1247	0.6235	-0.6625	1.0	1.503125	-18.6051724138
1248	0.624	-2.1	2.42666666667	-1.390625	-8.69655172414
1249	0.6245	-4.975	3.85333333333	-4.284375	-10.1120689655
1250	0.625	-0.6625	2.42666666667	-5.73125	-11.5275862069
1251	0.6255	-3.5375	1.0	-2.8375	-8.69655172414
1252	0.626	-2.1	1.0	2.95	-11.5275862069
1253	0.6265	-0.6625	3.85333333333	-1.390625	-10.1120689655
1254	0.627	-2.1	-1.85333333333	0.05625	-7.28103448276
1255	0.6275	-2.1	-6.13333333333	-2.8375	-10.1120689655
1256	0.628	0.775	18.12	0.05625	-7.28103448276
1257	0.6285	-4.975	-8.98666666667	1.503125	-10.1120689655
1258	0.629	-4.975	-6.13333333333	1.503125	-8.69655172414
1259	0.6295	-4.975	-8.98666666667	0.05625	-7.28103448276
1260	0.63	0.775	-0.426666666667	0.05625	-8.69655172414
1261	0.6305	-10.725	1.0	-1.390625	-7.28103448276
1262	0.631	-7.85	5.28	-1.390625	-5.86551724138
1263	0.6315	12.275	-0.426666666667	0.05625	-5.86551724138
1264	0.632	13.7125	-0.426666666667	1.503125	-0.203448275862
1265	0.6325	15.15	1.0	0.05625	-4.45
1266	0.633	16.5875	-1.85333333333	-1.390625	-7.28103448276
1267	0.6335	5.0875	-0.426666666667	0.05625	-5.86551724138
1268	0.634	-6.4125	-0.426666666667	0.05625	-15.774137931
1269	0.6345	-2.1	-0.426666666667	-1.390625	-17.1896551724
1270	0.635	-12.1625	-1.85333333333	-1.390625	-7.28103448276
1271	0.6355	-3.5375	-0.426666666667	-1.390625	-5.86551724138
1272	0.636	-0.6625	-0.426666666667	1.503125	1.21206896552
1273	0.6365	-3.5375	-1.85333333333	-1.390625	1.21206896552
1274	0.637	-2.1	-0.426666666667	2.95	6.87413793103
1275	0.6375	-4.975	1.0	-1.390625	-1.61896551724
1276	0.638	0.775	1.0	-12.965625	-7.28103448276
1277	0.6385	-0.6625	-0.426666666667	-8.625	-7.28103448276
1278	0.639	-3.5375	-0.426666666667	1.503125	-8.69655172414
1279	0.6395	-3.5375	-0.426666666667	-7.178125	-14.3586206897
1280	0.64	-3.5375	2.42666666667	14.525	-7.28103448276
1281	0.6405	-2.1	-1.85333333333	-5.73125	-7.28103448276
1282	0.641	-3.5375	-4.70666666667	2.95	-7.28103448276
1283	0.6415	-2.1	1.0	11.63125	-4.45
1284	0.642	-4.975	-6.13333333333	0.05625	-8.69655172414
1285	0.6425	-3.5375	-0.426666666667	0.05625	-4.45
1286	0.643	-3.5375	1.0	-1.390625	-7.28103448276
1287	0.6435	-3.5375	-3.28	0.05625	-5.86551724138
1288	0.644	-4.975	-0.426666666667	-1.390625	-4.45
1289	0.6445	-3.5375	12.4133333333	-1.390625	-3.03448275862
1290	0.645	-0.6625	1.0	-1.390625	-7.28103448276
1291	0.6455	0.775	13.84	0.05625	-5.86551724138
1292	0.646	0.775	10.9866666667	2.95	-8.69655172414
1293	0.6465	-4.975	-6.13333333333	-1.390625	-7.28103448276
1294	0.647	-2.1	-4.70666666667	-1.390625	-8.69655172414
1295	0.6475	0.775	-1.85333333333	-1.390625	-5.86551724138
1296	0.648	2.2125	-1.85333333333	-1.390625	-7.28103448276
1297	0.6485	-0.6625	-3.28	-1.390625	-5.86551724138
1298	0.649	-3.5375	-7.56	-1.390625	-4.45
1299	0.6495	-13.6	-0.426666666667	0.05625	-5.86551724138
1300	0.65	3.65	-0.426666666667	-1.390625	-4.45
1301	0.6505	-3.5375	1.0	2.95	-4.45
1302	0.651	10.8375	-1.85333333333	0.05625	-4.45
1303	0.6515	-12.1625	-3.28	1.503125	-3.03448275862
1304	0.652	15.15	-0.426666666667	-1.390625	-7.28103448276
1305	0.6525	-2.1	-3.28	-1.390625	-1.61896551724
1306	0.653	-4.975	-3.28	1.503125	-7.28103448276
1307	0.6535	-7.85	-0.426666666667	-1.390625	-10.1120689655
1308	0.654	-10.725	-3.28	0.05625	-8.69655172414
1309	0.6545	-4.975	-0.426666666667	-1.390625	-4.45
1310	0.655	-4.975	-1.85333333333	1.503125	-5.86551724138
1311	0.6555	-2.1	-1.85333333333	0.05625	-3.03448275862
1312	0.656	-4.975	-0.426666666667	-1.390625	-0.203448275862
1313	0.6565	-2.1	-3.28	-4.284375	-8.69655172414
1314	0.657	-4.975	-4.70666666667	-1.390625	-7.28103448276
1315	0.6575	-4.975	-4.70666666667	2.95	-14.3586206897
1316	0.658	-4.975	-1.85333333333	-11.51875	-5.86551724138
1317	0.6585	-2.1	-1.85333333333	-4.284375	-5.86551724138
1318	0.659	-4.975	-1.85333333333	4.396875	-7.28103448276
1319	0.6595	-2.1	-0.426666666667	5.84375	-7.28103448276
1320	0.66	-4.975	-0.426666666667	-1.390625	-12.9431034483
1321	0.6605	-2.1	-0.426666666667	15.971875	-7.28103448276
1322	0.661	0.775	2.42666666667	0.05625	-8.69655172414
1323	0.6615	-0.6625	-11.84	-1.390625	-7.28103448276
1324	0.662	-2.1	-1.85333333333	2.95	-8.69655172414
1325	0.6625	-2.1	1.0	-1.390625	-5.86551724138
1326	0.663	-3.5375	-0.426666666667	0.05625	-4.45
1327	0.6635	-3.5375	-4.70666666667	0.05625	-3.03448275862
1328	0.664	-3.5375	-4.70666666667	-5.73125	-5.86551724138
1329	0.6645	-4.975	-13.2666666667	1.503125	-5.86551724138
1330	0.665	-6.4125	-10.4133333333	-1.390625	-3.03448275862
1331	0.6655	-3.5375	-6.13333333333	0.05625	-3.03448275862
1332	0.666	-2.1	-8.98666666667	1.503125	-5.86551724138
1333	0.6665	-3.5375	-7.56	0.05625	-4.45
1334	0.667	-3.5375	-8.98666666667	0.05625	-3.03448275862
1335	0.6675	-10.725	-4.70666666667	0.05625	-5.86551724138
1336	0.668	-13.6	-3.28	-1.390625	-4.45
1337	0.6685	-15.0375	-3.28	0.05625	-4.45
1338	0.669	-0.6625	-1.85333333333	-2.8375	-4.45
1339	0.6695	3.65	-1.85333333333	-4.284375	-0.203448275862
1340	0.67	-13.6	-3.28	-1.390625	-14.3586206897
1341	0.6705	-13.6	-3.28	0.05625	-10.1120689655
1342	0.671	-12.1625	-4.70666666667	0.05625	-10.1120689655
1343	0.6715	-13.6	-3.28	1.503125	-4.45
1344	0.672	-4.975	-3.28	0.05625	8.28965517241
1345	0.6725	-2.1	-1.85333333333	2.95	13.9517241379
1346	0.673	-3.5375	-1.85333333333	0.05625	-3.03448275862
1347	0.6735	-2.1	-4.70666666667	-12.965625	-3.03448275862
1348	0.674	-6.4125	-4.70666666667	-10.071875	-5.86551724138
1349	0.6745	-3.5375	-3.28	1.503125	-3.03448275862
1350	0.675	-3.5375	-3.28	-2.8375	-7.28103448276
1351	0.6755	-0.6625	-1.85333333333	15.971875	-3.03448275862
1352	0.676	-3.5375	-1.85333333333	18.865625	-10.1120689655
1353	0.6765	-4.975	-1.85333333333	14.525	-1.61896551724
1354	0.677	-3.5375	-4.70666666667	-1.390625	-3.03448275862
1355	0.6775	-3.5375	-0.426666666667	5.84375	-1.61896551724
1356	0.678	-0.6625	-6.13333333333	0.05625	-1.61896551724
1357	0.6785	0.775	-4.70666666667	1.503125	-4.45
1358	0.679	-2.1	-1.85333333333	18.865625	-10.1120689655
1359	0.6795	-3.5375	-1.85333333333	0.05625	-3.03448275862
1360	0.68	-3.5375	-3.28	0.05625	-1.61896551724
1361	0.6805	-0.6625	-4.70666666667	0.05625	2.6275862069
1362	0.681	-2.1	-11.84	0.05625	1.21206896552
1363	0.6815	-4.975	-13.2666666667	0.05625	-1.61896551724
1364	0.682	-2.1	-8.98666666667	2.95	-1.61896551724
1365	0.6825	-0.6625	-11.84	2.95	-1.61896551724
1366	0.683	-4.975	-11.84	0.05625	-0.203448275862
1367	0.6835	-3.5375	-13.2666666667	-1.390625	-0.203448275862
1368	0.684	-2.1	-11.84	1.503125	-1.61896551724
1369	0.6845	-7.85	-4.70666666667	1.503125	2.6275862069
1370	0.685	-4.975	-4.70666666667	2.95	1.21206896552
1371	0.6855	-3.5375	5.28	0.05625	-0.203448275862
1372	0.686	16.5875	-6.13333333333	-1.390625	1.21206896552
1373	0.6865	16.5875	-4.70666666667	1.503125	-0.203448275862
1374	0.687	18.025	-4.70666666667	1.503125	-0.203448275862
1375	0.6875	-4.975	-1.85333333333	0.05625	-1.61896551724
1376	0.688	0.775	-6.13333333333	-1.390625	2.6275862069
1377	0.6885	-0.6625	-1.85333333333	-1.390625	13.9517241379
1378	0.689	-0.6625	-6.13333333333	0.05625	8.28965517241
1379	0.6895	-0.6625	-1.85333333333	0.05625	5.45862068966
1380	0.69	0.775	-4.70666666667	1.503125	4.04310344828
1381	0.6905	-2.1	-3.28	0.05625	12.5362068966
1382	0.691	-2.1	-4.70666666667	-2.8375	15.3672413793
1383	0.6915	-2.1	-6.13333333333	-11.51875	13.9517241379
1384	0.692	-0.6625	-4.70666666667	-8.625	9.70517241379
1385	0.6925	-2.1	-4.70666666667	1.503125	1.21206896552
1386	0.693	-2.1	-3.28	13.078125	-5.86551724138
1387	0.6935	-0.6625	-7.56	2.95	-4.45
1388	0.694	-2.1	-3.28	17.41875	-1.61896551724
1389	0.6945	-0.6625	-4.70666666667	1.503125	-0.203448275862
1390	0.695	-0.6625	-1.85333333333	0.05625	-3.03448275862
1391	0.6955	0.775	-10.4133333333	0.05625	-0.203448275862
1392	0.696	-2.1	-6.13333333333	0.05625	-1.61896551724
1393	0.6965	-0.6625	-3.28	1.503125	-0.203448275862
1394	0.697	-2.1	-16.12	2.95	-0.203448275862
1395	0.6975	-0.6625	10.9866666667	-1.390625	-1.61896551724
1396	0.698	-3.5375	-10.4133333333	-1.390625	-0.203448275862
1397	0.6985	-0.6625	1.0	14.525	-0.203448275862
1398	0.699	-0.6625	-8.98666666667	1.503125	-0.203448275862
1399	0.6995	0.775	-8.98666666667	0.05625	-3.03448275862
1400	0.7	-2.1	-6.13333333333	-5.73125	-1.61896551724
1401	0.7005	-7.85	-6.13333333333	0.05625	-3.03448275862
1402	0.701	-12.1625	-4.70666666667	0.05625	-1.61896551724
1403	0.7015	18.025	-4.70666666667	-1.390625	-0.203448275862
1404	0.702	-12.1625	-11.84	0.05625	-3.03448275862
1405	0.7025	-10.725	-3.28	1.503125	-10.1120689655
1406	0.703	-7.85	-3.28	0.05625	-4.45
1407	0.7035	-4.975	-0.426666666667	1.503125	-3.03448275862
1408	0.704	-3.5375	-3.28	1.503125	-1.61896551724
1409	0.7045	-2.1	-1.85333333333	-1.390625	13.9517241379
1410	0.705	-0.6625	-1.85333333333	-1.390625	-0.203448275862
1411	0.7055	-2.1	-4.70666666667	-1.390625	-1.61896551724
1412	0.706	-2.1	-3.28	-11.51875	-1.61896551724
1413	0.7065	-2.1	-4.70666666667	1.503125	-0.203448275862
1414	0.707	-4.975	-0.426666666667	-4.284375	-3.03448275862
1415	0.7075	-0.6625	-0.426666666667	11.63125	-3.03448275862
1416	0.708	-2.1	-1.85333333333	14.525	-10.1120689655
1417	0.7085	-2.1	-1.85333333333	4.396875	-10.1120689655
1418	0.709	-0.6625	-4.70666666667	4.396875	-11.5275862069
1419	0.7095	0.775	1.0	-1.390625	-1.61896551724
1420	0.71	-3.5375	-0.426666666667	-1.390625	1.21206896552
1421	0.7105	-2.1	-4.70666666667	2.95	2.6275862069
1422	0.711	-2.1	-1.85333333333	2.95	-0.203448275862
1423	0.7115	-2.1	15.2666666667	0.05625	1.21206896552
1424	0.712	0.775	16.6933333333	1.503125	1.21206896552
1425	0.7125	-4.975	-11.84	1.503125	-1.61896551724
1426	0.713	-0.6625	-7.56	2.95	2.6275862069
1427	0.7135	-3.5375	-4.70666666667	1.503125	-1.61896551724
1428	0.714	-2.1	6.70666666667	2.95	-1.61896551724
1429	0.7145	2.2125	-0.426666666667	1.503125	4.04310344828
1430	0.715	2.2125	16.6933333333	0.05625	1.21206896552
1431	0.7155	0.775	-1.85333333333	0.05625	2.6275862069
1432	0.716	12.275	-0.426666666667	1.503125	-0.203448275862
1433	0.7165	9.4	-7.56	1.503125	1.21206896552
1434	0.717	12.275	-4.70666666667	1.503125	-0.203448275862
1435	0.7175	-2.1	-0.426666666667	0.05625	-1.61896551724
1436	0.718	-0.6625	-3.28	-1.390625	-0.203448275862
1437	0.7185	-0.6625	-3.28	-4.284375	15.3672413793
1438	0.719	-0.6625	-3.28	0.05625	13.9517241379
1439	0.7195	-0.6625	1.0	-2.8375	13.9517241379
1440	0.72	-2.1	-0.426666666667	1.503125	1.21206896552
1441	0.7205	-3.5375	1.0	-1.390625	18.1982758621
1442	0.721	-0.6625	-0.426666666667	-10.071875	15.3672413793
1443	0.7215	-2.1	-1.85333333333	-10.071875	-3.03448275862
1444	0.722	-3.5375	-1.85333333333	7.290625	-3.03448275862
1445	0.7225	0.775	1.0	4.396875	-3.03448275862
1446	0.723	-0.6625	-0.426666666667	5.84375	-1.61896551724
1447	0.7235	-3.5375	1.0	-1.390625	5.45862068966
1448	0.724	-3.5375	-1.85333333333	8.7375	1.21206896552
1449	0.7245	-2.1	1.0	0.05625	-0.203448275862
1450	0.725	-2.1	1.0	1.503125	-0.203448275862
1451	0.7255	-0.6625	-10.4133333333	1.503125	1.21206896552
1452	0.726	0.775	-11.84	-1.390625	-0.203448275862
1453	0.7265	0.775	-10.4133333333	1.503125	-1.61896551724
1454	0.727	-0.6625	-13.2666666667	1.503125	-1.61896551724
1455	0.7275	-2.1	-4.70666666667	0.05625	-4.45
1456	0.728	-3.5375	-10.4133333333	2.95	-3.03448275862
1457	0.7285	-2.1	1.0	0.05625	-1.61896551724
1458	0.729	-2.1	1.0	1.503125	-3.03448275862
1459	0.7295	-4.975	-0.426666666667	0.05625	-0.203448275862
1460	0.73	-0.6625	-0.426666666667	0.05625	-0.203448275862
1461	0.7305	3.65	-0.426666666667	1.503125	1.21206896552
1462	0.731	2.2125	-0.426666666667	1.503125	1.21206896552
1463	0.7315	18.025	1.0	2.95	-0.203448275862
1464	0.732	-10.725	-0.426666666667	2.95	4.04310344828
1465	0.7325	18.025	-0.426666666667	2.95	-0.203448275862
1466	0.733	-0.6625	-0.426666666667	0.05625	4.04310344828
1467	0.7335	-0.6625	1.0	1.503125	5.45862068966
1468	0.734	0.775	2.42666666667	0.05625	5.45862068966
1469	0.7345	-0.6625	-0.426666666667	1.503125	-3.03448275862
1470	0.735	-0.6625	1.0	-1.390625	-5.86551724138
1471	0.7355	-0.6625	1.0	0.05625	-7.28103448276
1472	0.736	0.775	1.0	1.503125	-4.45
1473	0.7365	-0.6625	1.0	5.84375	-10.1120689655
1474	0.737	-0.6625	1.0	18.865625	-4.45
1475	0.7375	-0.6625	1.0	-2.8375	-3.03448275862
1476	0.738	2.2125	-0.426666666667	1.503125	-0.203448275862
1477	0.7385	-0.6625	1.0	8.7375	-0.203448275862
1478	0.739	-0.6625	1.0	15.971875	-1.61896551724
1479	0.7395	-2.1	3.85333333333	-1.390625	-5.86551724138
1480	0.74	0.775	5.28	2.95	-0.203448275862
1481	0.7405	0.775	1.0	-1.390625	-3.03448275862
1482	0.741	0.775	-7.56	1.503125	-5.86551724138
1483	0.7415	-0.6625	5.28	1.503125	-3.03448275862
1484	0.742	0.775	-0.426666666667	-1.390625	-5.86551724138
1485	0.7425	0.775	1.0	2.95	-1.61896551724
1486	0.743	5.0875	-4.70666666667	-2.8375	-4.45
1487	0.7435	-3.5375	-7.56	1.503125	-3.03448275862
1488	0.744	5.0875	-1.85333333333	0.05625	-3.03448275862
1489	0.7445	0.775	-4.70666666667	-1.390625	-3.03448275862
1490	0.745	-3.5375	-6.13333333333	1.503125	-4.45
1491	0.7455	-10.725	2.42666666667	2.95	-4.45
1492	0.746	-12.1625	1.0	1.503125	-3.03448275862
1493	0.7465	10.8375	1.0	2.95	-5.86551724138
1494	0.747	0.775	-0.426666666667	0.05625	-5.86551724138
1495	0.7475	-7.85	1.0	1.503125	-5.86551724138
1496	0.748	-6.4125	1.0	1.503125	-12.9431034483
1497	0.7485	-0.6625	5.28	1.503125	8.28965517241
1498	0.749	-0.6625	2.42666666667	0.05625	1.21206896552
1499	0.7495	-2.1	-1.85333333333	2.95	-3.03448275862
1500	0.75	-3.5375	2.42666666667	-1.390625	-1.61896551724
1501	0.7505	0.775	2.42666666667	1.503125	-10.1120689655
1502	0.751	0.775	3.85333333333	4.396875	-10.1120689655
1503	0.7515	0.775	1.0	-7.178125	-8.69655172414
1504	0.752	2.2125	1.0	-2.8375	-5.86551724138
1505	0.7525	0.775	5.28	5.84375	-4.45
1506	0.753	-0.6625	-0.426666666667	11.63125	-5.86551724138
1507	0.7535	0.775	2.42666666667	17.41875	-4.45
1508	0.754	0.775	2.42666666667	18.865625	-3.03448275862
1509	0.7545	0.775	2.42666666667	20.3125	-11.5275862069
1510	0.755	0.775	6.70666666667	2.95	-0.203448275862
1511	0.7555	0.775	6.70666666667	20.3125	-11.5275862069
1512	0.756	0.775	3.85333333333	-1.390625	-1.61896551724
1513	0.7565	-0.6625	13.84	2.95	-5.86551724138
1514	0.757	0.775	6.70666666667	-2.8375	-3.03448275862
1515	0.7575	-0.6625	1.0	2.95	-5.86551724138
1516	0.758	0.775	-3.28	2.95	-4.45
1517	0.7585	-0.6625	-7.56	-1.390625	-4.45
1518	0.759	-2.1	-8.98666666667	2.95	-3.03448275862
1519	0.7595	-0.6625	-6.13333333333	4.396875	-4.45
1520	0.76	3.65	2.42666666667	1.503125	-5.86551724138
1521	0.7605	16.5875	1.0	1.503125	-1.61896551724
1522	0.761	-9.2875	-4.70666666667	0.05625	-3.03448275862
1523	0.7615	-6.4125	2.42666666667	2.95	-1.61896551724
1524	0.762	7.9625	-0.426666666667	1.503125	-0.203448275862
1525	0.7625	13.7125	-0.426666666667	0.05625	-0.203448275862
1526	0.763	-6.4125	2.42666666667	2.95	-12.9431034483
1527	0.7635	-10.725	2.42666666667	0.05625	-11.5275862069
1528	0.764	-4.975	2.42666666667	1.503125	-5.86551724138
1529	0.7645	-0.6625	-0.426666666667	0.05625	-3.03448275862
1530	0.765	2.2125	1.0	-2.8375	15.3672413793
1531	0.7655	-0.6625	1.0	0.05625	-0.203448275862
1532	0.766	2.2125	-0.426666666667	0.05625	6.87413793103
1533	0.7665	2.2125	1.0	-2.8375	-5.86551724138
1534	0.767	0.775	1.0	-4.284375	-7.28103448276
1535	0.7675	0.775	5.28	-2.8375	-3.03448275862
1536	0.768	-0.6625	5.28	-5.73125	-4.45
1537	0.7685	0.775	1.0	-8.625	-1.61896551724
1538	0.769	2.2125	3.85333333333	-1.390625	-0.203448275862
1539	0.7695	2.2125	2.42666666667	-4.284375	-3.03448275862
1540	0.77	0.775	3.85333333333	-1.390625	-1.61896551724
1541	0.7705	0.775	3.85333333333	-5.73125	4.04310344828
1542	0.771	0.775	2.42666666667	0.05625	-1.61896551724
1543	0.7715	0.775	5.28	0.05625	-1.61896551724
1544	0.772	0.775	3.85333333333	4.396875	-12.9431034483
1545	0.7725	2.2125	9.56	1.503125	-0.203448275862
1546	0.773	-0.6625	1.0	1.503125	-0.203448275862
1547	0.7735	-0.6625	-1.85333333333	-1.390625	-1.61896551724
1548	0.774	0.775	-1.85333333333	-5.73125	-0.203448275862
1549	0.7745	0.775	-7.56	1.503125	-0.203448275862
1550	0.775	0.775	-6.13333333333	0.05625	-3.03448275862
1551	0.7755	2.2125	1.0	-1.390625	-1.61896551724
1552	0.776	2.2125	6.70666666667	2.95	-0.203448275862
1553	0.7765	0.775	1.0	-1.390625	1.21206896552
1554	0.777	0.775	15.2666666667	0.05625	-3.03448275862
1555	0.7775	2.2125	3.85333333333	0.05625	-1.61896551724
1556	0.778	18.025	1.0	1.503125	-0.203448275862
1557	0.7785	-6.4125	-0.426666666667	1.503125	-1.61896551724
1558	0.779	2.2125	1.0	0.05625	-5.86551724138
1559	0.7795	3.65	-1.85333333333	4.396875	-5.86551724138
1560	0.78	-6.4125	3.85333333333	2.95	-11.5275862069
1561	0.7805	-9.2875	3.85333333333	2.95	-14.3586206897
1562	0.781	-2.1	2.42666666667	1.503125	-5.86551724138
1563	0.7815	-3.5375	1.0	4.396875	-11.5275862069
1564	0.782	-0.6625	5.28	2.95	-11.5275862069
1565	0.7825	2.2125	3.85333333333	4.396875	-11.5275862069
1566	0.783	-2.1	3.85333333333	4.396875	-7.28103448276
1567	0.7835	0.775	1.0	1.503125	2.6275862069
1568	0.784	0.775	3.85333333333	-4.284375	-3.03448275862
1569	0.7845	0.775	6.70666666667	20.3125	-7.28103448276
1570	0.785	-2.1	2.42666666667	14.525	-7.28103448276
1571	0.7855	0.775	3.85333333333	0.05625	-5.86551724138
1572	0.786	0.775	3.85333333333	17.41875	-5.86551724138
1573	0.7865	0.775	3.85333333333	18.865625	-7.28103448276
1574	0.787	0.775	3.85333333333	1.503125	-5.86551724138
1575	0.7875	0.775	1.0	-2.8375	-8.69655172414
1576	0.788	2.2125	-0.426666666667	-1.390625	-8.69655172414
1577	0.7885	-3.5375	1.0	-1.390625	-7.28103448276
1578	0.789	0.775	-10.4133333333	0.05625	-7.28103448276
1579	0.7895	0.775	-6.13333333333	-1.390625	-8.69655172414
1580	0.79	3.65	-4.70666666667	4.396875	-10.1120689655
1581	0.7905	3.65	16.6933333333	0.05625	-5.86551724138
1582	0.791	3.65	20.9733333333	0.05625	-4.45
1583	0.7915	-2.1	3.85333333333	1.503125	-7.28103448276
1584	0.792	2.2125	10.9866666667	2.95	-5.86551724138
1585	0.7925	5.0875	23.8266666667	4.396875	-0.203448275862
1586	0.793	5.0875	-0.426666666667	1.503125	-3.03448275862
1587	0.7935	-7.85	2.42666666667	-1.390625	-1.61896551724
1588	0.794	-2.1	1.0	1.503125	-5.86551724138
1589	0.7945	3.65	2.42666666667	1.503125	-4.45
1590	0.795	3.65	5.28	0.05625	-3.03448275862
1591	0.7955	15.15	1.0	0.05625	-4.45
1592	0.796	5.0875	2.42666666667	0.05625	-4.45
1593	0.7965	-4.975	-0.426666666667	1.503125	-5.86551724138
1594	0.797	-9.2875	2.42666666667	2.95	-11.5275862069
1595	0.7975	-9.2875	3.85333333333	0.05625	-3.03448275862
1596	0.798	-4.975	3.85333333333	1.503125	-5.86551724138
1597	0.7985	7.9625	2.42666666667	1.503125	-3.03448275862
1598	0.799	-0.6625	6.70666666667	0.05625	9.70517241379
1599	0.7995	0.775	2.42666666667	0.05625	-3.03448275862
1600	0.8	0.775	1.0	0.05625	9.70517241379
1601	0.8005	0.775	3.85333333333	0.05625	12.5362068966
1602	0.801	0.775	1.0	-5.73125	-8.69655172414
1603	0.8015	0.775	1.0	0.05625	-3.03448275862
1604	0.802	0.775	3.85333333333	1.503125	-11.5275862069
1605	0.8025	0.775	2.42666666667	17.41875	-1.61896551724
1606	0.803	2.2125	5.28	4.396875	-11.5275862069
1607	0.8035	2.2125	3.85333333333	2.95	-14.3586206897
1608	0.804	2.2125	1.0	-2.8375	-5.86551724138
1609	0.8045	0.775	1.0	-7.178125	-5.86551724138
1610	0.805	0.775	5.28	-1.390625	-4.45
1611	0.8055	3.65	6.70666666667	0.05625	-4.45
1612	0.806	2.2125	6.70666666667	-1.390625	-5.86551724138
1613	0.8065	2.2125	-3.28	0.05625	-5.86551724138
1614	0.807	0.775	-6.13333333333	-7.178125	-3.03448275862
1615	0.8075	2.2125	-7.56	1.503125	-5.86551724138
1616	0.808	0.775	6.70666666667	1.503125	-5.86551724138
1617	0.8085	-2.1	-4.70666666667	1.503125	-4.45
1618	0.809	-3.5375	-6.13333333333	2.95	-4.45
1619	0.8095	-0.6625	-7.56	-5.73125	-5.86551724138
1620	0.81	-4.975	1.0	1.503125	-1.61896551724
1621	0.8105	0.775	1.0	1.503125	-5.86551724138
1622	0.811	-10.725	1.0	0.05625	-4.45
1623	0.8115	-9.2875	1.0	1.503125	-3.03448275862
1624	0.812	-7.85	3.85333333333	0.05625	-5.86551724138
1625	0.8125	12.275	-0.426666666667	0.05625	-3.03448275862
1626	0.813	-7.85	2.42666666667	2.95	-8.69655172414
1627	0.8135	0.775	2.42666666667	0.05625	-5.86551724138
1628	0.814	7.9625	2.42666666667	-1.390625	-3.03448275862
1629	0.8145	-4.975	1.0	2.95	-12.9431034483
1630	0.815	-7.85	2.42666666667	-1.390625	-11.5275862069
1631	0.8155	-0.6625	2.42666666667	1.503125	-0.203448275862
1632	0.816	-2.1	2.42666666667	2.95	-12.9431034483
1633	0.8165	0.775	-0.426666666667	4.396875	-12.9431034483
1634	0.817	0.775	1.0	4.396875	-5.86551724138
1635	0.8175	3.65	1.0	1.503125	-3.03448275862
1636	0.818	2.2125	2.42666666667	-5.73125	-5.86551724138
1637	0.8185	0.775	2.42666666667	-10.071875	-7.28103448276
1638	0.819	-0.6625	3.85333333333	14.525	-8.69655172414
1639	0.8195	0.775	3.85333333333	0.05625	-11.5275862069
1640	0.82	0.775	1.0	20.3125	-5.86551724138
1641	0.8205	-2.1	2.42666666667	-5.73125	-7.28103448276
1642	0.821	0.775	-1.85333333333	4.396875	-7.28103448276
1643	0.8215	0.775	1.0	5.84375	-5.86551724138
1644	0.822	-3.5375	1.0	15.971875	-11.5275862069
1645	0.8225	0.775	2.42666666667	0.05625	-7.28103448276
1646	0.823	0.775	6.70666666667	2.95	-5.86551724138
1647	0.8235	0.775	-3.28	1.503125	-7.28103448276
1648	0.824	-2.1	-0.426666666667	2.95	-4.45
1649	0.8245	0.775	-7.56	1.503125	-5.86551724138
1650	0.825	3.65	16.6933333333	-1.390625	-5.86551724138
1651	0.8255	-3.5375	6.70666666667	1.503125	-4.45
1652	0.826	0.775	1.0	2.95	-5.86551724138
1653	0.8265	-0.6625	-7.56	1.503125	-5.86551724138
1654	0.827	0.775	-6.13333333333	4.396875	-5.86551724138
1655	0.8275	-3.5375	-7.56	-2.8375	-7.28103448276
1656	0.828	0.775	2.42666666667	4.396875	-5.86551724138
1657	0.8285	0.775	-1.85333333333	0.05625	-7.28103448276
1658	0.829	2.2125	-0.426666666667	-1.390625	-3.03448275862
1659	0.8295	5.0875	-0.426666666667	1.503125	-1.61896551724
1660	0.83	3.65	19.5466666667	0.05625	-4.45
1661	0.8305	16.5875	-0.426666666667	2.95	-4.45
1662	0.831	18.025	1.0	1.503125	-3.03448275862
1663	0.8315	13.7125	1.0	0.05625	-5.86551724138
1664	0.832	3.65	1.0	0.05625	-4.45
1665	0.8325	-6.4125	-0.426666666667	2.95	-14.3586206897
1666	0.833	-7.85	2.42666666667	1.503125	-12.9431034483
1667	0.8335	-2.1	1.0	0.05625	-11.5275862069
1668	0.834	-10.725	2.42666666667	0.05625	-1.61896551724
1669	0.8345	-0.6625	-1.85333333333	2.95	-3.03448275862
1670	0.835	2.2125	1.0	1.503125	-0.203448275862
1671	0.8355	-2.1	1.0	2.95	-4.45
1672	0.836	-0.6625	2.42666666667	2.95	-5.86551724138
1673	0.8365	-0.6625	-0.426666666667	-8.625	-5.86551724138
1674	0.837	0.775	2.42666666667	-4.284375	-5.86551724138
1675	0.8375	-4.975	-0.426666666667	1.503125	-0.203448275862
1676	0.838	-2.1	3.85333333333	17.41875	-4.45
1677	0.8385	-3.5375	1.0	-5.73125	-4.45
1678	0.839	-0.6625	1.0	-1.390625	-1.61896551724
1679	0.8395	-0.6625	2.42666666667	14.525	-3.03448275862
1680	0.84	-0.6625	-0.426666666667	-7.178125	-3.03448275862
1681	0.8405	-2.1	-8.98666666667	0.05625	-1.61896551724
1682	0.841	-0.6625	-8.98666666667	-1.390625	-0.203448275862
1683	0.8415	-0.6625	1.0	-5.73125	-5.86551724138
1684	0.842	-2.1	1.0	2.95	-1.61896551724
1685	0.8425	0.775	16.6933333333	1.503125	-0.203448275862
1686	0.843	0.775	18.12	4.396875	-0.203448275862
1687	0.8435	2.2125	5.28	-1.390625	-0.203448275862
1688	0.844	2.2125	-3.28	0.05625	-1.61896551724
1689	0.8445	-2.1	-6.13333333333	2.95	-3.03448275862
1690	0.845	3.65	-0.426666666667	0.05625	-1.61896551724
1691	0.8455	3.65	-0.426666666667	0.05625	-0.203448275862
1692	0.846	3.65	-0.426666666667	-1.390625	-1.61896551724
1693	0.8465	2.2125	-0.426666666667	2.95	-3.03448275862
1694	0.847	18.025	1.0	1.503125	-0.203448275862
1695	0.8475	20.9	1.0	-1.390625	-3.03448275862
1696	0.848	18.025	1.0	4.396875	-3.03448275862
1697	0.8485	15.15	1.0	1.503125	-3.03448275862
1698	0.849	-6.4125	1.0	2.95	-12.9431034483
1699	0.8495	-7.85	2.42666666667	1.503125	-12.9431034483
1700	0.85	-0.6625	-0.426666666667	0.05625	-12.9431034483
1701	0.8505	-6.4125	1.0	1.503125	-1.61896551724
1702	0.851	2.2125	-1.85333333333	1.503125	1.21206896552
1703	0.8515	0.775	-1.85333333333	-1.390625	5.45862068966
1704	0.852	0.775	-1.85333333333	1.503125	-10.1120689655
1705	0.8525	0.775	1.0	4.396875	-8.69655172414
1706	0.853	2.2125	1.0	5.84375	-5.86551724138
1707	0.8535	-0.6625	5.28	5.84375	-3.03448275862
1708	0.854	0.775	1.0	2.95	-3.03448275862
1709	0.8545	0.775	2.42666666667	-4.284375	-3.03448275862
1710	0.855	2.2125	1.0	-8.625	-1.61896551724
1711	0.8555	0.775	1.0	-7.178125	-3.03448275862
1712	0.856	-0.6625	-0.426666666667	-4.284375	-4.45
1713	0.8565	0.775	2.42666666667	-2.8375	-1.61896551724
1714	0.857	-2.1	2.42666666667	2.95	1.21206896552
1715	0.8575	0.775	2.42666666667	1.503125	-3.03448275862
1716	0.858	-0.6625	3.85333333333	1.503125	-0.203448275862
1717	0.8585	-2.1	5.28	-1.390625	-1.61896551724
1718	0.859	-0.6625	9.56	0.05625	-0.203448275862
1719	0.8595	-0.6625	1.0	0.05625	2.6275862069
1720	0.86	0.775	-6.13333333333	-8.625	-0.203448275862
1721	0.8605	-0.6625	-6.13333333333	-1.390625	-1.61896551724
1722	0.861	-4.975	-8.98666666667	2.95	-3.03448275862
1723	0.8615	-2.1	-1.85333333333	1.503125	-5.86551724138
1724	0.862	0.775	-4.70666666667	-1.390625	-1.61896551724
1725	0.8625	0.775	3.85333333333	0.05625	-0.203448275862
1726	0.863	3.65	2.42666666667	0.05625	-4.45
1727	0.8635	-9.2875	2.42666666667	1.503125	-1.61896551724
1728	0.864	-4.975	3.85333333333	-1.390625	-3.03448275862
1729	0.8645	5.0875	2.42666666667	1.503125	-3.03448275862
1730	0.865	12.275	2.42666666667	0.05625	-4.45
1731	0.8655	15.15	-0.426666666667	0.05625	-5.86551724138
1732	0.866	-7.85	3.85333333333	1.503125	-4.45
1733	0.8665	-9.2875	3.85333333333	2.95	-12.9431034483
1734	0.867	-10.725	-0.426666666667	-1.390625	-12.9431034483
1735	0.8675	0.775	-0.426666666667	-1.390625	5.45862068966
1736	0.868	0.775	1.0	-1.390625	8.28965517241
1737	0.8685	-0.6625	1.0	2.95	-4.45
1738	0.869	0.775	1.0	1.503125	5.45862068966
1739	0.8695	2.2125	-0.426666666667	-5.73125	-7.28103448276
1740	0.87	-0.6625	1.0	-4.284375	-7.28103448276
1741	0.8705	-0.6625	-0.426666666667	2.95	-0.203448275862
1742	0.871	-0.6625	1.0	-2.8375	-8.69655172414
1743	0.8715	-2.1	1.0	0.05625	-11.5275862069
1744	0.872	-0.6625	2.42666666667	20.3125	-8.69655172414
1745	0.8725	-2.1	-0.426666666667	-7.178125	-8.69655172414
1746	0.873	-0.6625	1.0	4.396875	-17.1896551724
1747	0.8735	-0.6625	1.0	-1.390625	-5.86551724138
1748	0.874	-3.5375	3.85333333333	-1.390625	-7.28103448276
1749	0.8745	-2.1	2.42666666667	0.05625	-1.61896551724
1750	0.875	0.775	1.0	-4.284375	-8.69655172414
1751	0.8755	-0.6625	-10.4133333333	-1.390625	-5.86551724138
1752	0.876	-3.5375	1.0	-4.284375	-7.28103448276
1753	0.8765	-3.5375	-6.13333333333	2.95	-7.28103448276
1754	0.877	-2.1	1.0	11.63125	-8.69655172414
1755	0.8775	0.775	19.5466666667	0.05625	-4.45
1756	0.878	0.775	18.12	0.05625	-3.03448275862
1757	0.8785	-2.1	3.85333333333	11.63125	-4.45
1758	0.879	-2.1	-1.85333333333	1.503125	-5.86551724138
1759	0.8795	-6.4125	-6.13333333333	2.95	-7.28103448276
1760	0.88	3.65	1.0	0.05625	-4.45
1761	0.8805	0.775	-1.85333333333	1.503125	-3.03448275862
1762	0.881	-2.1	-4.70666666667	0.05625	-3.03448275862
1763	0.8815	-10.725	-0.426666666667	2.95	-3.03448275862
1764	0.882	15.15	1.0	0.05625	-4.45
1765	0.8825	15.15	2.42666666667	0.05625	-0.203448275862
1766	0.883	3.65	1.0	0.05625	-5.86551724138
1767	0.8835	-9.2875	-0.426666666667	2.95	-5.86551724138
1768	0.884	-7.85	2.42666666667	2.95	-7.28103448276
1769	0.8845	-7.85	-0.426666666667	4.396875	-4.45
1770	0.885	-6.4125	2.42666666667	2.95	-0.203448275862
1771	0.8855	3.65	-0.426666666667	4.396875	-0.203448275862
1772	0.886	-0.6625	2.42666666667	-1.390625	13.9517241379
1773	0.8865	-0.6625	2.42666666667	1.503125	8.28965517241
1774	0.887	-0.6625	1.0	-1.390625	-0.203448275862
1775	0.8875	-3.5375	1.0	1.503125	-8.69655172414
1776	0.888	0.775	1.0	1.503125	-8.69655172414
1777	0.8885	-0.6625	2.42666666667	-12.965625	-7.28103448276
1778	0.889	-2.1	-0.426666666667	-4.284375	-4.45
1779	0.8895	-0.6625	1.0	0.05625	-11.5275862069
1780	0.89	-0.6625	1.0	15.971875	-1.61896551724
1781	0.8905	0.775	2.42666666667	13.078125	-3.03448275862
1782	0.891	-0.6625	1.0	2.95	-1.61896551724
1783	0.8915	0.775	1.0	13.078125	-3.03448275862
1784	0.892	-2.1	-0.426666666667	15.971875	-3.03448275862
1785	0.8925	-0.6625	-0.426666666667	-8.625	-11.5275862069
1786	0.893	-2.1	1.0	-5.73125	-1.61896551724
1787	0.8935	-0.6625	3.85333333333	0.05625	-1.61896551724
1788	0.894	-0.6625	-10.4133333333	1.503125	-7.28103448276
1789	0.8945	-2.1	-11.84	0.05625	-7.28103448276
1790	0.895	-2.1	-10.4133333333	-1.390625	-1.61896551724
1791	0.8955	-0.6625	8.13333333333	-1.390625	-3.03448275862
1792	0.896	-2.1	8.13333333333	0.05625	-3.03448275862
1793	0.8965	-2.1	-8.98666666667	0.05625	-4.45
1794	0.897	-3.5375	-8.98666666667	2.95	-1.61896551724
1795	0.8975	-2.1	-4.70666666667	1.503125	-4.45
1796	0.898	0.775	-3.28	-1.390625	-5.86551724138
1797	0.8985	-4.975	1.0	0.05625	-1.61896551724
1798	0.899	-0.6625	1.0	1.503125	-3.03448275862
1799	0.8995	3.65	1.0	1.503125	-1.61896551724
1800	0.9	2.2125	9.56	-1.390625	-3.03448275862
1801	0.9005	0.775	2.42666666667	0.05625	-5.86551724138
1802	0.901	-4.975	1.0	1.503125	-4.45
1803	0.9015	-10.725	2.42666666667	2.95	-1.61896551724
1804	0.902	-12.1625	-0.426666666667	2.95	-5.86551724138
1805	0.9025	-3.5375	1.0	2.95	-3.03448275862
1806	0.903	-2.1	-0.426666666667	4.396875	-0.203448275862
1807	0.9035	-4.975	-0.426666666667	4.396875	-11.5275862069
1808	0.904	-2.1	-1.85333333333	4.396875	-7.28103448276
1809	0.9045	0.775	1.0	5.84375	-5.86551724138
1810	0.905	-2.1	1.0	1.503125	-0.203448275862
1811	0.9055	-2.1	-0.426666666667	0.05625	-0.203448275862
1812	0.906	2.2125	1.0	1.503125	1.21206896552
1813	0.9065	0.775	-0.426666666667	-10.071875	-1.61896551724
1814	0.907	-0.6625	-0.426666666667	-1.390625	2.6275862069
1815	0.9075	0.775	1.0	-7.178125	-4.45
1816	0.908	2.2125	1.0	7.290625	-1.61896551724
1817	0.9085	-0.6625	1.0	2.95	-4.45
1818	0.909	-0.6625	2.42666666667	17.41875	1.21206896552
1819	0.9095	0.775	-3.28	1.503125	-10.1120689655
1820	0.91	-2.1	1.0	-4.284375	-0.203448275862
1821	0.9105	-0.6625	1.0	-5.73125	-0.203448275862
1822	0.911	-3.5375	1.0	1.503125	1.21206896552
1823	0.9115	-0.6625	-13.2666666667	0.05625	1.21206896552
1824	0.912	3.65	13.84	1.503125	-0.203448275862
1825	0.9125	0.775	-3.28	-7.178125	-0.203448275862
1826	0.913	-0.6625	1.0	1.503125	-0.203448275862
1827	0.9135	0.775	8.13333333333	0.05625	-0.203448275862
1828	0.914	-3.5375	-7.56	1.503125	-0.203448275862
1829	0.9145	0.775	-0.426666666667	13.078125	-0.203448275862
1830	0.915	0.775	-0.426666666667	2.95	-0.203448275862
1831	0.9155	0.775	1.0	0.05625	-0.203448275862
1832	0.916	2.2125	-1.85333333333	2.95	2.6275862069
1833	0.9165	-10.725	-0.426666666667	1.503125	-0.203448275862
1834	0.917	-9.2875	1.0	0.05625	-0.203448275862
1835	0.9175	3.65	-0.426666666667	1.503125	-1.61896551724
1836	0.918	9.4	-0.426666666667	1.503125	-0.203448275862
1837	0.9185	15.15	-0.426666666667	0.05625	-4.45
1838	0.919	16.5875	1.0	0.05625	-1.61896551724
1839	0.9195	-0.6625	1.0	0.05625	1.21206896552
1840	0.92	-0.6625	1.0	1.503125	-4.45
1841	0.9205	-2.1	-0.426666666667	1.503125	-10.1120689655
1842	0.921	-0.6625	-1.85333333333	5.84375	-14.3586206897
1843	0.9215	-2.1	-1.85333333333	4.396875	-8.69655172414
1844	0.922	-0.6625	-0.426666666667	-1.390625	-3.03448275862
1845	0.9225	-2.1	-0.426666666667	0.05625	-3.03448275862
1846	0.923	0.775	1.0	-5.73125	-1.61896551724
1847	0.9235	0.775	1.0	-8.625	11.1206896552
1848	0.924	-2.1	1.0	-10.071875	9.70517241379
1849	0.9245	0.775	1.0	1.503125	-3.03448275862
1850	0.925	-0.6625	1.0	4.396875	-0.203448275862
1851	0.9255	0.775	2.42666666667	11.63125	-4.45
1852	0.926	2.2125	2.42666666667	4.396875	-7.28103448276
1853	0.9265	3.65	8.13333333333	-1.390625	-1.61896551724
1854	0.927	2.2125	5.28	1.503125	-1.61896551724
1855	0.9275	0.775	6.70666666667	17.41875	-0.203448275862
1856	0.928	0.775	6.70666666667	1.503125	-1.61896551724
1857	0.9285	0.775	1.0	-4.284375	-3.03448275862
1858	0.929	-2.1	-6.13333333333	1.503125	-1.61896551724
1859	0.9295	-0.6625	-4.70666666667	1.503125	-4.45
1860	0.93	-0.6625	-6.13333333333	0.05625	-5.86551724138
1861	0.9305	5.0875	1.0	2.95	-5.86551724138
1862	0.931	-0.6625	-8.98666666667	0.05625	-5.86551724138
1863	0.9315	-7.85	1.0	0.05625	-5.86551724138
1864	0.932	-6.4125	2.42666666667	1.503125	-3.03448275862
1865	0.9325	-3.5375	1.0	1.503125	-4.45
1866	0.933	0.775	2.42666666667	0.05625	-3.03448275862
1867	0.9335	-10.725	-0.426666666667	1.503125	-5.86551724138
1868	0.934	-6.4125	1.0	2.95	-10.1120689655
1869	0.9345	2.2125	1.0	1.503125	-5.86551724138
1870	0.935	5.0875	2.42666666667	1.503125	-1.61896551724
1871	0.9355	-10.725	1.0	2.95	-15.774137931
1872	0.936	-10.725	1.0	-1.390625	-11.5275862069
1873	0.9365	-2.1	1.0	0.05625	-4.45
1874	0.937	0.775	-0.426666666667	1.503125	-3.03448275862
1875	0.9375	-0.6625	-1.85333333333	-1.390625	-0.203448275862
1876	0.938	0.775	-0.426666666667	5.84375	-1.61896551724
1877	0.9385	0.775	-0.426666666667	2.95	-10.1120689655
1878	0.939	2.2125	1.0	-1.390625	-8.69655172414
1879	0.9395	-0.6625	-3.28	-10.071875	-3.03448275862
1880	0.94	-0.6625	-1.85333333333	-8.625	-3.03448275862
1881	0.9405	-0.6625	-0.426666666667	1.503125	-0.203448275862
1882	0.941	-3.5375	-3.28	2.95	-3.03448275862
1883	0.9415	-0.6625	1.0	5.84375	-5.86551724138
1884	0.942	-4.975	1.0	2.95	-7.28103448276
1885	0.9425	-2.1	1.0	1.503125	-4.45
1886	0.943	-0.6625	1.0	0.05625	-1.61896551724
1887	0.9435	-0.6625	3.85333333333	11.63125	-11.5275862069
1888	0.944	-2.1	1.0	-1.390625	-1.61896551724
1889	0.9445	0.775	1.0	0.05625	-1.61896551724
1890	0.945	2.2125	-1.85333333333	-1.390625	-1.61896551724
1891	0.9455	0.775	16.6933333333	1.503125	-1.61896551724
1892	0.946	2.2125	16.6933333333	0.05625	-1.61896551724
1893	0.9465	0.775	18.12	0.05625	-1.61896551724
1894	0.947	0.775	10.9866666667	0.05625	-1.61896551724
1895	0.9475	2.2125	-3.28	0.05625	-4.45
1896	0.948	-0.6625	-4.70666666667	1.503125	-3.03448275862
1897	0.9485	-4.975	1.0	0.05625	-0.203448275862
1898	0.949	-9.2875	-0.426666666667	-1.390625	-1.61896551724
1899	0.9495	-4.975	-1.85333333333	1.503125	-3.03448275862
1900	0.95	10.8375	-1.85333333333	1.503125	-0.203448275862
1901	0.9505	18.025	-1.85333333333	1.503125	-3.03448275862
1902	0.951	18.025	1.0	0.05625	-3.03448275862
1903	0.9515	-3.5375	-1.85333333333	2.95	-8.69655172414
1904	0.952	-3.5375	-0.426666666667	2.95	-10.1120689655
1905	0.9525	-6.4125	-0.426666666667	1.503125	-3.03448275862
1906	0.953	-4.975	-1.85333333333	4.396875	-12.9431034483
1907	0.9535	-4.975	-0.426666666667	2.95	-11.5275862069
1908	0.954	0.775	1.0	5.84375	-12.9431034483
1909	0.9545	0.775	3.85333333333	2.95	-7.28103448276
1910	0.955	-0.6625	-0.426666666667	2.95	-5.86551724138
1911	0.9555	-3.5375	1.0	1.503125	-5.86551724138
1912	0.956	-2.1	2.42666666667	-2.8375	-3.03448275862
1913	0.9565	-3.5375	1.0	-1.390625	5.45862068966
1914	0.957	-0.6625	-0.426666666667	-5.73125	-0.203448275862
1915	0.9575	-2.1	2.42666666667	18.865625	-0.203448275862
1916	0.958	-2.1	3.85333333333	-1.390625	1.21206896552
1917	0.9585	-3.5375	1.0	-2.8375	-1.61896551724
1918	0.959	-0.6625	1.0	-7.178125	-3.03448275862
1919	0.9595	-0.6625	-0.426666666667	-1.390625	6.87413793103
1920	0.96	-3.5375	-10.4133333333	1.503125	-3.03448275862
1921	0.9605	-2.1	-13.2666666667	4.396875	-4.45
1922	0.961	-2.1	-7.56	0.05625	-3.03448275862
1923	0.9615	0.775	9.56	0.05625	-3.03448275862
1924	0.962	0.775	6.70666666667	1.503125	-1.61896551724
1925	0.9625	-0.6625	-3.28	0.05625	-4.45
1926	0.963	-4.975	-8.98666666667	2.95	-3.03448275862
1927	0.9635	-4.975	-7.56	-1.390625	-3.03448275862
1928	0.964	-4.975	-7.56	1.503125	-3.03448275862
1929	0.9645	0.775	-1.85333333333	2.95	-1.61896551724
1930	0.965	0.775	-1.85333333333	2.95	-0.203448275862
1931	0.9655	-2.1	-4.70666666667	-1.390625	-3.03448275862
1932	0.966	-0.6625	1.0	2.95	-4.45
1933	0.9665	-6.4125	1.0	1.503125	-5.86551724138
1934	0.967	-10.725	-0.426666666667	2.95	-3.03448275862
1935	0.9675	-12.1625	2.42666666667	-1.390625	-3.03448275862
1936	0.968	18.025	-0.426666666667	0.05625	-3.03448275862
1937	0.9685	-3.5375	1.0	1.503125	-12.9431034483
1938	0.969	-6.4125	-0.426666666667	1.503125	-12.9431034483
1939	0.9695	-12.1625	2.42666666667	0.05625	-11.5275862069
1940	0.97	-3.5375	1.0	2.95	-3.03448275862
1941	0.9705	-7.85	1.0	2.95	-15.774137931
1942	0.971	0.775	2.42666666667	1.503125	-3.03448275862
1943	0.9715	-0.6625	-0.426666666667	-1.390625	8.28965517241
1944	0.972	-0.6625	1.0	-1.390625	9.70517241379
1945	0.9725	-0.6625	1.0	0.05625	-5.86551724138
1946	0.973	-2.1	2.42666666667	0.05625	2.6275862069
1947	0.9735	-0.6625	-0.426666666667	-1.390625	9.70517241379
1948	0.974	0.775	2.42666666667	-11.51875	-3.03448275862
1949	0.9745	0.775	2.42666666667	1.503125	12.5362068966
1950	0.975	0.775	2.42666666667	-10.071875	-5.86551724138
1951	0.9755	-4.975	1.0	5.84375	-3.03448275862
1952	0.976	-2.1	1.0	1.503125	-1.61896551724
1953	0.9765	-0.6625	1.0	-5.73125	-3.03448275862
1954	0.977	-0.6625	-0.426666666667	-7.178125	-1.61896551724
1955	0.9775	0.775	1.0	4.396875	9.70517241379
1956	0.978	0.775	1.0	4.396875	-1.61896551724
1957	0.9785	-2.1	-1.85333333333	1.503125	-3.03448275862
1958	0.979	-0.6625	2.42666666667	17.41875	-3.03448275862
1959	0.9795	-0.6625	3.85333333333	18.865625	-1.61896551724
1960	0.98	3.65	9.56	-1.390625	-3.03448275862
1961	0.9805	-0.6625	1.0	-4.284375	-4.45
1962	0.981	0.775	3.85333333333	2.95	-3.03448275862
1963	0.9815	-3.5375	-1.85333333333	-1.390625	-1.61896551724
1964	0.982	-3.5375	-6.13333333333	2.95	-1.61896551724
1965	0.9825	-2.1	-11.84	-7.178125	-1.61896551724
1966	0.983	-12.1625	-0.426666666667	0.05625	-3.03448275862
1967	0.9835	-6.4125	-0.426666666667	-1.390625	-3.03448275862
1968	0.984	-2.1	1.0	0.05625	-1.61896551724
1969	0.9845	-7.85	1.0	0.05625	-5.86551724138
1970	0.985	-10.725	2.42666666667	2.95	-3.03448275862
1971	0.9855	-12.1625	2.42666666667	2.95	-3.03448275862
1972	0.986	3.65	1.0	2.95	-1.61896551724
1973	0.9865	15.15	1.0	1.503125	-1.61896551724
1974	0.987	-9.2875	-0.426666666667	1.503125	-7.28103448276
1975	0.9875	-9.2875	-0.426666666667	0.05625	-5.86551724138
1976	0.988	-2.1	1.0	-1.390625	15.3672413793
1977	0.9885	-0.6625	-0.426666666667	0.05625	1.21206896552
1978	0.989	-2.1	1.0	-1.390625	8.28965517241
1979	0.9895	-0.6625	-0.426666666667	4.396875	-1.61896551724
1980	0.99	-0.6625	1.0	1.503125	4.04310344828
1981	0.9905	-3.5375	-0.426666666667	-4.284375	-4.45
1982	0.991	-2.1	-0.426666666667	-8.625	-0.203448275862
1983	0.9915	-2.1	-1.85333333333	2.95	-1.61896551724
1984	0.992	-2.1	-0.426666666667	-2.8375	-3.03448275862
1985	0.9925	-3.5375	-1.85333333333	2.95	-0.203448275862
1986	0.993	-0.6625	1.0	7.290625	-1.61896551724
1987	0.9935	-2.1	-0.426666666667	1.503125	-0.203448275862
1988	0.994	-3.5375	2.42666666667	0.05625	-1.61896551724
1989	0.9945	-3.5375	1.0	1.503125	1.21206896552
1990	0.995	-2.1	1.0	1.503125	-0.203448275862
1991	0.9955	-0.6625	2.42666666667	2.95	-8.69655172414
1992	0.996	-2.1	13.84	0.05625	-4.45
1993	0.9965	-2.1	6.70666666667	0.05625	-0.203448275862
1994	0.997	-0.6625	-0.426666666667	0.05625	-3.03448275862
1995	0.9975	0.775	9.56	2.95	-4.45
1996	0.998	0.775	16.6933333333	-1.390625	-0.203448275862
1997	0.9985	0.775	16.6933333333	1.503125	-1.61896551724
1998	0.999	-0.6625	-4.70666666667	0.05625	-1.61896551724
1999	0.9995	0.775	-7.56	2.95	-0.203448275862
2000	1.0	2.2125	-0.426666666667	1.503125	1.21206896552
2001	1.0005	2.2125	1.0	-1.390625	-4.45
2002	1.001	3.65	-1.85333333333	1.503125	-3.03448275862
2003	1.0015	3.65	-4.70666666667	1.503125	-3.03448275862
2004	1.002	7.9625	-0.426666666667	-1.390625	-4.45
2005	1.0025	5.0875	1.0	0.05625	1.21206896552
2006	1.003	15.15	-1.85333333333	0.05625	-0.203448275862
2007	1.0035	16.5875	-0.426666666667	0.05625	-0.203448275862
2008	1.004	10.8375	-0.426666666667	1.503125	-1.61896551724
2009	1.0045	-4.975	-1.85333333333	0.05625	-11.5275862069
2010	1.005	-7.85	-1.85333333333	4.396875	-11.5275862069
2011	1.0055	-3.5375	-1.85333333333	-1.390625	-12.9431034483
2012	1.006	-3.5375	1.0	-2.8375	12.5362068966
2013	1.0065	-4.975	-1.85333333333	2.95	12.5362068966
2014	1.007	-2.1	-0.426666666667	1.503125	8.28965517241
2015	1.0075	-2.1	1.0	-4.284375	-3.03448275862
2016	1.008	-2.1	-0.426666666667	-2.8375	-4.45
2017	1.0085	0.775	2.42666666667	1.503125	-0.203448275862
2018	1.009	-0.6625	-0.426666666667	2.95	-7.28103448276
2019	1.0095	0.775	-0.426666666667	20.3125	-3.03448275862
2020	1.01	-3.5375	1.0	4.396875	-11.5275862069
2021	1.0105	-0.6625	1.0	15.971875	-3.03448275862
2022	1.011	0.775	1.0	4.396875	-12.9431034483
2023	1.0115	-0.6625	1.0	-2.8375	-4.45
2024	1.012	2.2125	1.0	-4.284375	-3.03448275862
2025	1.0125	2.2125	1.0	0.05625	-1.61896551724
2026	1.013	0.775	-6.13333333333	0.05625	-5.86551724138
2027	1.0135	0.775	-8.98666666667	0.05625	-5.86551724138
2028	1.014	-2.1	-6.13333333333	1.503125	-3.03448275862
2029	1.0145	0.775	-6.13333333333	1.503125	-5.86551724138
2030	1.015	0.775	-0.426666666667	-5.73125	-3.03448275862
2031	1.0155	-2.1	-10.4133333333	1.503125	-4.45
2032	1.016	0.775	-6.13333333333	2.95	-0.203448275862
2033	1.0165	-0.6625	-4.70666666667	1.503125	-3.03448275862
2034	1.017	-4.975	-7.56	1.503125	-4.45
2035	1.0175	-12.1625	1.0	2.95	-5.86551724138
2036	1.018	-10.725	2.42666666667	4.396875	-1.61896551724
2037	1.0185	13.7125	-0.426666666667	2.95	-4.45
2038	1.019	6.525	1.0	2.95	-8.69655172414
2039	1.0195	3.65	1.0	2.95	-5.86551724138
2040	1.02	-2.1	1.0	4.396875	-3.03448275862
2041	1.0205	-7.85	1.0	1.503125	-10.1120689655
2042	1.021	-9.2875	-0.426666666667	1.503125	-4.45
2043	1.0215	-7.85	2.42666666667	1.503125	-7.28103448276
2044	1.022	0.775	1.0	0.05625	-0.203448275862
2045	1.0225	0.775	2.42666666667	2.95	-7.28103448276
2046	1.023	2.2125	1.0	1.503125	6.87413793103
2047	1.0235	0.775	1.0	2.95	6.87413793103
2048	1.024	-0.6625	-0.426666666667	-10.071875	-4.45
2049	1.0245	0.775	1.0	0.05625	-3.03448275862
2050	1.025	0.775	1.0	-11.51875	-3.03448275862
2051	1.0255	-3.5375	-1.85333333333	-2.8375	-3.03448275862
2052	1.026	0.775	1.0	-2.8375	-0.203448275862
2053	1.0265	-2.1	-1.85333333333	0.05625	-1.61896551724
2054	1.027	-0.6625	1.0	-1.390625	8.28965517241
2055	1.0275	0.775	-1.85333333333	2.95	-3.03448275862
2056	1.028	0.775	1.0	-1.390625	-5.86551724138
2057	1.0285	2.2125	2.42666666667	23.20625	-11.5275862069
2058	1.029	0.775	5.28	4.396875	-4.45
2059	1.0295	0.775	6.70666666667	2.95	-1.61896551724
2060	1.03	0.775	3.85333333333	-2.8375	-3.03448275862
2061	1.0305	2.2125	-4.70666666667	1.503125	-1.61896551724
2062	1.031	-0.6625	-8.98666666667	0.05625	-0.203448275862
2063	1.0315	-3.5375	-4.70666666667	1.503125	-1.61896551724
2064	1.032	-0.6625	-1.85333333333	0.05625	-0.203448275862
2065	1.0325	-0.6625	-1.85333333333	0.05625	-0.203448275862
2066	1.033	2.2125	-3.28	1.503125	-0.203448275862
2067	1.0335	-9.2875	2.42666666667	0.05625	-0.203448275862
2068	1.034	-12.1625	1.0	4.396875	-1.61896551724
2069	1.0345	-10.725	1.0	0.05625	1.21206896552
2070	1.035	-7.85	-3.28	1.503125	-0.203448275862
2071	1.0355	3.65	1.0	1.503125	1.21206896552
2072	1.036	16.5875	1.0	2.95	1.21206896552
2073	1.0365	19.4625	1.0	0.05625	-0.203448275862
2074	1.037	22.3375	1.0	0.05625	-0.203448275862
2075	1.0375	0.775	1.0	0.05625	1.21206896552
2076	1.038	0.775	1.0	0.05625	5.45862068966
2077	1.0385	0.775	1.0	2.95	-0.203448275862
2078	1.039	-0.6625	1.0	1.503125	2.6275862069
2079	1.0395	-0.6625	-0.426666666667	-2.8375	-3.03448275862
2080	1.04	0.775	1.0	-2.8375	-3.03448275862
2081	1.0405	0.775	-1.85333333333	4.396875	-5.86551724138
2082	1.041	-0.6625	1.0	7.290625	-3.03448275862
2083	1.0415	2.2125	1.0	4.396875	-1.61896551724
2084	1.042	0.775	1.0	-1.390625	-0.203448275862
2085	1.0425	0.775	2.42666666667	-2.8375	-0.203448275862
2086	1.043	2.2125	2.42666666667	-1.390625	-0.203448275862
2087	1.0435	0.775	3.85333333333	-2.8375	-0.203448275862
2088	1.044	-3.5375	3.85333333333	1.503125	-3.03448275862
2089	1.0445	0.775	-4.70666666667	4.396875	-1.61896551724
2090	1.045	3.65	16.6933333333	-1.390625	-0.203448275862
2091	1.0455	0.775	16.6933333333	4.396875	-3.03448275862
2092	1.046	2.2125	19.5466666667	1.503125	-7.28103448276
2093	1.0465	5.0875	20.9733333333	0.05625	-3.03448275862
2094	1.047	5.0875	18.12	0.05625	-3.03448275862
2095	1.0475	7.9625	-0.426666666667	0.05625	-1.61896551724
2096	1.048	0.775	-3.28	0.05625	-0.203448275862
2097	1.0485	0.775	-6.13333333333	1.503125	-1.61896551724
2098	1.049	-10.725	1.0	2.95	-3.03448275862
2099	1.0495	-12.1625	-8.98666666667	1.503125	-1.61896551724
2100	1.05	-10.725	1.0	1.503125	1.21206896552
2101	1.0505	-6.4125	2.42666666667	1.503125	-0.203448275862
2102	1.051	12.275	-1.85333333333	0.05625	1.21206896552
2103	1.0515	12.275	-0.426666666667	1.503125	-0.203448275862
2104	1.052	18.025	-0.426666666667	0.05625	1.21206896552
2105	1.0525	-2.1	1.0	1.503125	5.45862068966
2106	1.053	-2.1	1.0	1.503125	-0.203448275862
2107	1.0535	0.775	1.0	1.503125	-5.86551724138
2108	1.054	-6.4125	1.0	0.05625	-0.203448275862
2109	1.0545	0.775	1.0	5.84375	-5.86551724138
2110	1.055	0.775	1.0	1.503125	-3.03448275862
2111	1.0555	0.775	1.0	0.05625	-0.203448275862
2112	1.056	2.2125	2.42666666667	-4.284375	-0.203448275862
2113	1.0565	-0.6625	2.42666666667	-8.625	-0.203448275862
2114	1.057	-0.6625	-0.426666666667	-1.390625	-0.203448275862
2115	1.0575	-2.1	-0.426666666667	1.503125	-1.61896551724
2116	1.058	-0.6625	1.0	4.396875	-0.203448275862
2117	1.0585	-2.1	1.0	-7.178125	-3.03448275862
2118	1.059	-0.6625	-0.426666666667	2.95	-3.03448275862
2119	1.0595	2.2125	3.85333333333	1.503125	-0.203448275862
2120	1.06	-0.6625	3.85333333333	2.95	1.21206896552
2121	1.0605	-2.1	2.42666666667	14.525	-7.28103448276
2122	1.061	-2.1	8.13333333333	2.95	-0.203448275862
2123	1.0615	-0.6625	2.42666666667	-1.390625	-1.61896551724
2124	1.062	-3.5375	-6.13333333333	-5.73125	-1.61896551724
2125	1.0625	-0.6625	-7.56	0.05625	-1.61896551724
2126	1.063	2.2125	18.12	0.05625	-1.61896551724
2127	1.0635	5.0875	1.0	0.05625	-0.203448275862
2128	1.064	0.775	-1.85333333333	1.503125	-0.203448275862
2129	1.0645	2.2125	-6.13333333333	1.503125	-0.203448275862
2130	1.065	2.2125	-6.13333333333	1.503125	-0.203448275862
2131	1.0655	-2.1	-0.426666666667	1.503125	-3.03448275862
2132	1.066	-4.975	-1.85333333333	0.05625	-3.03448275862
2133	1.0665	-7.85	1.0	4.396875	-1.61896551724
2134	1.067	-10.725	1.0	0.05625	-1.61896551724
2135	1.0675	19.4625	1.0	2.95	-3.03448275862
2136	1.068	-6.4125	-0.426666666667	4.396875	-4.45
2137	1.0685	-2.1	1.0	1.503125	-1.61896551724
2138	1.069	0.775	1.0	2.95	2.6275862069
2139	1.0695	9.4	-0.426666666667	0.05625	1.21206896552
2140	1.07	-0.6625	-0.426666666667	1.503125	19.6137931034
2141	1.0705	-0.6625	2.42666666667	4.396875	-5.86551724138
2142	1.071	2.2125	-0.426666666667	4.396875	-0.203448275862
2143	1.0715	0.775	1.0	-1.390625	5.45862068966
2144	1.072	-3.5375	1.0	0.05625	-0.203448275862
2145	1.0725	0.775	1.0	-4.284375	1.21206896552
2146	1.073	-0.6625	1.0	-5.73125	-0.203448275862
2147	1.0735	-0.6625	1.0	2.95	5.45862068966
2148	1.074	2.2125	-3.28	-4.284375	2.6275862069
2149	1.0745	2.2125	-0.426666666667	-4.284375	2.6275862069
2150	1.075	-3.5375	1.0	-1.390625	1.21206896552
2151	1.0755	-0.6625	2.42666666667	-1.390625	-0.203448275862
2152	1.076	-0.6625	1.0	-1.390625	2.6275862069
2153	1.0765	-0.6625	1.0	-1.390625	4.04310344828
2154	1.077	-0.6625	-1.85333333333	-4.284375	1.21206896552
2155	1.0775	-2.1	-10.4133333333	2.95	1.21206896552
2156	1.078	0.775	18.12	1.503125	-0.203448275862
2157	1.0785	-0.6625	6.70666666667	-1.390625	2.6275862069
2158	1.079	-0.6625	-4.70666666667	1.503125	1.21206896552
2159	1.0795	0.775	-7.56	0.05625	1.21206896552
2160	1.08	0.775	-1.85333333333	0.05625	1.21206896552
2161	1.0805	3.65	-1.85333333333	5.84375	2.6275862069
2162	1.081	0.775	-0.426666666667	1.503125	1.21206896552
2163	1.0815	2.2125	10.9866666667	0.05625	-0.203448275862
2164	1.082	0.775	-1.85333333333	2.95	-1.61896551724
2165	1.0825	-6.4125	-0.426666666667	0.05625	-0.203448275862
2166	1.083	19.4625	-0.426666666667	2.95	-0.203448275862
2167	1.0835	-10.725	-1.85333333333	2.95	-4.45
2168	1.084	-0.6625	-1.85333333333	-1.390625	-1.61896551724
2169	1.0845	-3.5375	-0.426666666667	1.503125	-0.203448275862
2170	1.085	-3.5375	-1.85333333333	2.95	-7.28103448276
2171	1.0855	-4.975	1.0	2.95	-10.1120689655
2172	1.086	0.775	-0.426666666667	4.396875	-5.86551724138
2173	1.0865	-0.6625	-0.426666666667	2.95	-4.45
2174	1.087	-0.6625	-1.85333333333	2.95	-7.28103448276
2175	1.0875	0.775	-1.85333333333	1.503125	4.04310344828
2176	1.088	-2.1	-1.85333333333	1.503125	-5.86551724138
2177	1.0885	-0.6625	-1.85333333333	-4.284375	-0.203448275862
2178	1.089	-3.5375	-0.426666666667	-7.178125	-0.203448275862
2179	1.0895	-0.6625	-3.28	-1.390625	1.21206896552
2180	1.09	-3.5375	-1.85333333333	-5.73125	1.21206896552
2181	1.0905	-3.5375	-1.85333333333	2.95	1.21206896552
2182	1.091	0.775	-3.28	7.290625	-4.45
2183	1.0915	0.775	-0.426666666667	13.078125	-8.69655172414
2184	1.092	0.775	3.85333333333	-1.390625	-0.203448275862
2185	1.0925	-2.1	2.42666666667	17.41875	-1.61896551724
2186	1.093	-0.6625	2.42666666667	0.05625	-1.61896551724
2187	1.0935	0.775	1.0	0.05625	1.21206896552
2188	1.094	0.775	2.42666666667	0.05625	1.21206896552
2189	1.0945	-2.1	-10.4133333333	0.05625	-1.61896551724
2190	1.095	-2.1	-10.4133333333	0.05625	-0.203448275862
2191	1.0955	-3.5375	-7.56	1.503125	-1.61896551724
2192	1.096	-2.1	-7.56	0.05625	-1.61896551724
2193	1.0965	0.775	-3.28	-1.390625	-1.61896551724
2194	1.097	-0.6625	-6.13333333333	1.503125	-1.61896551724
2195	1.0975	-0.6625	1.0	0.05625	1.21206896552
2196	1.098	0.775	-1.85333333333	-1.390625	-0.203448275862
2197	1.0985	3.65	-0.426666666667	2.95	-1.61896551724
2198	1.099	-10.725	-1.85333333333	2.95	1.21206896552
2199	1.0995	10.8375	-0.426666666667	0.05625	-3.03448275862
2200	1.1	0.775	-0.426666666667	1.503125	-3.03448275862
2201	1.1005	-0.6625	-4.70666666667	1.503125	-3.03448275862
2202	1.101	-10.725	1.0	4.396875	-11.5275862069
2203	1.1015	-10.725	1.0	0.05625	-11.5275862069
2204	1.102	-9.2875	-0.426666666667	1.503125	-0.203448275862
2205	1.1025	-4.975	1.0	0.05625	-3.03448275862
2206	1.103	-4.975	-0.426666666667	1.503125	-10.1120689655
2207	1.1035	-2.1	-0.426666666667	2.95	-7.28103448276
2208	1.104	0.775	-0.426666666667	4.396875	-3.03448275862
2209	1.1045	-0.6625	1.0	0.05625	1.21206896552
2210	1.105	2.2125	-1.85333333333	2.95	-5.86551724138
2211	1.1055	0.775	-0.426666666667	0.05625	9.70517241379
2212	1.106	-2.1	-1.85333333333	-1.390625	1.21206896552
2213	1.1065	-2.1	-0.426666666667	17.41875	2.6275862069
2214	1.107	-2.1	2.42666666667	-1.390625	6.87413793103
2215	1.1075	-2.1	-1.85333333333	-4.284375	-0.203448275862
2216	1.108	-0.6625	-0.426666666667	0.05625	1.21206896552
2217	1.1085	-0.6625	1.0	-1.390625	-0.203448275862
2218	1.109	-2.1	2.42666666667	-2.8375	-1.61896551724
2219	1.1095	-2.1	1.0	-4.284375	-0.203448275862
2220	1.11	-3.5375	-0.426666666667	-5.73125	-0.203448275862
2221	1.1105	0.775	-10.4133333333	1.503125	1.21206896552
2222	1.111	-2.1	-8.98666666667	0.05625	-0.203448275862
2223	1.1115	-2.1	-7.56	-2.8375	-0.203448275862
2224	1.112	-2.1	-0.426666666667	-4.284375	-1.61896551724
2225	1.1125	-2.1	-6.13333333333	1.503125	-1.61896551724
2226	1.113	-2.1	-6.13333333333	2.95	-0.203448275862
2227	1.1135	-3.5375	-6.13333333333	-1.390625	-3.03448275862
2228	1.114	-0.6625	-7.56	2.95	-1.61896551724
2229	1.1145	-3.5375	-4.70666666667	-5.73125	-1.61896551724
2230	1.115	-10.725	-0.426666666667	1.503125	-3.03448275862
2231	1.1155	-13.6	-1.85333333333	2.95	-1.61896551724
2232	1.116	-15.0375	-1.85333333333	0.05625	-1.61896551724
2233	1.1165	-13.6	-1.85333333333	4.396875	1.21206896552
2234	1.117	3.65	-0.426666666667	4.396875	4.04310344828
2235	1.1175	-6.4125	-1.85333333333	4.396875	4.04310344828
2236	1.118	-9.2875	-0.426666666667	5.84375	-11.5275862069
2237	1.1185	-10.725	-0.426666666667	2.95	-8.69655172414
2238	1.119	-7.85	-0.426666666667	2.95	-5.86551724138
2239	1.1195	-4.975	1.0	4.396875	-3.03448275862
2240	1.12	-0.6625	-1.85333333333	0.05625	12.5362068966
2241	1.1205	-0.6625	-1.85333333333	-1.390625	15.3672413793
2242	1.121	-2.1	-1.85333333333	-1.390625	15.3672413793
2243	1.1215	-0.6625	1.0	-8.625	-3.03448275862
2244	1.122	-3.5375	1.0	1.503125	-3.03448275862
2245	1.1225	-0.6625	-0.426666666667	4.396875	-11.5275862069
2246	1.123	0.775	-1.85333333333	5.84375	-14.3586206897
2247	1.1235	0.775	-0.426666666667	13.078125	-4.45
2248	1.124	-2.1	-0.426666666667	-2.8375	-7.28103448276
2249	1.1245	0.775	-0.426666666667	2.95	-11.5275862069
2250	1.125	0.775	1.0	11.63125	-5.86551724138
2251	1.1255	-2.1	1.0	-2.8375	-5.86551724138
2252	1.126	-2.1	2.42666666667	7.290625	-3.03448275862
2253	1.1265	-2.1	2.42666666667	-1.390625	-1.61896551724
2254	1.127	0.775	-0.426666666667	-1.390625	-1.61896551724
2255	1.1275	-0.6625	-4.70666666667	0.05625	-5.86551724138
2256	1.128	0.775	-3.28	-4.284375	-4.45
2257	1.1285	2.2125	-6.13333333333	1.503125	-7.28103448276
2258	1.129	0.775	16.6933333333	1.503125	-3.03448275862
2259	1.1295	0.775	15.2666666667	2.95	-1.61896551724
2260	1.13	0.775	1.0	1.503125	-0.203448275862
2261	1.1305	3.65	2.42666666667	0.05625	-0.203448275862
2262	1.131	5.0875	2.42666666667	-1.390625	-0.203448275862
2263	1.1315	-12.1625	2.42666666667	-1.390625	-1.61896551724
2264	1.132	-13.6	1.0	-2.8375	-1.61896551724
2265	1.1325	-13.6	-0.426666666667	-1.390625	-1.61896551724
2266	1.133	-4.975	1.0	1.503125	-5.86551724138
2267	1.1335	-9.2875	2.42666666667	0.05625	-5.86551724138
2268	1.134	-4.975	2.42666666667	0.05625	-5.86551724138
2269	1.1345	-2.1	-1.85333333333	2.95	-1.61896551724
2270	1.135	6.525	1.0	-1.390625	-1.61896551724
2271	1.1355	0.775	-0.426666666667	-1.390625	15.3672413793
2272	1.136	-0.6625	1.0	0.05625	13.9517241379
2273	1.1365	-0.6625	-0.426666666667	0.05625	11.1206896552
2274	1.137	-2.1	1.0	1.503125	-0.203448275862
2275	1.1375	-0.6625	-0.426666666667	-5.73125	-5.86551724138
2276	1.138	-2.1	1.0	-2.8375	-5.86551724138
2277	1.1385	-2.1	2.42666666667	2.95	-0.203448275862
2278	1.139	-0.6625	-0.426666666667	15.971875	1.21206896552
2279	1.1395	-3.5375	2.42666666667	18.865625	2.6275862069
2280	1.14	0.775	1.0	2.95	-10.1120689655
2281	1.1405	0.775	1.0	15.971875	1.21206896552
2282	1.141	-0.6625	1.0	2.95	-0.203448275862
2283	1.1415	-0.6625	-1.85333333333	11.63125	1.21206896552
2284	1.142	-2.1	1.0	-1.390625	-0.203448275862
2285	1.1425	-0.6625	1.0	4.396875	-0.203448275862
2286	1.143	0.775	1.0	4.396875	-1.61896551724
2287	1.1435	0.775	19.5466666667	0.05625	-0.203448275862
2288	1.144	-0.6625	16.6933333333	4.396875	-1.61896551724
2289	1.1445	0.775	10.9866666667	1.503125	-0.203448275862
2290	1.145	0.775	2.42666666667	13.078125	-3.03448275862
2291	1.1455	0.775	-6.13333333333	0.05625	-1.61896551724
2292	1.146	-3.5375	-6.13333333333	0.05625	-0.203448275862
2293	1.1465	-2.1	-7.56	2.95	-0.203448275862
2294	1.147	-2.1	-7.56	0.05625	-0.203448275862
2295	1.1475	-12.1625	-0.426666666667	4.396875	-0.203448275862
2296	1.148	-10.725	-0.426666666667	2.95	1.21206896552
2297	1.1485	-9.2875	-0.426666666667	2.95	-0.203448275862
2298	1.149	-7.85	-0.426666666667	-1.390625	-0.203448275862
2299	1.1495	3.65	1.0	0.05625	-1.61896551724
2300	1.15	9.4	-0.426666666667	4.396875	-1.61896551724
2301	1.1505	12.275	-0.426666666667	1.503125	-0.203448275862
2302	1.151	13.7125	1.0	1.503125	-0.203448275862
2303	1.1515	-12.1625	1.0	1.503125	-1.61896551724
2304	1.152	-0.6625	1.0	1.503125	8.28965517241
2305	1.1525	-3.5375	1.0	1.503125	-3.03448275862
2306	1.153	-2.1	1.0	2.95	-0.203448275862
2307	1.1535	-0.6625	1.0	2.95	-7.28103448276
2308	1.154	-0.6625	1.0	2.95	-1.61896551724
2309	1.1545	-2.1	-0.426666666667	4.396875	-7.28103448276
2310	1.155	0.775	1.0	0.05625	-11.5275862069
2311	1.1555	-0.6625	1.0	8.7375	-0.203448275862
2312	1.156	-2.1	1.0	1.503125	1.21206896552
2313	1.1565	-0.6625	1.0	2.95	-0.203448275862
2314	1.157	0.775	1.0	-1.390625	4.04310344828
2315	1.1575	-0.6625	1.0	-7.178125	-3.03448275862
2316	1.158	0.775	-0.426666666667	-5.73125	-1.61896551724
2317	1.1585	-0.6625	2.42666666667	0.05625	1.21206896552
2318	1.159	-3.5375	3.85333333333	0.05625	-0.203448275862
2319	1.1595	-3.5375	2.42666666667	-1.390625	-0.203448275862
2320	1.16	-2.1	8.13333333333	-1.390625	-0.203448275862
2321	1.1605	0.775	8.13333333333	4.396875	1.21206896552
2322	1.161	-0.6625	5.28	0.05625	-3.03448275862
2323	1.1615	-2.1	3.85333333333	4.396875	-0.203448275862
2324	1.162	-2.1	8.13333333333	4.396875	-0.203448275862
2325	1.1625	0.775	9.56	1.503125	-1.61896551724
2326	1.163	-3.5375	-0.426666666667	2.95	-3.03448275862
2327	1.1635	-0.6625	1.0	4.396875	-0.203448275862
2328	1.164	0.775	1.0	2.95	-4.45
2329	1.1645	2.2125	1.0	2.95	-3.03448275862
2330	1.165	0.775	16.6933333333	2.95	-3.03448275862
2331	1.1655	18.025	1.0	2.95	-1.61896551724
2332	1.166	19.4625	-1.85333333333	4.396875	-0.203448275862
2333	1.1665	16.5875	1.0	2.95	-4.45
2334	1.167	16.5875	-1.85333333333	4.396875	-5.86551724138
2335	1.1675	-4.975	-0.426666666667	2.95	-7.28103448276
2336	1.168	-4.975	1.0	4.396875	-11.5275862069
2337	1.1685	-7.85	-0.426666666667	1.503125	-12.9431034483
2338	1.169	0.775	1.0	0.05625	-14.3586206897
2339	1.1695	0.775	-0.426666666667	4.396875	-4.45
