	Time	Channel 1	Channel 2	Channel 3	Channel 4
0	0.0	-0.690625	11.0790697674	-0.1	1.04430379747
1	0.0005	0.75625	9.64186046512	-0.1	-6.06329113924
2	0.001	0.75625	8.20465116279	-1.55555555556	1.04430379747
3	0.0015	-2.1375	12.5162790698	7.17777777778	-6.06329113924
4	0.002	12.33125	9.64186046512	1.35555555556	-4.6417721519
5	0.0025	2.203125	11.0790697674	-1.55555555556	-7.48481012658
6	0.003	0.75625	13.9534883721	8.63333333333	-4.6417721519
7	0.0035	-2.1375	11.0790697674	-8.83333333333	-7.48481012658
8	0.004	-0.690625	13.9534883721	-8.83333333333	-8.90632911392
9	0.0045	-5.03125	8.20465116279	-1.55555555556	-7.48481012658
10	0.005	-2.1375	6.76744186047	-0.1	-14.5924050633
11	0.0055	-2.1375	8.20465116279	-1.55555555556	-13.1708860759
12	0.006	3.65	6.76744186047	-1.55555555556	-6.06329113924
13	0.0065	-2.1375	1.01860465116	-0.1	-4.6417721519
14	0.007	2.203125	6.76744186047	-1.55555555556	-7.48481012658
15	0.0075	2.203125	5.33023255814	-4.46666666667	-6.06329113924
16	0.008	-2.1375	26.888372093	-0.1	-6.06329113924
17	0.0085	-12.265625	11.0790697674	-0.1	-3.22025316456
18	0.009	-3.584375	8.20465116279	-1.55555555556	-10.3278481013
19	0.0095	-10.81875	9.64186046512	-0.1	-7.48481012658
20	0.01	-5.03125	9.64186046512	1.35555555556	-6.06329113924
21	0.0105	-7.925	9.64186046512	1.35555555556	-4.6417721519
22	0.011	9.4375	11.0790697674	-0.1	-3.22025316456
23	0.0115	19.565625	3.89302325581	-0.1	-6.06329113924
24	0.012	-3.584375	13.9534883721	2.81111111111	-17.435443038
25	0.0125	-7.925	11.0790697674	-0.1	-6.06329113924
26	0.013	-7.925	9.64186046512	-1.55555555556	-7.48481012658
27	0.0135	0.75625	11.0790697674	-1.55555555556	-1.79873417722
28	0.014	0.75625	13.9534883721	1.35555555556	-8.90632911392
29	0.0145	0.75625	6.76744186047	-0.1	-14.5924050633
30	0.015	-0.690625	11.0790697674	-1.55555555556	-11.7493670886
31	0.0155	-0.690625	9.64186046512	1.35555555556	-1.79873417722
32	0.016	0.75625	8.20465116279	-10.2888888889	9.57341772152
33	0.0165	-2.1375	6.76744186047	-1.55555555556	-4.6417721519
34	0.017	0.75625	8.20465116279	-4.46666666667	-6.06329113924
35	0.0175	-0.690625	9.64186046512	20.2777777778	-6.06329113924
36	0.018	-0.690625	9.64186046512	-0.1	-7.48481012658
37	0.0185	2.203125	9.64186046512	15.9111111111	-4.6417721519
38	0.019	0.75625	8.20465116279	-7.37777777778	-6.06329113924
39	0.0195	-3.584375	9.64186046512	2.81111111111	-6.06329113924
40	0.02	-0.690625	11.0790697674	15.9111111111	-11.7493670886
41	0.0205	2.203125	9.64186046512	-3.01111111111	-4.6417721519
42	0.021	0.75625	6.76744186047	-0.1	-4.6417721519
43	0.0215	2.203125	13.9534883721	-3.01111111111	-4.6417721519
44	0.022	2.203125	8.20465116279	-5.92222222222	-3.22025316456
45	0.0225	-0.690625	-4.73023255814	-0.1	-7.48481012658
46	0.023	-2.1375	6.76744186047	2.81111111111	-4.6417721519
47	0.0235	-0.690625	-3.29302325581	-0.1	-4.6417721519
48	0.024	0.75625	2.45581395349	-0.1	-6.06329113924
49	0.0245	-0.690625	6.76744186047	-1.55555555556	-7.48481012658
50	0.025	2.203125	21.1395348837	1.35555555556	-4.6417721519
51	0.0255	0.75625	-0.418604651163	-0.1	-6.06329113924
52	0.026	0.75625	16.8279069767	-1.55555555556	-3.22025316456
53	0.0265	5.096875	8.20465116279	-3.01111111111	-4.6417721519
54	0.027	2.203125	8.20465116279	-0.1	-1.79873417722
55	0.0275	-6.478125	8.20465116279	-0.1	-6.06329113924
56	0.028	-12.265625	6.76744186047	-0.1	-4.6417721519
57	0.0285	-5.03125	11.0790697674	-1.55555555556	-6.06329113924
58	0.029	-13.7125	6.76744186047	2.81111111111	-1.79873417722
59	0.0295	5.096875	6.76744186047	2.81111111111	-3.22025316456
60	0.03	19.565625	8.20465116279	-0.1	-6.06329113924
61	0.0305	0.75625	9.64186046512	-0.1	-6.06329113924
62	0.031	-9.371875	8.20465116279	1.35555555556	-7.48481012658
63	0.0315	-5.03125	8.20465116279	-0.1	-17.435443038
64	0.032	-10.81875	6.76744186047	-0.1	-7.48481012658
65	0.0325	2.203125	6.76744186047	1.35555555556	-7.48481012658
66	0.033	0.75625	9.64186046512	-1.55555555556	2.46582278481
67	0.0335	-6.478125	6.76744186047	-0.1	-7.48481012658
68	0.034	-0.690625	9.64186046512	-1.55555555556	9.57341772152
69	0.0345	-2.1375	9.64186046512	-3.01111111111	-11.7493670886
70	0.035	-0.690625	9.64186046512	1.35555555556	-14.5924050633
71	0.0355	0.75625	8.20465116279	1.35555555556	-4.6417721519
72	0.036	0.75625	9.64186046512	-11.7444444444	-3.22025316456
73	0.0365	-2.1375	8.20465116279	-5.92222222222	-6.06329113924
74	0.037	0.75625	8.20465116279	4.26666666667	-6.06329113924
75	0.0375	-0.690625	8.20465116279	8.63333333333	-4.6417721519
76	0.038	-0.690625	8.20465116279	15.9111111111	-7.48481012658
77	0.0385	3.65	9.64186046512	15.9111111111	-6.06329113924
78	0.039	-0.690625	8.20465116279	15.9111111111	-8.90632911392
79	0.0395	0.75625	5.33023255814	-10.2888888889	3.88734177215
80	0.04	0.75625	9.64186046512	8.63333333333	-11.7493670886
81	0.0405	0.75625	15.3906976744	-0.1	-7.48481012658
82	0.041	2.203125	9.64186046512	11.5444444444	-8.90632911392
83	0.0415	0.75625	8.20465116279	-5.92222222222	-6.06329113924
84	0.042	-0.690625	5.33023255814	-10.2888888889	10.9949367089
85	0.0425	0.75625	5.33023255814	2.81111111111	-6.06329113924
86	0.043	-3.584375	-3.29302325581	-0.1	-6.06329113924
87	0.0435	-5.03125	5.33023255814	-0.1	-3.22025316456
88	0.044	-0.690625	28.3255813953	1.35555555556	-1.79873417722
89	0.0445	-2.1375	6.76744186047	-0.1	-3.22025316456
90	0.045	0.75625	22.576744186	-3.01111111111	-6.06329113924
91	0.0455	-0.690625	-0.418604651163	-1.55555555556	-4.6417721519
92	0.046	-10.81875	6.76744186047	-0.1	-4.6417721519
93	0.0465	0.75625	8.20465116279	1.35555555556	-6.06329113924
94	0.047	-12.265625	8.20465116279	1.35555555556	-6.06329113924
95	0.0475	-5.03125	6.76744186047	1.35555555556	-3.22025316456
96	0.048	-10.81875	8.20465116279	-0.1	-7.48481012658
97	0.0485	-10.81875	8.20465116279	1.35555555556	-4.6417721519
98	0.049	7.990625	9.64186046512	-0.1	-4.6417721519
99	0.0495	18.11875	6.76744186047	-0.1	-3.22025316456
100	0.05	13.778125	5.33023255814	-0.1	-6.06329113924
101	0.0505	-10.81875	6.76744186047	1.35555555556	-13.1708860759
102	0.051	-10.81875	6.76744186047	1.35555555556	-3.22025316456
103	0.0515	-3.584375	6.76744186047	-1.55555555556	9.57341772152
104	0.052	0.75625	6.76744186047	-0.1	-1.79873417722
105	0.0525	-2.1375	8.20465116279	-0.1	-0.377215189873
106	0.053	0.75625	8.20465116279	-1.55555555556	9.57341772152
107	0.0535	-0.690625	6.76744186047	-13.2	-6.06329113924
108	0.054	3.65	8.20465116279	-3.01111111111	-8.90632911392
109	0.0545	-0.690625	6.76744186047	-1.55555555556	-6.06329113924
110	0.055	0.75625	8.20465116279	-1.55555555556	-4.6417721519
111	0.0555	-2.1375	6.76744186047	-8.83333333333	13.8379746835
112	0.056	0.75625	6.76744186047	2.81111111111	-3.22025316456
113	0.0565	-0.690625	6.76744186047	15.9111111111	-7.48481012658
114	0.057	0.75625	8.20465116279	2.81111111111	-14.5924050633
115	0.0575	0.75625	9.64186046512	-3.01111111111	-3.22025316456
116	0.058	-2.1375	6.76744186047	-0.1	6.73037974684
117	0.0585	0.75625	6.76744186047	-11.7444444444	8.15189873418
118	0.059	-3.584375	3.89302325581	2.81111111111	-7.48481012658
119	0.0595	-0.690625	11.0790697674	2.81111111111	-14.5924050633
120	0.06	3.65	18.2651162791	-1.55555555556	-4.6417721519
121	0.0605	0.75625	1.01860465116	1.35555555556	-3.22025316456
122	0.061	-2.1375	3.89302325581	-11.7444444444	9.57341772152
123	0.0615	-0.690625	15.3906976744	-1.55555555556	-4.6417721519
124	0.062	0.75625	26.888372093	1.35555555556	-4.6417721519
125	0.0625	-0.690625	15.3906976744	-0.1	-4.6417721519
126	0.063	-0.690625	-1.85581395349	-0.1	-6.06329113924
127	0.0635	-2.1375	-3.29302325581	4.26666666667	-6.06329113924
128	0.064	0.75625	3.89302325581	2.81111111111	-4.6417721519
129	0.0645	-2.1375	-0.418604651163	2.81111111111	-7.48481012658
130	0.065	-15.159375	6.76744186047	1.35555555556	-6.06329113924
131	0.0655	15.225	5.33023255814	-0.1	-10.3278481013
132	0.066	10.884375	6.76744186047	1.35555555556	-7.48481012658
133	0.0665	16.671875	8.20465116279	1.35555555556	-4.6417721519
134	0.067	18.11875	8.20465116279	1.35555555556	-3.22025316456
135	0.0675	10.884375	9.64186046512	-0.1	-1.79873417722
136	0.068	-5.03125	8.20465116279	1.35555555556	-17.435443038
137	0.0685	-7.925	8.20465116279	1.35555555556	-4.6417721519
138	0.069	-2.1375	6.76744186047	-0.1	-0.377215189873
139	0.0695	-0.690625	8.20465116279	1.35555555556	-4.6417721519
140	0.07	-2.1375	5.33023255814	-3.01111111111	9.57341772152
141	0.0705	-3.584375	9.64186046512	-11.7444444444	-4.6417721519
142	0.071	0.75625	9.64186046512	1.35555555556	-4.6417721519
143	0.0715	-0.690625	8.20465116279	-10.2888888889	-4.6417721519
144	0.072	-5.03125	8.20465116279	-1.55555555556	-0.377215189873
145	0.0725	-0.690625	9.64186046512	7.17777777778	-3.22025316456
146	0.073	-2.1375	9.64186046512	17.3666666667	-13.1708860759
147	0.0735	-2.1375	8.20465116279	-1.55555555556	-11.7493670886
148	0.074	-0.690625	6.76744186047	-5.92222222222	-3.22025316456
149	0.0745	-2.1375	11.0790697674	-0.1	-3.22025316456
150	0.075	0.75625	9.64186046512	-1.55555555556	-3.22025316456
151	0.0755	-2.1375	5.33023255814	-4.46666666667	1.04430379747
152	0.076	0.75625	1.01860465116	-0.1	-3.22025316456
153	0.0765	-0.690625	-3.29302325581	-0.1	-6.06329113924
154	0.077	-3.584375	5.33023255814	-1.55555555556	-1.79873417722
155	0.0775	0.75625	26.888372093	-0.1	-4.6417721519
156	0.078	-3.584375	9.64186046512	-0.1	-6.06329113924
157	0.0785	-3.584375	-4.73023255814	1.35555555556	-6.06329113924
158	0.079	-2.1375	2.45581395349	-1.55555555556	-3.22025316456
159	0.0795	-0.690625	11.0790697674	-1.55555555556	-4.6417721519
160	0.08	-2.1375	5.33023255814	1.35555555556	-4.6417721519
161	0.0805	0.75625	5.33023255814	-0.1	-1.79873417722
162	0.081	-12.265625	3.89302325581	2.81111111111	-1.79873417722
163	0.0815	-6.478125	6.76744186047	-1.55555555556	-1.79873417722
164	0.082	18.11875	5.33023255814	-0.1	-1.79873417722
165	0.0825	16.671875	3.89302325581	-0.1	-3.22025316456
166	0.083	0.75625	5.33023255814	-0.1	-0.377215189873
167	0.0835	12.33125	5.33023255814	-0.1	-0.377215189873
168	0.084	-0.690625	5.33023255814	-0.1	-3.22025316456
169	0.0845	-2.1375	6.76744186047	-1.55555555556	12.4164556962
170	0.085	-3.584375	6.76744186047	-0.1	8.15189873418
171	0.0855	0.75625	3.89302325581	2.81111111111	-3.22025316456
172	0.086	-2.1375	3.89302325581	2.81111111111	5.30886075949
173	0.0865	-0.690625	5.33023255814	-1.55555555556	-3.22025316456
174	0.087	0.75625	5.33023255814	-8.83333333333	-1.79873417722
175	0.0875	-0.690625	6.76744186047	10.0888888889	-3.22025316456
176	0.088	-0.690625	6.76744186047	-0.1	-3.22025316456
177	0.0885	-0.690625	3.89302325581	1.35555555556	-3.22025316456
178	0.089	0.75625	3.89302325581	-1.55555555556	-4.6417721519
179	0.0895	0.75625	5.33023255814	8.63333333333	-3.22025316456
180	0.09	2.203125	3.89302325581	-8.83333333333	-3.22025316456
181	0.0905	0.75625	5.33023255814	-5.92222222222	-4.6417721519
182	0.091	-0.690625	-4.73023255814	-1.55555555556	-0.377215189873
183	0.0915	-0.690625	-6.16744186047	1.35555555556	-1.79873417722
184	0.092	-2.1375	-9.04186046512	-1.55555555556	-1.79873417722
185	0.0925	-0.690625	8.20465116279	-1.55555555556	-4.6417721519
186	0.093	-0.690625	-0.418604651163	2.81111111111	-4.6417721519
187	0.0935	-0.690625	-1.85581395349	2.81111111111	-3.22025316456
188	0.094	-0.690625	8.20465116279	2.81111111111	-1.79873417722
189	0.0945	3.65	5.33023255814	14.4555555556	-11.7493670886
190	0.095	3.65	3.89302325581	2.81111111111	-4.6417721519
191	0.0955	5.096875	1.01860465116	1.35555555556	-4.6417721519
192	0.096	-2.1375	3.89302325581	1.35555555556	-4.6417721519
193	0.0965	5.096875	3.89302325581	1.35555555556	-1.79873417722
194	0.097	-9.371875	5.33023255814	1.35555555556	-3.22025316456
195	0.0975	13.778125	3.89302325581	1.35555555556	-0.377215189873
196	0.098	21.0125	3.89302325581	-0.1	-1.79873417722
197	0.0985	0.75625	3.89302325581	1.35555555556	-3.22025316456
198	0.099	10.884375	6.76744186047	-1.55555555556	-0.377215189873
199	0.0995	-12.265625	6.76744186047	2.81111111111	-6.06329113924
200	0.1	-2.1375	2.45581395349	-0.1	-0.377215189873
201	0.1005	-0.690625	3.89302325581	-1.55555555556	9.57341772152
202	0.101	-0.690625	3.89302325581	2.81111111111	-6.06329113924
203	0.1015	0.75625	5.33023255814	-3.01111111111	-10.3278481013
204	0.102	-3.584375	5.33023255814	2.81111111111	-10.3278481013
205	0.1025	-0.690625	6.76744186047	-10.2888888889	-1.79873417722
206	0.103	-0.690625	2.45581395349	-4.46666666667	-7.48481012658
207	0.1035	-0.690625	2.45581395349	-0.1	-6.06329113924
208	0.104	0.75625	8.20465116279	13.0	-4.6417721519
209	0.1045	0.75625	6.76744186047	7.17777777778	-3.22025316456
210	0.105	0.75625	6.76744186047	1.35555555556	-4.6417721519
211	0.1055	0.75625	-0.418604651163	-7.37777777778	-3.22025316456
212	0.106	0.75625	5.33023255814	-3.01111111111	-1.79873417722
213	0.1065	2.203125	2.45581395349	-4.46666666667	-1.79873417722
214	0.107	2.203125	6.76744186047	14.4555555556	-1.79873417722
215	0.1075	2.203125	6.76744186047	-4.46666666667	-1.79873417722
216	0.108	-0.690625	-6.16744186047	1.35555555556	-1.79873417722
217	0.1085	0.75625	5.33023255814	-10.2888888889	12.4164556962
218	0.109	-0.690625	1.01860465116	-0.1	-0.377215189873
219	0.1095	2.203125	22.576744186	-0.1	-3.22025316456
220	0.11	2.203125	13.9534883721	-0.1	-1.79873417722
221	0.1105	-0.690625	3.89302325581	-0.1	-3.22025316456
222	0.111	-2.1375	21.1395348837	-0.1	-4.6417721519
223	0.1115	-0.690625	9.64186046512	1.35555555556	-6.06329113924
224	0.112	0.75625	5.33023255814	-0.1	-4.6417721519
225	0.1125	2.203125	5.33023255814	1.35555555556	-3.22025316456
226	0.113	-2.1375	15.3906976744	1.35555555556	-1.79873417722
227	0.1135	-12.265625	3.89302325581	1.35555555556	-4.6417721519
228	0.114	15.225	5.33023255814	1.35555555556	-6.06329113924
229	0.1145	3.65	5.33023255814	-1.55555555556	-4.6417721519
230	0.115	19.565625	2.45581395349	-0.1	-1.79873417722
231	0.1155	-2.1375	1.01860465116	1.35555555556	-11.7493670886
232	0.116	-7.925	6.76744186047	-1.55555555556	8.15189873418
233	0.1165	0.75625	5.33023255814	1.35555555556	-7.48481012658
234	0.117	-5.03125	2.45581395349	-0.1	-1.79873417722
235	0.1175	-2.1375	1.01860465116	2.81111111111	-1.79873417722
236	0.118	2.203125	3.89302325581	1.35555555556	-8.90632911392
237	0.1185	-3.584375	5.33023255814	4.26666666667	-8.90632911392
238	0.119	-0.690625	5.33023255814	-7.37777777778	-7.48481012658
239	0.1195	-0.690625	2.45581395349	2.81111111111	-8.90632911392
240	0.12	-2.1375	5.33023255814	-0.1	-3.22025316456
241	0.1205	-2.1375	3.89302325581	-1.55555555556	-4.6417721519
242	0.121	-0.690625	5.33023255814	-10.2888888889	13.8379746835
243	0.1215	-0.690625	5.33023255814	7.17777777778	-7.48481012658
244	0.122	-2.1375	3.89302325581	-3.01111111111	-11.7493670886
245	0.1225	0.75625	6.76744186047	-1.55555555556	-3.22025316456
246	0.123	0.75625	2.45581395349	-4.46666666667	-3.22025316456
247	0.1235	-0.690625	2.45581395349	-10.2888888889	9.57341772152
248	0.124	-0.690625	-1.85581395349	1.35555555556	-6.06329113924
249	0.1245	-0.690625	6.76744186047	8.63333333333	-7.48481012658
250	0.125	-0.690625	8.20465116279	-0.1	-1.79873417722
251	0.1255	-3.584375	-1.85581395349	1.35555555556	-0.377215189873
252	0.126	0.75625	15.3906976744	-0.1	-1.79873417722
253	0.1265	0.75625	22.576744186	1.35555555556	1.04430379747
254	0.127	-2.1375	2.45581395349	2.81111111111	1.04430379747
255	0.1275	0.75625	16.8279069767	-1.55555555556	2.46582278481
256	0.128	-2.1375	-3.29302325581	1.35555555556	-1.79873417722
257	0.1285	-2.1375	2.45581395349	2.81111111111	1.04430379747
258	0.129	-2.1375	2.45581395349	1.35555555556	2.46582278481
259	0.1295	-12.265625	5.33023255814	2.81111111111	1.04430379747
260	0.13	-7.925	3.89302325581	1.35555555556	2.46582278481
261	0.1305	-3.584375	11.0790697674	-0.1	-0.377215189873
262	0.131	18.11875	1.01860465116	2.81111111111	-0.377215189873
263	0.1315	15.225	1.01860465116	-0.1	-1.79873417722
264	0.132	2.203125	1.01860465116	-0.1	-1.79873417722
265	0.1325	13.778125	3.89302325581	-0.1	1.04430379747
266	0.133	19.565625	2.45581395349	-0.1	-0.377215189873
267	0.1335	-5.03125	2.45581395349	2.81111111111	-7.48481012658
268	0.134	-3.584375	1.01860465116	-0.1	13.8379746835
269	0.1345	-2.1375	1.01860465116	-0.1	5.30886075949
270	0.135	0.75625	1.01860465116	-1.55555555556	-3.22025316456
271	0.1355	-0.690625	1.01860465116	2.81111111111	-8.90632911392
272	0.136	0.75625	-0.418604651163	1.35555555556	-11.7493670886
273	0.1365	-0.690625	1.01860465116	-1.55555555556	-6.06329113924
274	0.137	-2.1375	1.01860465116	4.26666666667	-10.3278481013
275	0.1375	-0.690625	1.01860465116	8.63333333333	-3.22025316456
276	0.138	0.75625	5.33023255814	17.3666666667	-1.79873417722
277	0.1385	-0.690625	2.45581395349	14.4555555556	-3.22025316456
278	0.139	0.75625	3.89302325581	8.63333333333	-3.22025316456
279	0.1395	-0.690625	6.76744186047	18.8222222222	-3.22025316456
280	0.14	-2.1375	1.01860465116	-4.46666666667	-1.79873417722
281	0.1405	0.75625	-1.85581395349	2.81111111111	-3.22025316456
282	0.141	-2.1375	2.45581395349	-0.1	1.04430379747
283	0.1415	-2.1375	-10.4790697674	2.81111111111	-4.6417721519
284	0.142	-3.584375	-1.85581395349	-1.55555555556	-4.6417721519
285	0.1425	0.75625	-7.60465116279	1.35555555556	-0.377215189873
286	0.143	-2.1375	-7.60465116279	1.35555555556	-0.377215189873
287	0.1435	2.203125	13.9534883721	1.35555555556	3.88734177215
288	0.144	0.75625	19.7023255814	-0.1	-0.377215189873
289	0.1445	-0.690625	-3.29302325581	2.81111111111	-0.377215189873
290	0.145	-2.1375	11.0790697674	1.35555555556	-0.377215189873
291	0.1455	2.203125	1.01860465116	-0.1	-1.79873417722
292	0.146	-2.1375	-4.73023255814	1.35555555556	-0.377215189873
293	0.1465	-2.1375	-6.16744186047	1.35555555556	1.04430379747
294	0.147	-15.159375	-0.418604651163	-1.55555555556	-0.377215189873
295	0.1475	-7.925	9.64186046512	1.35555555556	-0.377215189873
296	0.148	21.0125	1.01860465116	2.81111111111	-0.377215189873
297	0.1485	7.990625	1.01860465116	-0.1	1.04430379747
298	0.149	-13.7125	-10.4790697674	1.35555555556	1.04430379747
299	0.1495	2.203125	-0.418604651163	1.35555555556	6.73037974684
300	0.15	18.11875	3.89302325581	1.35555555556	2.46582278481
301	0.1505	12.33125	2.45581395349	-0.1	-0.377215189873
302	0.151	-7.925	-0.418604651163	2.81111111111	-6.06329113924
303	0.1515	-7.925	2.45581395349	1.35555555556	1.04430379747
304	0.152	-0.690625	1.01860465116	-0.1	18.1025316456
305	0.1525	-2.1375	-1.85581395349	-0.1	3.88734177215
306	0.153	-3.584375	-3.29302325581	1.35555555556	1.04430379747
307	0.1535	-2.1375	-0.418604651163	4.26666666667	-7.48481012658
308	0.154	-2.1375	-0.418604651163	2.81111111111	2.46582278481
309	0.1545	-0.690625	-1.85581395349	1.35555555556	-4.6417721519
310	0.155	-2.1375	-0.418604651163	5.72222222222	-7.48481012658
311	0.1555	0.75625	1.01860465116	7.17777777778	1.04430379747
312	0.156	0.75625	1.01860465116	-0.1	-1.79873417722
313	0.1565	-0.690625	2.45581395349	-8.83333333333	-1.79873417722
314	0.157	-0.690625	1.01860465116	15.9111111111	-0.377215189873
315	0.1575	-2.1375	1.01860465116	-1.55555555556	1.04430379747
316	0.158	-0.690625	2.45581395349	-4.46666666667	1.04430379747
317	0.1585	0.75625	1.01860465116	-1.55555555556	2.46582278481
318	0.159	0.75625	-10.4790697674	-1.55555555556	-0.377215189873
319	0.1595	-0.690625	-6.16744186047	-0.1	3.88734177215
320	0.16	0.75625	-7.60465116279	-0.1	1.04430379747
321	0.1605	-0.690625	-11.9162790698	-0.1	1.04430379747
322	0.161	0.75625	8.20465116279	1.35555555556	1.04430379747
323	0.1615	-0.690625	-4.73023255814	1.35555555556	-0.377215189873
324	0.162	-2.1375	-6.16744186047	-1.55555555556	-3.22025316456
325	0.1625	2.203125	15.3906976744	1.35555555556	3.88734177215
326	0.163	0.75625	3.89302325581	18.8222222222	-8.90632911392
327	0.1635	0.75625	2.45581395349	-0.1	1.04430379747
328	0.164	0.75625	-1.85581395349	2.81111111111	2.46582278481
329	0.1645	0.75625	6.76744186047	2.81111111111	3.88734177215
330	0.165	16.671875	1.01860465116	2.81111111111	1.04430379747
331	0.1655	10.884375	2.45581395349	-0.1	-0.377215189873
332	0.166	16.671875	1.01860465116	-0.1	5.30886075949
333	0.1665	16.671875	2.45581395349	-0.1	2.46582278481
334	0.167	3.65	2.45581395349	1.35555555556	5.30886075949
335	0.1675	18.11875	1.01860465116	1.35555555556	2.46582278481
336	0.168	-0.690625	1.01860465116	4.26666666667	-7.48481012658
337	0.1685	0.75625	2.45581395349	-0.1	9.57341772152
338	0.169	-0.690625	2.45581395349	2.81111111111	-7.48481012658
339	0.1695	-2.1375	1.01860465116	-0.1	8.15189873418
340	0.17	-5.03125	1.01860465116	2.81111111111	-8.90632911392
341	0.1705	-0.690625	1.01860465116	-0.1	5.30886075949
342	0.171	-0.690625	3.89302325581	4.26666666667	-7.48481012658
343	0.1715	-0.690625	2.45581395349	1.35555555556	-0.377215189873
344	0.172	-2.1375	-0.418604651163	-1.55555555556	15.2594936709
345	0.1725	2.203125	1.01860465116	1.35555555556	2.46582278481
346	0.173	2.203125	1.01860465116	-8.83333333333	1.04430379747
347	0.1735	-2.1375	1.01860465116	1.35555555556	-0.377215189873
348	0.174	-2.1375	1.01860465116	1.35555555556	-6.06329113924
349	0.1745	0.75625	2.45581395349	15.9111111111	-3.22025316456
350	0.175	-2.1375	2.45581395349	7.17777777778	-0.377215189873
351	0.1755	0.75625	1.01860465116	20.2777777778	1.04430379747
352	0.176	0.75625	1.01860465116	4.26666666667	-0.377215189873
353	0.1765	-2.1375	1.01860465116	-3.01111111111	2.46582278481
354	0.177	-0.690625	1.01860465116	2.81111111111	1.04430379747
355	0.1775	-0.690625	-0.418604651163	-7.37777777778	1.04430379747
356	0.178	-2.1375	1.01860465116	-0.1	2.46582278481
357	0.1785	0.75625	1.01860465116	14.4555555556	-4.6417721519
358	0.179	0.75625	5.33023255814	1.35555555556	1.04430379747
359	0.1795	2.203125	-4.73023255814	1.35555555556	1.04430379747
360	0.18	0.75625	5.33023255814	4.26666666667	-0.377215189873
361	0.1805	0.75625	5.33023255814	15.9111111111	-6.06329113924
362	0.181	2.203125	-0.418604651163	1.35555555556	-0.377215189873
363	0.1815	2.203125	-10.4790697674	2.81111111111	2.46582278481
364	0.182	0.75625	13.9534883721	1.35555555556	-0.377215189873
365	0.1825	2.203125	-6.16744186047	2.81111111111	1.04430379747
366	0.183	2.203125	16.8279069767	2.81111111111	-3.22025316456
367	0.1835	0.75625	-6.16744186047	-0.1	-1.79873417722
368	0.184	-6.478125	-3.29302325581	-0.1	1.04430379747
369	0.1845	0.75625	-3.29302325581	1.35555555556	2.46582278481
370	0.185	-2.1375	-6.16744186047	2.81111111111	1.04430379747
371	0.1855	-7.925	1.01860465116	1.35555555556	1.04430379747
372	0.186	3.65	5.33023255814	-0.1	-0.377215189873
373	0.1865	-10.81875	2.45581395349	1.35555555556	3.88734177215
374	0.187	-3.584375	5.33023255814	2.81111111111	-0.377215189873
375	0.1875	3.65	22.576744186	2.81111111111	1.04430379747
376	0.188	15.225	3.89302325581	2.81111111111	-0.377215189873
377	0.1885	2.203125	3.89302325581	1.35555555556	-1.79873417722
378	0.189	21.0125	2.45581395349	-0.1	1.04430379747
379	0.1895	13.778125	2.45581395349	2.81111111111	-1.79873417722
380	0.19	-7.925	2.45581395349	2.81111111111	-1.79873417722
381	0.1905	-2.1375	5.33023255814	1.35555555556	1.04430379747
382	0.191	0.75625	3.89302325581	2.81111111111	8.15189873418
383	0.1915	-0.690625	1.01860465116	-0.1	-3.22025316456
384	0.192	-5.03125	1.01860465116	-0.1	1.04430379747
385	0.1925	0.75625	2.45581395349	-0.1	9.57341772152
386	0.193	-0.690625	2.45581395349	-1.55555555556	3.88734177215
387	0.1935	5.096875	2.45581395349	4.26666666667	1.04430379747
388	0.194	0.75625	5.33023255814	-0.1	-8.90632911392
389	0.1945	0.75625	3.89302325581	-0.1	-11.7493670886
390	0.195	2.203125	2.45581395349	-1.55555555556	-7.48481012658
391	0.1955	3.65	2.45581395349	7.17777777778	-11.7493670886
392	0.196	5.096875	6.76744186047	8.63333333333	-0.377215189873
393	0.1965	2.203125	3.89302325581	17.3666666667	-3.22025316456
394	0.197	3.65	5.33023255814	14.4555555556	-1.79873417722
395	0.1975	-2.1375	3.89302325581	7.17777777778	1.04430379747
396	0.198	0.75625	3.89302325581	1.35555555556	1.04430379747
397	0.1985	2.203125	5.33023255814	-3.01111111111	1.04430379747
398	0.199	0.75625	5.33023255814	1.35555555556	2.46582278481
399	0.1995	0.75625	6.76744186047	-0.1	2.46582278481
400	0.2	2.203125	9.64186046512	-0.1	2.46582278481
401	0.2005	2.203125	3.89302325581	2.81111111111	5.30886075949
402	0.201	3.65	-4.73023255814	-1.55555555556	3.88734177215
403	0.2015	0.75625	-6.16744186047	2.81111111111	-0.377215189873
404	0.202	2.203125	1.01860465116	2.81111111111	-0.377215189873
405	0.2025	2.203125	-7.60465116279	2.81111111111	-0.377215189873
406	0.203	5.096875	6.76744186047	-1.55555555556	-0.377215189873
407	0.2035	9.4375	22.576744186	-0.1	1.04430379747
408	0.204	3.65	3.89302325581	-0.1	-4.6417721519
409	0.2045	3.65	24.0139534884	2.81111111111	-0.377215189873
410	0.205	3.65	6.76744186047	15.9111111111	-14.5924050633
411	0.2055	5.096875	1.01860465116	-1.55555555556	-1.79873417722
412	0.206	2.203125	-1.85581395349	1.35555555556	-1.79873417722
413	0.2065	7.990625	2.45581395349	2.81111111111	-3.22025316456
414	0.207	5.096875	1.01860465116	2.81111111111	-3.22025316456
415	0.2075	-0.690625	5.33023255814	1.35555555556	-4.6417721519
416	0.208	22.459375	6.76744186047	-0.1	-1.79873417722
417	0.2085	19.565625	5.33023255814	1.35555555556	-6.06329113924
418	0.209	16.671875	5.33023255814	-0.1	-3.22025316456
419	0.2095	-5.03125	5.33023255814	2.81111111111	-13.1708860759
420	0.21	-6.478125	3.89302325581	4.26666666667	-3.22025316456
421	0.2105	5.096875	5.33023255814	1.35555555556	-0.377215189873
422	0.211	3.65	6.76744186047	-1.55555555556	8.15189873418
423	0.2115	3.65	6.76744186047	1.35555555556	3.88734177215
424	0.212	3.65	8.20465116279	1.35555555556	13.8379746835
425	0.2125	3.65	6.76744186047	-0.1	9.57341772152
426	0.213	3.65	6.76744186047	1.35555555556	2.46582278481
427	0.2135	3.65	6.76744186047	-1.55555555556	13.8379746835
428	0.214	2.203125	6.76744186047	-7.37777777778	-3.22025316456
429	0.2145	3.65	9.64186046512	5.72222222222	-3.22025316456
430	0.215	3.65	8.20465116279	-7.37777777778	-1.79873417722
431	0.2155	3.65	3.89302325581	1.35555555556	-0.377215189873
432	0.216	2.203125	5.33023255814	5.72222222222	-4.6417721519
433	0.2165	3.65	13.9534883721	2.81111111111	-13.1708860759
434	0.217	3.65	8.20465116279	11.5444444444	-1.79873417722
435	0.2175	5.096875	9.64186046512	2.81111111111	18.1025316456
436	0.218	5.096875	5.33023255814	-4.46666666667	10.9949367089
437	0.2185	3.65	8.20465116279	1.35555555556	-1.79873417722
438	0.219	2.203125	9.64186046512	17.3666666667	-8.90632911392
439	0.2195	2.203125	5.33023255814	-1.55555555556	-0.377215189873
440	0.22	2.203125	9.64186046512	-0.1	-3.22025316456
441	0.2205	7.990625	21.1395348837	-0.1	-3.22025316456
442	0.221	0.75625	3.89302325581	1.35555555556	-0.377215189873
443	0.2215	3.65	24.0139534884	1.35555555556	-0.377215189873
444	0.222	3.65	8.20465116279	1.35555555556	-0.377215189873
445	0.2225	0.75625	-1.85581395349	1.35555555556	1.04430379747
446	0.223	0.75625	6.76744186047	4.26666666667	-1.79873417722
447	0.2235	-0.690625	1.01860465116	2.81111111111	1.04430379747
448	0.224	-0.690625	-0.418604651163	1.35555555556	1.04430379747
449	0.2245	2.203125	9.64186046512	4.26666666667	-0.377215189873
450	0.225	2.203125	-0.418604651163	4.26666666667	-0.377215189873
451	0.2255	2.203125	2.45581395349	4.26666666667	1.04430379747
452	0.226	-0.690625	9.64186046512	2.81111111111	-0.377215189873
453	0.2265	7.990625	24.0139534884	2.81111111111	-0.377215189873
454	0.227	7.990625	6.76744186047	4.26666666667	-1.79873417722
455	0.2275	0.75625	6.76744186047	1.35555555556	-1.79873417722
456	0.228	23.90625	6.76744186047	-0.1	-0.377215189873
457	0.2285	3.65	8.20465116279	4.26666666667	-0.377215189873
458	0.229	-9.371875	-0.418604651163	2.81111111111	-1.79873417722
459	0.2295	5.096875	8.20465116279	1.35555555556	1.04430379747
460	0.23	23.90625	6.76744186047	1.35555555556	-0.377215189873
461	0.2305	-0.690625	6.76744186047	1.35555555556	-0.377215189873
462	0.231	13.778125	6.76744186047	-0.1	-1.79873417722
463	0.2315	-3.584375	5.33023255814	-0.1	-1.79873417722
464	0.232	2.203125	8.20465116279	1.35555555556	9.57341772152
465	0.2325	3.65	9.64186046512	-0.1	-7.48481012658
466	0.233	2.203125	6.76744186047	-0.1	9.57341772152
467	0.2335	2.203125	6.76744186047	2.81111111111	-0.377215189873
468	0.234	-3.584375	6.76744186047	1.35555555556	-3.22025316456
469	0.2345	2.203125	8.20465116279	4.26666666667	-1.79873417722
470	0.235	3.65	6.76744186047	4.26666666667	5.30886075949
471	0.2355	2.203125	6.76744186047	8.63333333333	-10.3278481013
472	0.236	0.75625	6.76744186047	2.81111111111	-3.22025316456
473	0.2365	3.65	6.76744186047	-8.83333333333	-7.48481012658
474	0.237	5.096875	6.76744186047	15.9111111111	-6.06329113924
475	0.2375	3.65	5.33023255814	-0.1	-3.22025316456
476	0.238	3.65	11.0790697674	20.2777777778	-4.6417721519
477	0.2385	2.203125	8.20465116279	15.9111111111	-6.06329113924
478	0.239	2.203125	9.64186046512	-0.1	-3.22025316456
479	0.2395	3.65	8.20465116279	-5.92222222222	-3.22025316456
480	0.24	3.65	6.76744186047	-1.55555555556	1.04430379747
481	0.2405	3.65	15.3906976744	1.35555555556	-1.79873417722
482	0.241	5.096875	8.20465116279	2.81111111111	-8.90632911392
483	0.2415	5.096875	5.33023255814	-7.37777777778	-1.79873417722
484	0.242	3.65	-4.73023255814	4.26666666667	-4.6417721519
485	0.2425	3.65	5.33023255814	2.81111111111	-1.79873417722
486	0.243	2.203125	-4.73023255814	-1.55555555556	-0.377215189873
487	0.2435	3.65	5.33023255814	1.35555555556	-3.22025316456
488	0.244	2.203125	-6.16744186047	2.81111111111	-1.79873417722
489	0.2445	3.65	2.45581395349	-0.1	-3.22025316456
490	0.245	-0.690625	-0.418604651163	1.35555555556	-1.79873417722
491	0.2455	5.096875	16.8279069767	-0.1	-1.79873417722
492	0.246	5.096875	11.0790697674	18.8222222222	-13.1708860759
493	0.2465	5.096875	2.45581395349	-0.1	-3.22025316456
494	0.247	-0.690625	-0.418604651163	1.35555555556	-3.22025316456
495	0.2475	0.75625	-1.85581395349	2.81111111111	-1.79873417722
496	0.248	5.096875	6.76744186047	1.35555555556	1.04430379747
497	0.2485	5.096875	5.33023255814	1.35555555556	-0.377215189873
498	0.249	0.75625	3.89302325581	-5.92222222222	-1.79873417722
499	0.2495	-7.925	8.20465116279	-0.1	-0.377215189873
500	0.25	-3.584375	8.20465116279	2.81111111111	-0.377215189873
501	0.2505	-7.925	6.76744186047	1.35555555556	2.46582278481
502	0.251	15.225	9.64186046512	-1.55555555556	3.88734177215
503	0.2515	18.11875	6.76744186047	2.81111111111	1.04430379747
504	0.252	13.778125	8.20465116279	-1.55555555556	2.46582278481
505	0.2525	21.0125	5.33023255814	-0.1	-0.377215189873
506	0.253	-0.690625	6.76744186047	4.26666666667	-8.90632911392
507	0.2535	-7.925	6.76744186047	2.81111111111	1.04430379747
508	0.254	0.75625	8.20465116279	2.81111111111	-0.377215189873
509	0.2545	7.990625	3.89302325581	1.35555555556	6.73037974684
510	0.255	3.65	8.20465116279	1.35555555556	-1.79873417722
511	0.2555	-0.690625	8.20465116279	4.26666666667	-11.7493670886
512	0.256	3.65	6.76744186047	-3.01111111111	-0.377215189873
513	0.2565	5.096875	8.20465116279	1.35555555556	15.2594936709
514	0.257	5.096875	6.76744186047	-0.1	-0.377215189873
515	0.2575	3.65	6.76744186047	4.26666666667	-7.48481012658
516	0.258	2.203125	6.76744186047	-8.83333333333	-0.377215189873
517	0.2585	2.203125	6.76744186047	-1.55555555556	-6.06329113924
518	0.259	0.75625	6.76744186047	-8.83333333333	-0.377215189873
519	0.2595	3.65	6.76744186047	-5.92222222222	-3.22025316456
520	0.26	3.65	8.20465116279	18.8222222222	-3.22025316456
521	0.2605	3.65	6.76744186047	-0.1	-1.79873417722
522	0.261	0.75625	9.64186046512	11.5444444444	-3.22025316456
523	0.2615	3.65	6.76744186047	-7.37777777778	-6.06329113924
524	0.262	3.65	9.64186046512	8.63333333333	-1.79873417722
525	0.2625	2.203125	5.33023255814	-3.01111111111	-3.22025316456
526	0.263	3.65	3.89302325581	-1.55555555556	-0.377215189873
527	0.2635	3.65	11.0790697674	-0.1	-1.79873417722
528	0.264	5.096875	6.76744186047	2.81111111111	-6.06329113924
529	0.2645	3.65	-4.73023255814	2.81111111111	-3.22025316456
530	0.265	2.203125	3.89302325581	4.26666666667	-0.377215189873
531	0.2655	3.65	-1.85581395349	2.81111111111	-0.377215189873
532	0.266	3.65	-0.418604651163	4.26666666667	-0.377215189873
533	0.2665	3.65	3.89302325581	2.81111111111	-1.79873417722
534	0.267	2.203125	1.01860465116	-0.1	-1.79873417722
535	0.2675	3.65	8.20465116279	2.81111111111	-0.377215189873
536	0.268	2.203125	18.2651162791	1.35555555556	-1.79873417722
537	0.2685	9.4375	6.76744186047	1.35555555556	-0.377215189873
538	0.269	3.65	8.20465116279	-0.1	-1.79873417722
539	0.2695	0.75625	-0.418604651163	4.26666666667	-1.79873417722
540	0.27	-3.584375	6.76744186047	-0.1	-0.377215189873
541	0.2705	5.096875	24.0139534884	1.35555555556	1.04430379747
542	0.271	12.33125	9.64186046512	-0.1	-1.79873417722
543	0.2715	-5.03125	5.33023255814	1.35555555556	-1.79873417722
544	0.272	15.225	5.33023255814	-0.1	-3.22025316456
545	0.2725	-5.03125	6.76744186047	2.81111111111	-0.377215189873
546	0.273	3.65	5.33023255814	1.35555555556	3.88734177215
547	0.2735	-5.03125	6.76744186047	1.35555555556	-0.377215189873
548	0.274	10.884375	5.33023255814	-0.1	2.46582278481
549	0.2745	21.0125	6.76744186047	2.81111111111	-1.79873417722
550	0.275	0.75625	6.76744186047	4.26666666667	-10.3278481013
551	0.2755	-5.03125	6.76744186047	2.81111111111	-3.22025316456
552	0.276	-0.690625	5.33023255814	4.26666666667	-11.7493670886
553	0.2765	-6.478125	6.76744186047	2.81111111111	-6.06329113924
554	0.277	0.75625	6.76744186047	4.26666666667	15.2594936709
555	0.2775	3.65	6.76744186047	1.35555555556	-4.6417721519
556	0.278	2.203125	6.76744186047	-0.1	9.57341772152
557	0.2785	2.203125	6.76744186047	4.26666666667	-6.06329113924
558	0.279	0.75625	11.0790697674	1.35555555556	6.73037974684
559	0.2795	5.096875	5.33023255814	-8.83333333333	16.6810126582
560	0.28	3.65	6.76744186047	1.35555555556	-0.377215189873
561	0.2805	3.65	8.20465116279	21.7333333333	-4.6417721519
562	0.281	3.65	8.20465116279	5.72222222222	-3.22025316456
563	0.2815	5.096875	8.20465116279	21.7333333333	-1.79873417722
564	0.282	2.203125	5.33023255814	7.17777777778	-3.22025316456
565	0.2825	2.203125	6.76744186047	20.2777777778	-1.79873417722
566	0.283	2.203125	5.33023255814	-0.1	-1.79873417722
567	0.2835	0.75625	1.01860465116	2.81111111111	-3.22025316456
568	0.284	0.75625	6.76744186047	1.35555555556	-1.79873417722
569	0.2845	3.65	3.89302325581	-7.37777777778	-1.79873417722
570	0.285	0.75625	3.89302325581	2.81111111111	9.57341772152
571	0.2855	0.75625	3.89302325581	1.35555555556	-3.22025316456
572	0.286	0.75625	-6.16744186047	4.26666666667	-3.22025316456
573	0.2865	2.203125	5.33023255814	1.35555555556	-0.377215189873
574	0.287	3.65	-7.60465116279	1.35555555556	-1.79873417722
575	0.2875	0.75625	8.20465116279	1.35555555556	-1.79873417722
576	0.288	3.65	22.576744186	1.35555555556	-0.377215189873
577	0.2885	-0.690625	1.01860465116	-1.55555555556	-0.377215189873
578	0.289	0.75625	21.1395348837	-0.1	-1.79873417722
579	0.2895	-0.690625	-1.85581395349	4.26666666667	-1.79873417722
580	0.29	2.203125	15.3906976744	1.35555555556	-0.377215189873
581	0.2905	5.096875	5.33023255814	1.35555555556	-1.79873417722
582	0.291	-0.690625	5.33023255814	-0.1	-1.79873417722
583	0.2915	7.990625	5.33023255814	-0.1	-1.79873417722
584	0.292	3.65	9.64186046512	1.35555555556	-1.79873417722
585	0.2925	-9.371875	-0.418604651163	1.35555555556	-3.22025316456
586	0.293	-5.03125	3.89302325581	1.35555555556	-0.377215189873
587	0.2935	5.096875	21.1395348837	-1.55555555556	-0.377215189873
588	0.294	15.225	6.76744186047	-0.1	-1.79873417722
589	0.2945	-2.1375	6.76744186047	2.81111111111	-1.79873417722
590	0.295	-6.478125	5.33023255814	2.81111111111	-0.377215189873
591	0.2955	-2.1375	2.45581395349	2.81111111111	-11.7493670886
592	0.296	-9.371875	5.33023255814	1.35555555556	-4.6417721519
593	0.2965	-2.1375	6.76744186047	1.35555555556	-1.79873417722
594	0.297	2.203125	5.33023255814	1.35555555556	6.73037974684
595	0.2975	0.75625	3.89302325581	4.26666666667	-6.06329113924
596	0.298	-0.690625	6.76744186047	1.35555555556	-4.6417721519
597	0.2985	2.203125	5.33023255814	1.35555555556	12.4164556962
598	0.299	-2.1375	5.33023255814	4.26666666667	-6.06329113924
599	0.2995	3.65	2.45581395349	-0.1	8.15189873418
600	0.3	2.203125	2.45581395349	4.26666666667	-8.90632911392
601	0.3005	0.75625	3.89302325581	-0.1	6.73037974684
602	0.301	0.75625	5.33023255814	-1.55555555556	-0.377215189873
603	0.3015	2.203125	6.76744186047	2.81111111111	-10.3278481013
604	0.302	3.65	5.33023255814	-7.37777777778	-4.6417721519
605	0.3025	2.203125	6.76744186047	-1.55555555556	-7.48481012658
606	0.303	0.75625	8.20465116279	2.81111111111	-11.7493670886
607	0.3035	2.203125	3.89302325581	7.17777777778	1.04430379747
608	0.304	0.75625	5.33023255814	1.35555555556	-0.377215189873
609	0.3045	0.75625	3.89302325581	1.35555555556	-0.377215189873
610	0.305	-0.690625	5.33023255814	2.81111111111	-10.3278481013
611	0.3055	-0.690625	9.64186046512	-1.55555555556	-1.79873417722
612	0.306	2.203125	5.33023255814	-0.1	-1.79873417722
613	0.3065	-0.690625	6.76744186047	-1.55555555556	-4.6417721519
614	0.307	0.75625	6.76744186047	1.35555555556	-0.377215189873
615	0.3075	-0.690625	8.20465116279	1.35555555556	-1.79873417722
616	0.308	3.65	-3.29302325581	-5.92222222222	-1.79873417722
617	0.3085	5.096875	-3.29302325581	1.35555555556	-7.48481012658
618	0.309	2.203125	24.0139534884	1.35555555556	-0.377215189873
619	0.3095	0.75625	9.64186046512	2.81111111111	-1.79873417722
620	0.31	3.65	22.576744186	-0.1	-0.377215189873
621	0.3105	3.65	3.89302325581	7.17777777778	-1.79873417722
622	0.311	2.203125	-1.85581395349	2.81111111111	-0.377215189873
623	0.3115	0.75625	1.01860465116	-1.55555555556	-0.377215189873
624	0.312	3.65	3.89302325581	1.35555555556	-1.79873417722
625	0.3125	-3.584375	2.45581395349	1.35555555556	-0.377215189873
626	0.313	5.096875	3.89302325581	-1.55555555556	-0.377215189873
627	0.3135	0.75625	6.76744186047	1.35555555556	-1.79873417722
628	0.314	3.65	5.33023255814	-0.1	-1.79873417722
629	0.3145	5.096875	5.33023255814	-0.1	-3.22025316456
630	0.315	19.565625	6.76744186047	1.35555555556	-1.79873417722
631	0.3155	7.990625	6.76744186047	1.35555555556	-3.22025316456
632	0.316	19.565625	3.89302325581	2.81111111111	1.04430379747
633	0.3165	-3.584375	3.89302325581	2.81111111111	-11.7493670886
634	0.317	-7.925	5.33023255814	1.35555555556	-1.79873417722
635	0.3175	0.75625	6.76744186047	1.35555555556	-1.79873417722
636	0.318	0.75625	5.33023255814	1.35555555556	1.04430379747
637	0.3185	0.75625	5.33023255814	-1.55555555556	13.8379746835
638	0.319	2.203125	6.76744186047	1.35555555556	1.04430379747
639	0.3195	3.65	3.89302325581	-3.01111111111	13.8379746835
640	0.32	0.75625	3.89302325581	1.35555555556	-1.79873417722
641	0.3205	0.75625	3.89302325581	2.81111111111	-10.3278481013
642	0.321	3.65	5.33023255814	-0.1	-1.79873417722
643	0.3215	0.75625	5.33023255814	-5.92222222222	-0.377215189873
644	0.322	2.203125	3.89302325581	-0.1	-0.377215189873
645	0.3225	0.75625	5.33023255814	17.3666666667	-0.377215189873
646	0.323	0.75625	3.89302325581	1.35555555556	1.04430379747
647	0.3235	5.096875	6.76744186047	-7.37777777778	1.04430379747
648	0.324	3.65	3.89302325581	-10.2888888889	16.6810126582
649	0.3245	3.65	6.76744186047	8.63333333333	-0.377215189873
650	0.325	3.65	2.45581395349	-5.92222222222	-0.377215189873
651	0.3255	0.75625	5.33023255814	1.35555555556	1.04430379747
652	0.326	2.203125	1.01860465116	-0.1	-0.377215189873
653	0.3265	-0.690625	-3.29302325581	2.81111111111	-1.79873417722
654	0.327	3.65	2.45581395349	1.35555555556	-1.79873417722
655	0.3275	2.203125	3.89302325581	-3.01111111111	-6.06329113924
656	0.328	0.75625	5.33023255814	4.26666666667	-6.06329113924
657	0.3285	3.65	24.0139534884	1.35555555556	-3.22025316456
658	0.329	0.75625	2.45581395349	-0.1	-0.377215189873
659	0.3295	3.65	11.0790697674	2.81111111111	-3.22025316456
660	0.33	-0.690625	-4.73023255814	2.81111111111	-1.79873417722
661	0.3305	2.203125	8.20465116279	-0.1	-0.377215189873
662	0.331	3.65	1.01860465116	2.81111111111	-0.377215189873
663	0.3315	5.096875	2.45581395349	2.81111111111	-0.377215189873
664	0.332	2.203125	5.33023255814	-1.55555555556	-0.377215189873
665	0.3325	5.096875	3.89302325581	2.81111111111	-0.377215189873
666	0.333	7.990625	2.45581395349	1.35555555556	-4.6417721519
667	0.3335	21.0125	5.33023255814	1.35555555556	-0.377215189873
668	0.334	18.11875	2.45581395349	-0.1	-6.06329113924
669	0.3345	5.096875	2.45581395349	2.81111111111	-3.22025316456
670	0.335	-9.371875	2.45581395349	2.81111111111	-8.90632911392
671	0.3355	-2.1375	3.89302325581	5.72222222222	-6.06329113924
672	0.336	-5.03125	3.89302325581	2.81111111111	-11.7493670886
673	0.3365	-7.925	1.01860465116	-1.55555555556	-3.22025316456
674	0.337	2.203125	2.45581395349	-0.1	13.8379746835
675	0.3375	-0.690625	3.89302325581	-0.1	1.04430379747
676	0.338	-0.690625	6.76744186047	-0.1	-0.377215189873
677	0.3385	0.75625	5.33023255814	7.17777777778	-8.90632911392
678	0.339	0.75625	3.89302325581	-1.55555555556	3.88734177215
679	0.3395	0.75625	3.89302325581	5.72222222222	-10.3278481013
680	0.34	0.75625	6.76744186047	2.81111111111	-4.6417721519
681	0.3405	2.203125	6.76744186047	-1.55555555556	3.88734177215
682	0.341	2.203125	5.33023255814	4.26666666667	-0.377215189873
683	0.3415	2.203125	6.76744186047	2.81111111111	-6.06329113924
684	0.342	0.75625	5.33023255814	20.2777777778	-0.377215189873
685	0.3425	0.75625	3.89302325581	2.81111111111	-1.79873417722
686	0.343	2.203125	2.45581395349	-7.37777777778	-0.377215189873
687	0.3435	0.75625	5.33023255814	4.26666666667	-3.22025316456
688	0.344	0.75625	2.45581395349	-7.37777777778	1.04430379747
689	0.3445	0.75625	5.33023255814	1.35555555556	-0.377215189873
690	0.345	-0.690625	5.33023255814	4.26666666667	1.04430379747
691	0.3455	2.203125	6.76744186047	5.72222222222	-10.3278481013
692	0.346	0.75625	6.76744186047	-1.55555555556	-1.79873417722
693	0.3465	2.203125	-4.73023255814	1.35555555556	-1.79873417722
694	0.347	2.203125	19.7023255814	-0.1	-0.377215189873
695	0.3475	3.65	9.64186046512	2.81111111111	-1.79873417722
696	0.348	0.75625	-6.16744186047	-0.1	-3.22025316456
697	0.3485	0.75625	-9.04186046512	-1.55555555556	-0.377215189873
698	0.349	5.096875	16.8279069767	2.81111111111	-3.22025316456
699	0.3495	3.65	22.576744186	2.81111111111	-4.6417721519
700	0.35	2.203125	2.45581395349	2.81111111111	-0.377215189873
701	0.3505	0.75625	-4.73023255814	-0.1	-3.22025316456
702	0.351	-0.690625	5.33023255814	1.35555555556	-0.377215189873
703	0.3515	-2.1375	-4.73023255814	1.35555555556	-1.79873417722
704	0.352	-9.371875	3.89302325581	1.35555555556	-4.6417721519
705	0.3525	0.75625	5.33023255814	-0.1	-1.79873417722
706	0.353	2.203125	6.76744186047	1.35555555556	-3.22025316456
707	0.3535	-7.925	3.89302325581	-1.55555555556	-0.377215189873
708	0.354	15.225	3.89302325581	-1.55555555556	5.30886075949
709	0.3545	22.459375	1.01860465116	-1.55555555556	-1.79873417722
710	0.355	13.778125	2.45581395349	-0.1	2.46582278481
711	0.3555	21.0125	2.45581395349	-0.1	-0.377215189873
712	0.356	7.990625	2.45581395349	1.35555555556	2.46582278481
713	0.3565	19.565625	8.20465116279	2.81111111111	-0.377215189873
714	0.357	0.75625	3.89302325581	4.26666666667	-7.48481012658
715	0.3575	5.096875	6.76744186047	1.35555555556	12.4164556962
716	0.358	2.203125	5.33023255814	1.35555555556	-3.22025316456
717	0.3585	0.75625	5.33023255814	2.81111111111	-0.377215189873
718	0.359	0.75625	3.89302325581	4.26666666667	8.15189873418
719	0.3595	3.65	5.33023255814	2.81111111111	-6.06329113924
720	0.36	3.65	5.33023255814	4.26666666667	-7.48481012658
721	0.3605	2.203125	2.45581395349	-0.1	-4.6417721519
722	0.361	3.65	2.45581395349	7.17777777778	-8.90632911392
723	0.3615	2.203125	1.01860465116	4.26666666667	-10.3278481013
724	0.362	3.65	2.45581395349	-1.55555555556	-1.79873417722
725	0.3625	3.65	2.45581395349	18.8222222222	-3.22025316456
726	0.363	2.203125	3.89302325581	7.17777777778	-1.79873417722
727	0.3635	0.75625	1.01860465116	4.26666666667	13.8379746835
728	0.364	0.75625	1.01860465116	-3.01111111111	-1.79873417722
729	0.3645	2.203125	1.01860465116	-4.46666666667	-1.79873417722
730	0.365	2.203125	1.01860465116	-8.83333333333	-0.377215189873
731	0.3655	2.203125	1.01860465116	-7.37777777778	10.9949367089
732	0.366	3.65	5.33023255814	-0.1	1.04430379747
733	0.3665	2.203125	3.89302325581	1.35555555556	2.46582278481
734	0.367	2.203125	5.33023255814	4.26666666667	-1.79873417722
735	0.3675	0.75625	8.20465116279	-1.55555555556	-0.377215189873
736	0.368	0.75625	-0.418604651163	2.81111111111	-1.79873417722
737	0.3685	3.65	22.576744186	-0.1	-1.79873417722
738	0.369	7.990625	18.2651162791	-0.1	-3.22025316456
739	0.3695	0.75625	16.8279069767	-0.1	-1.79873417722
740	0.37	5.096875	22.576744186	-0.1	-1.79873417722
741	0.3705	3.65	3.89302325581	-1.55555555556	-0.377215189873
742	0.371	-0.690625	-3.29302325581	4.26666666667	-1.79873417722
743	0.3715	0.75625	-3.29302325581	-1.55555555556	-4.6417721519
744	0.372	-0.690625	2.45581395349	1.35555555556	-0.377215189873
745	0.3725	5.096875	1.01860465116	1.35555555556	-1.79873417722
746	0.373	2.203125	1.01860465116	-4.46666666667	-3.22025316456
747	0.3735	-7.925	3.89302325581	1.35555555556	-0.377215189873
748	0.374	-7.925	3.89302325581	1.35555555556	-3.22025316456
749	0.3745	5.096875	5.33023255814	5.72222222222	-4.6417721519
750	0.375	15.225	2.45581395349	1.35555555556	-1.79873417722
751	0.3755	2.203125	2.45581395349	2.81111111111	-6.06329113924
752	0.376	-7.925	5.33023255814	-0.1	-6.06329113924
753	0.3765	-6.478125	3.89302325581	1.35555555556	-3.22025316456
754	0.377	10.884375	2.45581395349	-0.1	-0.377215189873
755	0.3775	-6.478125	5.33023255814	-1.55555555556	-0.377215189873
756	0.378	7.990625	3.89302325581	2.81111111111	1.04430379747
757	0.3785	2.203125	5.33023255814	4.26666666667	-3.22025316456
758	0.379	0.75625	3.89302325581	2.81111111111	-7.48481012658
759	0.3795	0.75625	5.33023255814	-3.01111111111	13.8379746835
760	0.38	3.65	3.89302325581	1.35555555556	-3.22025316456
761	0.3805	0.75625	5.33023255814	2.81111111111	-8.90632911392
762	0.381	2.203125	3.89302325581	2.81111111111	1.04430379747
763	0.3815	2.203125	5.33023255814	-5.92222222222	-0.377215189873
764	0.382	2.203125	3.89302325581	-7.37777777778	12.4164556962
765	0.3825	2.203125	5.33023255814	-0.1	1.04430379747
766	0.383	3.65	5.33023255814	15.9111111111	-0.377215189873
767	0.3835	-0.690625	5.33023255814	-3.01111111111	3.88734177215
768	0.384	0.75625	2.45581395349	-3.01111111111	1.04430379747
769	0.3845	2.203125	2.45581395349	-4.46666666667	-0.377215189873
770	0.385	5.096875	1.01860465116	-1.55555555556	1.04430379747
771	0.3855	3.65	6.76744186047	2.81111111111	-0.377215189873
772	0.386	0.75625	5.33023255814	-1.55555555556	-0.377215189873
773	0.3865	3.65	3.89302325581	1.35555555556	-1.79873417722
774	0.387	5.096875	6.76744186047	1.35555555556	-3.22025316456
775	0.3875	2.203125	1.01860465116	-0.1	-4.6417721519
776	0.388	3.65	-6.16744186047	-0.1	-0.377215189873
777	0.3885	2.203125	-9.04186046512	1.35555555556	-0.377215189873
778	0.389	2.203125	-3.29302325581	-0.1	-3.22025316456
779	0.3895	-2.1375	-9.04186046512	1.35555555556	-3.22025316456
780	0.39	2.203125	11.0790697674	1.35555555556	-0.377215189873
781	0.3905	0.75625	-4.73023255814	-0.1	-0.377215189873
782	0.391	3.65	11.0790697674	1.35555555556	-1.79873417722
783	0.3915	-0.690625	-3.29302325581	2.81111111111	-3.22025316456
784	0.392	-0.690625	6.76744186047	2.81111111111	-3.22025316456
785	0.3925	-0.690625	-7.60465116279	-1.55555555556	-1.79873417722
786	0.393	-5.03125	2.45581395349	2.81111111111	1.04430379747
787	0.3935	2.203125	3.89302325581	-0.1	-1.79873417722
788	0.394	-9.371875	3.89302325581	1.35555555556	-4.6417721519
789	0.3945	0.75625	2.45581395349	-0.1	-1.79873417722
790	0.395	-9.371875	2.45581395349	-0.1	-0.377215189873
791	0.3955	-3.584375	2.45581395349	2.81111111111	-1.79873417722
792	0.396	25.353125	2.45581395349	2.81111111111	-1.79873417722
793	0.3965	7.990625	5.33023255814	1.35555555556	5.30886075949
794	0.397	21.0125	2.45581395349	2.81111111111	2.46582278481
795	0.3975	5.096875	3.89302325581	1.35555555556	5.30886075949
796	0.398	19.565625	3.89302325581	-0.1	2.46582278481
797	0.3985	2.203125	2.45581395349	4.26666666667	-0.377215189873
798	0.399	-3.584375	6.76744186047	-1.55555555556	12.4164556962
799	0.3995	0.75625	3.89302325581	2.81111111111	-4.6417721519
800	0.4	-6.478125	8.20465116279	4.26666666667	3.88734177215
801	0.4005	3.65	3.89302325581	-0.1	3.88734177215
802	0.401	2.203125	1.01860465116	4.26666666667	3.88734177215
803	0.4015	3.65	3.89302325581	2.81111111111	-6.06329113924
804	0.402	0.75625	5.33023255814	-1.55555555556	-6.06329113924
805	0.4025	5.096875	5.33023255814	2.81111111111	-0.377215189873
806	0.403	2.203125	3.89302325581	1.35555555556	3.88734177215
807	0.4035	3.65	3.89302325581	7.17777777778	-1.79873417722
808	0.404	2.203125	3.89302325581	-8.83333333333	-0.377215189873
809	0.4045	2.203125	3.89302325581	-5.92222222222	-3.22025316456
810	0.405	2.203125	2.45581395349	-8.83333333333	2.46582278481
811	0.4055	3.65	2.45581395349	4.26666666667	1.04430379747
812	0.406	0.75625	3.89302325581	2.81111111111	-1.79873417722
813	0.4065	3.65	3.89302325581	4.26666666667	1.04430379747
814	0.407	0.75625	1.01860465116	18.8222222222	1.04430379747
815	0.4075	0.75625	1.01860465116	-1.55555555556	1.04430379747
816	0.408	2.203125	6.76744186047	-0.1	1.04430379747
817	0.4085	3.65	-1.85581395349	1.35555555556	-0.377215189873
818	0.409	2.203125	6.76744186047	-0.1	2.46582278481
819	0.4095	3.65	1.01860465116	-0.1	1.04430379747
820	0.41	2.203125	5.33023255814	-1.55555555556	-0.377215189873
821	0.4105	0.75625	-6.16744186047	1.35555555556	1.04430379747
822	0.411	2.203125	3.89302325581	-3.01111111111	1.04430379747
823	0.4115	2.203125	-4.73023255814	-1.55555555556	1.04430379747
824	0.412	0.75625	-6.16744186047	-0.1	-0.377215189873
825	0.4125	5.096875	21.1395348837	-0.1	-0.377215189873
826	0.413	0.75625	6.76744186047	2.81111111111	1.04430379747
827	0.4135	3.65	22.576744186	1.35555555556	1.04430379747
828	0.414	3.65	16.8279069767	-0.1	-0.377215189873
829	0.4145	5.096875	1.01860465116	1.35555555556	2.46582278481
830	0.415	3.65	-4.73023255814	-0.1	2.46582278481
831	0.4155	-0.690625	-6.16744186047	-0.1	3.88734177215
832	0.416	0.75625	2.45581395349	-1.55555555556	2.46582278481
833	0.4165	5.096875	1.01860465116	2.81111111111	2.46582278481
834	0.417	0.75625	-1.85581395349	1.35555555556	2.46582278481
835	0.4175	-6.478125	1.01860465116	4.26666666667	1.04430379747
836	0.418	5.096875	5.33023255814	2.81111111111	1.04430379747
837	0.4185	5.096875	2.45581395349	-3.01111111111	-0.377215189873
838	0.419	-10.81875	3.89302325581	2.81111111111	1.04430379747
839	0.4195	-6.478125	11.0790697674	2.81111111111	-1.79873417722
840	0.42	23.90625	3.89302325581	-0.1	2.46582278481
841	0.4205	3.65	5.33023255814	1.35555555556	-0.377215189873
842	0.421	22.459375	2.45581395349	1.35555555556	-0.377215189873
843	0.4215	5.096875	5.33023255814	-1.55555555556	5.30886075949
844	0.422	0.75625	3.89302325581	2.81111111111	5.30886075949
845	0.4225	0.75625	2.45581395349	-0.1	-0.377215189873
846	0.423	-5.03125	2.45581395349	2.81111111111	-0.377215189873
847	0.4235	0.75625	3.89302325581	-0.1	16.6810126582
848	0.424	2.203125	2.45581395349	-0.1	1.04430379747
849	0.4245	-0.690625	5.33023255814	-1.55555555556	-0.377215189873
850	0.425	-0.690625	5.33023255814	-4.46666666667	-6.06329113924
851	0.4255	2.203125	3.89302325581	2.81111111111	-7.48481012658
852	0.426	0.75625	2.45581395349	-3.01111111111	-4.6417721519
853	0.4265	0.75625	5.33023255814	2.81111111111	-8.90632911392
854	0.427	3.65	2.45581395349	1.35555555556	-7.48481012658
855	0.4275	2.203125	3.89302325581	13.0	1.04430379747
856	0.428	5.096875	5.33023255814	18.8222222222	-0.377215189873
857	0.4285	0.75625	6.76744186047	7.17777777778	2.46582278481
858	0.429	3.65	2.45581395349	21.7333333333	1.04430379747
859	0.4295	2.203125	3.89302325581	4.26666666667	1.04430379747
860	0.43	3.65	6.76744186047	15.9111111111	1.04430379747
861	0.4305	2.203125	3.89302325581	-0.1	2.46582278481
862	0.431	0.75625	1.01860465116	-4.46666666667	1.04430379747
863	0.4315	3.65	3.89302325581	-1.55555555556	3.88734177215
864	0.432	3.65	2.45581395349	1.35555555556	1.04430379747
865	0.4325	2.203125	5.33023255814	-1.55555555556	1.04430379747
866	0.433	0.75625	2.45581395349	2.81111111111	-0.377215189873
867	0.4335	2.203125	6.76744186047	1.35555555556	1.04430379747
868	0.434	0.75625	1.01860465116	1.35555555556	2.46582278481
869	0.4345	5.096875	9.64186046512	1.35555555556	3.88734177215
870	0.435	2.203125	2.45581395349	-7.37777777778	18.1025316456
871	0.4355	3.65	-6.16744186047	1.35555555556	1.04430379747
872	0.436	2.203125	19.7023255814	1.35555555556	2.46582278481
873	0.4365	2.203125	9.64186046512	-1.55555555556	1.04430379747
874	0.437	0.75625	-7.60465116279	1.35555555556	2.46582278481
875	0.4375	0.75625	-0.418604651163	1.35555555556	2.46582278481
876	0.438	-0.690625	-6.16744186047	-1.55555555556	1.04430379747
877	0.4385	0.75625	-4.73023255814	2.81111111111	1.04430379747
878	0.439	-2.1375	-6.16744186047	2.81111111111	1.04430379747
879	0.4395	3.65	-1.85581395349	-0.1	-0.377215189873
880	0.44	-10.81875	5.33023255814	1.35555555556	-0.377215189873
881	0.4405	-6.478125	2.45581395349	2.81111111111	-0.377215189873
882	0.441	5.096875	19.7023255814	-0.1	-1.79873417722
883	0.4415	16.671875	1.01860465116	-0.1	-0.377215189873
884	0.442	-5.03125	1.01860465116	2.81111111111	1.04430379747
885	0.4425	-10.81875	1.01860465116	1.35555555556	-0.377215189873
886	0.443	10.884375	-0.418604651163	1.35555555556	2.46582278481
887	0.4435	-6.478125	2.45581395349	1.35555555556	1.04430379747
888	0.444	13.778125	-0.418604651163	2.81111111111	3.88734177215
889	0.4445	22.459375	-0.418604651163	2.81111111111	-0.377215189873
890	0.445	-0.690625	2.45581395349	4.26666666667	-8.90632911392
891	0.4455	-6.478125	2.45581395349	1.35555555556	-0.377215189873
892	0.446	3.65	2.45581395349	-0.1	15.2594936709
893	0.4465	3.65	1.01860465116	-0.1	1.04430379747
894	0.447	-2.1375	2.45581395349	1.35555555556	1.04430379747
895	0.4475	2.203125	2.45581395349	2.81111111111	6.73037974684
896	0.448	0.75625	5.33023255814	5.72222222222	1.04430379747
897	0.4485	2.203125	-0.418604651163	1.35555555556	-0.377215189873
898	0.449	2.203125	1.01860465116	4.26666666667	-8.90632911392
899	0.4495	0.75625	2.45581395349	2.81111111111	2.46582278481
900	0.45	0.75625	1.01860465116	-11.7444444444	-0.377215189873
901	0.4505	3.65	1.01860465116	4.26666666667	5.30886075949
902	0.451	0.75625	2.45581395349	-10.2888888889	-0.377215189873
903	0.4515	2.203125	2.45581395349	11.5444444444	-0.377215189873
904	0.452	3.65	2.45581395349	4.26666666667	-7.48481012658
905	0.4525	0.75625	2.45581395349	15.9111111111	-4.6417721519
906	0.453	5.096875	1.01860465116	-4.46666666667	-1.79873417722
907	0.4535	3.65	5.33023255814	-0.1	-0.377215189873
908	0.454	0.75625	2.45581395349	-4.46666666667	-0.377215189873
909	0.4545	2.203125	6.76744186047	1.35555555556	-1.79873417722
910	0.455	0.75625	1.01860465116	-7.37777777778	1.04430379747
911	0.4555	3.65	5.33023255814	1.35555555556	1.04430379747
912	0.456	0.75625	-3.29302325581	-1.55555555556	-0.377215189873
913	0.4565	5.096875	16.8279069767	-0.1	-0.377215189873
914	0.457	3.65	1.01860465116	1.35555555556	-0.377215189873
915	0.4575	7.990625	18.2651162791	1.35555555556	-0.377215189873
916	0.458	0.75625	2.45581395349	4.26666666667	2.46582278481
917	0.4585	0.75625	-0.418604651163	-7.37777777778	18.1025316456
918	0.459	0.75625	-1.85581395349	2.81111111111	1.04430379747
919	0.4595	7.990625	15.3906976744	-0.1	2.46582278481
920	0.46	7.990625	-0.418604651163	4.26666666667	1.04430379747
921	0.4605	-3.584375	-0.418604651163	2.81111111111	-0.377215189873
922	0.461	5.096875	1.01860465116	1.35555555556	-1.79873417722
923	0.4615	-6.478125	1.01860465116	1.35555555556	1.04430379747
924	0.462	3.65	-0.418604651163	-0.1	1.04430379747
925	0.4625	6.54375	15.3906976744	-1.55555555556	-0.377215189873
926	0.463	6.54375	-0.418604651163	1.35555555556	-3.22025316456
927	0.4635	-12.265625	-4.73023255814	1.35555555556	1.04430379747
928	0.464	5.096875	-1.85581395349	-0.1	-0.377215189873
929	0.4645	-9.371875	-3.29302325581	-0.1	-3.22025316456
930	0.465	-0.690625	-1.85581395349	-0.1	1.04430379747
931	0.4655	-5.03125	-1.85581395349	1.35555555556	-6.06329113924
932	0.466	-0.690625	-0.418604651163	1.35555555556	3.88734177215
933	0.4665	-5.03125	-1.85581395349	-0.1	-4.6417721519
934	0.467	3.65	-3.29302325581	-0.1	13.8379746835
935	0.4675	2.203125	-1.85581395349	-0.1	15.2594936709
936	0.468	2.203125	-1.85581395349	1.35555555556	9.57341772152
937	0.4685	3.65	-4.73023255814	-1.55555555556	19.5240506329
938	0.469	2.203125	-1.85581395349	1.35555555556	1.04430379747
939	0.4695	0.75625	-3.29302325581	-0.1	18.1025316456
940	0.47	2.203125	-4.73023255814	-1.55555555556	-3.22025316456
941	0.4705	5.096875	-3.29302325581	-8.83333333333	-0.377215189873
942	0.471	-0.690625	-1.85581395349	5.72222222222	-7.48481012658
943	0.4715	0.75625	-1.85581395349	-8.83333333333	-3.22025316456
944	0.472	3.65	-1.85581395349	7.17777777778	-10.3278481013
945	0.4725	3.65	-0.418604651163	-1.55555555556	-4.6417721519
946	0.473	0.75625	-0.418604651163	18.8222222222	-1.79873417722
947	0.4735	-0.690625	-3.29302325581	13.0	-0.377215189873
948	0.474	0.75625	-1.85581395349	15.9111111111	-0.377215189873
949	0.4745	2.203125	-1.85581395349	17.3666666667	1.04430379747
950	0.475	0.75625	-1.85581395349	14.4555555556	2.46582278481
951	0.4755	3.65	-1.85581395349	20.2777777778	-0.377215189873
952	0.476	0.75625	-1.85581395349	-1.55555555556	-0.377215189873
953	0.4765	-0.690625	1.01860465116	1.35555555556	2.46582278481
954	0.477	0.75625	-1.85581395349	-4.46666666667	-0.377215189873
955	0.4775	2.203125	1.01860465116	2.81111111111	-0.377215189873
956	0.478	0.75625	-4.73023255814	-3.01111111111	-0.377215189873
957	0.4785	2.203125	-3.29302325581	-1.55555555556	3.88734177215
958	0.479	0.75625	-3.29302325581	1.35555555556	-0.377215189873
959	0.4795	2.203125	1.01860465116	-0.1	-1.79873417722
960	0.48	2.203125	-4.73023255814	1.35555555556	-0.377215189873
961	0.4805	5.096875	16.8279069767	2.81111111111	-1.79873417722
962	0.481	2.203125	5.33023255814	2.81111111111	-0.377215189873
963	0.4815	2.203125	16.8279069767	2.81111111111	-3.22025316456
964	0.482	2.203125	8.20465116279	-0.1	-0.377215189873
965	0.4825	0.75625	-3.29302325581	-5.92222222222	13.8379746835
966	0.483	0.75625	-1.85581395349	2.81111111111	-0.377215189873
967	0.4835	2.203125	-10.4790697674	1.35555555556	-1.79873417722
968	0.484	-0.690625	2.45581395349	1.35555555556	-0.377215189873
969	0.4845	2.203125	13.9534883721	-0.1	-0.377215189873
970	0.485	0.75625	-6.16744186047	2.81111111111	-0.377215189873
971	0.4855	-2.1375	-11.9162790698	-7.37777777778	1.04430379747
972	0.486	-7.925	-1.85581395349	-0.1	3.88734177215
973	0.4865	5.096875	-1.85581395349	1.35555555556	2.46582278481
974	0.487	-6.478125	-1.85581395349	2.81111111111	2.46582278481
975	0.4875	3.65	-4.73023255814	2.81111111111	1.04430379747
976	0.488	9.4375	-4.73023255814	2.81111111111	-0.377215189873
977	0.4885	-9.371875	-6.16744186047	1.35555555556	1.04430379747
978	0.489	-7.925	-4.73023255814	-0.1	1.04430379747
979	0.4895	22.459375	-4.73023255814	1.35555555556	1.04430379747
980	0.49	9.4375	-0.418604651163	2.81111111111	1.04430379747
981	0.4905	-7.925	-1.85581395349	4.26666666667	-1.79873417722
982	0.491	-0.690625	-3.29302325581	4.26666666667	-10.3278481013
983	0.4915	-7.925	-3.29302325581	1.35555555556	-0.377215189873
984	0.492	-0.690625	-4.73023255814	2.81111111111	-10.3278481013
985	0.4925	-5.03125	-1.85581395349	1.35555555556	-6.06329113924
986	0.493	2.203125	-4.73023255814	2.81111111111	16.6810126582
987	0.4935	-0.690625	-3.29302325581	1.35555555556	1.04430379747
988	0.494	0.75625	-0.418604651163	-0.1	-1.79873417722
989	0.4945	2.203125	-3.29302325581	-0.1	1.04430379747
990	0.495	2.203125	-3.29302325581	-4.46666666667	-4.6417721519
991	0.4955	0.75625	-3.29302325581	1.35555555556	-1.79873417722
992	0.496	2.203125	-3.29302325581	2.81111111111	-10.3278481013
993	0.4965	3.65	-4.73023255814	4.26666666667	2.46582278481
994	0.497	2.203125	-1.85581395349	1.35555555556	1.04430379747
995	0.4975	0.75625	-4.73023255814	4.26666666667	-3.22025316456
996	0.498	2.203125	-3.29302325581	2.81111111111	-11.7493670886
997	0.4985	0.75625	1.01860465116	4.26666666667	-1.79873417722
998	0.499	0.75625	-3.29302325581	-8.83333333333	-3.22025316456
999	0.4995	3.65	-0.418604651163	-3.01111111111	-1.79873417722
1000	0.5	0.75625	-3.29302325581	-8.83333333333	-0.377215189873
1001	0.5005	3.65	-4.73023255814	2.81111111111	5.30886075949
1002	0.501	0.75625	1.01860465116	2.81111111111	-1.79873417722
1003	0.5015	2.203125	-0.418604651163	1.35555555556	-4.6417721519
1004	0.502	-2.1375	-13.3534883721	1.35555555556	-3.22025316456
1005	0.5025	0.75625	-9.04186046512	-4.46666666667	-3.22025316456
1006	0.503	0.75625	-14.7906976744	1.35555555556	-3.22025316456
1007	0.5035	0.75625	1.01860465116	1.35555555556	-0.377215189873
1008	0.504	5.096875	12.5162790698	1.35555555556	-1.79873417722
1009	0.5045	3.65	-0.418604651163	18.8222222222	-10.3278481013
1010	0.505	3.65	-7.60465116279	-0.1	-0.377215189873
1011	0.5055	-0.690625	-10.4790697674	1.35555555556	-0.377215189873
1012	0.506	3.65	1.01860465116	2.81111111111	-0.377215189873
1013	0.5065	9.4375	-0.418604651163	-0.1	-1.79873417722
1014	0.507	-5.03125	-1.85581395349	1.35555555556	-1.79873417722
1015	0.5075	3.65	-0.418604651163	2.81111111111	-4.6417721519
1016	0.508	-7.925	-3.29302325581	1.35555555556	1.04430379747
1017	0.5085	5.096875	-1.85581395349	-0.1	-1.79873417722
1018	0.509	9.4375	-3.29302325581	-0.1	-1.79873417722
1019	0.5095	-12.265625	-3.29302325581	-1.55555555556	-1.79873417722
1020	0.51	-5.03125	1.01860465116	2.81111111111	-0.377215189873
1021	0.5105	19.565625	-3.29302325581	2.81111111111	3.88734177215
1022	0.511	15.225	-4.73023255814	1.35555555556	-0.377215189873
1023	0.5115	15.225	1.01860465116	-1.55555555556	3.88734177215
1024	0.512	0.75625	-3.29302325581	1.35555555556	-6.06329113924
1025	0.5125	2.203125	-1.85581395349	-0.1	10.9949367089
1026	0.513	-0.690625	-1.85581395349	2.81111111111	-3.22025316456
1027	0.5135	3.65	-1.85581395349	-1.55555555556	9.57341772152
1028	0.514	0.75625	-3.29302325581	1.35555555556	-1.79873417722
1029	0.5145	0.75625	-0.418604651163	-0.1	19.5240506329
1030	0.515	0.75625	-1.85581395349	-3.01111111111	-3.22025316456
1031	0.5155	-0.690625	-1.85581395349	4.26666666667	-3.22025316456
1032	0.516	2.203125	-1.85581395349	2.81111111111	-0.377215189873
1033	0.5165	2.203125	-4.73023255814	18.8222222222	1.04430379747
1034	0.517	-0.690625	-1.85581395349	8.63333333333	-0.377215189873
1035	0.5175	0.75625	-3.29302325581	-7.37777777778	16.6810126582
1036	0.518	0.75625	-6.16744186047	2.81111111111	-3.22025316456
1037	0.5185	0.75625	-4.73023255814	-1.55555555556	-3.22025316456
1038	0.519	0.75625	-1.85581395349	17.3666666667	-0.377215189873
1039	0.5195	0.75625	-7.60465116279	4.26666666667	-0.377215189873
1040	0.52	2.203125	-0.418604651163	1.35555555556	-0.377215189873
1041	0.5205	-0.690625	-1.85581395349	-0.1	1.04430379747
1042	0.521	0.75625	-0.418604651163	-0.1	9.57341772152
1043	0.5215	0.75625	-13.3534883721	-0.1	-0.377215189873
1044	0.522	-0.690625	-4.73023255814	-4.46666666667	1.04430379747
1045	0.5225	0.75625	-13.3534883721	1.35555555556	-1.79873417722
1046	0.523	0.75625	-10.4790697674	2.81111111111	-0.377215189873
1047	0.5235	2.203125	15.3906976744	1.35555555556	-1.79873417722
1048	0.524	2.203125	-0.418604651163	-1.55555555556	-1.79873417722
1049	0.5245	-2.1375	-13.3534883721	1.35555555556	-1.79873417722
1050	0.525	3.65	-6.16744186047	2.81111111111	-0.377215189873
1051	0.5255	2.203125	-10.4790697674	1.35555555556	-1.79873417722
1052	0.526	-0.690625	11.0790697674	4.26666666667	-1.79873417722
1053	0.5265	-5.03125	-3.29302325581	2.81111111111	-1.79873417722
1054	0.527	3.65	-4.73023255814	1.35555555556	-1.79873417722
1055	0.5275	-10.81875	-3.29302325581	1.35555555556	-1.79873417722
1056	0.528	10.884375	-1.85581395349	-0.1	1.04430379747
1057	0.5285	18.11875	-3.29302325581	1.35555555556	-1.79873417722
1058	0.529	0.75625	-3.29302325581	-0.1	-1.79873417722
1059	0.5295	-7.925	-3.29302325581	4.26666666667	-6.06329113924
1060	0.53	-5.03125	-3.29302325581	4.26666666667	-11.7493670886
1061	0.5305	-7.925	-3.29302325581	1.35555555556	-3.22025316456
1062	0.531	-2.1375	-1.85581395349	1.35555555556	-11.7493670886
1063	0.5315	-7.925	-3.29302325581	-0.1	-1.79873417722
1064	0.532	0.75625	-1.85581395349	1.35555555556	1.04430379747
1065	0.5325	2.203125	-3.29302325581	-1.55555555556	-0.377215189873
1066	0.533	3.65	-3.29302325581	-1.55555555556	15.2594936709
1067	0.5335	0.75625	-4.73023255814	-0.1	3.88734177215
1068	0.534	0.75625	-4.73023255814	1.35555555556	15.2594936709
1069	0.5345	0.75625	-6.16744186047	-7.37777777778	-1.79873417722
1070	0.535	0.75625	-3.29302325581	2.81111111111	-6.06329113924
1071	0.5355	-0.690625	-1.85581395349	-1.55555555556	-1.79873417722
1072	0.536	2.203125	-4.73023255814	-3.01111111111	-4.6417721519
1073	0.5365	3.65	-4.73023255814	-3.01111111111	2.46582278481
1074	0.537	-0.690625	-1.85581395349	-1.55555555556	1.04430379747
1075	0.5375	-0.690625	-6.16744186047	-7.37777777778	-3.22025316456
1076	0.538	0.75625	-4.73023255814	1.35555555556	-0.377215189873
1077	0.5385	0.75625	-4.73023255814	-5.92222222222	-0.377215189873
1078	0.539	0.75625	-6.16744186047	-5.92222222222	-0.377215189873
1079	0.5395	0.75625	-4.73023255814	-4.46666666667	5.30886075949
1080	0.54	2.203125	1.01860465116	1.35555555556	1.04430379747
1081	0.5405	-2.1375	-13.3534883721	-1.55555555556	-0.377215189873
1082	0.541	2.203125	11.0790697674	-0.1	1.04430379747
1083	0.5415	2.203125	-0.418604651163	-5.92222222222	-0.377215189873
1084	0.542	0.75625	-1.85581395349	-1.55555555556	-1.79873417722
1085	0.5425	5.096875	-1.85581395349	2.81111111111	-0.377215189873
1086	0.543	0.75625	-7.60465116279	-0.1	-3.22025316456
1087	0.5435	9.4375	-3.29302325581	2.81111111111	-1.79873417722
1088	0.544	5.096875	-3.29302325581	-0.1	-1.79873417722
1089	0.5445	-0.690625	-10.4790697674	-4.46666666667	-1.79873417722
1090	0.545	-9.371875	-1.85581395349	-0.1	-0.377215189873
1091	0.5455	-3.584375	-4.73023255814	1.35555555556	-1.79873417722
1092	0.546	5.096875	16.8279069767	-0.1	-0.377215189873
1093	0.5465	10.884375	-4.73023255814	1.35555555556	-1.79873417722
1094	0.547	-5.03125	-1.85581395349	2.81111111111	-1.79873417722
1095	0.5475	19.565625	-4.73023255814	4.26666666667	-0.377215189873
1096	0.548	0.75625	-6.16744186047	1.35555555556	-7.48481012658
1097	0.5485	-6.478125	-3.29302325581	2.81111111111	-0.377215189873
1098	0.549	-5.03125	-4.73023255814	1.35555555556	-0.377215189873
1099	0.5495	-5.03125	-3.29302325581	1.35555555556	-7.48481012658
1100	0.55	0.75625	-4.73023255814	1.35555555556	6.73037974684
1101	0.5505	0.75625	-4.73023255814	4.26666666667	-7.48481012658
1102	0.551	0.75625	-4.73023255814	2.81111111111	-4.6417721519
1103	0.5515	0.75625	-1.85581395349	2.81111111111	-8.90632911392
1104	0.552	-0.690625	-1.85581395349	8.63333333333	1.04430379747
1105	0.5525	-0.690625	-1.85581395349	-5.92222222222	-0.377215189873
1106	0.553	2.203125	-0.418604651163	13.0	-1.79873417722
1107	0.5535	2.203125	-1.85581395349	-1.55555555556	-0.377215189873
1108	0.554	0.75625	-1.85581395349	18.8222222222	-0.377215189873
1109	0.5545	0.75625	-3.29302325581	-3.01111111111	8.15189873418
1110	0.555	0.75625	-3.29302325581	17.3666666667	-3.22025316456
1111	0.5555	0.75625	-3.29302325581	-4.46666666667	-8.90632911392
1112	0.556	-0.690625	2.45581395349	-0.1	-1.79873417722
1113	0.5565	-0.690625	-9.04186046512	1.35555555556	1.04430379747
1114	0.557	0.75625	1.01860465116	-0.1	-1.79873417722
1115	0.5575	2.203125	-4.73023255814	-5.92222222222	-3.22025316456
1116	0.558	3.65	-6.16744186047	2.81111111111	-1.79873417722
1117	0.5585	2.203125	11.0790697674	2.81111111111	-0.377215189873
1118	0.559	0.75625	5.33023255814	-0.1	-0.377215189873
1119	0.5595	-2.1375	-10.4790697674	2.81111111111	-0.377215189873
1120	0.56	5.096875	-4.73023255814	1.35555555556	-1.79873417722
1121	0.5605	2.203125	-7.60465116279	1.35555555556	1.04430379747
1122	0.561	5.096875	-3.29302325581	1.35555555556	-0.377215189873
1123	0.5615	3.65	-7.60465116279	-0.1	-1.79873417722
1124	0.562	2.203125	-4.73023255814	2.81111111111	-0.377215189873
1125	0.5625	18.11875	-4.73023255814	1.35555555556	-0.377215189873
1126	0.563	0.75625	-6.16744186047	2.81111111111	1.04430379747
1127	0.5635	-12.265625	-14.7906976744	1.35555555556	-0.377215189873
1128	0.564	2.203125	-6.16744186047	2.81111111111	3.88734177215
1129	0.5645	16.671875	-6.16744186047	2.81111111111	2.46582278481
1130	0.565	18.11875	-4.73023255814	2.81111111111	2.46582278481
1131	0.5655	-7.925	-3.29302325581	-0.1	-10.3278481013
1132	0.566	-10.81875	-1.85581395349	2.81111111111	-0.377215189873
1133	0.5665	-3.584375	-7.60465116279	1.35555555556	-1.79873417722
1134	0.567	0.75625	-4.73023255814	-1.55555555556	16.6810126582
1135	0.5675	-0.690625	-4.73023255814	1.35555555556	5.30886075949
1136	0.568	0.75625	-3.29302325581	-0.1	15.2594936709
1137	0.5685	0.75625	-3.29302325581	-8.83333333333	-0.377215189873
1138	0.569	0.75625	-6.16744186047	-4.46666666667	5.30886075949
1139	0.5695	2.203125	-6.16744186047	-1.55555555556	15.2594936709
1140	0.57	-0.690625	-3.29302325581	-4.46666666667	-1.79873417722
1141	0.5705	0.75625	-4.73023255814	14.4555555556	-0.377215189873
1142	0.571	2.203125	-6.16744186047	5.72222222222	-7.48481012658
1143	0.5715	0.75625	-6.16744186047	2.81111111111	5.30886075949
1144	0.572	-2.1375	-10.4790697674	-8.83333333333	-0.377215189873
1145	0.5725	-2.1375	-6.16744186047	-0.1	-0.377215189873
1146	0.573	-0.690625	-7.60465116279	-5.92222222222	-0.377215189873
1147	0.5735	-0.690625	-0.418604651163	-1.55555555556	-1.79873417722
1148	0.574	2.203125	-3.29302325581	-4.46666666667	1.04430379747
1149	0.5745	0.75625	-9.04186046512	-8.83333333333	15.2594936709
1150	0.575	0.75625	-14.7906976744	-0.1	-0.377215189873
1151	0.5755	-0.690625	-7.60465116279	-1.55555555556	-4.6417721519
1152	0.576	0.75625	6.76744186047	4.26666666667	-1.79873417722
1153	0.5765	-0.690625	-7.60465116279	2.81111111111	-1.79873417722
1154	0.577	2.203125	-7.60465116279	-8.83333333333	16.6810126582
1155	0.5775	-0.690625	-3.29302325581	1.35555555556	-0.377215189873
1156	0.578	0.75625	8.20465116279	1.35555555556	1.04430379747
1157	0.5785	2.203125	-6.16744186047	2.81111111111	1.04430379747
1158	0.579	0.75625	-6.16744186047	1.35555555556	1.04430379747
1159	0.5795	3.65	-6.16744186047	2.81111111111	2.46582278481
1160	0.58	-2.1375	-11.9162790698	-7.37777777778	-0.377215189873
1161	0.5805	-10.81875	-7.60465116279	-0.1	2.46582278481
1162	0.581	-2.1375	-6.16744186047	-0.1	1.04430379747
1163	0.5815	3.65	15.3906976744	-0.1	1.04430379747
1164	0.582	12.33125	-3.29302325581	-0.1	1.04430379747
1165	0.5825	-3.584375	-4.73023255814	-0.1	1.04430379747
1166	0.583	19.565625	-4.73023255814	1.35555555556	3.88734177215
1167	0.5835	12.33125	-6.16744186047	4.26666666667	-3.22025316456
1168	0.584	-6.478125	-4.73023255814	1.35555555556	-0.377215189873
1169	0.5845	-9.371875	-4.73023255814	4.26666666667	1.04430379747
1170	0.585	-0.690625	-6.16744186047	1.35555555556	16.6810126582
1171	0.5855	0.75625	-4.73023255814	-0.1	15.2594936709
1172	0.586	2.203125	-6.16744186047	1.35555555556	-0.377215189873
1173	0.5865	0.75625	-4.73023255814	1.35555555556	13.8379746835
1174	0.587	-3.584375	-3.29302325581	2.81111111111	1.04430379747
1175	0.5875	-0.690625	-1.85581395349	-5.92222222222	-3.22025316456
1176	0.588	0.75625	-4.73023255814	-3.01111111111	-0.377215189873
1177	0.5885	3.65	-4.73023255814	-7.37777777778	-0.377215189873
1178	0.589	-2.1375	-6.16744186047	2.81111111111	8.15189873418
1179	0.5895	2.203125	-4.73023255814	14.4555555556	1.04430379747
1180	0.59	0.75625	-6.16744186047	-4.46666666667	-1.79873417722
1181	0.5905	0.75625	-6.16744186047	14.4555555556	-0.377215189873
1182	0.591	-0.690625	-9.04186046512	-4.46666666667	-0.377215189873
1183	0.5915	2.203125	-6.16744186047	8.63333333333	-3.22025316456
1184	0.592	-0.690625	-3.29302325581	1.35555555556	1.04430379747
1185	0.5925	-0.690625	-6.16744186047	-8.83333333333	-6.06329113924
1186	0.593	0.75625	-6.16744186047	-1.55555555556	-0.377215189873
1187	0.5935	2.203125	13.9534883721	1.35555555556	1.04430379747
1188	0.594	3.65	1.01860465116	2.81111111111	1.04430379747
1189	0.5945	3.65	11.0790697674	-0.1	2.46582278481
1190	0.595	5.096875	9.64186046512	-1.55555555556	1.04430379747
1191	0.5955	0.75625	-0.418604651163	1.35555555556	1.04430379747
1192	0.596	2.203125	-6.16744186047	-1.55555555556	2.46582278481
1193	0.5965	2.203125	-3.29302325581	-0.1	-0.377215189873
1194	0.597	-0.690625	-4.73023255814	1.35555555556	3.88734177215
1195	0.5975	5.096875	-7.60465116279	1.35555555556	-0.377215189873
1196	0.598	5.096875	8.20465116279	-1.55555555556	-1.79873417722
1197	0.5985	0.75625	-4.73023255814	1.35555555556	-1.79873417722
1198	0.599	-10.81875	-1.85581395349	2.81111111111	-0.377215189873
1199	0.5995	-6.478125	-4.73023255814	1.35555555556	1.04430379747
1200	0.6	-5.03125	-3.29302325581	4.26666666667	-11.7493670886
1201	0.6005	-5.03125	-3.29302325581	4.26666666667	-10.3278481013
1202	0.601	-7.925	-3.29302325581	2.81111111111	-4.6417721519
1203	0.6015	2.203125	-4.73023255814	-3.01111111111	15.2594936709
1204	0.602	3.65	-1.85581395349	1.35555555556	-3.22025316456
1205	0.6025	-0.690625	-9.04186046512	-1.55555555556	-7.48481012658
1206	0.603	0.75625	-6.16744186047	4.26666666667	-11.7493670886
1207	0.6035	0.75625	-6.16744186047	-7.37777777778	-3.22025316456
1208	0.604	0.75625	-9.04186046512	-0.1	-8.90632911392
1209	0.6045	0.75625	-4.73023255814	-8.83333333333	-0.377215189873
1210	0.605	-0.690625	-4.73023255814	-4.46666666667	-3.22025316456
1211	0.6055	-0.690625	-4.73023255814	-7.37777777778	1.04430379747
1212	0.606	2.203125	-6.16744186047	-1.55555555556	-0.377215189873
1213	0.6065	2.203125	-3.29302325581	13.0	-6.06329113924
1214	0.607	-0.690625	-6.16744186047	-8.83333333333	1.04430379747
1215	0.6075	0.75625	-11.9162790698	1.35555555556	1.04430379747
1216	0.608	0.75625	-4.73023255814	-0.1	1.04430379747
1217	0.6085	2.203125	-14.7906976744	1.35555555556	-0.377215189873
1218	0.609	2.203125	-9.04186046512	2.81111111111	-0.377215189873
1219	0.6095	-0.690625	-16.2279069767	4.26666666667	-0.377215189873
1220	0.61	-2.1375	-4.73023255814	1.35555555556	-1.79873417722
1221	0.6105	2.203125	5.33023255814	1.35555555556	-0.377215189873
1222	0.611	0.75625	-1.85581395349	17.3666666667	-7.48481012658
1223	0.6115	0.75625	-10.4790697674	2.81111111111	1.04430379747
1224	0.612	-2.1375	-13.3534883721	2.81111111111	3.88734177215
1225	0.6125	-0.690625	-16.2279069767	2.81111111111	-1.79873417722
1226	0.613	-3.584375	-3.29302325581	1.35555555556	-0.377215189873
1227	0.6135	-10.81875	-3.29302325581	-0.1	-1.79873417722
1228	0.614	-5.03125	-4.73023255814	1.35555555556	-0.377215189873
1229	0.6145	-12.265625	-3.29302325581	1.35555555556	-1.79873417722
1230	0.615	-7.925	-3.29302325581	-0.1	-1.79873417722
1231	0.6155	16.671875	-4.73023255814	-0.1	-1.79873417722
1232	0.616	15.225	-4.73023255814	-0.1	-0.377215189873
1233	0.6165	2.203125	-4.73023255814	-3.01111111111	2.46582278481
1234	0.617	-0.690625	-7.60465116279	-0.1	-1.79873417722
1235	0.6175	-5.03125	-4.73023255814	-0.1	-0.377215189873
1236	0.618	-10.81875	-6.16744186047	1.35555555556	-1.79873417722
1237	0.6185	-0.690625	-6.16744186047	-0.1	16.6810126582
1238	0.619	0.75625	-3.29302325581	4.26666666667	-6.06329113924
1239	0.6195	0.75625	-6.16744186047	-0.1	5.30886075949
1240	0.62	-0.690625	-6.16744186047	1.35555555556	-0.377215189873
1241	0.6205	-0.690625	-6.16744186047	-5.92222222222	-0.377215189873
1242	0.621	-0.690625	-3.29302325581	1.35555555556	-3.22025316456
1243	0.6215	0.75625	-3.29302325581	4.26666666667	-7.48481012658
1244	0.622	0.75625	-4.73023255814	13.0	-0.377215189873
1245	0.6225	2.203125	-1.85581395349	15.9111111111	-1.79873417722
1246	0.623	2.203125	-6.16744186047	20.2777777778	-1.79873417722
1247	0.6235	-2.1375	-4.73023255814	-3.01111111111	-1.79873417722
1248	0.624	0.75625	-4.73023255814	7.17777777778	-0.377215189873
1249	0.6245	-0.690625	-6.16744186047	2.81111111111	-3.22025316456
1250	0.625	0.75625	-1.85581395349	-0.1	-3.22025316456
1251	0.6255	-0.690625	-7.60465116279	-3.01111111111	-1.79873417722
1252	0.626	0.75625	-0.418604651163	1.35555555556	-1.79873417722
1253	0.6265	3.65	-1.85581395349	1.35555555556	-0.377215189873
1254	0.627	0.75625	-7.60465116279	-5.92222222222	15.2594936709
1255	0.6275	-2.1375	-16.2279069767	2.81111111111	-0.377215189873
1256	0.628	-0.690625	2.45581395349	2.81111111111	-0.377215189873
1257	0.6285	2.203125	-3.29302325581	18.8222222222	-10.3278481013
1258	0.629	-0.690625	-6.16744186047	-0.1	-1.79873417722
1259	0.6295	-5.03125	-13.3534883721	-0.1	-0.377215189873
1260	0.63	-5.03125	-16.2279069767	-0.1	-1.79873417722
1261	0.6305	-5.03125	-4.73023255814	-1.55555555556	1.04430379747
1262	0.631	0.75625	-4.73023255814	2.81111111111	-0.377215189873
1263	0.6315	2.203125	-7.60465116279	-0.1	-0.377215189873
1264	0.632	-5.03125	-10.4790697674	-0.1	-4.6417721519
1265	0.6325	-12.265625	-4.73023255814	2.81111111111	-0.377215189873
1266	0.633	6.54375	-4.73023255814	1.35555555556	-4.6417721519
1267	0.6335	-9.371875	-4.73023255814	-0.1	-7.48481012658
1268	0.634	0.75625	-3.29302325581	4.26666666667	-0.377215189873
1269	0.6345	13.778125	-6.16744186047	1.35555555556	-1.79873417722
1270	0.635	-5.03125	-4.73023255814	1.35555555556	-11.7493670886
1271	0.6355	-7.925	-6.16744186047	2.81111111111	-3.22025316456
1272	0.636	-7.925	-4.73023255814	1.35555555556	-1.79873417722
1273	0.6365	-0.690625	-4.73023255814	2.81111111111	1.04430379747
1274	0.637	2.203125	-4.73023255814	1.35555555556	-1.79873417722
1275	0.6375	-0.690625	-4.73023255814	4.26666666667	-11.7493670886
1276	0.638	0.75625	-4.73023255814	-0.1	-10.3278481013
1277	0.6385	-0.690625	-4.73023255814	1.35555555556	-1.79873417722
1278	0.639	0.75625	-6.16744186047	-8.83333333333	9.57341772152
1279	0.6395	0.75625	-6.16744186047	-1.55555555556	-0.377215189873
1280	0.64	0.75625	-4.73023255814	18.8222222222	-1.79873417722
1281	0.6405	0.75625	-4.73023255814	2.81111111111	-6.06329113924
1282	0.641	0.75625	-6.16744186047	-4.46666666667	9.57341772152
1283	0.6415	-0.690625	-9.04186046512	-7.37777777778	-1.79873417722
1284	0.642	0.75625	-6.16744186047	-1.55555555556	-3.22025316456
1285	0.6425	0.75625	-3.29302325581	1.35555555556	-3.22025316456
1286	0.643	-2.1375	-14.7906976744	-1.55555555556	-3.22025316456
1287	0.6435	-2.1375	-7.60465116279	4.26666666667	-1.79873417722
1288	0.644	0.75625	-14.7906976744	2.81111111111	-1.79873417722
1289	0.6445	-0.690625	-6.16744186047	-0.1	-3.22025316456
1290	0.645	-0.690625	-19.1023255814	1.35555555556	-1.79873417722
1291	0.6455	0.75625	-4.73023255814	1.35555555556	-0.377215189873
1292	0.646	0.75625	9.64186046512	1.35555555556	-1.79873417722
1293	0.6465	2.203125	6.76744186047	1.35555555556	-0.377215189873
1294	0.647	2.203125	-10.4790697674	-0.1	-4.6417721519
1295	0.6475	-2.1375	-7.60465116279	-0.1	-0.377215189873
1296	0.648	3.65	-6.16744186047	4.26666666667	-1.79873417722
1297	0.6485	0.75625	-10.4790697674	-0.1	-1.79873417722
1298	0.649	-7.925	-1.85581395349	1.35555555556	-0.377215189873
1299	0.6495	-9.371875	-3.29302325581	1.35555555556	-1.79873417722
1300	0.65	0.75625	11.0790697674	-1.55555555556	-1.79873417722
1301	0.6505	18.11875	-3.29302325581	1.35555555556	-1.79873417722
1302	0.651	-3.584375	-3.29302325581	1.35555555556	-1.79873417722
1303	0.6515	-7.925	-1.85581395349	-0.1	-6.06329113924
1304	0.652	-0.690625	-3.29302325581	-0.1	3.88734177215
1305	0.6525	-7.925	-3.29302325581	1.35555555556	-10.3278481013
1306	0.653	-7.925	-4.73023255814	-0.1	-1.79873417722
1307	0.6535	0.75625	-3.29302325581	-1.55555555556	13.8379746835
1308	0.654	2.203125	-6.16744186047	-0.1	1.04430379747
1309	0.6545	-0.690625	-4.73023255814	-1.55555555556	13.8379746835
1310	0.655	-0.690625	-4.73023255814	4.26666666667	-7.48481012658
1311	0.6555	0.75625	-4.73023255814	-0.1	5.30886075949
1312	0.656	0.75625	-4.73023255814	2.81111111111	-13.1708860759
1313	0.6565	-0.690625	-1.85581395349	15.9111111111	-0.377215189873
1314	0.657	0.75625	-3.29302325581	-0.1	-6.06329113924
1315	0.6575	2.203125	-4.73023255814	-8.83333333333	-3.22025316456
1316	0.658	0.75625	-3.29302325581	13.0	-1.79873417722
1317	0.6585	-0.690625	-4.73023255814	-4.46666666667	-1.79873417722
1318	0.659	-3.584375	-0.418604651163	-0.1	-0.377215189873
1319	0.6595	-0.690625	-1.85581395349	-3.01111111111	-0.377215189873
1320	0.66	0.75625	-3.29302325581	20.2777777778	-1.79873417722
1321	0.6605	-0.690625	-3.29302325581	-1.55555555556	-3.22025316456
1322	0.661	2.203125	-11.9162790698	1.35555555556	-3.22025316456
1323	0.6615	0.75625	-3.29302325581	1.35555555556	-0.377215189873
1324	0.662	-0.690625	-9.04186046512	1.35555555556	-1.79873417722
1325	0.6625	-2.1375	-16.2279069767	-0.1	1.04430379747
1326	0.663	-0.690625	5.33023255814	1.35555555556	-1.79873417722
1327	0.6635	0.75625	-14.7906976744	2.81111111111	-1.79873417722
1328	0.664	-3.584375	-14.7906976744	-0.1	-0.377215189873
1329	0.6645	-0.690625	-1.85581395349	-1.55555555556	-1.79873417722
1330	0.665	0.75625	-6.16744186047	1.35555555556	-0.377215189873
1331	0.6655	-12.265625	-6.16744186047	-0.1	-0.377215189873
1332	0.666	-2.1375	-4.73023255814	2.81111111111	-3.22025316456
1333	0.6665	2.203125	-4.73023255814	1.35555555556	-1.79873417722
1334	0.667	18.11875	-4.73023255814	-0.1	-1.79873417722
1335	0.6675	-5.03125	-4.73023255814	2.81111111111	-1.79873417722
1336	0.668	18.11875	-6.16744186047	-0.1	-0.377215189873
1337	0.6685	10.884375	-4.73023255814	1.35555555556	-0.377215189873
1338	0.669	-7.925	-6.16744186047	1.35555555556	2.46582278481
1339	0.6695	0.75625	-6.16744186047	-0.1	-0.377215189873
1340	0.67	-5.03125	-6.16744186047	1.35555555556	-7.48481012658
1341	0.6705	-0.690625	-3.29302325581	-0.1	15.2594936709
1342	0.671	0.75625	-6.16744186047	-5.92222222222	-0.377215189873
1343	0.6715	2.203125	-6.16744186047	-0.1	-3.22025316456
1344	0.672	0.75625	-7.60465116279	-8.83333333333	-1.79873417722
1345	0.6725	-0.690625	-6.16744186047	-8.83333333333	-1.79873417722
1346	0.673	2.203125	-6.16744186047	-1.55555555556	1.04430379747
1347	0.6735	-2.1375	-6.16744186047	-8.83333333333	-0.377215189873
1348	0.674	-3.584375	-7.60465116279	-7.37777777778	13.8379746835
1349	0.6745	0.75625	-7.60465116279	8.63333333333	1.04430379747
1350	0.675	-0.690625	-10.4790697674	-5.92222222222	-0.377215189873
1351	0.6755	-0.690625	-4.73023255814	4.26666666667	1.04430379747
1352	0.676	0.75625	-7.60465116279	15.9111111111	-8.90632911392
1353	0.6765	0.75625	-3.29302325581	1.35555555556	-1.79873417722
1354	0.677	0.75625	-6.16744186047	4.26666666667	-11.7493670886
1355	0.6775	-0.690625	-10.4790697674	-0.1	-1.79873417722
1356	0.678	0.75625	-13.3534883721	1.35555555556	-0.377215189873
1357	0.6785	0.75625	8.20465116279	1.35555555556	-1.79873417722
1358	0.679	-0.690625	-7.60465116279	-1.55555555556	-1.79873417722
1359	0.6795	-3.584375	9.64186046512	1.35555555556	-3.22025316456
1360	0.68	5.096875	-9.04186046512	1.35555555556	-1.79873417722
1361	0.6805	-2.1375	-11.9162790698	4.26666666667	-1.79873417722
1362	0.681	5.096875	-6.16744186047	-0.1	-0.377215189873
1363	0.6815	9.4375	-9.04186046512	1.35555555556	-1.79873417722
1364	0.682	-6.478125	-7.60465116279	1.35555555556	-0.377215189873
1365	0.6825	-12.265625	-7.60465116279	2.81111111111	1.04430379747
1366	0.683	2.203125	-4.73023255814	2.81111111111	3.88734177215
1367	0.6835	13.778125	-7.60465116279	2.81111111111	3.88734177215
1368	0.684	-10.81875	-7.60465116279	2.81111111111	-0.377215189873
1369	0.6845	-0.690625	-6.16744186047	1.35555555556	2.46582278481
1370	0.685	-0.690625	-6.16744186047	-0.1	1.04430379747
1371	0.6855	-0.690625	-7.60465116279	1.35555555556	-0.377215189873
1372	0.686	-0.690625	-10.4790697674	-1.55555555556	18.1025316456
1373	0.6865	0.75625	-7.60465116279	-0.1	9.57341772152
1374	0.687	-0.690625	-10.4790697674	-1.55555555556	-0.377215189873
1375	0.6875	-0.690625	-10.4790697674	2.81111111111	-4.6417721519
1376	0.688	0.75625	-9.04186046512	2.81111111111	3.88734177215
1377	0.6885	-2.1375	-10.4790697674	-7.37777777778	3.88734177215
1378	0.689	-0.690625	-10.4790697674	-11.7444444444	5.30886075949
1379	0.6895	-2.1375	-7.60465116279	8.63333333333	8.15189873418
1380	0.69	-3.584375	-11.9162790698	-7.37777777778	5.30886075949
1381	0.6905	-2.1375	-10.4790697674	-13.2	25.2101265823
1382	0.691	0.75625	-10.4790697674	2.81111111111	8.15189873418
1383	0.6915	-3.584375	-11.9162790698	-7.37777777778	9.57341772152
1384	0.692	-0.690625	-23.4139534884	-1.55555555556	9.57341772152
1385	0.6925	-3.584375	-17.6651162791	-1.55555555556	13.8379746835
1386	0.693	-2.1375	-17.6651162791	1.35555555556	16.6810126582
1387	0.6935	-3.584375	-23.4139534884	-0.1	16.6810126582
1388	0.694	-5.03125	-13.3534883721	7.17777777778	15.2594936709
1389	0.6945	-5.03125	1.01860465116	-0.1	22.3670886076
1390	0.695	-3.584375	-11.9162790698	8.63333333333	22.3670886076
1391	0.6955	-5.03125	-21.976744186	-1.55555555556	22.3670886076
1392	0.696	-6.478125	-23.4139534884	-1.55555555556	20.9455696203
1393	0.6965	-5.03125	-19.1023255814	1.35555555556	26.6316455696
1394	0.697	-5.03125	-21.976744186	-1.55555555556	29.4746835443
1395	0.6975	-9.371875	-23.4139534884	-0.1	33.7392405063
1396	0.698	-10.81875	-16.2279069767	-1.55555555556	40.846835443
1397	0.6985	-3.584375	-19.1023255814	2.81111111111	39.4253164557
1398	0.699	-16.60625	-17.6651162791	-1.55555555556	43.6898734177
1399	0.6995	-5.03125	-19.1023255814	-1.55555555556	45.1113924051
1400	0.7	15.225	-20.5395348837	1.35555555556	53.6405063291
1401	0.7005	3.65	-19.1023255814	-0.1	57.9050632911
1402	0.701	-10.81875	-19.1023255814	-0.1	57.9050632911
1403	0.7015	-12.265625	-20.5395348837	1.35555555556	63.5911392405
1404	0.702	-5.03125	-21.976744186	2.81111111111	70.6987341772
1405	0.7025	-15.159375	-19.1023255814	4.26666666667	65.0126582278
1406	0.703	-6.478125	-20.5395348837	-0.1	82.0708860759
1407	0.7035	-5.03125	-20.5395348837	2.81111111111	82.0708860759
1408	0.704	-5.03125	-21.976744186	2.81111111111	86.335443038
1409	0.7045	-5.03125	-20.5395348837	1.35555555556	87.7569620253
1410	0.705	-5.03125	-23.4139534884	7.17777777778	74.9632911392
1411	0.7055	-3.584375	-19.1023255814	2.81111111111	87.7569620253
1412	0.706	-3.584375	-20.5395348837	-5.92222222222	70.6987341772
1413	0.7065	-3.584375	-19.1023255814	4.26666666667	70.6987341772
1414	0.707	-2.1375	-20.5395348837	-7.37777777778	69.2772151899
1415	0.7075	-0.690625	-17.6651162791	4.26666666667	69.2772151899
1416	0.708	-2.1375	-14.7906976744	8.63333333333	63.5911392405
1417	0.7085	-2.1375	-16.2279069767	18.8222222222	57.9050632911
1418	0.709	-0.690625	-17.6651162791	-0.1	56.4835443038
1419	0.7095	0.75625	-14.7906976744	15.9111111111	50.7974683544
1420	0.71	0.75625	-16.2279069767	4.26666666667	39.4253164557
1421	0.7105	-0.690625	-9.04186046512	2.81111111111	42.2683544304
1422	0.711	0.75625	-11.9162790698	4.26666666667	42.2683544304
1423	0.7115	-0.690625	-21.976744186	4.26666666667	32.317721519
1424	0.712	2.203125	-13.3534883721	-7.37777777778	42.2683544304
1425	0.7125	2.203125	-16.2279069767	5.72222222222	25.2101265823
1426	0.713	5.096875	6.76744186047	4.26666666667	22.3670886076
1427	0.7135	-2.1375	-13.3534883721	5.72222222222	19.5240506329
1428	0.714	5.096875	-0.418604651163	4.26666666667	16.6810126582
1429	0.7145	0.75625	-14.7906976744	2.81111111111	13.8379746835
1430	0.715	2.203125	-4.73023255814	7.17777777778	10.9949367089
1431	0.7155	5.096875	-6.16744186047	-0.1	12.4164556962
1432	0.716	9.4375	-9.04186046512	4.26666666667	8.15189873418
1433	0.7165	2.203125	-6.16744186047	2.81111111111	12.4164556962
1434	0.717	7.990625	-4.73023255814	2.81111111111	8.15189873418
1435	0.7175	-9.371875	-6.16744186047	2.81111111111	6.73037974684
1436	0.718	12.33125	-4.73023255814	4.26666666667	6.73037974684
1437	0.7185	21.0125	-7.60465116279	5.72222222222	5.30886075949
1438	0.719	-2.1375	-4.73023255814	7.17777777778	-0.377215189873
1439	0.7195	13.778125	-4.73023255814	5.72222222222	-0.377215189873
1440	0.72	23.90625	-6.16744186047	4.26666666667	-3.22025316456
1441	0.7205	3.65	-4.73023255814	5.72222222222	2.46582278481
1442	0.721	2.203125	-4.73023255814	5.72222222222	-10.3278481013
1443	0.7215	3.65	-4.73023255814	7.17777777778	8.15189873418
1444	0.722	3.65	-6.16744186047	2.81111111111	8.15189873418
1445	0.7225	6.54375	-7.60465116279	4.26666666667	-8.90632911392
1446	0.723	2.203125	-6.16744186047	7.17777777778	-4.6417721519
1447	0.7235	6.54375	-10.4790697674	7.17777777778	-13.1708860759
1448	0.724	3.65	-3.29302325581	14.4555555556	-7.48481012658
1449	0.7245	3.65	-6.16744186047	14.4555555556	-4.6417721519
1450	0.725	7.990625	-4.73023255814	23.1888888889	-3.22025316456
1451	0.7255	3.65	-9.04186046512	-3.01111111111	-4.6417721519
1452	0.726	3.65	-9.04186046512	-1.55555555556	-3.22025316456
1453	0.7265	3.65	-3.29302325581	7.17777777778	-4.6417721519
1454	0.727	5.096875	-4.73023255814	5.72222222222	-3.22025316456
1455	0.7275	5.096875	-6.16744186047	7.17777777778	-10.3278481013
1456	0.728	7.990625	-11.9162790698	2.81111111111	-3.22025316456
1457	0.7285	3.65	-17.6651162791	2.81111111111	-4.6417721519
1458	0.729	3.65	-1.85581395349	4.26666666667	-4.6417721519
1459	0.7295	5.096875	-13.3534883721	1.35555555556	-6.06329113924
1460	0.73	5.096875	9.64186046512	1.35555555556	-4.6417721519
1461	0.7305	3.65	-9.04186046512	5.72222222222	-3.22025316456
1462	0.731	7.990625	-7.60465116279	2.81111111111	-1.79873417722
1463	0.7315	7.990625	-6.16744186047	1.35555555556	-4.6417721519
1464	0.732	3.65	-1.85581395349	2.81111111111	-1.79873417722
1465	0.7325	5.096875	-4.73023255814	2.81111111111	-4.6417721519
1466	0.733	-3.584375	-4.73023255814	4.26666666667	-3.22025316456
1467	0.7335	22.459375	-4.73023255814	4.26666666667	-1.79873417722
1468	0.734	23.90625	-4.73023255814	1.35555555556	-6.06329113924
1469	0.7345	12.33125	-6.16744186047	1.35555555556	-1.79873417722
1470	0.735	23.90625	-1.85581395349	4.26666666667	-6.06329113924
1471	0.7355	2.203125	-3.29302325581	4.26666666667	-4.6417721519
1472	0.736	13.778125	-4.73023255814	1.35555555556	-7.48481012658
1473	0.7365	-0.690625	-6.16744186047	1.35555555556	-8.90632911392
1474	0.737	-5.03125	-4.73023255814	2.81111111111	-10.3278481013
1475	0.7375	-7.925	-3.29302325581	4.26666666667	-8.90632911392
1476	0.738	2.203125	-4.73023255814	-0.1	3.88734177215
1477	0.7385	2.203125	-3.29302325581	4.26666666667	-13.1708860759
1478	0.739	0.75625	-1.85581395349	-0.1	-0.377215189873
1479	0.7395	0.75625	-6.16744186047	4.26666666667	-14.5924050633
1480	0.74	2.203125	-7.60465116279	2.81111111111	-7.48481012658
1481	0.7405	-0.690625	-0.418604651163	2.81111111111	-6.06329113924
1482	0.741	-0.690625	-4.73023255814	-4.46666666667	-11.7493670886
1483	0.7415	-0.690625	-4.73023255814	-5.92222222222	-10.3278481013
1484	0.742	-0.690625	-4.73023255814	2.81111111111	-7.48481012658
1485	0.7425	-0.690625	-9.04186046512	-4.46666666667	-10.3278481013
1486	0.743	-2.1375	-6.16744186047	-1.55555555556	-8.90632911392
1487	0.7435	0.75625	-3.29302325581	-0.1	-8.90632911392
1488	0.744	-0.690625	-9.04186046512	-3.01111111111	-10.3278481013
1489	0.7445	-0.690625	-0.418604651163	1.35555555556	-10.3278481013
1490	0.745	-0.690625	-9.04186046512	2.81111111111	-11.7493670886
1491	0.7455	-2.1375	-4.73023255814	21.7333333333	-10.3278481013
1492	0.746	-2.1375	-10.4790697674	4.26666666667	-10.3278481013
1493	0.7465	-0.690625	-10.4790697674	1.35555555556	-11.7493670886
1494	0.747	-2.1375	-3.29302325581	1.35555555556	-13.1708860759
1495	0.7475	0.75625	-11.9162790698	2.81111111111	-11.7493670886
1496	0.748	-0.690625	-7.60465116279	4.26666666667	-13.1708860759
1497	0.7485	-3.584375	8.20465116279	2.81111111111	-11.7493670886
1498	0.749	0.75625	-6.16744186047	1.35555555556	-11.7493670886
1499	0.7495	-0.690625	-10.4790697674	1.35555555556	-10.3278481013
1500	0.75	2.203125	-6.16744186047	1.35555555556	-11.7493670886
1501	0.7505	0.75625	-9.04186046512	2.81111111111	-10.3278481013
1502	0.751	-7.925	-4.73023255814	2.81111111111	-8.90632911392
1503	0.7515	-10.81875	-4.73023255814	-0.1	-11.7493670886
1504	0.752	13.778125	-4.73023255814	1.35555555556	-6.06329113924
1505	0.7525	-10.81875	-4.73023255814	-0.1	-6.06329113924
1506	0.753	10.884375	-3.29302325581	4.26666666667	-10.3278481013
1507	0.7535	-13.7125	-3.29302325581	4.26666666667	-14.5924050633
1508	0.754	-2.1375	-6.16744186047	1.35555555556	-8.90632911392
1509	0.7545	12.33125	-3.29302325581	1.35555555556	-10.3278481013
1510	0.755	-3.584375	-6.16744186047	2.81111111111	-11.7493670886
1511	0.7555	-5.03125	-1.85581395349	1.35555555556	-11.7493670886
1512	0.756	-2.1375	-3.29302325581	4.26666666667	-7.48481012658
1513	0.7565	-0.690625	-6.16744186047	7.17777777778	-20.2784810127
1514	0.757	-3.584375	-4.73023255814	4.26666666667	-14.5924050633
1515	0.7575	-3.584375	-3.29302325581	2.81111111111	-18.8569620253
1516	0.758	-2.1375	-1.85581395349	5.72222222222	-21.7
1517	0.7585	-2.1375	-4.73023255814	-1.55555555556	-18.8569620253
1518	0.759	-0.690625	-0.418604651163	21.7333333333	-11.7493670886
1519	0.7595	-0.690625	-1.85581395349	2.81111111111	-11.7493670886
1520	0.76	-0.690625	1.01860465116	17.3666666667	-11.7493670886
1521	0.7605	-0.690625	-0.418604651163	5.72222222222	-10.3278481013
1522	0.761	-0.690625	-0.418604651163	20.2777777778	-10.3278481013
1523	0.7615	-0.690625	-0.418604651163	-3.01111111111	-11.7493670886
1524	0.762	-0.690625	-1.85581395349	14.4555555556	-8.90632911392
1525	0.7625	0.75625	-1.85581395349	2.81111111111	-7.48481012658
1526	0.763	-0.690625	-1.85581395349	-1.55555555556	-11.7493670886
1527	0.7635	-2.1375	-6.16744186047	4.26666666667	-10.3278481013
1528	0.764	-0.690625	13.9534883721	1.35555555556	-11.7493670886
1529	0.7645	-0.690625	-1.85581395349	13.0	-17.435443038
1530	0.765	-0.690625	-9.04186046512	1.35555555556	-11.7493670886
1531	0.7655	-3.584375	-11.9162790698	4.26666666667	-13.1708860759
1532	0.766	-0.690625	-9.04186046512	-0.1	-11.7493670886
1533	0.7665	-5.03125	-13.3534883721	4.26666666667	-10.3278481013
1534	0.767	2.203125	-6.16744186047	1.35555555556	-10.3278481013
1535	0.7675	-3.584375	-10.4790697674	-1.55555555556	-10.3278481013
1536	0.768	2.203125	-4.73023255814	1.35555555556	-11.7493670886
1537	0.7685	2.203125	-6.16744186047	2.81111111111	-8.90632911392
1538	0.769	-10.81875	-3.29302325581	1.35555555556	-7.48481012658
1539	0.7695	15.225	-3.29302325581	-0.1	-11.7493670886
1540	0.77	0.75625	-4.73023255814	-0.1	-7.48481012658
1541	0.7705	-9.371875	-3.29302325581	-0.1	-18.8569620253
1542	0.771	-2.1375	-3.29302325581	1.35555555556	-8.90632911392
1543	0.7715	-3.584375	-4.73023255814	4.26666666667	-17.435443038
1544	0.772	-3.584375	-3.29302325581	-0.1	1.04430379747
1545	0.7725	-3.584375	-1.85581395349	4.26666666667	-10.3278481013
1546	0.773	0.75625	-3.29302325581	-1.55555555556	5.30886075949
1547	0.7735	-2.1375	-1.85581395349	-7.37777777778	-10.3278481013
1548	0.774	-2.1375	-4.73023255814	-1.55555555556	-6.06329113924
1549	0.7745	-2.1375	-6.16744186047	2.81111111111	-8.90632911392
1550	0.775	-0.690625	-1.85581395349	17.3666666667	-8.90632911392
1551	0.7755	-2.1375	-1.85581395349	7.17777777778	-11.7493670886
1552	0.776	-2.1375	-0.418604651163	18.8222222222	-10.3278481013
1553	0.7765	-3.584375	-4.73023255814	4.26666666667	-7.48481012658
1554	0.777	0.75625	-0.418604651163	20.2777777778	-8.90632911392
1555	0.7775	-2.1375	-6.16744186047	-1.55555555556	-7.48481012658
1556	0.778	-2.1375	-4.73023255814	1.35555555556	-10.3278481013
1557	0.7785	-2.1375	-4.73023255814	4.26666666667	-18.8569620253
1558	0.779	-2.1375	-3.29302325581	-1.55555555556	-10.3278481013
1559	0.7795	-0.690625	-9.04186046512	4.26666666667	-8.90632911392
1560	0.78	-2.1375	-4.73023255814	-10.2888888889	9.57341772152
1561	0.7805	-3.584375	-3.29302325581	1.35555555556	-7.48481012658
1562	0.781	-3.584375	9.64186046512	-0.1	-7.48481012658
1563	0.7815	-0.690625	13.9534883721	1.35555555556	-8.90632911392
1564	0.782	-5.03125	-0.418604651163	2.81111111111	-7.48481012658
1565	0.7825	0.75625	-6.16744186047	1.35555555556	-6.06329113924
1566	0.783	2.203125	11.0790697674	1.35555555556	-6.06329113924
1567	0.7835	-2.1375	-9.04186046512	-0.1	-7.48481012658
1568	0.784	-16.60625	-10.4790697674	-0.1	-7.48481012658
1569	0.7845	-7.925	-1.85581395349	1.35555555556	-7.48481012658
1570	0.785	-5.03125	3.89302325581	2.81111111111	-10.3278481013
1571	0.7855	19.565625	-4.73023255814	-0.1	-10.3278481013
1572	0.786	0.75625	-4.73023255814	-0.1	-6.06329113924
1573	0.7865	16.671875	-0.418604651163	-1.55555555556	-8.90632911392
1574	0.787	-3.584375	1.01860465116	4.26666666667	-17.435443038
1575	0.7875	-0.690625	-3.29302325581	-1.55555555556	5.30886075949
1576	0.788	-3.584375	-1.85581395349	-0.1	-6.06329113924
1577	0.7885	-0.690625	-3.29302325581	-0.1	8.15189873418
1578	0.789	-2.1375	-4.73023255814	1.35555555556	-6.06329113924
1579	0.7895	-0.690625	-3.29302325581	1.35555555556	-13.1708860759
1580	0.79	-0.690625	-4.73023255814	1.35555555556	-7.48481012658
1581	0.7905	-0.690625	-4.73023255814	1.35555555556	-7.48481012658
1582	0.791	-5.03125	-3.29302325581	-8.83333333333	9.57341772152
1583	0.7915	-0.690625	-1.85581395349	4.26666666667	-8.90632911392
1584	0.792	-0.690625	-3.29302325581	-3.01111111111	-7.48481012658
1585	0.7925	-3.584375	-6.16744186047	-3.01111111111	-7.48481012658
1586	0.793	-0.690625	-6.16744186047	-4.46666666667	-7.48481012658
1587	0.7935	-2.1375	-9.04186046512	-5.92222222222	-10.3278481013
1588	0.794	-0.690625	-4.73023255814	2.81111111111	-7.48481012658
1589	0.7945	-3.584375	-4.73023255814	2.81111111111	-18.8569620253
1590	0.795	-2.1375	-3.29302325581	-1.55555555556	-8.90632911392
1591	0.7955	-0.690625	-1.85581395349	4.26666666667	-7.48481012658
1592	0.796	-3.584375	8.20465116279	-1.55555555556	-7.48481012658
1593	0.7965	-3.584375	-10.4790697674	-0.1	-7.48481012658
1594	0.797	-2.1375	9.64186046512	-1.55555555556	-6.06329113924
1595	0.7975	-2.1375	-6.16744186047	-1.55555555556	-6.06329113924
1596	0.798	-3.584375	15.3906976744	1.35555555556	-6.06329113924
1597	0.7985	-0.690625	-7.60465116279	-0.1	-7.48481012658
1598	0.799	-5.03125	-10.4790697674	1.35555555556	-7.48481012658
1599	0.7995	-6.478125	-10.4790697674	-1.55555555556	-4.6417721519
1600	0.8	-2.1375	-10.4790697674	-0.1	-4.6417721519
1601	0.8005	-15.159375	-3.29302325581	-0.1	-1.79873417722
1602	0.801	-12.265625	-3.29302325581	-0.1	-6.06329113924
1603	0.8015	0.75625	-4.73023255814	-0.1	-6.06329113924
1604	0.802	10.884375	-3.29302325581	1.35555555556	-6.06329113924
1605	0.8025	-9.371875	-3.29302325581	1.35555555556	-6.06329113924
1606	0.803	-16.60625	-6.16744186047	-0.1	-4.6417721519
1607	0.8035	3.65	-4.73023255814	-0.1	-1.79873417722
1608	0.804	18.11875	-4.73023255814	-0.1	-6.06329113924
1609	0.8045	0.75625	-3.29302325581	-0.1	-3.22025316456
1610	0.805	0.75625	-7.60465116279	1.35555555556	2.46582278481
1611	0.8055	-2.1375	-4.73023255814	-1.55555555556	-4.6417721519
1612	0.806	-9.371875	-4.73023255814	2.81111111111	-6.06329113924
1613	0.8065	-0.690625	-3.29302325581	-1.55555555556	3.88734177215
1614	0.807	-0.690625	-4.73023255814	-0.1	-11.7493670886
1615	0.8075	-2.1375	-1.85581395349	-0.1	2.46582278481
1616	0.808	0.75625	-3.29302325581	2.81111111111	-14.5924050633
1617	0.8085	-0.690625	-3.29302325581	-0.1	-6.06329113924
1618	0.809	-2.1375	-3.29302325581	-1.55555555556	-6.06329113924
1619	0.8095	-2.1375	-1.85581395349	-13.2	-7.48481012658
1620	0.81	-2.1375	-1.85581395349	-5.92222222222	-7.48481012658
1621	0.8105	-0.690625	-3.29302325581	-8.83333333333	-7.48481012658
1622	0.811	-3.584375	-6.16744186047	1.35555555556	-6.06329113924
1623	0.8115	-2.1375	-3.29302325581	17.3666666667	-6.06329113924
1624	0.812	-2.1375	-1.85581395349	-0.1	-16.0139240506
1625	0.8125	-0.690625	-6.16744186047	-7.37777777778	-6.06329113924
1626	0.813	-0.690625	-4.73023255814	-1.55555555556	-1.79873417722
1627	0.8135	0.75625	-4.73023255814	1.35555555556	-6.06329113924
1628	0.814	-3.584375	-1.85581395349	-1.55555555556	-4.6417721519
1629	0.8145	-0.690625	-11.9162790698	1.35555555556	-1.79873417722
1630	0.815	-2.1375	-3.29302325581	2.81111111111	-4.6417721519
1631	0.8155	-6.478125	-13.3534883721	-3.01111111111	-4.6417721519
1632	0.816	-0.690625	-6.16744186047	1.35555555556	-6.06329113924
1633	0.8165	-2.1375	-9.04186046512	-0.1	-7.48481012658
1634	0.817	-0.690625	5.33023255814	-1.55555555556	-4.6417721519
1635	0.8175	-3.584375	-13.3534883721	-0.1	-4.6417721519
1636	0.818	0.75625	2.45581395349	1.35555555556	-4.6417721519
1637	0.8185	-2.1375	-9.04186046512	1.35555555556	-3.22025316456
1638	0.819	-7.925	-3.29302325581	-3.01111111111	-3.22025316456
1639	0.8195	3.65	-4.73023255814	-0.1	-1.79873417722
1640	0.82	0.75625	-4.73023255814	1.35555555556	-3.22025316456
1641	0.8205	-0.690625	-4.73023255814	1.35555555556	-1.79873417722
1642	0.821	16.671875	-3.29302325581	-0.1	-6.06329113924
1643	0.8215	7.990625	-6.16744186047	2.81111111111	-1.79873417722
1644	0.822	22.459375	-6.16744186047	2.81111111111	-1.79873417722
1645	0.8225	13.778125	-6.16744186047	-1.55555555556	-3.22025316456
1646	0.823	-10.81875	-4.73023255814	2.81111111111	-14.5924050633
1647	0.8235	-7.925	-4.73023255814	2.81111111111	-3.22025316456
1648	0.824	-7.925	-4.73023255814	1.35555555556	-14.5924050633
1649	0.8245	-12.265625	-6.16744186047	1.35555555556	-4.6417721519
1650	0.825	-3.584375	-3.29302325581	-1.55555555556	-1.79873417722
1651	0.8255	-2.1375	-3.29302325581	-0.1	-4.6417721519
1652	0.826	-2.1375	-4.73023255814	2.81111111111	-11.7493670886
1653	0.8265	-2.1375	-4.73023255814	-7.37777777778	-6.06329113924
1654	0.827	-2.1375	-4.73023255814	-1.55555555556	-7.48481012658
1655	0.8275	-3.584375	-7.60465116279	4.26666666667	-16.0139240506
1656	0.828	0.75625	-6.16744186047	1.35555555556	-6.06329113924
1657	0.8285	-2.1375	-4.73023255814	-8.83333333333	-1.79873417722
1658	0.829	-0.690625	-6.16744186047	-1.55555555556	-0.377215189873
1659	0.8295	-0.690625	-1.85581395349	8.63333333333	-6.06329113924
1660	0.83	-3.584375	-4.73023255814	-7.37777777778	-3.22025316456
1661	0.8305	0.75625	-4.73023255814	5.72222222222	-3.22025316456
1662	0.831	2.203125	-4.73023255814	14.4555555556	-4.6417721519
1663	0.8315	-3.584375	-3.29302325581	14.4555555556	-11.7493670886
1664	0.832	-2.1375	-4.73023255814	-3.01111111111	-4.6417721519
1665	0.8325	-0.690625	-1.85581395349	1.35555555556	-4.6417721519
1666	0.833	-3.584375	5.33023255814	2.81111111111	-6.06329113924
1667	0.8335	-3.584375	-10.4790697674	-1.55555555556	-3.22025316456
1668	0.834	-2.1375	13.9534883721	-1.55555555556	-3.22025316456
1669	0.8345	-2.1375	-6.16744186047	2.81111111111	-6.06329113924
1670	0.835	-2.1375	-9.04186046512	-5.92222222222	12.4164556962
1671	0.8355	-3.584375	-10.4790697674	1.35555555556	-3.22025316456
1672	0.836	-0.690625	2.45581395349	1.35555555556	1.04430379747
1673	0.8365	-5.03125	-10.4790697674	2.81111111111	-3.22025316456
1674	0.837	-6.478125	-4.73023255814	2.81111111111	-1.79873417722
1675	0.8375	0.75625	-1.85581395349	-0.1	-3.22025316456
1676	0.838	-2.1375	-7.60465116279	-1.55555555556	-4.6417721519
1677	0.8385	-5.03125	-4.73023255814	-3.01111111111	-3.22025316456
1678	0.839	18.11875	-6.16744186047	1.35555555556	-3.22025316456
1679	0.8395	0.75625	-4.73023255814	-0.1	-3.22025316456
1680	0.84	-12.265625	-13.3534883721	1.35555555556	-3.22025316456
1681	0.8405	-2.1375	-7.60465116279	-1.55555555556	-0.377215189873
1682	0.841	-10.81875	-6.16744186047	-1.55555555556	-8.90632911392
1683	0.8415	-10.81875	-6.16744186047	-1.55555555556	-0.377215189873
1684	0.842	-10.81875	-4.73023255814	1.35555555556	-7.48481012658
1685	0.8425	-5.03125	-4.73023255814	-1.55555555556	-1.79873417722
1686	0.843	15.225	-3.29302325581	1.35555555556	-1.79873417722
1687	0.8435	-2.1375	-6.16744186047	2.81111111111	-6.06329113924
1688	0.844	-7.925	-7.60465116279	1.35555555556	-7.48481012658
1689	0.8445	-2.1375	-7.60465116279	2.81111111111	-7.48481012658
1690	0.845	-2.1375	-7.60465116279	1.35555555556	-11.7493670886
1691	0.8455	-0.690625	-4.73023255814	2.81111111111	-8.90632911392
1692	0.846	0.75625	-7.60465116279	1.35555555556	-0.377215189873
1693	0.8465	-2.1375	-7.60465116279	1.35555555556	-1.79873417722
1694	0.847	-2.1375	-4.73023255814	-10.2888888889	-3.22025316456
1695	0.8475	-2.1375	-6.16744186047	1.35555555556	-4.6417721519
1696	0.848	-0.690625	-7.60465116279	-7.37777777778	-4.6417721519
1697	0.8485	0.75625	-6.16744186047	-0.1	-6.06329113924
1698	0.849	-0.690625	-3.29302325581	-1.55555555556	-8.90632911392
1699	0.8495	-3.584375	-1.85581395349	-0.1	-4.6417721519
1700	0.85	-3.584375	-4.73023255814	-7.37777777778	5.30886075949
1701	0.8505	-3.584375	-9.04186046512	-5.92222222222	-7.48481012658
1702	0.851	0.75625	-10.4790697674	-0.1	-6.06329113924
1703	0.8515	-3.584375	-4.73023255814	-3.01111111111	-8.90632911392
1704	0.852	0.75625	6.76744186047	-1.55555555556	-4.6417721519
1705	0.8525	-3.584375	-10.4790697674	-4.46666666667	-1.79873417722
1706	0.853	-2.1375	-14.7906976744	4.26666666667	-3.22025316456
1707	0.8535	-0.690625	-0.418604651163	4.26666666667	-3.22025316456
1708	0.854	-5.03125	-13.3534883721	2.81111111111	-3.22025316456
1709	0.8545	-6.478125	-10.4790697674	1.35555555556	-3.22025316456
1710	0.855	-0.690625	-7.60465116279	8.63333333333	-6.06329113924
1711	0.8555	-0.690625	-6.16744186047	1.35555555556	-1.79873417722
1712	0.856	0.75625	-9.04186046512	-0.1	-4.6417721519
1713	0.8565	-16.60625	-4.73023255814	-0.1	-4.6417721519
1714	0.857	-9.371875	-7.60465116279	4.26666666667	-0.377215189873
1715	0.8575	-13.7125	-9.04186046512	-0.1	-3.22025316456
1716	0.858	-10.81875	-6.16744186047	-0.1	-3.22025316456
1717	0.8585	18.11875	-7.60465116279	1.35555555556	-4.6417721519
1718	0.859	-3.584375	-4.73023255814	-1.55555555556	-1.79873417722
1719	0.8595	16.671875	-4.73023255814	-1.55555555556	-4.6417721519
1720	0.86	-6.478125	-6.16744186047	-0.1	-6.06329113924
1721	0.8605	9.4375	-10.4790697674	-1.55555555556	-0.377215189873
1722	0.861	-2.1375	-7.60465116279	-1.55555555556	-3.22025316456
1723	0.8615	-2.1375	-6.16744186047	-0.1	-10.3278481013
1724	0.862	-5.03125	-7.60465116279	-1.55555555556	-6.06329113924
1725	0.8625	-2.1375	-6.16744186047	-1.55555555556	5.30886075949
1726	0.863	0.75625	-4.73023255814	-1.55555555556	-0.377215189873
1727	0.8635	-2.1375	-6.16744186047	-10.2888888889	-4.6417721519
1728	0.864	0.75625	-4.73023255814	-1.55555555556	-0.377215189873
1729	0.8645	-2.1375	-4.73023255814	-10.2888888889	-0.377215189873
1730	0.865	-0.690625	-4.73023255814	5.72222222222	-1.79873417722
1731	0.8655	-0.690625	-7.60465116279	-10.2888888889	-6.06329113924
1732	0.866	-2.1375	-7.60465116279	13.0	-1.79873417722
1733	0.8665	-0.690625	-6.16744186047	-4.46666666667	-0.377215189873
1734	0.867	-2.1375	-7.60465116279	-13.2	15.2594936709
1735	0.8675	-3.584375	-9.04186046512	-1.55555555556	-0.377215189873
1736	0.868	-2.1375	-9.04186046512	-5.92222222222	-1.79873417722
1737	0.8685	-2.1375	-17.6651162791	1.35555555556	-1.79873417722
1738	0.869	-0.690625	-6.16744186047	11.5444444444	-8.90632911392
1739	0.8695	-2.1375	-1.85581395349	-0.1	-3.22025316456
1740	0.87	-2.1375	-9.04186046512	1.35555555556	-3.22025316456
1741	0.8705	-0.690625	13.9534883721	-3.01111111111	-1.79873417722
1742	0.871	0.75625	-0.418604651163	1.35555555556	-1.79873417722
1743	0.8715	2.203125	8.20465116279	1.35555555556	-1.79873417722
1744	0.872	0.75625	9.64186046512	1.35555555556	-3.22025316456
1745	0.8725	-0.690625	1.01860465116	2.81111111111	-1.79873417722
1746	0.873	-5.03125	-16.2279069767	2.81111111111	-1.79873417722
1747	0.8735	-0.690625	-19.1023255814	-5.92222222222	-1.79873417722
1748	0.874	-2.1375	-7.60465116279	-0.1	-0.377215189873
1749	0.8745	-0.690625	-6.16744186047	-0.1	-0.377215189873
1750	0.875	-12.265625	-6.16744186047	-0.1	-0.377215189873
1751	0.8755	-6.478125	-6.16744186047	-1.55555555556	-0.377215189873
1752	0.876	-0.690625	3.89302325581	1.35555555556	-1.79873417722
1753	0.8765	19.565625	-6.16744186047	-1.55555555556	-1.79873417722
1754	0.877	9.4375	-7.60465116279	-0.1	-3.22025316456
1755	0.8775	-5.03125	-6.16744186047	-0.1	-1.79873417722
1756	0.878	-12.265625	-6.16744186047	2.81111111111	-3.22025316456
1757	0.8785	-3.584375	-7.60465116279	1.35555555556	-8.90632911392
1758	0.879	-5.03125	-7.60465116279	1.35555555556	-14.5924050633
1759	0.8795	-12.265625	-9.04186046512	-1.55555555556	-1.79873417722
1760	0.88	-0.690625	-9.04186046512	-0.1	12.4164556962
1761	0.8805	0.75625	-7.60465116279	-1.55555555556	1.04430379747
1762	0.881	-2.1375	-10.4790697674	-4.46666666667	-6.06329113924
1763	0.8815	-3.584375	-7.60465116279	-1.55555555556	-3.22025316456
1764	0.882	-0.690625	-9.04186046512	2.81111111111	-10.3278481013
1765	0.8825	-0.690625	-7.60465116279	5.72222222222	-3.22025316456
1766	0.883	-0.690625	-6.16744186047	13.0	-6.06329113924
1767	0.8835	-2.1375	-6.16744186047	15.9111111111	-3.22025316456
1768	0.884	-2.1375	-4.73023255814	4.26666666667	-1.79873417722
1769	0.8845	-2.1375	-6.16744186047	20.2777777778	-3.22025316456
1770	0.885	-2.1375	-10.4790697674	-1.55555555556	-0.377215189873
1771	0.8855	-0.690625	-4.73023255814	-0.1	-3.22025316456
1772	0.886	-0.690625	-4.73023255814	14.4555555556	-10.3278481013
1773	0.8865	-0.690625	-6.16744186047	-4.46666666667	-3.22025316456
1774	0.887	-2.1375	-1.85581395349	-0.1	-1.79873417722
1775	0.8875	-2.1375	-7.60465116279	-1.55555555556	-0.377215189873
1776	0.888	-0.690625	13.9534883721	-0.1	-3.22025316456
1777	0.8885	0.75625	-1.85581395349	1.35555555556	-7.48481012658
1778	0.889	-2.1375	-14.7906976744	-1.55555555556	-4.6417721519
1779	0.8895	-3.584375	-9.04186046512	-0.1	-1.79873417722
1780	0.89	-3.584375	-14.7906976744	1.35555555556	-0.377215189873
1781	0.8905	-2.1375	-14.7906976744	-0.1	1.04430379747
1782	0.891	-0.690625	-10.4790697674	-0.1	-3.22025316456
1783	0.8915	-2.1375	-16.2279069767	1.35555555556	-3.22025316456
1784	0.892	-6.478125	-9.04186046512	2.81111111111	-6.06329113924
1785	0.8925	3.65	8.20465116279	2.81111111111	-4.6417721519
1786	0.893	12.33125	-9.04186046512	-0.1	-6.06329113924
1787	0.8935	-10.81875	-9.04186046512	-0.1	-3.22025316456
1788	0.894	-10.81875	-9.04186046512	4.26666666667	-4.6417721519
1789	0.8945	16.671875	-10.4790697674	-0.1	-4.6417721519
1790	0.895	5.096875	-4.73023255814	-0.1	1.04430379747
1791	0.8955	19.565625	-7.60465116279	-0.1	-3.22025316456
1792	0.896	5.096875	-9.04186046512	1.35555555556	2.46582278481
1793	0.8965	-2.1375	-7.60465116279	-0.1	-4.6417721519
1794	0.897	-5.03125	-7.60465116279	-1.55555555556	-1.79873417722
1795	0.8975	-10.81875	-10.4790697674	-0.1	-3.22025316456
1796	0.898	0.75625	-6.16744186047	5.72222222222	-7.48481012658
1797	0.8985	-3.584375	-6.16744186047	-1.55555555556	8.15189873418
1798	0.899	-5.03125	-6.16744186047	2.81111111111	-8.90632911392
1799	0.8995	-0.690625	-7.60465116279	-0.1	9.57341772152
1800	0.9	-0.690625	-6.16744186047	1.35555555556	-3.22025316456
1801	0.9005	-3.584375	-9.04186046512	-7.37777777778	-0.377215189873
1802	0.901	-0.690625	-6.16744186047	11.5444444444	-0.377215189873
1803	0.9015	-6.478125	-7.60465116279	-8.83333333333	-0.377215189873
1804	0.902	-0.690625	-6.16744186047	1.35555555556	1.04430379747
1805	0.9025	-0.690625	-9.04186046512	-1.55555555556	3.88734177215
1806	0.903	-3.584375	-7.60465116279	14.4555555556	1.04430379747
1807	0.9035	-0.690625	-9.04186046512	-5.92222222222	-0.377215189873
1808	0.904	-3.584375	-9.04186046512	13.0	-3.22025316456
1809	0.9045	-2.1375	-10.4790697674	-7.37777777778	1.04430379747
1810	0.905	-0.690625	-11.9162790698	7.17777777778	1.04430379747
1811	0.9055	-3.584375	-9.04186046512	15.9111111111	-10.3278481013
1812	0.906	-2.1375	-6.16744186047	-1.55555555556	-0.377215189873
1813	0.9065	0.75625	-6.16744186047	1.35555555556	-0.377215189873
1814	0.907	-0.690625	1.01860465116	1.35555555556	-3.22025316456
1815	0.9075	-0.690625	-13.3534883721	2.81111111111	-0.377215189873
1816	0.908	0.75625	1.01860465116	-0.1	-1.79873417722
1817	0.9085	-0.690625	-10.4790697674	2.81111111111	-3.22025316456
1818	0.909	-0.690625	-20.5395348837	-0.1	-1.79873417722
1819	0.9095	-2.1375	-21.976744186	1.35555555556	1.04430379747
1820	0.91	-0.690625	1.01860465116	1.35555555556	-0.377215189873
1821	0.9105	-3.584375	-17.6651162791	-1.55555555556	-0.377215189873
1822	0.911	-3.584375	-10.4790697674	-0.1	1.04430379747
1823	0.9115	3.65	-16.2279069767	-0.1	-0.377215189873
1824	0.912	-6.478125	-7.60465116279	-1.55555555556	1.04430379747
1825	0.9125	2.203125	-9.04186046512	-0.1	-0.377215189873
1826	0.913	-13.7125	-10.4790697674	1.35555555556	-0.377215189873
1827	0.9135	7.990625	-10.4790697674	1.35555555556	1.04430379747
1828	0.914	19.565625	-10.4790697674	1.35555555556	-0.377215189873
1829	0.9145	5.096875	-9.04186046512	-0.1	1.04430379747
1830	0.915	-10.81875	-9.04186046512	-0.1	-0.377215189873
1831	0.9155	-6.478125	-10.4790697674	4.26666666667	-11.7493670886
1832	0.916	-10.81875	-10.4790697674	1.35555555556	1.04430379747
1833	0.9165	-6.478125	-7.60465116279	4.26666666667	-7.48481012658
1834	0.917	-12.265625	-7.60465116279	1.35555555556	-1.79873417722
1835	0.9175	-3.584375	-10.4790697674	1.35555555556	3.88734177215
1836	0.918	-3.584375	-9.04186046512	-0.1	1.04430379747
1837	0.9185	-3.584375	-10.4790697674	1.35555555556	1.04430379747
1838	0.919	-3.584375	-11.9162790698	5.72222222222	-1.79873417722
1839	0.9195	-2.1375	-11.9162790698	1.35555555556	13.8379746835
1840	0.92	-2.1375	-7.60465116279	-11.7444444444	16.6810126582
1841	0.9205	-0.690625	-9.04186046512	1.35555555556	5.30886075949
1842	0.921	-3.584375	-9.04186046512	-10.2888888889	-0.377215189873
1843	0.9215	-6.478125	-11.9162790698	-5.92222222222	-1.79873417722
1844	0.922	-3.584375	-10.4790697674	-1.55555555556	-7.48481012658
1845	0.9225	-2.1375	-10.4790697674	18.8222222222	-7.48481012658
1846	0.923	-0.690625	-11.9162790698	-0.1	-0.377215189873
1847	0.9235	-2.1375	-11.9162790698	-5.92222222222	-0.377215189873
1848	0.924	-2.1375	-11.9162790698	-3.01111111111	1.04430379747
1849	0.9245	-2.1375	-11.9162790698	4.26666666667	-1.79873417722
1850	0.925	-0.690625	-10.4790697674	-3.01111111111	1.04430379747
1851	0.9255	-3.584375	-13.3534883721	1.35555555556	-0.377215189873
1852	0.926	-3.584375	-6.16744186047	1.35555555556	-0.377215189873
1853	0.9265	-2.1375	-1.85581395349	1.35555555556	-3.22025316456
1854	0.927	-0.690625	5.33023255814	-1.55555555556	-0.377215189873
1855	0.9275	-3.584375	-11.9162790698	1.35555555556	-0.377215189873
1856	0.928	-3.584375	1.01860465116	-0.1	-0.377215189873
1857	0.9285	-2.1375	-6.16744186047	17.3666666667	-7.48481012658
1858	0.929	-3.584375	-13.3534883721	-1.55555555556	1.04430379747
1859	0.9295	-6.478125	-17.6651162791	1.35555555556	-0.377215189873
1860	0.93	0.75625	-11.9162790698	-0.1	1.04430379747
1861	0.9305	-2.1375	-13.3534883721	1.35555555556	-0.377215189873
1862	0.931	-13.7125	-17.6651162791	2.81111111111	1.04430379747
1863	0.9315	-15.159375	-10.4790697674	1.35555555556	-0.377215189873
1864	0.932	-7.925	-6.16744186047	2.81111111111	1.04430379747
1865	0.9325	16.671875	-9.04186046512	2.81111111111	2.46582278481
1866	0.933	-5.03125	-13.3534883721	1.35555555556	1.04430379747
1867	0.9335	7.990625	-10.4790697674	-0.1	5.30886075949
1868	0.934	15.225	-10.4790697674	-0.1	1.04430379747
1869	0.9345	-5.03125	-10.4790697674	1.35555555556	-8.90632911392
1870	0.935	-9.371875	-10.4790697674	1.35555555556	2.46582278481
1871	0.9355	-2.1375	-11.9162790698	-0.1	16.6810126582
1872	0.936	-2.1375	-9.04186046512	4.26666666667	-3.22025316456
1873	0.9365	-2.1375	-11.9162790698	-0.1	8.15189873418
1874	0.937	-3.584375	-10.4790697674	4.26666666667	-6.06329113924
1875	0.9375	-3.584375	-9.04186046512	4.26666666667	2.46582278481
1876	0.938	-3.584375	-9.04186046512	1.35555555556	-4.6417721519
1877	0.9385	0.75625	-7.60465116279	20.2777777778	2.46582278481
1878	0.939	-6.478125	-7.60465116279	14.4555555556	2.46582278481
1879	0.9395	-0.690625	-7.60465116279	8.63333333333	-0.377215189873
1880	0.94	-2.1375	-11.9162790698	15.9111111111	1.04430379747
1881	0.9405	-3.584375	-10.4790697674	7.17777777778	2.46582278481
1882	0.941	-3.584375	-9.04186046512	18.8222222222	3.88734177215
1883	0.9415	-3.584375	-9.04186046512	-1.55555555556	-0.377215189873
1884	0.942	-2.1375	-7.60465116279	4.26666666667	1.04430379747
1885	0.9425	-2.1375	-7.60465116279	-3.01111111111	1.04430379747
1886	0.943	-5.03125	-6.16744186047	1.35555555556	-0.377215189873
1887	0.9435	-0.690625	-9.04186046512	-1.55555555556	1.04430379747
1888	0.944	-3.584375	-14.7906976744	-0.1	3.88734177215
1889	0.9445	-3.584375	-11.9162790698	15.9111111111	1.04430379747
1890	0.945	-0.690625	6.76744186047	-0.1	1.04430379747
1891	0.9455	-0.690625	-6.16744186047	8.63333333333	1.04430379747
1892	0.946	-0.690625	-14.7906976744	1.35555555556	2.46582278481
1893	0.9465	-6.478125	-13.3534883721	-0.1	3.88734177215
1894	0.947	-2.1375	-17.6651162791	2.81111111111	2.46582278481
1895	0.9475	-6.478125	-13.3534883721	2.81111111111	1.04430379747
1896	0.948	-0.690625	2.45581395349	-1.55555555556	1.04430379747
1897	0.9485	0.75625	-10.4790697674	1.35555555556	5.30886075949
1898	0.949	-0.690625	-14.7906976744	1.35555555556	1.04430379747
1899	0.9495	-2.1375	-7.60465116279	-0.1	5.30886075949
1900	0.95	0.75625	-9.04186046512	1.35555555556	2.46582278481
1901	0.9505	0.75625	-7.60465116279	1.35555555556	-0.377215189873
1902	0.951	13.778125	-9.04186046512	1.35555555556	2.46582278481
1903	0.9515	13.778125	-9.04186046512	1.35555555556	-0.377215189873
1904	0.952	12.33125	-9.04186046512	-0.1	5.30886075949
1905	0.9525	12.33125	-7.60465116279	1.35555555556	3.88734177215
1906	0.953	13.778125	-10.4790697674	4.26666666667	3.88734177215
1907	0.9535	-5.03125	-9.04186046512	2.81111111111	-6.06329113924
1908	0.954	-13.7125	-9.04186046512	1.35555555556	2.46582278481
1909	0.9545	-9.371875	-9.04186046512	-0.1	2.46582278481
1910	0.955	-2.1375	-9.04186046512	-1.55555555556	12.4164556962
1911	0.9555	-3.584375	-7.60465116279	-0.1	-1.79873417722
1912	0.956	-6.478125	-10.4790697674	2.81111111111	-0.377215189873
1913	0.9565	-2.1375	-9.04186046512	1.35555555556	3.88734177215
1914	0.957	-0.690625	-7.60465116279	1.35555555556	5.30886075949
1915	0.9575	-2.1375	-6.16744186047	-1.55555555556	18.1025316456
1916	0.958	0.75625	-10.4790697674	-0.1	5.30886075949
1917	0.9585	-0.690625	-10.4790697674	-1.55555555556	-6.06329113924
1918	0.959	-2.1375	-7.60465116279	-11.7444444444	2.46582278481
1919	0.9595	-0.690625	-7.60465116279	-3.01111111111	1.04430379747
1920	0.96	0.75625	-7.60465116279	17.3666666667	5.30886075949
1921	0.9605	-2.1375	-10.4790697674	-4.46666666667	5.30886075949
1922	0.961	-3.584375	-10.4790697674	7.17777777778	2.46582278481
1923	0.9615	-0.690625	-10.4790697674	-5.92222222222	2.46582278481
1924	0.962	-5.03125	-10.4790697674	-0.1	1.04430379747
1925	0.9625	0.75625	-7.60465116279	2.81111111111	2.46582278481
1926	0.963	-0.690625	-4.73023255814	-0.1	1.04430379747
1927	0.9635	-3.584375	-6.16744186047	-1.55555555556	2.46582278481
1928	0.964	-2.1375	-10.4790697674	-0.1	1.04430379747
1929	0.9645	0.75625	9.64186046512	2.81111111111	-0.377215189873
1930	0.965	0.75625	5.33023255814	-0.1	-0.377215189873
1931	0.9655	0.75625	-9.04186046512	4.26666666667	3.88734177215
1932	0.966	-3.584375	-19.1023255814	4.26666666667	-0.377215189873
1933	0.9665	-6.478125	-13.3534883721	-0.1	2.46582278481
1934	0.967	-0.690625	-10.4790697674	-0.1	1.04430379747
1935	0.9675	-6.478125	-11.9162790698	1.35555555556	3.88734177215
1936	0.968	-0.690625	-7.60465116279	1.35555555556	2.46582278481
1937	0.9685	-5.03125	-6.16744186047	1.35555555556	1.04430379747
1938	0.969	-15.159375	-7.60465116279	-1.55555555556	2.46582278481
1939	0.9695	-12.265625	-11.9162790698	-0.1	1.04430379747
1940	0.97	9.4375	-7.60465116279	-1.55555555556	5.30886075949
1941	0.9705	18.11875	-6.16744186047	-1.55555555556	2.46582278481
1942	0.971	0.75625	-6.16744186047	-1.55555555556	2.46582278481
1943	0.9715	-12.265625	-9.04186046512	-1.55555555556	1.04430379747
1944	0.972	-2.1375	-7.60465116279	1.35555555556	-1.79873417722
1945	0.9725	-12.265625	-6.16744186047	1.35555555556	-3.22025316456
1946	0.973	-2.1375	-4.73023255814	-1.55555555556	18.1025316456
1947	0.9735	-0.690625	-6.16744186047	2.81111111111	3.88734177215
1948	0.974	-0.690625	-4.73023255814	-0.1	19.5240506329
1949	0.9745	0.75625	-6.16744186047	-0.1	3.88734177215
1950	0.975	-0.690625	-7.60465116279	-1.55555555556	20.9455696203
1951	0.9755	-2.1375	-6.16744186047	4.26666666667	2.46582278481
1952	0.976	-0.690625	-6.16744186047	-5.92222222222	1.04430379747
1953	0.9765	-2.1375	-4.73023255814	-10.2888888889	15.2594936709
1954	0.977	-0.690625	-4.73023255814	-1.55555555556	3.88734177215
1955	0.9775	-0.690625	-4.73023255814	18.8222222222	-0.377215189873
1956	0.978	0.75625	-3.29302325581	14.4555555556	1.04430379747
1957	0.9785	-3.584375	-1.85581395349	2.81111111111	2.46582278481
1958	0.979	-0.690625	-6.16744186047	-0.1	2.46582278481
