	Time	Channel 1	Channel 2	Channel 3	Channel 4
0	0.0	-3.6	-4.97142857143	-1.21590909091	4.69473684211
1	0.0005	-0.716666666667	-4.97142857143	3.08636363636	-5.17280701754
2	0.001	0.725	-2.06428571429	-2.65	-3.76315789474
3	0.0015	7.93333333333	-6.425	-4.08409090909	-2.35350877193
4	0.002	-7.925	-4.97142857143	-1.21590909091	-0.943859649123
5	0.0025	-0.716666666667	-4.97142857143	0.218181818182	0.465789473684
6	0.003	5.05	-6.425	-8.38636363636	0.465789473684
7	0.0035	0.725	-3.51785714286	0.218181818182	-10.8114035088
8	0.004	-0.716666666667	-10.7857142857	1.65227272727	0.465789473684
9	0.0045	3.60833333333	-7.87857142857	3.08636363636	-6.58245614035
10	0.005	9.375	-6.425	-1.21590909091	-0.943859649123
11	0.0055	9.375	-0.610714285714	1.65227272727	0.465789473684
12	0.006	3.60833333333	9.56428571429	1.65227272727	-0.943859649123
13	0.0065	-3.6	-4.97142857143	0.218181818182	1.87543859649
14	0.007	5.05	-3.51785714286	0.218181818182	1.87543859649
15	0.0075	16.5833333333	-4.97142857143	-1.21590909091	0.465789473684
16	0.008	18.025	-2.06428571429	1.65227272727	0.465789473684
17	0.0085	7.93333333333	-3.51785714286	1.65227272727	1.87543859649
18	0.009	2.16666666667	-2.06428571429	-1.21590909091	3.2850877193
19	0.0095	-2.15833333333	-2.06428571429	0.218181818182	3.2850877193
20	0.01	-0.716666666667	-2.06428571429	0.218181818182	13.1526315789
21	0.0105	-0.716666666667	-2.06428571429	-1.21590909091	20.200877193
22	0.011	-2.15833333333	-3.51785714286	4.52045454545	1.87543859649
23	0.0115	-2.15833333333	0.842857142857	17.4272727273	1.87543859649
24	0.012	-2.15833333333	-0.610714285714	18.8613636364	1.87543859649
25	0.0125	-3.6	-2.06428571429	1.65227272727	1.87543859649
26	0.013	-0.716666666667	-4.97142857143	-4.08409090909	0.465789473684
27	0.0135	-2.15833333333	-4.97142857143	-5.51818181818	4.69473684211
28	0.014	-3.6	-2.06428571429	1.65227272727	4.69473684211
29	0.0145	-5.04166666667	-16.6	0.218181818182	4.69473684211
30	0.015	-0.716666666667	-3.51785714286	3.08636363636	0.465789473684
31	0.0155	0.725	5.20357142857	0.218181818182	-0.943859649123
32	0.016	-0.716666666667	13.925	0.218181818182	0.465789473684
33	0.0165	2.16666666667	-13.6928571429	1.65227272727	0.465789473684
34	0.017	0.725	-7.87857142857	1.65227272727	1.87543859649
35	0.0175	19.4666666667	-3.51785714286	1.65227272727	-3.76315789474
36	0.018	13.7	-0.610714285714	-1.21590909091	0.465789473684
37	0.0185	0.725	-0.610714285714	-1.21590909091	1.87543859649
38	0.019	-10.8083333333	-2.06428571429	0.218181818182	-2.35350877193
39	0.0195	-3.6	-3.51785714286	-1.21590909091	-9.40175438596
40	0.02	-0.716666666667	-2.06428571429	4.52045454545	-7.99210526316
41	0.0205	-0.716666666667	-2.06428571429	-8.38636363636	-2.35350877193
42	0.021	2.16666666667	-2.06428571429	-9.82045454545	0.465789473684
43	0.0215	0.725	-0.610714285714	-4.08409090909	-2.35350877193
44	0.022	2.16666666667	0.842857142857	7.38863636364	-2.35350877193
45	0.0225	2.16666666667	-0.610714285714	15.9931818182	0.465789473684
46	0.023	-2.15833333333	-3.51785714286	13.125	-3.76315789474
47	0.0235	-0.716666666667	-2.06428571429	0.218181818182	-2.35350877193
48	0.024	0.725	-0.610714285714	0.218181818182	-2.35350877193
49	0.0245	0.725	-7.87857142857	1.65227272727	0.465789473684
50	0.025	0.725	-10.7857142857	1.65227272727	-0.943859649123
51	0.0255	2.16666666667	-4.97142857143	0.218181818182	0.465789473684
52	0.026	0.725	-4.97142857143	1.65227272727	-0.943859649123
53	0.0265	5.05	-2.06428571429	3.08636363636	0.465789473684
54	0.027	-0.716666666667	-0.610714285714	0.218181818182	0.465789473684
55	0.0275	-7.925	-2.06428571429	-1.21590909091	-2.35350877193
56	0.028	-12.25	-2.06428571429	1.65227272727	-0.943859649123
57	0.0285	-12.25	-0.610714285714	3.08636363636	0.465789473684
58	0.029	-2.15833333333	-2.06428571429	0.218181818182	-2.35350877193
59	0.0295	-10.8083333333	-2.06428571429	5.95454545455	-7.99210526316
60	0.03	-7.925	-2.06428571429	1.65227272727	4.69473684211
61	0.0305	-5.04166666667	-2.06428571429	-1.21590909091	15.9719298246
62	0.031	0.725	-2.06428571429	1.65227272727	-0.943859649123
63	0.0315	-0.716666666667	-0.610714285714	-8.38636363636	-0.943859649123
64	0.032	-0.716666666667	0.842857142857	-8.38636363636	-0.943859649123
65	0.0325	-0.716666666667	-2.06428571429	0.218181818182	-0.943859649123
66	0.033	0.725	-2.06428571429	13.125	-0.943859649123
67	0.0335	0.725	-0.610714285714	20.2954545455	-0.943859649123
68	0.034	-0.716666666667	-7.87857142857	3.08636363636	0.465789473684
69	0.0345	-0.716666666667	-15.1464285714	0.218181818182	0.465789473684
70	0.035	-0.716666666667	-6.425	3.08636363636	1.87543859649
71	0.0355	-0.716666666667	-3.51785714286	4.52045454545	1.87543859649
72	0.036	2.16666666667	11.0178571429	1.65227272727	3.2850877193
73	0.0365	-3.6	11.0178571429	0.218181818182	3.2850877193
74	0.037	0.725	-4.97142857143	0.218181818182	3.2850877193
75	0.0375	0.725	-3.51785714286	0.218181818182	6.10438596491
76	0.038	2.16666666667	-10.7857142857	-1.21590909091	1.87543859649
77	0.0385	12.2583333333	-3.51785714286	-1.21590909091	4.69473684211
78	0.039	12.2583333333	-3.51785714286	0.218181818182	6.10438596491
79	0.0395	19.4666666667	-4.97142857143	-1.21590909091	6.10438596491
80	0.04	0.725	0.842857142857	-2.65	14.5622807018
81	0.0405	0.725	-3.51785714286	-1.21590909091	20.200877193
82	0.041	-0.716666666667	-2.06428571429	1.65227272727	15.9719298246
83	0.0415	0.725	0.842857142857	-1.21590909091	0.465789473684
84	0.042	-2.15833333333	-3.51785714286	3.08636363636	1.87543859649
85	0.0425	2.16666666667	2.29642857143	17.4272727273	3.2850877193
86	0.043	0.725	2.29642857143	3.08636363636	-5.17280701754
87	0.0435	0.725	0.842857142857	1.65227272727	-7.99210526316
88	0.044	-0.716666666667	-0.610714285714	-2.65	3.2850877193
89	0.0445	0.725	0.842857142857	-1.21590909091	0.465789473684
90	0.045	0.725	2.29642857143	-1.21590909091	3.2850877193
91	0.0455	0.725	-3.51785714286	3.08636363636	1.87543859649
92	0.046	0.725	3.75	0.218181818182	3.2850877193
93	0.0465	-5.04166666667	-9.33214285714	3.08636363636	6.10438596491
94	0.047	-2.15833333333	-9.33214285714	3.08636363636	3.2850877193
95	0.0475	-3.6	-6.425	1.65227272727	0.465789473684
96	0.048	2.16666666667	-6.425	3.08636363636	1.87543859649
97	0.0485	-12.25	-2.06428571429	5.95454545455	1.87543859649
98	0.049	-7.925	-4.97142857143	3.08636363636	1.87543859649
99	0.0495	5.05	-4.97142857143	5.95454545455	1.87543859649
100	0.05	16.5833333333	-6.425	4.52045454545	1.87543859649
101	0.0505	-0.716666666667	-3.51785714286	3.08636363636	-2.35350877193
102	0.051	-2.15833333333	-2.06428571429	3.08636363636	0.465789473684
103	0.0515	0.725	-2.06428571429	1.65227272727	14.5622807018
104	0.052	2.16666666667	-4.97142857143	3.08636363636	17.3815789474
105	0.0525	0.725	-3.51785714286	4.52045454545	14.5622807018
106	0.053	-0.716666666667	-2.06428571429	4.52045454545	6.10438596491
107	0.0535	-0.716666666667	-3.51785714286	4.52045454545	-3.76315789474
108	0.054	0.725	-2.06428571429	-2.65	1.87543859649
109	0.0545	-0.716666666667	-2.06428571429	8.82272727273	0.465789473684
110	0.055	-0.716666666667	-3.51785714286	20.2954545455	1.87543859649
111	0.0555	-0.716666666667	-6.425	-4.08409090909	0.465789473684
112	0.056	-2.15833333333	-2.06428571429	-1.21590909091	1.87543859649
113	0.0565	-0.716666666667	-13.6928571429	-1.21590909091	0.465789473684
114	0.057	-0.716666666667	-9.33214285714	0.218181818182	0.465789473684
115	0.0575	2.16666666667	-2.06428571429	0.218181818182	3.2850877193
116	0.058	6.49166666667	0.842857142857	-1.21590909091	3.2850877193
117	0.0585	-0.716666666667	-2.06428571429	-1.21590909091	1.87543859649
118	0.059	-9.36666666667	-2.06428571429	1.65227272727	1.87543859649
119	0.0595	-10.8083333333	-0.610714285714	1.65227272727	1.87543859649
120	0.06	-0.716666666667	-0.610714285714	1.65227272727	0.465789473684
121	0.0605	-3.6	-2.06428571429	3.08636363636	-9.40175438596
122	0.061	-3.6	-4.97142857143	0.218181818182	-7.99210526316
123	0.0615	-3.6	-2.06428571429	-2.65	7.51403508772
124	0.062	-3.6	-0.610714285714	-1.21590909091	18.7912280702
125	0.0625	-3.6	-4.97142857143	3.08636363636	13.1526315789
126	0.063	-2.15833333333	-2.06428571429	5.95454545455	0.465789473684
127	0.0635	-0.716666666667	0.842857142857	24.5977272727	0.465789473684
128	0.064	-0.716666666667	0.842857142857	14.5590909091	1.87543859649
129	0.0645	2.16666666667	0.842857142857	-4.08409090909	3.2850877193
130	0.065	2.16666666667	-0.610714285714	-4.08409090909	3.2850877193
131	0.0655	-0.716666666667	-2.06428571429	3.08636363636	4.69473684211
132	0.066	2.16666666667	-15.1464285714	5.95454545455	3.2850877193
133	0.0665	0.725	-16.6	5.95454545455	3.2850877193
134	0.067	2.16666666667	-2.06428571429	1.65227272727	3.2850877193
135	0.0675	3.60833333333	15.3785714286	1.65227272727	6.10438596491
136	0.068	-3.6	16.8321428571	0.218181818182	4.69473684211
137	0.0685	-5.04166666667	-3.51785714286	-1.21590909091	3.2850877193
138	0.069	-2.15833333333	-4.97142857143	3.08636363636	7.51403508772
139	0.0695	0.725	-10.7857142857	1.65227272727	6.10438596491
140	0.07	12.2583333333	-2.06428571429	4.52045454545	6.10438596491
141	0.0705	-3.6	-2.06428571429	-1.21590909091	8.92368421053
142	0.071	-10.8083333333	-2.06428571429	1.65227272727	6.10438596491
143	0.0715	-6.48333333333	-2.06428571429	1.65227272727	1.87543859649
144	0.072	-2.15833333333	-4.97142857143	1.65227272727	-3.76315789474
145	0.0725	-0.716666666667	-3.51785714286	3.08636363636	-0.943859649123
146	0.073	3.60833333333	-3.51785714286	-1.21590909091	1.87543859649
147	0.0735	0.725	-3.51785714286	-6.95227272727	4.69473684211
148	0.074	0.725	-2.06428571429	-6.95227272727	6.10438596491
149	0.0745	2.16666666667	-2.06428571429	0.218181818182	6.10438596491
150	0.075	5.05	-3.51785714286	17.4272727273	4.69473684211
151	0.0755	5.05	0.842857142857	1.65227272727	6.10438596491
152	0.076	2.16666666667	-3.51785714286	4.52045454545	6.10438596491
153	0.0765	0.725	-10.7857142857	4.52045454545	6.10438596491
154	0.077	0.725	-12.2392857143	5.95454545455	7.51403508772
155	0.0775	-2.15833333333	-4.97142857143	4.52045454545	6.10438596491
156	0.078	0.725	9.56428571429	4.52045454545	4.69473684211
157	0.0785	-0.716666666667	-0.610714285714	5.95454545455	6.10438596491
158	0.079	-9.36666666667	-2.06428571429	3.08636363636	6.10438596491
159	0.0795	-16.575	2.29642857143	4.52045454545	6.10438596491
160	0.08	-12.25	-3.51785714286	1.65227272727	0.465789473684
161	0.0805	3.60833333333	-2.06428571429	0.218181818182	-5.17280701754
162	0.081	15.1416666667	-3.51785714286	1.65227272727	0.465789473684
163	0.0815	-3.6	-0.610714285714	0.218181818182	6.10438596491
164	0.082	-5.04166666667	-0.610714285714	-1.21590909091	18.7912280702
165	0.0825	-2.15833333333	0.842857142857	1.65227272727	4.69473684211
166	0.083	0.725	-4.97142857143	5.95454545455	-5.17280701754
167	0.0835	0.725	-2.06428571429	4.52045454545	-10.8114035088
168	0.084	5.05	-2.06428571429	-1.21590909091	-5.17280701754
169	0.0845	10.8166666667	-2.06428571429	-6.95227272727	-2.35350877193
170	0.085	3.60833333333	0.842857142857	-6.95227272727	-0.943859649123
171	0.0855	0.725	-4.97142857143	-2.65	0.465789473684
172	0.086	0.725	-6.425	-6.95227272727	-2.35350877193
173	0.0865	0.725	-3.51785714286	-5.51818181818	-0.943859649123
174	0.087	2.16666666667	-12.2392857143	0.218181818182	0.465789473684
175	0.0875	2.16666666667	-12.2392857143	1.65227272727	-0.943859649123
176	0.088	0.725	-0.610714285714	1.65227272727	-2.35350877193
177	0.0885	-2.15833333333	-0.610714285714	0.218181818182	-5.17280701754
178	0.089	-3.6	-10.7857142857	-1.21590909091	-0.943859649123
179	0.0895	0.725	-6.425	-1.21590909091	-2.35350877193
180	0.09	2.16666666667	-4.97142857143	-1.21590909091	-2.35350877193
181	0.0905	19.4666666667	0.842857142857	0.218181818182	-5.17280701754
182	0.091	15.1416666667	-3.51785714286	-1.21590909091	-5.17280701754
183	0.0915	-2.15833333333	-2.06428571429	0.218181818182	0.465789473684
184	0.092	-7.925	2.29642857143	-1.21590909091	-5.17280701754
185	0.0925	-5.04166666667	-0.610714285714	1.65227272727	-12.2210526316
186	0.093	-3.6	2.29642857143	4.52045454545	-12.2210526316
187	0.0935	-3.6	0.842857142857	-2.65	-7.99210526316
188	0.094	-2.15833333333	0.842857142857	-11.2545454545	-5.17280701754
189	0.0945	-2.15833333333	-2.06428571429	-11.2545454545	-3.76315789474
190	0.095	-3.6	2.29642857143	-5.51818181818	-2.35350877193
191	0.0955	0.725	3.75	7.38863636364	-2.35350877193
192	0.096	0.725	3.75	-2.65	-5.17280701754
193	0.0965	0.725	0.842857142857	1.65227272727	-6.58245614035
194	0.097	0.725	-10.7857142857	1.65227272727	-3.76315789474
195	0.0975	3.60833333333	-15.1464285714	0.218181818182	-6.58245614035
196	0.098	0.725	-7.87857142857	0.218181818182	-3.76315789474
197	0.0985	0.725	6.65714285714	1.65227272727	-5.17280701754
198	0.099	7.93333333333	-0.610714285714	3.08636363636	-6.58245614035
199	0.0995	-2.15833333333	13.925	0.218181818182	-7.99210526316
200	0.1	0.725	-4.97142857143	1.65227272727	-2.35350877193
201	0.1005	2.16666666667	-2.06428571429	1.65227272727	-3.76315789474
202	0.101	-6.48333333333	-3.51785714286	3.08636363636	-5.17280701754
203	0.1015	-7.925	-2.06428571429	1.65227272727	-3.76315789474
204	0.102	-7.925	0.842857142857	1.65227272727	-10.8114035088
205	0.1025	-3.6	-2.06428571429	4.52045454545	-12.2210526316
206	0.103	-2.15833333333	-2.06428571429	4.52045454545	-6.58245614035
207	0.1035	0.725	-3.51785714286	1.65227272727	4.69473684211
208	0.104	0.725	0.842857142857	-1.21590909091	14.5622807018
209	0.1045	0.725	-0.610714285714	3.08636363636	-2.35350877193
210	0.105	0.725	2.29642857143	18.8613636364	-3.76315789474
211	0.1055	-0.716666666667	0.842857142857	17.4272727273	-0.943859649123
212	0.106	2.16666666667	-0.610714285714	-5.51818181818	-5.17280701754
213	0.1065	0.725	2.29642857143	-4.08409090909	-2.35350877193
214	0.107	-2.15833333333	-0.610714285714	3.08636363636	-0.943859649123
215	0.1075	-2.15833333333	-10.7857142857	4.52045454545	-3.76315789474
216	0.108	-2.15833333333	-10.7857142857	3.08636363636	-3.76315789474
217	0.1085	0.725	3.75	3.08636363636	-2.35350877193
218	0.109	5.05	18.2857142857	-1.21590909091	-2.35350877193
219	0.1095	-0.716666666667	15.3785714286	-2.65	-2.35350877193
220	0.11	2.16666666667	-0.610714285714	-1.21590909091	-0.943859649123
221	0.1105	0.725	-0.610714285714	0.218181818182	-0.943859649123
222	0.111	-6.48333333333	-0.610714285714	0.218181818182	1.87543859649
223	0.1115	-13.6916666667	0.842857142857	-1.21590909091	3.2850877193
224	0.112	19.4666666667	-0.610714285714	0.218181818182	0.465789473684
225	0.1125	9.375	2.29642857143	-1.21590909091	0.465789473684
226	0.113	16.5833333333	0.842857142857	-1.21590909091	1.87543859649
227	0.1135	0.725	-0.610714285714	1.65227272727	-3.76315789474
228	0.114	-3.6	-2.06428571429	0.218181818182	7.51403508772
229	0.1145	-5.04166666667	-2.06428571429	-2.65	17.3815789474
230	0.115	-0.716666666667	0.842857142857	0.218181818182	13.1526315789
231	0.1155	-2.15833333333	0.842857142857	1.65227272727	4.69473684211
232	0.116	-0.716666666667	-0.610714285714	4.52045454545	-7.99210526316
233	0.1165	-2.15833333333	-2.06428571429	-9.82045454545	8.92368421053
234	0.117	-2.15833333333	-2.06428571429	3.08636363636	-2.35350877193
235	0.1175	-5.04166666667	-2.06428571429	15.9931818182	-2.35350877193
236	0.118	-3.6	-2.06428571429	-5.51818181818	-0.943859649123
237	0.1185	-2.15833333333	0.842857142857	-2.65	0.465789473684
238	0.119	0.725	-13.6928571429	0.218181818182	-2.35350877193
239	0.1195	0.725	-0.610714285714	-1.21590909091	-3.76315789474
240	0.12	-5.04166666667	11.0178571429	-1.21590909091	-2.35350877193
241	0.1205	0.725	-4.97142857143	-2.65	-0.943859649123
242	0.121	5.05	-2.06428571429	-1.21590909091	-0.943859649123
243	0.1215	3.60833333333	-2.06428571429	-1.21590909091	-3.76315789474
244	0.122	5.05	-0.610714285714	0.218181818182	-2.35350877193
245	0.1225	-5.04166666667	-0.610714285714	1.65227272727	-0.943859649123
246	0.123	-5.04166666667	-0.610714285714	0.218181818182	-6.58245614035
247	0.1235	0.725	-2.06428571429	3.08636363636	-16.45
248	0.124	7.93333333333	-2.06428571429	-1.21590909091	-12.2210526316
249	0.1245	5.05	0.842857142857	-2.65	6.10438596491
250	0.125	2.16666666667	0.842857142857	-15.5568181818	-2.35350877193
251	0.1255	2.16666666667	-3.51785714286	-4.08409090909	-3.76315789474
252	0.126	0.725	0.842857142857	13.125	-3.76315789474
253	0.1265	-2.15833333333	0.842857142857	13.125	-2.35350877193
254	0.127	0.725	-2.06428571429	3.08636363636	-3.76315789474
255	0.1275	2.16666666667	-3.51785714286	-5.51818181818	-3.76315789474
256	0.128	0.725	-10.7857142857	-2.65	-2.35350877193
257	0.1285	-0.716666666667	2.29642857143	-2.65	-0.943859649123
258	0.129	-0.716666666667	15.3785714286	-2.65	-2.35350877193
259	0.1295	0.725	13.925	-2.65	-3.76315789474
260	0.13	2.16666666667	-0.610714285714	-1.21590909091	-3.76315789474
261	0.1305	-0.716666666667	-9.33214285714	-4.08409090909	-3.76315789474
262	0.131	-2.15833333333	-0.610714285714	-1.21590909091	-3.76315789474
263	0.1315	-12.25	-0.610714285714	-1.21590909091	-2.35350877193
264	0.132	-13.6916666667	0.842857142857	-1.21590909091	-2.35350877193
265	0.1325	3.60833333333	2.29642857143	0.218181818182	-2.35350877193
266	0.133	15.1416666667	0.842857142857	0.218181818182	-0.943859649123
267	0.1335	-5.04166666667	-0.610714285714	-1.21590909091	7.51403508772
268	0.134	-6.48333333333	-3.51785714286	-1.21590909091	0.465789473684
269	0.1345	-2.15833333333	-2.06428571429	1.65227272727	-2.35350877193
270	0.135	-2.15833333333	-2.06428571429	-1.21590909091	10.3333333333
271	0.1355	0.725	-2.06428571429	-6.95227272727	-2.35350877193
272	0.136	2.16666666667	-0.610714285714	4.52045454545	-3.76315789474
273	0.1365	0.725	-2.06428571429	13.125	0.465789473684
274	0.137	-0.716666666667	-2.06428571429	14.5590909091	0.465789473684
275	0.1375	2.16666666667	-0.610714285714	-1.21590909091	0.465789473684
276	0.138	0.725	-0.610714285714	-6.95227272727	1.87543859649
277	0.1385	0.725	-9.33214285714	1.65227272727	0.465789473684
278	0.139	0.725	-12.2392857143	0.218181818182	-0.943859649123
279	0.1395	0.725	6.65714285714	0.218181818182	4.69473684211
280	0.14	-0.716666666667	16.8321428571	-2.65	1.87543859649
281	0.1405	-2.15833333333	8.11071428571	0.218181818182	1.87543859649
282	0.141	3.60833333333	-2.06428571429	0.218181818182	3.2850877193
283	0.1415	2.16666666667	0.842857142857	-1.21590909091	1.87543859649
284	0.142	-5.04166666667	0.842857142857	-1.21590909091	3.2850877193
285	0.1425	-10.8083333333	0.842857142857	0.218181818182	1.87543859649
286	0.143	19.4666666667	-0.610714285714	-1.21590909091	1.87543859649
287	0.1435	5.05	-2.06428571429	-1.21590909091	-9.40175438596
288	0.144	-10.8083333333	-0.610714285714	-1.21590909091	-2.35350877193
289	0.1445	-2.15833333333	2.29642857143	-1.21590909091	0.465789473684
290	0.145	-2.15833333333	-0.610714285714	0.218181818182	-6.58245614035
291	0.1455	-3.6	-0.610714285714	-9.82045454545	-3.76315789474
292	0.146	-0.716666666667	0.842857142857	-9.82045454545	-2.35350877193
293	0.1465	-2.15833333333	2.29642857143	0.218181818182	0.465789473684
294	0.147	-3.6	0.842857142857	18.8613636364	0.465789473684
295	0.1475	-0.716666666667	-2.06428571429	4.52045454545	0.465789473684
296	0.148	0.725	5.20357142857	-1.21590909091	0.465789473684
297	0.1485	0.725	0.842857142857	0.218181818182	0.465789473684
298	0.149	0.725	-7.87857142857	-1.21590909091	-0.943859649123
299	0.1495	-0.716666666667	-9.33214285714	0.218181818182	0.465789473684
300	0.15	-2.15833333333	-6.425	-1.21590909091	-2.35350877193
301	0.1505	2.16666666667	-3.51785714286	-1.21590909091	0.465789473684
302	0.151	2.16666666667	-0.610714285714	-4.08409090909	-0.943859649123
303	0.1515	-7.925	-0.610714285714	-1.21590909091	1.87543859649
304	0.152	-16.575	-0.610714285714	-1.21590909091	3.2850877193
305	0.1525	-9.36666666667	-2.06428571429	0.218181818182	-6.58245614035
306	0.153	-3.6	-3.51785714286	0.218181818182	-10.8114035088
307	0.1535	-0.716666666667	0.842857142857	-1.21590909091	-0.943859649123
308	0.154	-2.15833333333	-0.610714285714	-2.65	6.10438596491
309	0.1545	-2.15833333333	-2.06428571429	-4.08409090909	17.3815789474
310	0.155	-0.716666666667	-2.06428571429	-1.21590909091	8.92368421053
311	0.1555	0.725	-2.06428571429	14.5590909091	0.465789473684
312	0.156	-0.716666666667	-2.06428571429	14.5590909091	1.87543859649
313	0.1565	-0.716666666667	-3.51785714286	1.65227272727	4.69473684211
314	0.157	-0.716666666667	-3.51785714286	-6.95227272727	3.2850877193
315	0.1575	0.725	0.842857142857	-5.51818181818	1.87543859649
316	0.158	-0.716666666667	3.75	-1.21590909091	4.69473684211
317	0.1585	0.725	16.8321428571	0.218181818182	4.69473684211
318	0.159	-0.716666666667	5.20357142857	0.218181818182	7.51403508772
319	0.1595	-0.716666666667	-9.33214285714	1.65227272727	6.10438596491
320	0.16	2.16666666667	-6.425	4.52045454545	6.10438596491
321	0.1605	2.16666666667	-3.51785714286	1.65227272727	3.2850877193
322	0.161	0.725	0.842857142857	1.65227272727	4.69473684211
323	0.1615	-2.15833333333	-0.610714285714	0.218181818182	6.10438596491
324	0.162	-5.04166666667	2.29642857143	1.65227272727	-0.943859649123
325	0.1625	-5.04166666667	2.29642857143	0.218181818182	-6.58245614035
326	0.163	-0.716666666667	-0.610714285714	0.218181818182	-5.17280701754
327	0.1635	-2.15833333333	-2.06428571429	-4.08409090909	8.92368421053
328	0.164	-0.716666666667	-0.610714285714	-2.65	20.200877193
329	0.1645	-2.15833333333	0.842857142857	-4.08409090909	1.87543859649
330	0.165	-0.716666666667	0.842857142857	11.6909090909	4.69473684211
331	0.1655	-0.716666666667	2.29642857143	14.5590909091	6.10438596491
332	0.166	0.725	0.842857142857	1.65227272727	4.69473684211
333	0.1665	-2.15833333333	-2.06428571429	-8.38636363636	1.87543859649
334	0.167	-2.15833333333	-2.06428571429	-4.08409090909	0.465789473684
335	0.1675	-2.15833333333	18.2857142857	0.218181818182	0.465789473684
336	0.168	-3.6	13.925	0.218181818182	1.87543859649
337	0.1685	-0.716666666667	-0.610714285714	1.65227272727	0.465789473684
338	0.169	-6.48333333333	-10.7857142857	0.218181818182	1.87543859649
339	0.1695	-2.15833333333	-9.33214285714	-2.65	0.465789473684
340	0.17	0.725	-2.06428571429	-1.21590909091	-0.943859649123
341	0.1705	16.5833333333	-3.51785714286	-1.21590909091	1.87543859649
342	0.171	-0.716666666667	-4.97142857143	-1.21590909091	1.87543859649
343	0.1715	-9.36666666667	-2.06428571429	-4.08409090909	3.2850877193
344	0.172	-7.925	-0.610714285714	-1.21590909091	-0.943859649123
345	0.1725	-0.716666666667	-3.51785714286	1.65227272727	-7.99210526316
346	0.173	10.8166666667	-0.610714285714	0.218181818182	-7.99210526316
347	0.1735	9.375	-0.610714285714	-1.21590909091	-5.17280701754
348	0.174	2.16666666667	-2.06428571429	-1.21590909091	0.465789473684
349	0.1745	0.725	0.842857142857	-4.08409090909	13.1526315789
350	0.175	-2.15833333333	0.842857142857	15.9931818182	0.465789473684
351	0.1755	0.725	-0.610714285714	4.52045454545	0.465789473684
352	0.176	-0.716666666667	0.842857142857	-5.51818181818	0.465789473684
353	0.1765	-0.716666666667	0.842857142857	-11.2545454545	1.87543859649
354	0.177	0.725	3.75	-5.51818181818	0.465789473684
355	0.1775	0.725	13.925	-4.08409090909	1.87543859649
356	0.178	-3.6	8.11071428571	-1.21590909091	1.87543859649
357	0.1785	-0.716666666667	-6.425	-1.21590909091	1.87543859649
358	0.179	-0.716666666667	-6.425	-1.21590909091	4.69473684211
359	0.1795	0.725	-2.06428571429	-1.21590909091	3.2850877193
360	0.18	-0.716666666667	18.2857142857	-1.21590909091	3.2850877193
361	0.1805	13.7	-2.06428571429	-1.21590909091	3.2850877193
362	0.181	20.9083333333	0.842857142857	1.65227272727	0.465789473684
363	0.1815	12.2583333333	0.842857142857	1.65227272727	6.10438596491
364	0.182	-5.04166666667	0.842857142857	1.65227272727	10.3333333333
365	0.1825	-7.925	-3.51785714286	3.08636363636	-0.943859649123
366	0.183	0.725	-0.610714285714	5.95454545455	-5.17280701754
367	0.1835	-3.6	-2.06428571429	-5.51818181818	1.87543859649
368	0.184	-0.716666666667	-0.610714285714	-8.38636363636	4.69473684211
369	0.1845	-0.716666666667	-3.51785714286	8.82272727273	4.69473684211
370	0.185	-0.716666666667	-2.06428571429	18.8613636364	4.69473684211
371	0.1855	-0.716666666667	-4.97142857143	4.52045454545	3.2850877193
372	0.186	-0.716666666667	-12.2392857143	0.218181818182	1.87543859649
373	0.1865	0.725	-7.87857142857	-1.21590909091	-0.943859649123
374	0.187	-0.716666666667	-9.33214285714	-1.21590909091	1.87543859649
375	0.1875	-0.716666666667	6.65714285714	-1.21590909091	0.465789473684
376	0.188	-5.04166666667	18.2857142857	-1.21590909091	0.465789473684
377	0.1885	-0.716666666667	-6.425	1.65227272727	3.2850877193
378	0.189	3.60833333333	-0.610714285714	-1.21590909091	0.465789473684
379	0.1895	-5.04166666667	-0.610714285714	3.08636363636	4.69473684211
380	0.19	16.5833333333	0.842857142857	-1.21590909091	3.2850877193
381	0.1905	12.2583333333	2.29642857143	-1.21590909091	0.465789473684
382	0.191	5.05	0.842857142857	1.65227272727	3.2850877193
383	0.1915	0.725	0.842857142857	3.08636363636	-3.76315789474
384	0.192	-2.15833333333	-2.06428571429	0.218181818182	14.5622807018
385	0.1925	-3.6	-3.51785714286	-2.65	21.6105263158
386	0.193	-3.6	2.29642857143	-1.21590909091	13.1526315789
387	0.1935	-2.15833333333	0.842857142857	3.08636363636	-0.943859649123
388	0.194	-0.716666666667	-0.610714285714	15.9931818182	0.465789473684
389	0.1945	-0.716666666667	-2.06428571429	1.65227272727	1.87543859649
390	0.195	-5.04166666667	-2.06428571429	-9.82045454545	3.2850877193
391	0.1955	-3.6	2.29642857143	-6.95227272727	0.465789473684
392	0.196	-2.15833333333	2.29642857143	15.9931818182	1.87543859649
393	0.1965	0.725	0.842857142857	-2.65	3.2850877193
394	0.197	0.725	13.925	-1.21590909091	4.69473684211
395	0.1975	0.725	9.56428571429	0.218181818182	3.2850877193
396	0.198	-0.716666666667	-0.610714285714	-1.21590909091	1.87543859649
397	0.1985	0.725	-10.7857142857	0.218181818182	3.2850877193
398	0.199	-0.716666666667	-6.425	0.218181818182	0.465789473684
399	0.1995	-9.36666666667	-2.06428571429	1.65227272727	-0.943859649123
400	0.2	-3.6	-3.51785714286	0.218181818182	0.465789473684
401	0.2005	12.2583333333	-6.425	-2.65	1.87543859649
402	0.201	0.725	-4.97142857143	3.08636363636	-5.17280701754
403	0.2015	-0.716666666667	-2.06428571429	-1.21590909091	13.1526315789
404	0.202	-0.716666666667	-2.06428571429	0.218181818182	18.7912280702
405	0.2025	-0.716666666667	-2.06428571429	0.218181818182	3.2850877193
406	0.203	2.16666666667	-3.51785714286	4.52045454545	-6.58245614035
407	0.2035	3.60833333333	-4.97142857143	-5.51818181818	-2.35350877193
408	0.204	2.16666666667	-2.06428571429	-9.82045454545	1.87543859649
409	0.2045	3.60833333333	-0.610714285714	-4.08409090909	1.87543859649
410	0.205	-0.716666666667	-4.97142857143	-2.65	-0.943859649123
411	0.2055	-0.716666666667	-3.51785714286	-8.38636363636	4.69473684211
412	0.206	2.16666666667	-10.7857142857	1.65227272727	4.69473684211
413	0.2065	0.725	-12.2392857143	0.218181818182	3.2850877193
414	0.207	0.725	2.29642857143	-1.21590909091	0.465789473684
415	0.2075	3.60833333333	-2.06428571429	-1.21590909091	1.87543859649
416	0.208	-0.716666666667	0.842857142857	0.218181818182	4.69473684211
417	0.2085	-12.25	0.842857142857	-2.65	6.10438596491
418	0.209	-0.716666666667	-6.425	0.218181818182	3.2850877193
419	0.2095	-3.6	-2.06428571429	-1.21590909091	1.87543859649
420	0.21	-0.716666666667	-2.06428571429	-2.65	3.2850877193
421	0.2105	-10.8083333333	-2.06428571429	0.218181818182	4.69473684211
422	0.211	-12.25	-3.51785714286	-1.21590909091	-5.17280701754
423	0.2115	-5.04166666667	-2.06428571429	3.08636363636	-6.58245614035
424	0.212	-3.6	-0.610714285714	3.08636363636	4.69473684211
425	0.2125	-2.15833333333	-2.06428571429	-2.65	23.0201754386
426	0.213	-3.6	-2.06428571429	0.218181818182	8.92368421053
427	0.2135	0.725	-3.51785714286	-8.38636363636	25.8394736842
428	0.214	0.725	-2.06428571429	-1.21590909091	4.69473684211
429	0.2145	-0.716666666667	-0.610714285714	-5.51818181818	3.2850877193
430	0.215	-0.716666666667	-0.610714285714	-8.38636363636	6.10438596491
431	0.2155	2.16666666667	0.842857142857	0.218181818182	4.69473684211
432	0.216	3.60833333333	-2.06428571429	-2.65	4.69473684211
433	0.2165	-2.15833333333	-9.33214285714	0.218181818182	4.69473684211
434	0.217	-2.15833333333	-7.87857142857	0.218181818182	6.10438596491
435	0.2175	3.60833333333	-0.610714285714	1.65227272727	3.2850877193
436	0.218	0.725	11.0178571429	4.52045454545	6.10438596491
437	0.2185	7.93333333333	-0.610714285714	1.65227272727	6.10438596491
438	0.219	13.7	-2.06428571429	1.65227272727	6.10438596491
439	0.2195	0.725	-0.610714285714	4.52045454545	7.51403508772
440	0.22	-9.36666666667	-3.51785714286	3.08636363636	4.69473684211
441	0.2205	-7.925	-2.06428571429	4.52045454545	-3.76315789474
442	0.221	-5.04166666667	-2.06428571429	5.95454545455	-10.8114035088
443	0.2215	-0.716666666667	-4.97142857143	4.52045454545	-9.40175438596
444	0.222	-0.716666666667	-4.97142857143	-2.65	-7.99210526316
445	0.2225	0.725	-2.06428571429	0.218181818182	-6.58245614035
446	0.223	-2.15833333333	-2.06428571429	18.8613636364	-10.8114035088
447	0.2235	-3.6	0.842857142857	18.8613636364	-16.45
448	0.224	-3.6	-4.97142857143	8.82272727273	-20.6789473684
449	0.2245	0.725	-0.610714285714	3.08636363636	-22.0885964912
450	0.225	-2.15833333333	0.842857142857	1.65227272727	-27.7271929825
451	0.2255	-2.15833333333	-3.51785714286	11.6909090909	-30.5464912281
452	0.226	2.16666666667	15.3785714286	11.6909090909	-34.7754385965
453	0.2265	0.725	18.2857142857	14.5590909091	-37.5947368421
454	0.227	0.725	0.842857142857	11.6909090909	-39.0043859649
455	0.2275	3.60833333333	-4.97142857143	13.125	-46.0526315789
456	0.228	7.93333333333	-2.06428571429	14.5590909091	-54.5105263158
457	0.2285	3.60833333333	-2.06428571429	14.5590909091	-60.149122807
458	0.229	10.8166666667	0.842857142857	14.5590909091	-74.2456140351
459	0.2295	-2.15833333333	-2.06428571429	14.5590909091	-79.8842105263
460	0.23	-9.36666666667	-2.06428571429	14.5590909091	-98.2096491228
461	0.2305	-13.6916666667	-2.06428571429	8.82272727273	-98.2096491228
462	0.231	-0.716666666667	-0.610714285714	13.125	-99.6192982456
463	0.2315	-2.15833333333	0.842857142857	13.125	-120.764035088
464	0.232	-2.15833333333	-0.610714285714	13.125	-136.270175439
465	0.2325	0.725	0.842857142857	7.38863636364	-151.776315789
466	0.233	-0.716666666667	2.29642857143	-1.21590909091	-163.053508772
467	0.2335	-0.716666666667	-2.06428571429	-5.51818181818	-171.511403509
468	0.234	-0.716666666667	-2.06428571429	15.9931818182	-189.836842105
469	0.2345	-0.716666666667	-9.33214285714	3.08636363636	-196.885087719
470	0.235	0.725	-13.6928571429	4.52045454545	-203.933333333
471	0.2355	0.725	-9.33214285714	3.08636363636	-213.800877193
472	0.236	0.725	11.0178571429	4.52045454545	-222.25877193
473	0.2365	2.16666666667	13.925	0.218181818182	-230.716666667
474	0.237	-0.716666666667	2.29642857143	-1.21590909091	-233.535964912
475	0.2375	-12.25	-0.610714285714	0.218181818182	-234.945614035
476	0.238	-15.1333333333	-4.97142857143	0.218181818182	-236.355263158
477	0.2385	-7.925	-6.425	-2.65	-241.993859649
478	0.239	10.8166666667	-3.51785714286	-2.65	-241.993859649
479	0.2395	16.5833333333	-4.97142857143	-6.95227272727	-241.993859649
480	0.24	19.4666666667	-2.06428571429	-5.51818181818	-234.945614035
481	0.2405	7.93333333333	0.842857142857	-5.51818181818	-227.897368421
482	0.241	13.7	-2.06428571429	-9.82045454545	-212.39122807
483	0.2415	13.7	2.29642857143	-6.95227272727	-218.029824561
484	0.242	5.05	2.29642857143	-6.95227272727	-223.668421053
485	0.2425	-2.15833333333	-2.06428571429	-9.82045454545	-222.25877193
486	0.243	0.725	-2.06428571429	-15.5568181818	-212.39122807
487	0.2435	-5.04166666667	-2.06428571429	-18.425	-194.065789474
488	0.244	0.725	2.29642857143	-21.2931818182	-185.607894737
489	0.2445	-0.716666666667	3.75	-18.425	-170.101754386
490	0.245	0.725	2.29642857143	-15.5568181818	-163.053508772
491	0.2455	0.725	0.842857142857	-15.5568181818	-154.595614035
492	0.246	0.725	-2.06428571429	-16.9909090909	-146.137719298
493	0.2465	-0.716666666667	-6.425	-18.425	-137.679824561
494	0.247	-3.6	-6.425	-21.2931818182	-130.631578947
495	0.2475	0.725	-6.425	-19.8590909091	-120.764035088
496	0.248	0.725	-2.06428571429	-21.2931818182	-115.125438596
497	0.2485	16.5833333333	0.842857142857	-19.8590909091	-110.896491228
498	0.249	12.2583333333	2.29642857143	-19.8590909091	-103.848245614
499	0.2495	-0.716666666667	-0.610714285714	-22.7272727273	-98.2096491228
500	0.25	-9.36666666667	-0.610714285714	-22.7272727273	-103.848245614
501	0.2505	-5.04166666667	-0.610714285714	-22.7272727273	-106.66754386
502	0.251	-3.6	-0.610714285714	-24.1613636364	-101.028947368
503	0.2515	-3.6	0.842857142857	-31.3318181818	-88.3421052632
504	0.252	-0.716666666667	2.29642857143	-35.6340909091	-82.7035087719
505	0.2525	-3.6	-2.06428571429	-32.7659090909	-74.2456140351
506	0.253	-3.6	-3.51785714286	-28.4636363636	-70.0166666667
507	0.2535	-5.04166666667	-0.610714285714	-19.8590909091	-62.9684210526
508	0.254	-3.6	0.842857142857	-25.5954545455	-58.7394736842
509	0.2545	-3.6	-4.97142857143	-24.1613636364	-55.9201754386
510	0.255	0.725	-9.33214285714	-24.1613636364	-50.2815789474
511	0.2555	0.725	-10.7857142857	-24.1613636364	-50.2815789474
512	0.256	3.60833333333	-10.7857142857	-27.0295454545	-46.0526315789
513	0.2565	2.16666666667	-6.425	-24.1613636364	-44.6429824561
514	0.257	0.725	-0.610714285714	-24.1613636364	-41.8236842105
515	0.2575	0.725	-9.33214285714	-25.5954545455	-36.1850877193
516	0.258	-2.15833333333	-3.51785714286	-22.7272727273	-36.1850877193
517	0.2585	-10.8083333333	2.29642857143	-24.1613636364	-33.3657894737
518	0.259	-6.48333333333	2.29642857143	-19.8590909091	-31.9561403509
519	0.2595	0.725	0.842857142857	-25.5954545455	-30.5464912281
520	0.26	-0.716666666667	-0.610714285714	-21.2931818182	-36.1850877193
521	0.2605	-5.04166666667	-0.610714285714	-24.1613636364	-22.0885964912
522	0.261	-6.48333333333	0.842857142857	-22.7272727273	-12.2210526316
523	0.2615	-0.716666666667	0.842857142857	-22.7272727273	-6.58245614035
524	0.262	-0.716666666667	-0.610714285714	-21.2931818182	-6.58245614035
525	0.2625	-0.716666666667	-0.610714285714	-18.425	-12.2210526316
526	0.263	0.725	-0.610714285714	-16.9909090909	-23.498245614
527	0.2635	-2.15833333333	0.842857142857	-18.425	-3.76315789474
528	0.264	-0.716666666667	2.29642857143	-19.8590909091	-10.8114035088
529	0.2645	-0.716666666667	-0.610714285714	-19.8590909091	-9.40175438596
530	0.265	-2.15833333333	-4.97142857143	-21.2931818182	-9.40175438596
531	0.2655	0.725	-9.33214285714	-21.2931818182	-7.99210526316
532	0.266	0.725	-6.425	-19.8590909091	-5.17280701754
533	0.2665	0.725	5.20357142857	-18.425	-2.35350877193
534	0.267	-3.6	18.2857142857	-19.8590909091	-0.943859649123
535	0.2675	-5.04166666667	-7.87857142857	-18.425	-0.943859649123
536	0.268	-0.716666666667	-4.97142857143	-18.425	4.69473684211
537	0.2685	2.16666666667	-2.06428571429	-15.5568181818	3.2850877193
538	0.269	16.5833333333	-2.06428571429	-12.6886363636	6.10438596491
539	0.2695	7.93333333333	-2.06428571429	-14.1227272727	14.5622807018
540	0.27	-5.04166666667	-3.51785714286	-12.6886363636	17.3815789474
541	0.2705	-10.8083333333	-2.06428571429	-12.6886363636	17.3815789474
542	0.271	-9.36666666667	-2.06428571429	-11.2545454545	13.1526315789
543	0.2715	-2.15833333333	-3.51785714286	-8.38636363636	14.5622807018
544	0.272	-0.716666666667	0.842857142857	-6.95227272727	11.7429824561
545	0.2725	-0.716666666667	0.842857142857	-9.82045454545	14.5622807018
546	0.273	-0.716666666667	-2.06428571429	-15.5568181818	18.7912280702
547	0.2735	0.725	-0.610714285714	-16.9909090909	35.7070175439
548	0.274	-0.716666666667	-2.06428571429	-15.5568181818	28.6587719298
549	0.2745	0.725	0.842857142857	-12.6886363636	31.4780701754
550	0.275	-0.716666666667	-0.610714285714	-6.95227272727	30.0684210526
551	0.2755	-0.716666666667	0.842857142857	-6.95227272727	31.4780701754
552	0.276	-2.15833333333	-4.97142857143	-5.51818181818	28.6587719298
553	0.2765	-2.15833333333	-7.87857142857	-6.95227272727	28.6587719298
554	0.277	-0.716666666667	-7.87857142857	-8.38636363636	31.4780701754
555	0.2775	-0.716666666667	-3.51785714286	-5.51818181818	34.2973684211
556	0.278	2.16666666667	-0.610714285714	-4.08409090909	34.2973684211
557	0.2785	2.16666666667	-0.610714285714	-6.95227272727	35.7070175439
558	0.279	-3.6	0.842857142857	-4.08409090909	37.1166666667
559	0.2795	10.8166666667	0.842857142857	-5.51818181818	38.5263157895
560	0.28	15.1416666667	-2.06428571429	-1.21590909091	38.5263157895
561	0.2805	15.1416666667	0.842857142857	-1.21590909091	38.5263157895
562	0.281	-0.716666666667	-2.06428571429	-2.65	52.6228070175
563	0.2815	-3.6	-2.06428571429	-1.21590909091	56.851754386
564	0.282	-0.716666666667	-0.610714285714	1.65227272727	45.5745614035
565	0.2825	-0.716666666667	-0.610714285714	3.08636363636	34.2973684211
566	0.283	-0.716666666667	0.842857142857	3.08636363636	35.7070175439
567	0.2835	-2.15833333333	-3.51785714286	0.218181818182	39.9359649123
568	0.284	0.725	-6.425	4.52045454545	44.1649122807
569	0.2845	0.725	-2.06428571429	-1.21590909091	45.5745614035
570	0.285	-3.6	-0.610714285714	7.38863636364	44.1649122807
571	0.2855	-3.6	-13.6928571429	5.95454545455	42.7552631579
572	0.286	-2.15833333333	-6.425	8.82272727273	45.5745614035
573	0.2865	-2.15833333333	9.56428571429	4.52045454545	44.1649122807
574	0.287	0.725	15.3785714286	4.52045454545	49.8035087719
575	0.2875	0.725	3.75	7.38863636364	45.5745614035
576	0.288	-7.925	-2.06428571429	5.95454545455	46.9842105263
577	0.2885	-3.6	-0.610714285714	7.38863636364	44.1649122807
578	0.289	15.1416666667	-3.51785714286	7.38863636364	45.5745614035
579	0.2895	20.9083333333	0.842857142857	5.95454545455	44.1649122807
580	0.29	0.725	0.842857142857	8.82272727273	48.3938596491
581	0.2905	-6.48333333333	2.29642857143	7.38863636364	49.8035087719
582	0.291	0.725	0.842857142857	5.95454545455	54.0324561404
583	0.2915	-0.716666666667	0.842857142857	11.6909090909	46.9842105263
584	0.292	0.725	2.29642857143	13.125	37.1166666667
585	0.2925	-0.716666666667	-0.610714285714	4.52045454545	39.9359649123
586	0.293	-0.716666666667	-0.610714285714	-2.65	46.9842105263
587	0.2935	-3.6	-4.97142857143	0.218181818182	45.5745614035
588	0.294	-3.6	-0.610714285714	0.218181818182	46.9842105263
589	0.2945	-0.716666666667	2.29642857143	3.08636363636	46.9842105263
590	0.295	-5.04166666667	6.65714285714	5.95454545455	45.5745614035
591	0.2955	-5.04166666667	-3.51785714286	4.52045454545	45.5745614035
592	0.296	-3.6	-10.7857142857	5.95454545455	48.3938596491
593	0.2965	-3.6	-6.425	5.95454545455	45.5745614035
594	0.297	-3.6	-7.87857142857	5.95454545455	44.1649122807
595	0.2975	0.725	-4.97142857143	8.82272727273	42.7552631579
596	0.298	0.725	-0.610714285714	4.52045454545	42.7552631579
597	0.2985	3.60833333333	-2.06428571429	5.95454545455	44.1649122807
598	0.299	-0.716666666667	0.842857142857	7.38863636364	42.7552631579
599	0.2995	5.05	0.842857142857	5.95454545455	44.1649122807
600	0.3	-2.15833333333	2.29642857143	4.52045454545	46.9842105263
601	0.3005	-7.925	-0.610714285714	8.82272727273	44.1649122807
602	0.301	-6.48333333333	0.842857142857	4.52045454545	44.1649122807
603	0.3015	-5.04166666667	-0.610714285714	11.6909090909	32.8877192982
604	0.302	-0.716666666667	0.842857142857	11.6909090909	37.1166666667
605	0.3025	-0.716666666667	-2.06428571429	4.52045454545	37.1166666667
606	0.303	-0.716666666667	-4.97142857143	-1.21590909091	38.5263157895
607	0.3035	0.725	-0.610714285714	-1.21590909091	44.1649122807
608	0.304	-3.6	-0.610714285714	1.65227272727	55.4421052632
609	0.3045	-0.716666666667	-2.06428571429	18.8613636364	39.9359649123
610	0.305	-2.15833333333	-0.610714285714	7.38863636364	39.9359649123
611	0.3055	-2.15833333333	0.842857142857	5.95454545455	38.5263157895
612	0.306	-5.04166666667	3.75	-1.21590909091	39.9359649123
613	0.3065	-5.04166666667	16.8321428571	7.38863636364	41.3456140351
614	0.307	-5.04166666667	5.20357142857	7.38863636364	41.3456140351
615	0.3075	-5.04166666667	-9.33214285714	5.95454545455	41.3456140351
616	0.308	-3.6	-9.33214285714	7.38863636364	41.3456140351
617	0.3085	-3.6	-3.51785714286	8.82272727273	41.3456140351
618	0.309	2.16666666667	-0.610714285714	8.82272727273	39.9359649123
619	0.3095	19.4666666667	0.842857142857	7.38863636364	39.9359649123
620	0.31	13.7	-0.610714285714	11.6909090909	41.3456140351
621	0.3105	0.725	0.842857142857	7.38863636364	44.1649122807
622	0.311	-6.48333333333	-0.610714285714	7.38863636364	44.1649122807
623	0.3115	-5.04166666667	-0.610714285714	8.82272727273	41.3456140351
624	0.312	-0.716666666667	2.29642857143	5.95454545455	37.1166666667
625	0.3125	3.60833333333	3.75	11.6909090909	38.5263157895
626	0.313	2.16666666667	0.842857142857	11.6909090909	32.8877192982
627	0.3135	0.725	0.842857142857	11.6909090909	32.8877192982
628	0.314	-0.716666666667	-0.610714285714	-1.21590909091	32.8877192982
629	0.3145	-3.6	-0.610714285714	-1.21590909091	37.1166666667
630	0.315	-3.6	0.842857142857	-1.21590909091	38.5263157895
631	0.3155	-0.716666666667	-0.610714285714	4.52045454545	38.5263157895
632	0.316	0.725	-2.06428571429	14.5590909091	39.9359649123
633	0.3165	-3.6	-4.97142857143	-1.21590909091	38.5263157895
634	0.317	-5.04166666667	-0.610714285714	8.82272727273	39.9359649123
635	0.3175	-2.15833333333	11.0178571429	8.82272727273	39.9359649123
636	0.318	-3.6	19.7392857143	5.95454545455	41.3456140351
637	0.3185	-2.15833333333	3.75	5.95454545455	39.9359649123
638	0.319	-5.04166666667	-6.425	11.6909090909	39.9359649123
639	0.3195	-6.48333333333	-10.7857142857	5.95454545455	38.5263157895
640	0.32	-6.48333333333	-2.06428571429	7.38863636364	34.2973684211
641	0.3205	-16.575	-0.610714285714	8.82272727273	38.5263157895
642	0.321	-7.925	2.29642857143	4.52045454545	39.9359649123
643	0.3215	9.375	-3.51785714286	4.52045454545	41.3456140351
644	0.322	18.025	-3.51785714286	7.38863636364	38.5263157895
645	0.3225	9.375	-3.51785714286	4.52045454545	32.8877192982
646	0.323	-2.15833333333	-0.610714285714	8.82272727273	31.4780701754
647	0.3235	5.05	-2.06428571429	5.95454545455	35.7070175439
648	0.324	10.8166666667	0.842857142857	3.08636363636	31.4780701754
649	0.3245	6.49166666667	-0.610714285714	-6.95227272727	46.9842105263
650	0.325	2.16666666667	-0.610714285714	4.52045454545	51.2131578947
651	0.3255	-0.716666666667	-0.610714285714	5.95454545455	41.3456140351
652	0.326	-3.6	-3.51785714286	1.65227272727	38.5263157895
653	0.3265	-0.716666666667	0.842857142857	1.65227272727	34.2973684211
654	0.327	-0.716666666667	0.842857142857	4.52045454545	32.8877192982
655	0.3275	0.725	0.842857142857	4.52045454545	34.2973684211
656	0.328	-3.6	5.20357142857	8.82272727273	35.7070175439
657	0.3285	-0.716666666667	13.925	8.82272727273	34.2973684211
658	0.329	-2.15833333333	-0.610714285714	10.2568181818	35.7070175439
659	0.3295	-3.6	-9.33214285714	7.38863636364	34.2973684211
660	0.33	-2.15833333333	-6.425	7.38863636364	32.8877192982
661	0.3305	-0.716666666667	-2.06428571429	8.82272727273	34.2973684211
662	0.331	2.16666666667	2.29642857143	8.82272727273	34.2973684211
663	0.3315	9.375	-0.610714285714	11.6909090909	32.8877192982
664	0.332	-3.6	2.29642857143	13.125	34.2973684211
665	0.3325	-10.8083333333	2.29642857143	10.2568181818	34.2973684211
666	0.333	-12.25	0.842857142857	7.38863636364	30.0684210526
667	0.3335	-7.925	-0.610714285714	7.38863636364	25.8394736842
668	0.334	-0.716666666667	-0.610714285714	8.82272727273	24.4298245614
669	0.3345	0.725	-2.06428571429	13.125	25.8394736842
670	0.335	2.16666666667	0.842857142857	8.82272727273	35.7070175439
671	0.3355	0.725	0.842857142857	11.6909090909	23.0201754386
672	0.336	-2.15833333333	-0.610714285714	8.82272727273	24.4298245614
673	0.3365	0.725	-2.06428571429	-1.21590909091	25.8394736842
674	0.337	-0.716666666667	2.29642857143	21.7295454545	31.4780701754
675	0.3375	-3.6	5.20357142857	17.4272727273	32.8877192982
676	0.338	0.725	-13.6928571429	4.52045454545	32.8877192982
677	0.3385	-2.15833333333	-10.7857142857	5.95454545455	30.0684210526
678	0.339	-0.716666666667	0.842857142857	5.95454545455	31.4780701754
679	0.3395	-0.716666666667	19.7392857143	4.52045454545	31.4780701754
680	0.34	0.725	19.7392857143	4.52045454545	34.2973684211
681	0.3405	-3.6	9.56428571429	5.95454545455	32.8877192982
682	0.341	-16.575	0.842857142857	4.52045454545	32.8877192982
683	0.3415	-10.8083333333	2.29642857143	4.52045454545	31.4780701754
684	0.342	-10.8083333333	-3.51785714286	4.52045454545	30.0684210526
685	0.3425	-9.36666666667	-2.06428571429	5.95454545455	34.2973684211
686	0.343	10.8166666667	0.842857142857	8.82272727273	27.249122807
687	0.3435	-3.6	-0.610714285714	8.82272727273	23.0201754386
688	0.344	-10.8083333333	0.842857142857	8.82272727273	27.249122807
689	0.3445	-9.36666666667	-2.06428571429	7.38863636364	41.3456140351
690	0.345	-0.716666666667	0.842857142857	7.38863636364	30.0684210526
691	0.3455	-2.15833333333	0.842857142857	7.38863636364	30.0684210526
692	0.346	-2.15833333333	0.842857142857	8.82272727273	28.6587719298
693	0.3465	-0.716666666667	-0.610714285714	7.38863636364	21.6105263158
694	0.347	-0.716666666667	-2.06428571429	11.6909090909	30.0684210526
695	0.3475	-0.716666666667	-2.06428571429	1.65227272727	31.4780701754
696	0.348	-0.716666666667	0.842857142857	0.218181818182	32.8877192982
697	0.3485	-2.15833333333	2.29642857143	1.65227272727	34.2973684211
698	0.349	-0.716666666667	0.842857142857	3.08636363636	32.8877192982
699	0.3495	-0.716666666667	-0.610714285714	7.38863636364	31.4780701754
700	0.35	-0.716666666667	-9.33214285714	5.95454545455	31.4780701754
701	0.3505	2.16666666667	13.925	4.52045454545	30.0684210526
702	0.351	0.725	8.11071428571	4.52045454545	31.4780701754
703	0.3515	-5.04166666667	-0.610714285714	4.52045454545	32.8877192982
704	0.352	-0.716666666667	0.842857142857	4.52045454545	34.2973684211
705	0.3525	-6.48333333333	-2.06428571429	4.52045454545	28.6587719298
706	0.353	-18.0166666667	-0.610714285714	5.95454545455	32.8877192982
707	0.3535	10.8166666667	-3.51785714286	7.38863636364	31.4780701754
708	0.354	-6.48333333333	-2.06428571429	7.38863636364	31.4780701754
709	0.3545	-13.6916666667	-2.06428571429	5.95454545455	34.2973684211
710	0.355	-3.6	-4.97142857143	5.95454545455	41.3456140351
711	0.3555	0.725	-0.610714285714	7.38863636364	31.4780701754
712	0.356	5.05	-0.610714285714	11.6909090909	28.6587719298
713	0.3565	5.05	3.75	4.52045454545	27.249122807
714	0.357	7.93333333333	0.842857142857	-2.65	30.0684210526
715	0.3575	3.60833333333	0.842857142857	-5.51818181818	32.8877192982
716	0.358	0.725	0.842857142857	-1.21590909091	32.8877192982
717	0.3585	3.60833333333	-0.610714285714	11.6909090909	28.6587719298
718	0.359	2.16666666667	0.842857142857	-1.21590909091	28.6587719298
719	0.3595	9.375	-0.610714285714	-2.65	31.4780701754
720	0.36	2.16666666667	-4.97142857143	1.65227272727	34.2973684211
721	0.3605	0.725	-10.7857142857	5.95454545455	32.8877192982
722	0.361	-3.6	-10.7857142857	5.95454545455	28.6587719298
723	0.3615	0.725	-3.51785714286	5.95454545455	28.6587719298
724	0.362	3.60833333333	-0.610714285714	5.95454545455	25.8394736842
725	0.3625	5.05	2.29642857143	4.52045454545	31.4780701754
726	0.363	0.725	0.842857142857	4.52045454545	31.4780701754
727	0.3635	12.2583333333	0.842857142857	3.08636363636	30.0684210526
728	0.364	18.025	0.842857142857	4.52045454545	27.249122807
729	0.3645	12.2583333333	0.842857142857	7.38863636364	30.0684210526
730	0.365	-7.925	2.29642857143	7.38863636364	30.0684210526
731	0.3655	-5.04166666667	0.842857142857	4.52045454545	41.3456140351
732	0.366	-2.15833333333	-0.610714285714	8.82272727273	28.6587719298
733	0.3665	-2.15833333333	-0.610714285714	7.38863636364	24.4298245614
734	0.367	-2.15833333333	-3.51785714286	0.218181818182	28.6587719298
735	0.3675	-3.6	-0.610714285714	15.9931818182	28.6587719298
736	0.368	-0.716666666667	0.842857142857	23.1636363636	27.249122807
737	0.3685	-3.6	-2.06428571429	18.8613636364	24.4298245614
738	0.369	-3.6	-3.51785714286	4.52045454545	25.8394736842
739	0.3695	-0.716666666667	-9.33214285714	7.38863636364	25.8394736842
740	0.37	-3.6	5.20357142857	4.52045454545	27.249122807
741	0.3705	-0.716666666667	13.925	5.95454545455	28.6587719298
742	0.371	0.725	-3.51785714286	5.95454545455	27.249122807
743	0.3715	0.725	18.2857142857	8.82272727273	25.8394736842
744	0.372	-6.48333333333	-2.06428571429	5.95454545455	23.0201754386
745	0.3725	-16.575	-3.51785714286	4.52045454545	27.249122807
746	0.373	-5.04166666667	-0.610714285714	4.52045454545	25.8394736842
747	0.3735	12.2583333333	0.842857142857	4.52045454545	23.0201754386
748	0.374	18.025	0.842857142857	4.52045454545	27.249122807
749	0.3745	7.93333333333	3.75	5.95454545455	31.4780701754
750	0.375	-0.716666666667	-2.06428571429	4.52045454545	46.9842105263
751	0.3755	-5.04166666667	-2.06428571429	4.52045454545	45.5745614035
752	0.376	-6.48333333333	0.842857142857	7.38863636364	38.5263157895
753	0.3765	-3.6	0.842857142857	8.82272727273	25.8394736842
754	0.377	-2.15833333333	0.842857142857	10.2568181818	15.9719298246
755	0.3775	3.60833333333	2.29642857143	5.95454545455	18.7912280702
756	0.378	2.16666666667	0.842857142857	-1.21590909091	24.4298245614
757	0.3785	0.725	2.29642857143	-1.21590909091	25.8394736842
758	0.379	0.725	0.842857142857	4.52045454545	25.8394736842
759	0.3795	0.725	-0.610714285714	4.52045454545	24.4298245614
760	0.38	3.60833333333	-2.06428571429	7.38863636364	24.4298245614
761	0.3805	3.60833333333	6.65714285714	5.95454545455	24.4298245614
762	0.381	-0.716666666667	15.3785714286	5.95454545455	21.6105263158
763	0.3815	-2.15833333333	16.8321428571	4.52045454545	25.8394736842
764	0.382	-5.04166666667	0.842857142857	5.95454545455	23.0201754386
765	0.3825	-2.15833333333	-9.33214285714	3.08636363636	23.0201754386
766	0.383	-5.04166666667	-2.06428571429	4.52045454545	23.0201754386
767	0.3835	10.8166666667	-2.06428571429	3.08636363636	21.6105263158
768	0.384	18.025	0.842857142857	4.52045454545	24.4298245614
769	0.3845	13.7	-0.610714285714	4.52045454545	25.8394736842
770	0.385	-5.04166666667	-2.06428571429	5.95454545455	28.6587719298
771	0.3855	-10.8083333333	-0.610714285714	4.52045454545	21.6105263158
772	0.386	-5.04166666667	-2.06428571429	5.95454545455	13.1526315789
773	0.3865	-2.15833333333	-2.06428571429	8.82272727273	18.7912280702
774	0.387	-2.15833333333	-2.06428571429	7.38863636364	27.249122807
775	0.3875	0.725	2.29642857143	8.82272727273	13.1526315789
776	0.388	-2.15833333333	0.842857142857	18.8613636364	24.4298245614
777	0.3885	-3.6	-3.51785714286	4.52045454545	23.0201754386
778	0.389	-2.15833333333	-3.51785714286	0.218181818182	24.4298245614
779	0.3895	-2.15833333333	-0.610714285714	1.65227272727	21.6105263158
780	0.39	-5.04166666667	5.20357142857	8.82272727273	27.249122807
781	0.3905	-5.04166666667	0.842857142857	7.38863636364	24.4298245614
782	0.391	-3.6	-0.610714285714	4.52045454545	24.4298245614
783	0.3915	-0.716666666667	18.2857142857	4.52045454545	23.0201754386
784	0.392	-0.716666666667	18.2857142857	5.95454545455	24.4298245614
785	0.3925	3.60833333333	9.56428571429	4.52045454545	23.0201754386
786	0.393	-6.48333333333	0.842857142857	5.95454545455	24.4298245614
787	0.3935	-10.8083333333	3.75	4.52045454545	23.0201754386
788	0.394	-12.25	0.842857142857	5.95454545455	23.0201754386
789	0.3945	-3.6	-2.06428571429	7.38863636364	21.6105263158
790	0.395	7.93333333333	2.29642857143	5.95454545455	21.6105263158
791	0.3955	10.8166666667	0.842857142857	4.52045454545	23.0201754386
792	0.396	-0.716666666667	-2.06428571429	4.52045454545	14.5622807018
793	0.3965	-2.15833333333	-0.610714285714	3.08636363636	20.200877193
794	0.397	-3.6	-2.06428571429	5.95454545455	30.0684210526
795	0.3975	-0.716666666667	-0.610714285714	1.65227272727	39.9359649123
796	0.398	0.725	0.842857142857	1.65227272727	34.2973684211
797	0.3985	0.725	-3.51785714286	7.38863636364	21.6105263158
798	0.399	0.725	0.842857142857	11.6909090909	13.1526315789
799	0.3995	-2.15833333333	-0.610714285714	13.125	23.0201754386
800	0.4	-2.15833333333	-0.610714285714	-1.21590909091	23.0201754386
801	0.4005	-0.716666666667	-4.97142857143	-5.51818181818	21.6105263158
802	0.401	0.725	-4.97142857143	8.82272727273	20.200877193
803	0.4015	0.725	0.842857142857	-2.65	21.6105263158
804	0.402	-0.716666666667	-4.97142857143	5.95454545455	20.200877193
805	0.4025	-0.716666666667	-13.6928571429	8.82272727273	21.6105263158
806	0.403	-0.716666666667	-12.2392857143	4.52045454545	17.3815789474
807	0.4035	-0.716666666667	-7.87857142857	7.38863636364	21.6105263158
808	0.404	-0.716666666667	-4.97142857143	4.52045454545	18.7912280702
809	0.4045	3.60833333333	-3.51785714286	4.52045454545	23.0201754386
810	0.405	-0.716666666667	-3.51785714286	4.52045454545	20.200877193
811	0.4055	-12.25	-3.51785714286	7.38863636364	20.200877193
812	0.406	15.1416666667	-2.06428571429	8.82272727273	27.249122807
813	0.4065	15.1416666667	-0.610714285714	7.38863636364	15.9719298246
814	0.407	-0.716666666667	-3.51785714286	5.95454545455	20.200877193
815	0.4075	-7.925	-0.610714285714	3.08636363636	21.6105263158
816	0.408	-13.6916666667	-2.06428571429	4.52045454545	14.5622807018
817	0.4085	-5.04166666667	-3.51785714286	7.38863636364	23.0201754386
818	0.409	-6.48333333333	-2.06428571429	5.95454545455	13.1526315789
819	0.4095	-6.48333333333	-0.610714285714	3.08636363636	13.1526315789
820	0.41	-6.48333333333	0.842857142857	-4.08409090909	15.9719298246
821	0.4105	-0.716666666667	0.842857142857	-9.82045454545	20.200877193
822	0.411	5.05	-4.97142857143	-2.65	17.3815789474
823	0.4115	7.93333333333	-0.610714285714	-2.65	20.200877193
824	0.412	3.60833333333	2.29642857143	4.52045454545	18.7912280702
825	0.4125	2.16666666667	0.842857142857	4.52045454545	18.7912280702
826	0.413	2.16666666667	-12.2392857143	4.52045454545	17.3815789474
827	0.4135	3.60833333333	-13.6928571429	4.52045454545	20.200877193
828	0.414	3.60833333333	-9.33214285714	4.52045454545	17.3815789474
829	0.4145	2.16666666667	-7.87857142857	4.52045454545	20.200877193
830	0.415	0.725	-4.97142857143	7.38863636364	21.6105263158
831	0.4155	2.16666666667	0.842857142857	7.38863636364	20.200877193
832	0.416	3.60833333333	0.842857142857	5.95454545455	20.200877193
833	0.4165	5.05	2.29642857143	5.95454545455	20.200877193
834	0.417	5.05	-2.06428571429	5.95454545455	20.200877193
835	0.4175	9.375	-4.97142857143	5.95454545455	10.3333333333
836	0.418	-3.6	-0.610714285714	11.6909090909	6.10438596491
837	0.4185	-12.25	-2.06428571429	5.95454545455	11.7429824561
838	0.419	-9.36666666667	-4.97142857143	3.08636363636	21.6105263158
839	0.4195	-3.6	-4.97142857143	3.08636363636	24.4298245614
840	0.42	-3.6	-3.51785714286	7.38863636364	8.92368421053
841	0.4205	-0.716666666667	-4.97142857143	0.218181818182	15.9719298246
842	0.421	-3.6	-0.610714285714	-4.08409090909	13.1526315789
843	0.4215	2.16666666667	-0.610714285714	0.218181818182	18.7912280702
844	0.422	-3.6	-4.97142857143	14.5590909091	15.9719298246
845	0.4225	-0.716666666667	-0.610714285714	20.2954545455	15.9719298246
846	0.423	0.725	-2.06428571429	4.52045454545	15.9719298246
847	0.4235	-0.716666666667	-13.6928571429	3.08636363636	17.3815789474
848	0.424	-3.6	-2.06428571429	-4.08409090909	17.3815789474
849	0.4245	-0.716666666667	-9.33214285714	3.08636363636	17.3815789474
850	0.425	-2.15833333333	-9.33214285714	1.65227272727	17.3815789474
851	0.4255	-0.716666666667	-10.7857142857	4.52045454545	17.3815789474
852	0.426	2.16666666667	-6.425	4.52045454545	17.3815789474
853	0.4265	3.60833333333	-0.610714285714	3.08636363636	17.3815789474
854	0.427	-0.716666666667	-0.610714285714	4.52045454545	20.200877193
855	0.4275	-9.36666666667	-0.610714285714	1.65227272727	20.200877193
856	0.428	-9.36666666667	-0.610714285714	3.08636363636	18.7912280702
857	0.4285	-10.8083333333	-0.610714285714	4.52045454545	14.5622807018
858	0.429	-5.04166666667	-0.610714285714	4.52045454545	6.10438596491
859	0.4295	0.725	-3.51785714286	7.38863636364	6.10438596491
860	0.43	0.725	-2.06428571429	7.38863636364	10.3333333333
861	0.4305	2.16666666667	-3.51785714286	5.95454545455	21.6105263158
862	0.431	3.60833333333	-0.610714285714	-6.95227272727	17.3815789474
863	0.4315	2.16666666667	-2.06428571429	0.218181818182	18.7912280702
864	0.432	0.725	-0.610714285714	11.6909090909	14.5622807018
865	0.4325	0.725	-0.610714285714	5.95454545455	4.69473684211
866	0.433	5.05	0.842857142857	0.218181818182	15.9719298246
867	0.4335	0.725	0.842857142857	4.52045454545	17.3815789474
868	0.434	-2.15833333333	-2.06428571429	8.82272727273	15.9719298246
869	0.4345	-3.6	-6.425	7.38863636364	17.3815789474
870	0.435	-2.15833333333	-13.6928571429	7.38863636364	15.9719298246
871	0.4355	-2.15833333333	-2.06428571429	-1.21590909091	15.9719298246
872	0.436	-3.6	-2.06428571429	4.52045454545	17.3815789474
873	0.4365	-5.04166666667	-13.6928571429	-1.21590909091	17.3815789474
874	0.437	-2.15833333333	-7.87857142857	3.08636363636	17.3815789474
875	0.4375	0.725	-6.425	0.218181818182	17.3815789474
876	0.438	2.16666666667	-2.06428571429	4.52045454545	18.7912280702
877	0.4385	2.16666666667	-0.610714285714	3.08636363636	17.3815789474
878	0.439	-6.48333333333	-2.06428571429	1.65227272727	18.7912280702
879	0.4395	-7.925	-2.06428571429	-1.21590909091	13.1526315789
880	0.44	-5.04166666667	-2.06428571429	0.218181818182	4.69473684211
881	0.4405	-3.6	-0.610714285714	0.218181818182	6.10438596491
882	0.441	-5.04166666667	0.842857142857	-1.21590909091	14.5622807018
883	0.4415	-2.15833333333	0.842857142857	-8.38636363636	14.5622807018
884	0.442	-0.716666666667	-2.06428571429	0.218181818182	31.4780701754
885	0.4425	2.16666666667	-0.610714285714	-2.65	8.92368421053
886	0.443	0.725	0.842857142857	-8.38636363636	14.5622807018
887	0.4435	0.725	0.842857142857	-4.08409090909	17.3815789474
888	0.444	-0.716666666667	-0.610714285714	-1.21590909091	14.5622807018
889	0.4445	-0.716666666667	5.20357142857	1.65227272727	15.9719298246
890	0.445	0.725	2.29642857143	3.08636363636	14.5622807018
891	0.4455	-0.716666666667	-9.33214285714	4.52045454545	15.9719298246
892	0.446	0.725	-12.2392857143	5.95454545455	15.9719298246
893	0.4465	-2.15833333333	-2.06428571429	4.52045454545	14.5622807018
894	0.447	-0.716666666667	-0.610714285714	7.38863636364	13.1526315789
895	0.4475	-3.6	-9.33214285714	4.52045454545	10.3333333333
896	0.448	-0.716666666667	-7.87857142857	3.08636363636	13.1526315789
897	0.4485	2.16666666667	-2.06428571429	4.52045454545	10.3333333333
898	0.449	3.60833333333	0.842857142857	4.52045454545	14.5622807018
899	0.4495	0.725	-2.06428571429	5.95454545455	10.3333333333
900	0.45	13.7	-3.51785714286	3.08636363636	10.3333333333
901	0.4505	-10.8083333333	-3.51785714286	8.82272727273	13.1526315789
902	0.451	-5.04166666667	0.842857142857	4.52045454545	1.87543859649
903	0.4515	-5.04166666667	0.842857142857	4.52045454545	-0.943859649123
904	0.452	-3.6	-2.06428571429	4.52045454545	4.69473684211
905	0.4525	0.725	-4.97142857143	4.52045454545	13.1526315789
906	0.453	0.725	-3.51785714286	3.08636363636	25.8394736842
907	0.4535	-0.716666666667	-0.610714285714	1.65227272727	8.92368421053
908	0.454	2.16666666667	0.842857142857	14.5590909091	8.92368421053
909	0.4545	2.16666666667	-2.06428571429	4.52045454545	1.87543859649
910	0.455	2.16666666667	-0.610714285714	0.218181818182	21.6105263158
911	0.4555	-0.716666666667	3.75	0.218181818182	11.7429824561
912	0.456	0.725	-2.06428571429	21.7295454545	8.92368421053
913	0.4565	0.725	0.842857142857	4.52045454545	8.92368421053
914	0.457	-0.716666666667	0.842857142857	3.08636363636	7.51403508772
915	0.4575	-0.716666666667	3.75	3.08636363636	8.92368421053
916	0.458	-3.6	2.29642857143	7.38863636364	8.92368421053
917	0.4585	-2.15833333333	15.3785714286	5.95454545455	6.10438596491
918	0.459	-5.04166666667	11.0178571429	4.52045454545	6.10438596491
919	0.4595	-0.716666666667	-2.06428571429	4.52045454545	3.2850877193
920	0.46	-0.716666666667	0.842857142857	4.52045454545	3.2850877193
921	0.4605	-2.15833333333	0.842857142857	4.52045454545	6.10438596491
922	0.461	20.9083333333	-3.51785714286	5.95454545455	4.69473684211
923	0.4615	15.1416666667	-2.06428571429	8.82272727273	4.69473684211
924	0.462	0.725	-0.610714285714	5.95454545455	6.10438596491
925	0.4625	-5.04166666667	-0.610714285714	7.38863636364	6.10438596491
926	0.463	-3.6	0.842857142857	4.52045454545	-0.943859649123
927	0.4635	6.49166666667	-0.610714285714	10.2568181818	0.465789473684
928	0.464	5.05	0.842857142857	7.38863636364	-0.943859649123
929	0.4645	3.60833333333	-3.51785714286	1.65227272727	0.465789473684
930	0.465	2.16666666667	-4.97142857143	3.08636363636	17.3815789474
931	0.4655	0.725	0.842857142857	4.52045454545	23.0201754386
932	0.466	0.725	2.29642857143	18.8613636364	4.69473684211
933	0.4665	-0.716666666667	-0.610714285714	11.6909090909	7.51403508772
934	0.467	0.725	-0.610714285714	1.65227272727	6.10438596491
935	0.4675	0.725	-2.06428571429	-2.65	6.10438596491
936	0.468	0.725	2.29642857143	-1.21590909091	1.87543859649
937	0.4685	-5.04166666667	-10.7857142857	7.38863636364	4.69473684211
938	0.469	-3.6	-16.6	7.38863636364	3.2850877193
939	0.4695	-3.6	-10.7857142857	4.52045454545	3.2850877193
940	0.47	-0.716666666667	5.20357142857	3.08636363636	3.2850877193
941	0.4705	3.60833333333	9.56428571429	4.52045454545	0.465789473684
942	0.471	2.16666666667	-4.97142857143	4.52045454545	1.87543859649
943	0.4715	-3.6	9.56428571429	4.52045454545	0.465789473684
944	0.472	0.725	-4.97142857143	5.95454545455	0.465789473684
945	0.4725	7.93333333333	-2.06428571429	4.52045454545	-0.943859649123
946	0.473	3.60833333333	-0.610714285714	7.38863636364	-0.943859649123
947	0.4735	5.05	2.29642857143	5.95454545455	0.465789473684
948	0.474	-3.6	0.842857142857	4.52045454545	0.465789473684
949	0.4745	-5.04166666667	-2.06428571429	5.95454545455	0.465789473684
950	0.475	-5.04166666667	2.29642857143	7.38863636364	-7.99210526316
951	0.4755	-2.15833333333	-2.06428571429	7.38863636364	-10.8114035088
952	0.476	0.725	-0.610714285714	5.95454545455	-10.8114035088
953	0.4765	0.725	0.842857142857	0.218181818182	-7.99210526316
954	0.477	-5.04166666667	5.20357142857	4.52045454545	6.10438596491
955	0.4775	-3.6	0.842857142857	8.82272727273	-6.58245614035
956	0.478	-2.15833333333	0.842857142857	3.08636363636	-9.40175438596
957	0.4785	-5.04166666667	2.29642857143	1.65227272727	-7.99210526316
958	0.479	-0.716666666667	3.75	4.52045454545	-0.943859649123
959	0.4795	-5.04166666667	0.842857142857	-8.38636363636	-6.58245614035
960	0.48	-3.6	2.29642857143	18.8613636364	-12.2210526316
961	0.4805	-3.6	-0.610714285714	11.6909090909	-3.76315789474
962	0.481	-5.04166666667	-10.7857142857	4.52045454545	-3.76315789474
963	0.4815	-3.6	-6.425	4.52045454545	-3.76315789474
964	0.482	-3.6	-6.425	-1.21590909091	-5.17280701754
965	0.4825	-2.15833333333	-9.33214285714	5.95454545455	-2.35350877193
966	0.483	-0.716666666667	-2.06428571429	5.95454545455	-6.58245614035
967	0.4835	0.725	6.65714285714	8.82272727273	-5.17280701754
968	0.484	5.05	-10.7857142857	5.95454545455	-5.17280701754
969	0.4845	13.7	-6.425	3.08636363636	-2.35350877193
970	0.485	12.2583333333	-3.51785714286	3.08636363636	-7.99210526316
971	0.4855	9.375	-2.06428571429	0.218181818182	-6.58245614035
972	0.486	13.7	-3.51785714286	3.08636363636	-5.17280701754
973	0.4865	3.60833333333	-2.06428571429	5.95454545455	-6.58245614035
974	0.487	18.025	-2.06428571429	4.52045454545	-6.58245614035
975	0.4875	16.5833333333	-0.610714285714	4.52045454545	-5.17280701754
976	0.488	-5.04166666667	-0.610714285714	3.08636363636	-7.99210526316
977	0.4885	-0.716666666667	-3.51785714286	4.52045454545	-10.8114035088
978	0.489	-12.25	-0.610714285714	4.52045454545	-7.99210526316
979	0.4895	-0.716666666667	-0.610714285714	4.52045454545	-6.58245614035
980	0.49	-2.15833333333	-2.06428571429	7.38863636364	-16.45
981	0.4905	0.725	0.842857142857	5.95454545455	-17.8596491228
982	0.491	-3.6	-0.610714285714	-4.08409090909	-12.2210526316
983	0.4915	-3.6	2.29642857143	-4.08409090909	-9.40175438596
984	0.492	-0.716666666667	0.842857142857	4.52045454545	-9.40175438596
985	0.4925	-3.6	5.20357142857	3.08636363636	-7.99210526316
986	0.493	-3.6	5.20357142857	4.52045454545	-12.2210526316
987	0.4935	-3.6	0.842857142857	5.95454545455	-10.8114035088
988	0.494	0.725	2.29642857143	14.5590909091	-12.2210526316
989	0.4945	0.725	11.0178571429	7.38863636364	-10.8114035088
990	0.495	5.05	18.2857142857	5.95454545455	-7.99210526316
991	0.4955	0.725	15.3785714286	4.52045454545	-12.2210526316
992	0.496	-0.716666666667	6.65714285714	5.95454545455	-10.8114035088
993	0.4965	-2.15833333333	0.842857142857	4.52045454545	-9.40175438596
994	0.497	-3.6	-7.87857142857	4.52045454545	-10.8114035088
995	0.4975	-0.716666666667	0.842857142857	7.38863636364	-10.8114035088
996	0.498	-9.36666666667	-0.610714285714	4.52045454545	-10.8114035088
997	0.4985	-15.1333333333	0.842857142857	4.52045454545	-10.8114035088
998	0.499	-12.25	0.842857142857	4.52045454545	-10.8114035088
999	0.4995	-6.48333333333	-0.610714285714	5.95454545455	-9.40175438596
1000	0.5	-3.6	-0.610714285714	4.52045454545	-17.8596491228
1001	0.5005	-3.6	-0.610714285714	7.38863636364	-20.6789473684
1002	0.501	-2.15833333333	0.842857142857	7.38863636364	-19.2692982456
1003	0.5015	2.16666666667	0.842857142857	5.95454545455	-13.6307017544
1004	0.502	0.725	0.842857142857	4.52045454545	-0.943859649123
1005	0.5025	0.725	-0.610714285714	0.218181818182	0.465789473684
1006	0.503	-0.716666666667	0.842857142857	-4.08409090909	-12.2210526316
1007	0.5035	2.16666666667	-0.610714285714	1.65227272727	-13.6307017544
1008	0.504	-0.716666666667	-0.610714285714	3.08636363636	-7.99210526316
1009	0.5045	-0.716666666667	-4.97142857143	18.8613636364	-15.0403508772
1010	0.505	-2.15833333333	-2.06428571429	18.8613636364	-10.8114035088
1011	0.5055	-0.716666666667	0.842857142857	0.218181818182	-15.0403508772
1012	0.506	0.725	5.20357142857	3.08636363636	-13.6307017544
1013	0.5065	-0.716666666667	6.65714285714	3.08636363636	-16.45
1014	0.507	0.725	0.842857142857	1.65227272727	-10.8114035088
1015	0.5075	-0.716666666667	-6.425	3.08636363636	-13.6307017544
1016	0.508	0.725	-12.2392857143	4.52045454545	-12.2210526316
1017	0.5085	-0.716666666667	-7.87857142857	4.52045454545	-13.6307017544
1018	0.509	0.725	-2.06428571429	3.08636363636	-12.2210526316
1019	0.5095	3.60833333333	0.842857142857	5.95454545455	-13.6307017544
1020	0.51	-0.716666666667	3.75	1.65227272727	-10.8114035088
1021	0.5105	-7.925	0.842857142857	4.52045454545	-13.6307017544
1022	0.511	-13.6916666667	0.842857142857	3.08636363636	-12.2210526316
1023	0.5115	18.025	0.842857142857	1.65227272727	-15.0403508772
1024	0.512	9.375	2.29642857143	4.52045454545	-19.2692982456
1025	0.5125	-3.6	-0.610714285714	3.08636363636	-13.6307017544
1026	0.513	-9.36666666667	-0.610714285714	3.08636363636	-10.8114035088
1027	0.5135	-2.15833333333	-2.06428571429	0.218181818182	-0.943859649123
1028	0.514	-3.6	0.842857142857	4.52045454545	-10.8114035088
1029	0.5145	-2.15833333333	0.842857142857	4.52045454545	-19.2692982456
1030	0.515	-2.15833333333	-0.610714285714	4.52045454545	-23.498245614
1031	0.5155	-0.716666666667	0.842857142857	-6.95227272727	-16.45
1032	0.516	-0.716666666667	-0.610714285714	-6.95227272727	-13.6307017544
1033	0.5165	-5.04166666667	-2.06428571429	-5.51818181818	-12.2210526316
1034	0.517	-0.716666666667	-2.06428571429	-4.08409090909	-9.40175438596
1035	0.5175	-0.716666666667	-2.06428571429	7.38863636364	-10.8114035088
1036	0.518	-0.716666666667	-2.06428571429	0.218181818182	-10.8114035088
1037	0.5185	0.725	-4.97142857143	4.52045454545	-12.2210526316
1038	0.519	0.725	0.842857142857	1.65227272727	-10.8114035088
1039	0.5195	0.725	6.65714285714	0.218181818182	-9.40175438596
1040	0.52	0.725	16.8321428571	0.218181818182	-12.2210526316
1041	0.5205	3.60833333333	15.3785714286	5.95454545455	-9.40175438596
1042	0.521	2.16666666667	5.20357142857	4.52045454545	-10.8114035088
1043	0.5215	-6.48333333333	-0.610714285714	4.52045454545	-9.40175438596
1044	0.522	-10.8083333333	-2.06428571429	3.08636363636	-7.99210526316
1045	0.5225	-9.36666666667	-0.610714285714	-1.21590909091	-7.99210526316
1046	0.523	-3.6	0.842857142857	-1.21590909091	-10.8114035088
1047	0.5235	13.7	-0.610714285714	-1.21590909091	-12.2210526316
1048	0.524	18.025	0.842857142857	-1.21590909091	-7.99210526316
1049	0.5245	0.725	0.842857142857	-1.21590909091	4.69473684211
1050	0.525	-3.6	0.842857142857	1.65227272727	-6.58245614035
1051	0.5255	-0.716666666667	2.29642857143	4.52045454545	-15.0403508772
1052	0.526	0.725	0.842857142857	-1.21590909091	-6.58245614035
1053	0.5265	-3.6	2.29642857143	3.08636363636	-6.58245614035
1054	0.527	-5.04166666667	0.842857142857	17.4272727273	-7.99210526316
1055	0.5275	-5.04166666667	-2.06428571429	17.4272727273	-5.17280701754
1056	0.528	-6.48333333333	-3.51785714286	4.52045454545	-5.17280701754
1057	0.5285	-3.6	2.29642857143	-5.51818181818	-2.35350877193
1058	0.529	-2.15833333333	-2.06428571429	-8.38636363636	-3.76315789474
1059	0.5295	-2.15833333333	-2.06428571429	-4.08409090909	-6.58245614035
1060	0.53	-0.716666666667	-6.425	1.65227272727	-7.99210526316
1061	0.5305	0.725	-7.87857142857	1.65227272727	-6.58245614035
1062	0.531	0.725	-6.425	3.08636363636	-5.17280701754
1063	0.5315	3.60833333333	-7.87857142857	4.52045454545	-3.76315789474
1064	0.532	3.60833333333	-4.97142857143	4.52045454545	-2.35350877193
1065	0.5325	7.93333333333	-2.06428571429	3.08636363636	-5.17280701754
1066	0.533	12.2583333333	-0.610714285714	1.65227272727	-0.943859649123
1067	0.5335	26.675	-2.06428571429	0.218181818182	-6.58245614035
1068	0.534	10.8166666667	-2.06428571429	1.65227272727	-0.943859649123
1069	0.5345	-6.48333333333	-2.06428571429	0.218181818182	-0.943859649123
1070	0.535	-9.36666666667	-0.610714285714	3.08636363636	-6.58245614035
1071	0.5355	-2.15833333333	-0.610714285714	1.65227272727	-15.0403508772
1072	0.536	-3.6	-3.51785714286	1.65227272727	7.51403508772
1073	0.5365	-0.716666666667	-4.97142857143	1.65227272727	-2.35350877193
1074	0.537	-0.716666666667	-2.06428571429	4.52045454545	-5.17280701754
1075	0.5375	-2.15833333333	0.842857142857	3.08636363636	-12.2210526316
1076	0.538	-2.15833333333	-0.610714285714	7.38863636364	-0.943859649123
1077	0.5385	0.725	-2.06428571429	-5.51818181818	-3.76315789474
1078	0.539	-2.15833333333	-2.06428571429	-4.08409090909	-2.35350877193
1079	0.5395	-0.716666666667	2.29642857143	-5.51818181818	-3.76315789474
1080	0.54	-0.716666666667	2.29642857143	-4.08409090909	-0.943859649123
1081	0.5405	-0.716666666667	2.29642857143	18.8613636364	-3.76315789474
1082	0.541	0.725	-7.87857142857	3.08636363636	-2.35350877193
1083	0.5415	2.16666666667	0.842857142857	-1.21590909091	-2.35350877193
1084	0.542	2.16666666667	16.8321428571	-1.21590909091	-2.35350877193
1085	0.5425	2.16666666667	18.2857142857	-1.21590909091	-3.76315789474
1086	0.543	-2.15833333333	5.20357142857	1.65227272727	-0.943859649123
1087	0.5435	5.05	-3.51785714286	1.65227272727	-0.943859649123
1088	0.544	2.16666666667	0.842857142857	1.65227272727	-3.76315789474
1089	0.5445	-5.04166666667	-2.06428571429	3.08636363636	-2.35350877193
1090	0.545	-0.716666666667	-0.610714285714	1.65227272727	1.87543859649
1091	0.5455	-6.48333333333	-0.610714285714	1.65227272727	4.69473684211
1092	0.546	-9.36666666667	2.29642857143	-1.21590909091	1.87543859649
1093	0.5465	-6.48333333333	0.842857142857	1.65227272727	-5.17280701754
1094	0.547	-3.6	2.29642857143	3.08636363636	-9.40175438596
1095	0.5475	0.725	2.29642857143	3.08636363636	-9.40175438596
1096	0.548	0.725	2.29642857143	3.08636363636	-10.8114035088
1097	0.5485	-2.15833333333	2.29642857143	-5.51818181818	-5.17280701754
1098	0.549	-0.716666666667	3.75	-5.51818181818	-2.35350877193
1099	0.5495	-0.716666666667	3.75	-11.2545454545	0.465789473684
1100	0.55	0.725	2.29642857143	-8.38636363636	0.465789473684
1101	0.5505	-2.15833333333	-3.51785714286	-5.51818181818	3.2850877193
1102	0.551	-0.716666666667	-3.51785714286	7.38863636364	-3.76315789474
1103	0.5515	-2.15833333333	3.75	-2.65	-0.943859649123
1104	0.552	2.16666666667	2.29642857143	0.218181818182	1.87543859649
1105	0.5525	2.16666666667	-0.610714285714	3.08636363636	1.87543859649
1106	0.553	0.725	-3.51785714286	-1.21590909091	4.69473684211
1107	0.5535	0.725	-10.7857142857	-1.21590909091	1.87543859649
1108	0.554	-3.6	-9.33214285714	0.218181818182	1.87543859649
1109	0.5545	-2.15833333333	-9.33214285714	0.218181818182	-0.943859649123
1110	0.555	-2.15833333333	-6.425	1.65227272727	1.87543859649
1111	0.5555	0.725	-2.06428571429	0.218181818182	1.87543859649
1112	0.556	0.725	-0.610714285714	0.218181818182	1.87543859649
1113	0.5565	-5.04166666667	-2.06428571429	-1.21590909091	0.465789473684
1114	0.557	10.8166666667	0.842857142857	-1.21590909091	4.69473684211
1115	0.5575	15.1416666667	-2.06428571429	0.218181818182	3.2850877193
1116	0.558	16.5833333333	0.842857142857	-1.21590909091	4.69473684211
1117	0.5585	18.025	-0.610714285714	0.218181818182	1.87543859649
1118	0.559	9.375	-2.06428571429	0.218181818182	1.87543859649
1119	0.5595	-2.15833333333	0.842857142857	0.218181818182	4.69473684211
1120	0.56	0.725	0.842857142857	1.65227272727	-6.58245614035
1121	0.5605	-0.716666666667	0.842857142857	-1.21590909091	-2.35350877193
1122	0.561	-0.716666666667	-2.06428571429	-6.95227272727	-3.76315789474
1123	0.5615	0.725	0.842857142857	-12.6886363636	0.465789473684
1124	0.562	-0.716666666667	0.842857142857	-11.2545454545	1.87543859649
1125	0.5625	-0.716666666667	2.29642857143	-1.21590909091	0.465789473684
1126	0.563	-3.6	0.842857142857	8.82272727273	0.465789473684
1127	0.5635	-0.716666666667	2.29642857143	15.9931818182	1.87543859649
1128	0.564	-3.6	0.842857142857	3.08636363636	0.465789473684
1129	0.5645	-5.04166666667	-4.97142857143	1.65227272727	0.465789473684
1130	0.565	-3.6	-10.7857142857	1.65227272727	0.465789473684
1131	0.5655	-5.04166666667	-10.7857142857	1.65227272727	0.465789473684
1132	0.566	-3.6	-10.7857142857	3.08636363636	1.87543859649
1133	0.5665	-0.716666666667	-4.97142857143	1.65227272727	1.87543859649
1134	0.567	7.93333333333	-4.97142857143	3.08636363636	1.87543859649
1135	0.5675	13.7	-2.06428571429	3.08636363636	1.87543859649
1136	0.568	7.93333333333	-2.06428571429	1.65227272727	0.465789473684
1137	0.5685	-2.15833333333	-2.06428571429	0.218181818182	1.87543859649
1138	0.569	-13.6916666667	-4.97142857143	1.65227272727	1.87543859649
1139	0.5695	-18.0166666667	-2.06428571429	1.65227272727	4.69473684211
1140	0.57	16.5833333333	-0.610714285714	1.65227272727	6.10438596491
1141	0.5705	13.7	-0.610714285714	0.218181818182	6.10438596491
1142	0.571	5.05	-0.610714285714	0.218181818182	4.69473684211
1143	0.5715	-2.15833333333	0.842857142857	-1.21590909091	7.51403508772
1144	0.572	2.16666666667	-0.610714285714	4.52045454545	3.2850877193
1145	0.5725	2.16666666667	0.842857142857	0.218181818182	1.87543859649
1146	0.573	-2.15833333333	0.842857142857	0.218181818182	0.465789473684
1147	0.5735	-2.15833333333	-0.610714285714	3.08636363636	1.87543859649
1148	0.574	-2.15833333333	-2.06428571429	-2.65	-2.35350877193
1149	0.5745	0.725	-0.610714285714	0.218181818182	6.10438596491
1150	0.575	0.725	-0.610714285714	-9.82045454545	8.92368421053
1151	0.5755	-2.15833333333	2.29642857143	-5.51818181818	6.10438596491
1152	0.576	-0.716666666667	3.75	-2.65	7.51403508772
1153	0.5765	2.16666666667	5.20357142857	-2.65	4.69473684211
1154	0.577	2.16666666667	-0.610714285714	-1.21590909091	7.51403508772
1155	0.5775	0.725	-2.06428571429	1.65227272727	3.2850877193
1156	0.578	-3.6	-4.97142857143	-1.21590909091	4.69473684211
1157	0.5785	-3.6	-9.33214285714	3.08636363636	4.69473684211
1158	0.579	0.725	-3.51785714286	3.08636363636	6.10438596491
1159	0.5795	2.16666666667	0.842857142857	0.218181818182	4.69473684211
1160	0.58	0.725	-0.610714285714	-1.21590909091	6.10438596491
1161	0.5805	13.7	-4.97142857143	-1.21590909091	4.69473684211
1162	0.581	-3.6	0.842857142857	-4.08409090909	6.10438596491
1163	0.5815	-13.6916666667	2.29642857143	-1.21590909091	1.87543859649
1164	0.582	-9.36666666667	0.842857142857	-1.21590909091	-3.76315789474
1165	0.5825	-5.04166666667	-2.06428571429	-1.21590909091	-6.58245614035
1166	0.583	-0.716666666667	2.29642857143	-1.21590909091	1.87543859649
1167	0.5835	2.16666666667	-0.610714285714	-9.82045454545	1.87543859649
1168	0.584	-2.15833333333	-0.610714285714	-9.82045454545	3.2850877193
1169	0.5845	0.725	0.842857142857	-4.08409090909	1.87543859649
1170	0.585	0.725	-0.610714285714	13.125	3.2850877193
1171	0.5855	-0.716666666667	-2.06428571429	15.9931818182	4.69473684211
1172	0.586	2.16666666667	-4.97142857143	3.08636363636	3.2850877193
1173	0.5865	0.725	-13.6928571429	0.218181818182	1.87543859649
1174	0.587	0.725	-2.06428571429	-2.65	1.87543859649
1175	0.5875	-0.716666666667	-10.7857142857	-2.65	4.69473684211
1176	0.588	-0.716666666667	-12.2392857143	1.65227272727	3.2850877193
1177	0.5885	0.725	0.842857142857	3.08636363636	3.2850877193
1178	0.589	-0.716666666667	2.29642857143	3.08636363636	4.69473684211
1179	0.5895	-5.04166666667	-0.610714285714	3.08636363636	4.69473684211
1180	0.59	-12.25	-0.610714285714	4.52045454545	6.10438596491
1181	0.5905	-12.25	-0.610714285714	4.52045454545	3.2850877193
1182	0.591	-6.48333333333	2.29642857143	4.52045454545	4.69473684211
1183	0.5915	0.725	-0.610714285714	4.52045454545	1.87543859649
1184	0.592	-5.04166666667	-0.610714285714	1.65227272727	3.2850877193
1185	0.5925	-3.6	0.842857142857	4.52045454545	-5.17280701754
1186	0.593	-6.48333333333	3.75	1.65227272727	4.69473684211
1187	0.5935	2.16666666667	0.842857142857	1.65227272727	-6.58245614035
1188	0.594	0.725	0.842857142857	-4.08409090909	-3.76315789474
1189	0.5945	5.05	-0.610714285714	-12.6886363636	1.87543859649
1190	0.595	10.8166666667	0.842857142857	-8.38636363636	4.69473684211
1191	0.5955	3.60833333333	2.29642857143	-1.21590909091	3.2850877193
1192	0.596	3.60833333333	0.842857142857	-11.2545454545	21.6105263158
1193	0.5965	-0.716666666667	0.842857142857	-1.21590909091	3.2850877193
1194	0.597	-2.15833333333	-2.06428571429	-1.21590909091	3.2850877193
1195	0.5975	-5.04166666667	-4.97142857143	-1.21590909091	3.2850877193
1196	0.598	-6.48333333333	-0.610714285714	-5.51818181818	4.69473684211
1197	0.5985	-3.6	-10.7857142857	-4.08409090909	3.2850877193
1198	0.599	-2.15833333333	-9.33214285714	1.65227272727	6.10438596491
1199	0.5995	-0.716666666667	-4.97142857143	1.65227272727	4.69473684211
1200	0.6	-2.15833333333	-2.06428571429	1.65227272727	6.10438596491
1201	0.6005	-3.6	-10.7857142857	0.218181818182	4.69473684211
1202	0.601	-0.716666666667	-10.7857142857	1.65227272727	4.69473684211
1203	0.6015	-5.04166666667	-6.425	-1.21590909091	4.69473684211
1204	0.602	-10.8083333333	-4.97142857143	0.218181818182	4.69473684211
1205	0.6025	-10.8083333333	-2.06428571429	0.218181818182	4.69473684211
1206	0.603	-5.04166666667	-2.06428571429	1.65227272727	-3.76315789474
1207	0.6035	0.725	-2.06428571429	3.08636363636	-0.943859649123
1208	0.604	0.725	-0.610714285714	0.218181818182	6.10438596491
1209	0.6045	2.16666666667	-2.06428571429	-1.21590909091	18.7912280702
1210	0.605	-0.716666666667	-2.06428571429	-2.65	23.0201754386
1211	0.6055	0.725	-2.06428571429	-2.65	24.4298245614
1212	0.606	0.725	-2.06428571429	-1.21590909091	8.92368421053
1213	0.6065	0.725	-4.97142857143	0.218181818182	3.2850877193
1214	0.607	0.725	-2.06428571429	-11.2545454545	6.10438596491
1215	0.6075	0.725	0.842857142857	-5.51818181818	17.3815789474
1216	0.608	-0.716666666667	2.29642857143	3.08636363636	7.51403508772
1217	0.6085	-2.15833333333	-2.06428571429	15.9931818182	4.69473684211
1218	0.609	0.725	-2.06428571429	-8.38636363636	6.10438596491
1219	0.6095	-0.716666666667	3.75	-6.95227272727	6.10438596491
1220	0.61	-2.15833333333	-15.1464285714	-4.08409090909	3.2850877193
1221	0.6105	0.725	-12.2392857143	-1.21590909091	4.69473684211
1222	0.611	0.725	0.842857142857	-1.21590909091	6.10438596491
1223	0.6115	-2.15833333333	-4.97142857143	-1.21590909091	3.2850877193
1224	0.612	-2.15833333333	-9.33214285714	-1.21590909091	6.10438596491
1225	0.6125	-0.716666666667	-6.425	-2.65	6.10438596491
1226	0.613	18.025	-2.06428571429	-1.21590909091	1.87543859649
1227	0.6135	18.025	-0.610714285714	0.218181818182	4.69473684211
1228	0.614	3.60833333333	0.842857142857	-1.21590909091	8.92368421053
1229	0.6145	-3.6	-0.610714285714	0.218181818182	10.3333333333
1230	0.615	-9.36666666667	0.842857142857	0.218181818182	6.10438596491
1231	0.6155	-2.15833333333	-0.610714285714	1.65227272727	1.87543859649
1232	0.616	-2.15833333333	0.842857142857	0.218181818182	-2.35350877193
1233	0.6165	-2.15833333333	0.842857142857	-2.65	6.10438596491
1234	0.617	0.725	-3.51785714286	-1.21590909091	20.200877193
1235	0.6175	-0.716666666667	-2.06428571429	-2.65	-2.35350877193
1236	0.618	2.16666666667	-2.06428571429	-6.95227272727	0.465789473684
1237	0.6185	0.725	0.842857142857	-6.95227272727	6.10438596491
1238	0.619	-2.15833333333	-2.06428571429	-9.82045454545	4.69473684211
1239	0.6195	-2.15833333333	-0.610714285714	-1.21590909091	1.87543859649
1240	0.62	0.725	0.842857142857	0.218181818182	4.69473684211
1241	0.6205	-0.716666666667	-6.425	-1.21590909091	4.69473684211
1242	0.621	-0.716666666667	-10.7857142857	0.218181818182	8.92368421053
1243	0.6215	-0.716666666667	-9.33214285714	0.218181818182	6.10438596491
1244	0.622	-0.716666666667	-7.87857142857	-1.21590909091	3.2850877193
1245	0.6225	-2.15833333333	9.56428571429	-1.21590909091	4.69473684211
1246	0.623	-3.6	-7.87857142857	1.65227272727	4.69473684211
1247	0.6235	-3.6	-0.610714285714	3.08636363636	4.69473684211
1248	0.624	-10.8083333333	-2.06428571429	1.65227272727	6.10438596491
1249	0.6245	-10.8083333333	0.842857142857	0.218181818182	7.51403508772
1250	0.625	15.1416666667	-0.610714285714	1.65227272727	7.51403508772
1251	0.6255	2.16666666667	0.842857142857	4.52045454545	-0.943859649123
1252	0.626	-9.36666666667	-0.610714285714	0.218181818182	-2.35350877193
1253	0.6265	-7.925	0.842857142857	0.218181818182	3.2850877193
1254	0.627	-5.04166666667	2.29642857143	-1.21590909091	8.92368421053
1255	0.6275	0.725	-2.06428571429	3.08636363636	3.2850877193
1256	0.628	0.725	-2.06428571429	0.218181818182	0.465789473684
1257	0.6285	2.16666666667	-0.610714285714	-5.51818181818	1.87543859649
1258	0.629	0.725	0.842857142857	-9.82045454545	6.10438596491
1259	0.6295	0.725	2.29642857143	-12.6886363636	4.69473684211
1260	0.63	-0.716666666667	2.29642857143	-1.21590909091	7.51403508772
1261	0.6305	-3.6	-2.06428571429	13.125	7.51403508772
1262	0.631	-3.6	-0.610714285714	-8.38636363636	6.10438596491
1263	0.6315	-2.15833333333	5.20357142857	-4.08409090909	8.92368421053
1264	0.632	-5.04166666667	3.75	-1.21590909091	8.92368421053
1265	0.6325	-0.716666666667	-2.06428571429	-1.21590909091	7.51403508772
1266	0.633	-0.716666666667	15.3785714286	-1.21590909091	7.51403508772
1267	0.6335	0.725	15.3785714286	-2.65	6.10438596491
1268	0.634	-2.15833333333	6.65714285714	0.218181818182	7.51403508772
1269	0.6345	-5.04166666667	-4.97142857143	0.218181818182	7.51403508772
1270	0.635	-13.6916666667	0.842857142857	-1.21590909091	8.92368421053
1271	0.6355	-2.15833333333	-0.610714285714	-1.21590909091	8.92368421053
1272	0.636	9.375	-2.06428571429	-1.21590909091	8.92368421053
1273	0.6365	19.4666666667	-2.06428571429	-2.65	10.3333333333
1274	0.637	18.025	-0.610714285714	-1.21590909091	8.92368421053
1275	0.6375	5.05	-0.610714285714	1.65227272727	10.3333333333
1276	0.638	10.8166666667	-2.06428571429	0.218181818182	13.1526315789
1277	0.6385	5.05	-0.610714285714	1.65227272727	0.465789473684
1278	0.639	0.725	-3.51785714286	0.218181818182	15.9719298246
1279	0.6395	-0.716666666667	-3.51785714286	-9.82045454545	6.10438596491
1280	0.64	-3.6	-2.06428571429	-5.51818181818	8.92368421053
1281	0.6405	0.725	-0.610714285714	5.95454545455	7.51403508772
1282	0.641	-0.716666666667	0.842857142857	17.4272727273	7.51403508772
1283	0.6415	-2.15833333333	0.842857142857	4.52045454545	6.10438596491
1284	0.642	2.16666666667	-0.610714285714	-6.95227272727	8.92368421053
1285	0.6425	0.725	-2.06428571429	-5.51818181818	4.69473684211
1286	0.643	-2.15833333333	-6.425	3.08636363636	6.10438596491
1287	0.6435	0.725	-10.7857142857	4.52045454545	4.69473684211
1288	0.644	0.725	-7.87857142857	3.08636363636	8.92368421053
1289	0.6445	0.725	-6.425	0.218181818182	8.92368421053
1290	0.645	-2.15833333333	18.2857142857	1.65227272727	6.10438596491
1291	0.6455	-3.6	-9.33214285714	0.218181818182	4.69473684211
1292	0.646	2.16666666667	-6.425	0.218181818182	7.51403508772
1293	0.6465	10.8166666667	-0.610714285714	1.65227272727	4.69473684211
1294	0.647	18.025	0.842857142857	0.218181818182	4.69473684211
1295	0.6475	13.7	-2.06428571429	1.65227272727	7.51403508772
1296	0.648	0.725	2.29642857143	0.218181818182	10.3333333333
1297	0.6485	-6.48333333333	2.29642857143	0.218181818182	10.3333333333
1298	0.649	-7.925	-0.610714285714	-1.21590909091	7.51403508772
1299	0.6495	2.16666666667	-0.610714285714	0.218181818182	1.87543859649
1300	0.65	0.725	0.842857142857	3.08636363636	-0.943859649123
1301	0.6505	-3.6	-0.610714285714	-2.65	0.465789473684
1302	0.651	-3.6	-0.610714285714	-1.21590909091	0.465789473684
1303	0.6515	-3.6	-3.51785714286	-5.51818181818	1.87543859649
1304	0.652	0.725	-0.610714285714	-8.38636363636	3.2850877193
1305	0.6525	-3.6	-3.51785714286	-1.21590909091	3.2850877193
1306	0.653	3.60833333333	-3.51785714286	-4.08409090909	6.10438596491
1307	0.6535	-0.716666666667	-4.97142857143	-8.38636363636	4.69473684211
1308	0.654	-2.15833333333	-3.51785714286	-2.65	3.2850877193
1309	0.6545	-2.15833333333	2.29642857143	-5.51818181818	4.69473684211
1310	0.655	-0.716666666667	-3.51785714286	-4.08409090909	6.10438596491
1311	0.6555	-0.716666666667	-7.87857142857	-1.21590909091	6.10438596491
1312	0.656	0.725	-12.2392857143	0.218181818182	6.10438596491
1313	0.6565	3.60833333333	19.7392857143	-1.21590909091	4.69473684211
1314	0.657	-0.716666666667	8.11071428571	-1.21590909091	6.10438596491
1315	0.6575	0.725	-2.06428571429	0.218181818182	7.51403508772
1316	0.658	5.05	0.842857142857	0.218181818182	8.92368421053
1317	0.6585	3.60833333333	-2.06428571429	-1.21590909091	4.69473684211
1318	0.659	-5.04166666667	-3.51785714286	1.65227272727	6.10438596491
1319	0.6595	-9.36666666667	-0.610714285714	0.218181818182	4.69473684211
1320	0.66	-13.6916666667	2.29642857143	-1.21590909091	4.69473684211
1321	0.6605	-9.36666666667	-0.610714285714	-2.65	6.10438596491
1322	0.661	-9.36666666667	-0.610714285714	-4.08409090909	8.92368421053
1323	0.6615	-6.48333333333	-2.06428571429	-2.65	6.10438596491
1324	0.662	-0.716666666667	-0.610714285714	-2.65	21.6105263158
1325	0.6625	-3.6	0.842857142857	-1.21590909091	13.1526315789
1326	0.663	-5.04166666667	0.842857142857	1.65227272727	1.87543859649
1327	0.6635	-6.48333333333	0.842857142857	1.65227272727	-5.17280701754
1328	0.664	-5.04166666667	-3.51785714286	8.82272727273	3.2850877193
1329	0.6645	-5.04166666667	-0.610714285714	0.218181818182	4.69473684211
1330	0.665	-3.6	-0.610714285714	-2.65	7.51403508772
1331	0.6655	-0.716666666667	-3.51785714286	-5.51818181818	1.87543859649
1332	0.666	0.725	-2.06428571429	-11.2545454545	6.10438596491
1333	0.6665	2.16666666667	-0.610714285714	-8.38636363636	6.10438596491
1334	0.667	2.16666666667	0.842857142857	0.218181818182	6.10438596491
1335	0.6675	3.60833333333	6.65714285714	0.218181818182	6.10438596491
1336	0.668	9.375	15.3785714286	-1.21590909091	6.10438596491
1337	0.6685	3.60833333333	11.0178571429	0.218181818182	4.69473684211
1338	0.669	0.725	-2.06428571429	-1.21590909091	6.10438596491
1339	0.6695	2.16666666667	-12.2392857143	3.08636363636	6.10438596491
1340	0.67	2.16666666667	-2.06428571429	1.65227272727	1.87543859649
1341	0.6705	16.5833333333	-0.610714285714	1.65227272727	4.69473684211
1342	0.671	25.2333333333	-2.06428571429	0.218181818182	3.2850877193
1343	0.6715	16.5833333333	-3.51785714286	-1.21590909091	7.51403508772
1344	0.672	-7.925	-2.06428571429	3.08636363636	8.92368421053
1345	0.6725	15.1416666667	-3.51785714286	1.65227272727	7.51403508772
1346	0.673	-0.716666666667	-0.610714285714	-1.21590909091	23.0201754386
1347	0.6735	-0.716666666667	2.29642857143	-1.21590909091	20.200877193
1348	0.674	-3.6	0.842857142857	1.65227272727	7.51403508772
1349	0.6745	-0.716666666667	-0.610714285714	3.08636363636	-0.943859649123
1350	0.675	-3.6	0.842857142857	-8.38636363636	6.10438596491
1351	0.6755	-0.716666666667	-2.06428571429	-8.38636363636	10.3333333333
1352	0.676	-0.716666666667	0.842857142857	-1.21590909091	11.7429824561
1353	0.6765	-0.716666666667	-0.610714285714	-2.65	13.1526315789
1354	0.677	-3.6	-3.51785714286	-8.38636363636	13.1526315789
1355	0.6775	0.725	-0.610714285714	-4.08409090909	13.1526315789
1356	0.678	3.60833333333	9.56428571429	1.65227272727	8.92368421053
1357	0.6785	-0.716666666667	16.8321428571	0.218181818182	13.1526315789
1358	0.679	-0.716666666667	13.925	1.65227272727	11.7429824561
1359	0.6795	-3.6	0.842857142857	-2.65	7.51403508772
1360	0.68	-0.716666666667	-10.7857142857	0.218181818182	7.51403508772
1361	0.6805	-2.15833333333	-7.87857142857	0.218181818182	8.92368421053
1362	0.681	-10.8083333333	-0.610714285714	0.218181818182	3.2850877193
1363	0.6815	-13.6916666667	-2.06428571429	1.65227272727	7.51403508772
1364	0.682	3.60833333333	-2.06428571429	1.65227272727	10.3333333333
1365	0.6825	15.1416666667	0.842857142857	0.218181818182	6.10438596491
1366	0.683	18.025	0.842857142857	0.218181818182	7.51403508772
1367	0.6835	2.16666666667	-0.610714285714	3.08636363636	15.9719298246
1368	0.684	0.725	-0.610714285714	1.65227272727	20.200877193
1369	0.6845	-2.15833333333	-2.06428571429	0.218181818182	20.200877193
1370	0.685	2.16666666667	-2.06428571429	1.65227272727	20.200877193
1371	0.6855	3.60833333333	-2.06428571429	3.08636363636	-0.943859649123
1372	0.686	2.16666666667	-2.06428571429	15.9931818182	1.87543859649
1373	0.6865	-0.716666666667	-0.610714285714	18.8613636364	4.69473684211
1374	0.687	-0.716666666667	-2.06428571429	14.5590909091	3.2850877193
1375	0.6875	-2.15833333333	-0.610714285714	7.38863636364	1.87543859649
1376	0.688	-2.15833333333	-4.97142857143	-4.08409090909	3.2850877193
1377	0.6885	-2.15833333333	-3.51785714286	-6.95227272727	4.69473684211
1378	0.689	-2.15833333333	6.65714285714	3.08636363636	4.69473684211
1379	0.6895	-0.716666666667	3.75	3.08636363636	3.2850877193
1380	0.69	0.725	-6.425	3.08636363636	4.69473684211
1381	0.6905	-0.716666666667	6.65714285714	0.218181818182	6.10438596491
1382	0.691	-0.716666666667	-2.06428571429	0.218181818182	1.87543859649
1383	0.6915	0.725	-3.51785714286	-1.21590909091	6.10438596491
1384	0.692	0.725	-2.06428571429	1.65227272727	6.10438596491
1385	0.6925	-0.716666666667	-0.610714285714	1.65227272727	6.10438596491
1386	0.693	12.2583333333	2.29642857143	1.65227272727	6.10438596491
1387	0.6935	7.93333333333	2.29642857143	4.52045454545	6.10438596491
1388	0.694	-0.716666666667	-0.610714285714	3.08636363636	8.92368421053
1389	0.6945	-3.6	0.842857142857	3.08636363636	8.92368421053
1390	0.695	-10.8083333333	2.29642857143	7.38863636364	3.2850877193
1391	0.6955	-3.6	0.842857142857	4.52045454545	8.92368421053
1392	0.696	2.16666666667	5.20357142857	3.08636363636	3.2850877193
1393	0.6965	-0.716666666667	-2.06428571429	4.52045454545	-0.943859649123
1394	0.697	-0.716666666667	-0.610714285714	4.52045454545	-2.35350877193
1395	0.6975	-2.15833333333	0.842857142857	4.52045454545	-2.35350877193
1396	0.698	-3.6	0.842857142857	-1.21590909091	0.465789473684
1397	0.6985	-5.04166666667	5.20357142857	-5.51818181818	3.2850877193
1398	0.699	-0.716666666667	6.65714285714	18.8613636364	-2.35350877193
1399	0.6995	2.16666666667	2.29642857143	14.5590909091	3.2850877193
1400	0.7	-0.716666666667	2.29642857143	-2.65	6.10438596491
1401	0.7005	-2.15833333333	5.20357142857	0.218181818182	6.10438596491
1402	0.701	-2.15833333333	0.842857142857	0.218181818182	8.92368421053
1403	0.7015	5.05	9.56428571429	-1.21590909091	7.51403508772
1404	0.702	-0.716666666667	15.3785714286	-1.21590909091	8.92368421053
1405	0.7025	0.725	13.925	0.218181818182	3.2850877193
1406	0.703	-5.04166666667	0.842857142857	0.218181818182	6.10438596491
1407	0.7035	-15.1333333333	-0.610714285714	-1.21590909091	7.51403508772
1408	0.704	-19.4583333333	-0.610714285714	-1.21590909091	8.92368421053
1409	0.7045	-13.6916666667	0.842857142857	-2.65	6.10438596491
1410	0.705	-5.04166666667	-0.610714285714	-1.21590909091	4.69473684211
1411	0.7055	2.16666666667	0.842857142857	-1.21590909091	3.2850877193
1412	0.706	-10.8083333333	0.842857142857	1.65227272727	3.2850877193
1413	0.7065	-6.48333333333	-0.610714285714	0.218181818182	4.69473684211
1414	0.707	10.8166666667	0.842857142857	4.52045454545	-6.58245614035
1415	0.7075	10.8166666667	-0.610714285714	4.52045454545	-5.17280701754
1416	0.708	5.05	2.29642857143	0.218181818182	-3.76315789474
1417	0.7085	-0.716666666667	3.75	-5.51818181818	1.87543859649
1418	0.709	0.725	3.75	-6.95227272727	4.69473684211
1419	0.7095	-5.04166666667	0.842857142857	14.5590909091	0.465789473684
1420	0.71	-6.48333333333	-0.610714285714	4.52045454545	3.2850877193
1421	0.7105	-5.04166666667	-2.06428571429	0.218181818182	0.465789473684
1422	0.711	-5.04166666667	-0.610714285714	-2.65	0.465789473684
1423	0.7115	-2.15833333333	3.75	1.65227272727	0.465789473684
1424	0.712	-0.716666666667	2.29642857143	3.08636363636	3.2850877193
1425	0.7125	-5.04166666667	3.75	1.65227272727	1.87543859649
1426	0.713	-3.6	-7.87857142857	-1.21590909091	-0.943859649123
1427	0.7135	-5.04166666667	-6.425	-1.21590909091	1.87543859649
1428	0.714	-2.15833333333	-2.06428571429	1.65227272727	1.87543859649
1429	0.7145	5.05	-0.610714285714	-1.21590909091	0.465789473684
1430	0.715	2.16666666667	-0.610714285714	-1.21590909091	0.465789473684
1431	0.7155	5.05	2.29642857143	-1.21590909091	3.2850877193
1432	0.716	22.35	0.842857142857	1.65227272727	0.465789473684
1433	0.7165	-5.04166666667	-0.610714285714	-1.21590909091	0.465789473684
1434	0.717	-5.04166666667	-2.06428571429	0.218181818182	0.465789473684
1435	0.7175	-0.716666666667	-0.610714285714	-1.21590909091	-5.17280701754
1436	0.718	2.16666666667	-2.06428571429	0.218181818182	3.2850877193
1437	0.7185	2.16666666667	2.29642857143	-4.08409090909	15.9719298246
1438	0.719	-2.15833333333	-2.06428571429	-1.21590909091	18.7912280702
1439	0.7195	0.725	-3.51785714286	-6.95227272727	-2.35350877193
1440	0.72	3.60833333333	-2.06428571429	-11.2545454545	0.465789473684
1441	0.7205	5.05	-0.610714285714	-12.6886363636	1.87543859649
1442	0.721	0.725	0.842857142857	-5.51818181818	3.2850877193
1443	0.7215	-3.6	0.842857142857	-4.08409090909	3.2850877193
1444	0.722	0.725	6.65714285714	0.218181818182	1.87543859649
1445	0.7225	2.16666666667	3.75	15.9931818182	1.87543859649
1446	0.723	-0.716666666667	0.842857142857	-5.51818181818	1.87543859649
1447	0.7235	2.16666666667	-12.2392857143	0.218181818182	3.2850877193
1448	0.724	2.16666666667	-10.7857142857	-1.21590909091	0.465789473684
1449	0.7245	0.725	2.29642857143	-1.21590909091	0.465789473684
1450	0.725	3.60833333333	15.3785714286	3.08636363636	4.69473684211
1451	0.7255	-2.15833333333	18.2857142857	-1.21590909091	6.10438596491
1452	0.726	0.725	-4.97142857143	0.218181818182	6.10438596491
1453	0.7265	2.16666666667	0.842857142857	-1.21590909091	1.87543859649
1454	0.727	-13.6916666667	0.842857142857	-1.21590909091	0.465789473684
1455	0.7275	-2.15833333333	-0.610714285714	-1.21590909091	1.87543859649
1456	0.728	3.60833333333	0.842857142857	-1.21590909091	1.87543859649
1457	0.7285	15.1416666667	-0.610714285714	-1.21590909091	0.465789473684
1458	0.729	13.7	0.842857142857	-1.21590909091	3.2850877193
1459	0.7295	-10.8083333333	2.29642857143	-1.21590909091	3.2850877193
1460	0.73	-5.04166666667	-0.610714285714	-1.21590909091	4.69473684211
1461	0.7305	-9.36666666667	0.842857142857	-1.21590909091	-2.35350877193
1462	0.731	0.725	0.842857142857	-1.21590909091	15.9719298246
1463	0.7315	-0.716666666667	0.842857142857	-1.21590909091	6.10438596491
1464	0.732	2.16666666667	0.842857142857	3.08636363636	-2.35350877193
1465	0.7325	3.60833333333	2.29642857143	1.65227272727	-6.58245614035
1466	0.733	3.60833333333	-0.610714285714	0.218181818182	-6.58245614035
1467	0.7335	0.725	-3.51785714286	-2.65	-3.76315789474
1468	0.734	3.60833333333	-0.610714285714	5.95454545455	4.69473684211
1469	0.7345	9.375	-0.610714285714	-5.51818181818	1.87543859649
1470	0.735	7.93333333333	2.29642857143	15.9931818182	-5.17280701754
1471	0.7355	5.05	-2.06428571429	11.6909090909	0.465789473684
1472	0.736	2.16666666667	-3.51785714286	-4.08409090909	0.465789473684
1473	0.7365	-0.716666666667	-12.2392857143	-1.21590909091	-0.943859649123
1474	0.737	0.725	-10.7857142857	3.08636363636	-0.943859649123
1475	0.7375	-0.716666666667	-0.610714285714	1.65227272727	-0.943859649123
1476	0.738	0.725	6.65714285714	-1.21590909091	0.465789473684
1477	0.7385	3.60833333333	-3.51785714286	3.08636363636	0.465789473684
1478	0.739	2.16666666667	-2.06428571429	1.65227272727	0.465789473684
1479	0.7395	-5.04166666667	-0.610714285714	0.218181818182	0.465789473684
1480	0.74	-12.25	-0.610714285714	0.218181818182	1.87543859649
1481	0.7405	-15.1333333333	0.842857142857	0.218181818182	-0.943859649123
1482	0.741	-2.15833333333	0.842857142857	1.65227272727	-0.943859649123
1483	0.7415	-0.716666666667	2.29642857143	3.08636363636	-10.8114035088
1484	0.742	0.725	2.29642857143	1.65227272727	-3.76315789474
1485	0.7425	-0.716666666667	2.29642857143	-1.21590909091	13.1526315789
1486	0.743	0.725	0.842857142857	3.08636363636	17.3815789474
1487	0.7435	0.725	-2.06428571429	4.52045454545	8.92368421053
1488	0.744	-0.716666666667	-2.06428571429	4.52045454545	-7.99210526316
1489	0.7445	2.16666666667	-2.06428571429	-5.51818181818	0.465789473684
1490	0.745	2.16666666667	-0.610714285714	4.52045454545	0.465789473684
1491	0.7455	-0.716666666667	3.75	14.5590909091	-0.943859649123
1492	0.746	0.725	3.75	20.2954545455	-0.943859649123
1493	0.7465	2.16666666667	2.29642857143	14.5590909091	0.465789473684
1494	0.747	0.725	3.75	-1.21590909091	0.465789473684
1495	0.7475	-2.15833333333	3.75	0.218181818182	-0.943859649123
1496	0.748	0.725	0.842857142857	-2.65	0.465789473684
1497	0.7485	3.60833333333	-2.06428571429	-1.21590909091	-0.943859649123
1498	0.749	-0.716666666667	9.56428571429	0.218181818182	0.465789473684
1499	0.7495	2.16666666667	0.842857142857	0.218181818182	0.465789473684
1500	0.75	-3.6	-3.51785714286	0.218181818182	-0.943859649123
1501	0.7505	-3.6	-12.2392857143	-1.21590909091	3.2850877193
1502	0.751	-2.15833333333	-12.2392857143	1.65227272727	0.465789473684
1503	0.7515	-5.04166666667	-2.06428571429	1.65227272727	0.465789473684
1504	0.752	2.16666666667	-4.97142857143	-1.21590909091	1.87543859649
1505	0.7525	12.2583333333	-0.610714285714	0.218181818182	-0.943859649123
1506	0.753	19.4666666667	-6.425	0.218181818182	0.465789473684
1507	0.7535	15.1416666667	-4.97142857143	1.65227272727	0.465789473684
1508	0.754	10.8166666667	-2.06428571429	-2.65	-0.943859649123
1509	0.7545	-3.6	-2.06428571429	0.218181818182	7.51403508772
1510	0.755	-3.6	-3.51785714286	0.218181818182	15.9719298246
1511	0.7555	-5.04166666667	-2.06428571429	-1.21590909091	18.7912280702
1512	0.756	-3.6	-2.06428571429	0.218181818182	13.1526315789
1513	0.7565	-0.716666666667	0.842857142857	0.218181818182	6.10438596491
1514	0.757	0.725	3.75	4.52045454545	0.465789473684
1515	0.7575	6.49166666667	0.842857142857	15.9931818182	0.465789473684
1516	0.758	0.725	0.842857142857	18.8613636364	-2.35350877193
1517	0.7585	2.16666666667	-0.610714285714	15.9931818182	1.87543859649
1518	0.759	2.16666666667	-2.06428571429	7.38863636364	0.465789473684
1519	0.7595	0.725	0.842857142857	0.218181818182	0.465789473684
1520	0.76	-2.15833333333	-2.06428571429	-6.95227272727	0.465789473684
1521	0.7605	-3.6	-9.33214285714	1.65227272727	0.465789473684
1522	0.761	-2.15833333333	-0.610714285714	3.08636363636	0.465789473684
1523	0.7615	-0.716666666667	12.4714285714	0.218181818182	0.465789473684
1524	0.762	-2.15833333333	21.1928571429	1.65227272727	3.2850877193
1525	0.7625	-0.716666666667	0.842857142857	0.218181818182	0.465789473684
1526	0.763	0.725	-6.425	1.65227272727	0.465789473684
1527	0.7635	7.93333333333	-4.97142857143	0.218181818182	0.465789473684
1528	0.764	3.60833333333	-2.06428571429	1.65227272727	-0.943859649123
1529	0.7645	-3.6	-0.610714285714	-1.21590909091	0.465789473684
1530	0.765	-7.925	2.29642857143	1.65227272727	1.87543859649
1531	0.7655	-7.925	0.842857142857	1.65227272727	0.465789473684
1532	0.766	-9.36666666667	-0.610714285714	0.218181818182	-0.943859649123
1533	0.7665	-7.925	0.842857142857	0.218181818182	-9.40175438596
1534	0.767	-3.6	0.842857142857	1.65227272727	-12.2210526316
1535	0.7675	-3.6	-2.06428571429	1.65227272727	-10.8114035088
1536	0.768	0.725	-3.51785714286	0.218181818182	-6.58245614035
1537	0.7685	2.16666666667	0.842857142857	-6.95227272727	-5.17280701754
1538	0.769	0.725	-0.610714285714	-8.38636363636	-2.35350877193
1539	0.7695	-0.716666666667	-6.425	-6.95227272727	11.7429824561
1540	0.77	-0.716666666667	-0.610714285714	-8.38636363636	1.87543859649
1541	0.7705	-2.15833333333	-2.06428571429	-6.95227272727	-2.35350877193
1542	0.771	-2.15833333333	0.842857142857	-2.65	0.465789473684
1543	0.7715	-0.716666666667	0.842857142857	-2.65	0.465789473684
1544	0.772	-3.6	3.75	-1.21590909091	0.465789473684
1545	0.7725	-3.6	2.29642857143	0.218181818182	1.87543859649
1546	0.773	-5.04166666667	-3.51785714286	3.08636363636	3.2850877193
1547	0.7735	-2.15833333333	-12.2392857143	-1.21590909091	0.465789473684
1548	0.774	-0.716666666667	-10.7857142857	1.65227272727	0.465789473684
1549	0.7745	-2.15833333333	-7.87857142857	0.218181818182	0.465789473684
1550	0.775	-2.15833333333	-4.97142857143	0.218181818182	0.465789473684
1551	0.7755	-2.15833333333	-6.425	-1.21590909091	-0.943859649123
1552	0.776	-3.6	-6.425	3.08636363636	0.465789473684
1553	0.7765	-5.04166666667	-2.06428571429	3.08636363636	0.465789473684
1554	0.777	-0.716666666667	0.842857142857	3.08636363636	-0.943859649123
1555	0.7775	-5.04166666667	-3.51785714286	3.08636363636	1.87543859649
1556	0.778	-2.15833333333	-2.06428571429	1.65227272727	3.2850877193
1557	0.7785	-5.04166666667	-2.06428571429	1.65227272727	-0.943859649123
1558	0.779	-2.15833333333	-0.610714285714	4.52045454545	-6.58245614035
1559	0.7795	-5.04166666667	0.842857142857	4.52045454545	-10.8114035088
1560	0.78	-2.15833333333	-2.06428571429	3.08636363636	-6.58245614035
1561	0.7805	-3.6	0.842857142857	-2.65	-2.35350877193
1562	0.781	-2.15833333333	0.842857142857	4.52045454545	-7.99210526316
1563	0.7815	-3.6	-0.610714285714	20.2954545455	0.465789473684
1564	0.782	-5.04166666667	0.842857142857	14.5590909091	0.465789473684
1565	0.7825	-3.6	-2.06428571429	4.52045454545	0.465789473684
1566	0.783	-2.15833333333	-2.06428571429	3.08636363636	-2.35350877193
1567	0.7835	0.725	-0.610714285714	-9.82045454545	0.465789473684
1568	0.784	3.60833333333	2.29642857143	-1.21590909091	1.87543859649
1569	0.7845	2.16666666667	-2.06428571429	-1.21590909091	0.465789473684
1570	0.785	2.16666666667	-6.425	3.08636363636	0.465789473684
1571	0.7855	0.725	-10.7857142857	-1.21590909091	-0.943859649123
1572	0.786	0.725	-13.6928571429	-1.21590909091	1.87543859649
1573	0.7865	-0.716666666667	-13.6928571429	0.218181818182	1.87543859649
1574	0.787	3.60833333333	-6.425	-1.21590909091	0.465789473684
1575	0.7875	3.60833333333	-0.610714285714	1.65227272727	0.465789473684
1576	0.788	0.725	-3.51785714286	-1.21590909091	-0.943859649123
1577	0.7885	-5.04166666667	-3.51785714286	-1.21590909091	0.465789473684
1578	0.789	-12.25	-0.610714285714	-1.21590909091	3.2850877193
1579	0.7895	18.025	0.842857142857	0.218181818182	1.87543859649
1580	0.79	10.8166666667	-2.06428571429	1.65227272727	-5.17280701754
1581	0.7905	0.725	-0.610714285714	1.65227272727	-3.76315789474
1582	0.791	-9.36666666667	0.842857142857	0.218181818182	1.87543859649
1583	0.7915	0.725	2.29642857143	-1.21590909091	1.87543859649
1584	0.792	0.725	0.842857142857	3.08636363636	-9.40175438596
1585	0.7925	-0.716666666667	0.842857142857	-1.21590909091	-7.99210526316
1586	0.793	-0.716666666667	0.842857142857	-6.95227272727	-2.35350877193
1587	0.7935	-0.716666666667	0.842857142857	-9.82045454545	0.465789473684
1588	0.794	0.725	0.842857142857	-1.21590909091	0.465789473684
1589	0.7945	2.16666666667	0.842857142857	11.6909090909	-2.35350877193
1590	0.795	2.16666666667	-6.425	15.9931818182	-0.943859649123
1591	0.7955	-0.716666666667	-0.610714285714	-5.51818181818	-2.35350877193
1592	0.796	-2.15833333333	0.842857142857	-4.08409090909	0.465789473684
1593	0.7965	-2.15833333333	-13.6928571429	0.218181818182	-0.943859649123
1594	0.797	0.725	-13.6928571429	-2.65	0.465789473684
1595	0.7975	3.60833333333	-4.97142857143	-2.65	-0.943859649123
1596	0.798	2.16666666667	-2.06428571429	-2.65	-2.35350877193
1597	0.7985	2.16666666667	-3.51785714286	0.218181818182	-3.76315789474
1598	0.799	-2.15833333333	-3.51785714286	-1.21590909091	0.465789473684
1599	0.7995	-5.04166666667	-0.610714285714	-1.21590909091	-0.943859649123
1600	0.8	-6.48333333333	0.842857142857	-2.65	0.465789473684
1601	0.8005	-10.8083333333	-2.06428571429	0.218181818182	-0.943859649123
1602	0.801	-7.925	-2.06428571429	0.218181818182	0.465789473684
1603	0.8015	-9.36666666667	-2.06428571429	-1.21590909091	-2.35350877193
1604	0.802	-6.48333333333	-2.06428571429	-1.21590909091	-6.58245614035
1605	0.8025	-2.15833333333	-2.06428571429	-2.65	0.465789473684
1606	0.803	-6.48333333333	-3.51785714286	-2.65	1.87543859649
1607	0.8035	-0.716666666667	-3.51785714286	-2.65	14.5622807018
1608	0.804	0.725	-3.51785714286	0.218181818182	10.3333333333
1609	0.8045	2.16666666667	-4.97142857143	1.65227272727	1.87543859649
1610	0.805	0.725	-4.97142857143	1.65227272727	-6.58245614035
1611	0.8055	0.725	-6.425	-4.08409090909	-6.58245614035
1612	0.806	0.725	-3.51785714286	-2.65	-3.76315789474
1613	0.8065	0.725	-2.06428571429	-1.21590909091	3.2850877193
1614	0.807	2.16666666667	0.842857142857	-6.95227272727	1.87543859649
1615	0.8075	5.05	-2.06428571429	-8.38636363636	0.465789473684
1616	0.808	0.725	-2.06428571429	-6.95227272727	4.69473684211
1617	0.8085	0.725	-10.7857142857	-1.21590909091	4.69473684211
1618	0.809	-2.15833333333	-9.33214285714	0.218181818182	1.87543859649
1619	0.8095	0.725	-15.1464285714	0.218181818182	4.69473684211
1620	0.81	-0.716666666667	-10.7857142857	0.218181818182	1.87543859649
1621	0.8105	-0.716666666667	-10.7857142857	3.08636363636	1.87543859649
1622	0.811	-2.15833333333	-3.51785714286	3.08636363636	3.2850877193
1623	0.8115	-5.04166666667	-3.51785714286	3.08636363636	3.2850877193
1624	0.812	-5.04166666667	-7.87857142857	3.08636363636	1.87543859649
1625	0.8125	0.725	-2.06428571429	3.08636363636	3.2850877193
1626	0.813	-7.925	2.29642857143	1.65227272727	4.69473684211
1627	0.8135	-13.6916666667	-3.51785714286	1.65227272727	3.2850877193
1628	0.814	-6.48333333333	-3.51785714286	3.08636363636	3.2850877193
1629	0.8145	9.375	-3.51785714286	5.95454545455	-0.943859649123
1630	0.815	-10.8083333333	-0.610714285714	3.08636363636	-2.35350877193
1631	0.8155	-7.925	-0.610714285714	3.08636363636	8.92368421053
1632	0.816	-2.15833333333	-4.97142857143	1.65227272727	-0.943859649123
1633	0.8165	-0.716666666667	-2.06428571429	3.08636363636	-2.35350877193
1634	0.817	-2.15833333333	-4.97142857143	3.08636363636	7.51403508772
1635	0.8175	-0.716666666667	-3.51785714286	-5.51818181818	-0.943859649123
1636	0.818	-0.716666666667	-3.51785714286	-1.21590909091	1.87543859649
1637	0.8185	-0.716666666667	-3.51785714286	4.52045454545	10.3333333333
1638	0.819	-0.716666666667	-2.06428571429	0.218181818182	3.2850877193
1639	0.8195	-0.716666666667	-4.97142857143	-6.95227272727	1.87543859649
1640	0.82	2.16666666667	-3.51785714286	-4.08409090909	0.465789473684
1641	0.8205	0.725	-2.06428571429	-2.65	0.465789473684
1642	0.821	-2.15833333333	0.842857142857	-1.21590909091	0.465789473684
1643	0.8215	2.16666666667	0.842857142857	-1.21590909091	-0.943859649123
1644	0.822	0.725	8.11071428571	-2.65	0.465789473684
1645	0.8225	0.725	-0.610714285714	-4.08409090909	0.465789473684
1646	0.823	-2.15833333333	-7.87857142857	-1.21590909091	0.465789473684
1647	0.8235	-2.15833333333	-12.2392857143	-1.21590909091	-0.943859649123
1648	0.824	-2.15833333333	-9.33214285714	-1.21590909091	0.465789473684
1649	0.8245	2.16666666667	-6.425	-1.21590909091	-2.35350877193
1650	0.825	-15.1333333333	-0.610714285714	0.218181818182	-0.943859649123
1651	0.8255	-12.25	-0.610714285714	-1.21590909091	0.465789473684
1652	0.826	-3.6	-2.06428571429	-2.65	3.2850877193
1653	0.8265	12.2583333333	0.842857142857	-1.21590909091	3.2850877193
1654	0.827	18.025	-0.610714285714	0.218181818182	-0.943859649123
1655	0.8275	-0.716666666667	-2.06428571429	0.218181818182	1.87543859649
1656	0.828	-2.15833333333	-2.06428571429	-2.65	8.92368421053
1657	0.8285	-0.716666666667	0.842857142857	-4.08409090909	15.9719298246
1658	0.829	-3.6	-0.610714285714	-4.08409090909	15.9719298246
1659	0.8295	-5.04166666667	-0.610714285714	-2.65	15.9719298246
1660	0.83	0.725	-2.06428571429	0.218181818182	8.92368421053
1661	0.8305	-2.15833333333	0.842857142857	5.95454545455	0.465789473684
1662	0.831	-2.15833333333	0.842857142857	15.9931818182	-0.943859649123
1663	0.8315	-2.15833333333	0.842857142857	15.9931818182	-0.943859649123
1664	0.832	-2.15833333333	0.842857142857	17.4272727273	-0.943859649123
1665	0.8325	-2.15833333333	-0.610714285714	11.6909090909	0.465789473684
1666	0.833	0.725	-2.06428571429	4.52045454545	-0.943859649123
1667	0.8335	2.16666666667	-12.2392857143	3.08636363636	-0.943859649123
1668	0.834	5.05	-12.2392857143	4.52045454545	-0.943859649123
1669	0.8345	3.60833333333	-4.97142857143	1.65227272727	-2.35350877193
1670	0.835	5.05	5.20357142857	3.08636363636	-2.35350877193
1671	0.8355	7.93333333333	9.56428571429	4.52045454545	-5.17280701754
1672	0.836	5.05	9.56428571429	4.52045454545	-5.17280701754
1673	0.8365	2.16666666667	-4.97142857143	1.65227272727	-2.35350877193
1674	0.837	-5.04166666667	-4.97142857143	1.65227272727	-3.76315789474
1675	0.8375	-15.1333333333	-3.51785714286	-1.21590909091	-2.35350877193
1676	0.838	-13.6916666667	-3.51785714286	-1.21590909091	-2.35350877193
1677	0.8385	-16.575	-4.97142857143	-1.21590909091	-2.35350877193
1678	0.839	-10.8083333333	-3.51785714286	1.65227272727	-3.76315789474
1679	0.8395	-6.48333333333	-0.610714285714	1.65227272727	-5.17280701754
1680	0.84	-5.04166666667	0.842857142857	0.218181818182	-7.99210526316
1681	0.8405	-3.6	-3.51785714286	-1.21590909091	-13.6307017544
1682	0.841	0.725	-0.610714285714	-1.21590909091	-13.6307017544
1683	0.8415	-2.15833333333	-2.06428571429	0.218181818182	-16.45
1684	0.842	-0.716666666667	-3.51785714286	0.218181818182	-16.45
1685	0.8425	0.725	-2.06428571429	-4.08409090909	-9.40175438596
1686	0.843	2.16666666667	0.842857142857	-9.82045454545	-6.58245614035
1687	0.8435	-0.716666666667	-4.97142857143	-9.82045454545	-5.17280701754
1688	0.844	2.16666666667	-2.06428571429	-6.95227272727	-2.35350877193
1689	0.8445	-3.6	-0.610714285714	-2.65	-3.76315789474
1690	0.845	-2.15833333333	-3.51785714286	4.52045454545	-3.76315789474
1691	0.8455	-3.6	-0.610714285714	-8.38636363636	-0.943859649123
1692	0.846	-3.6	-0.610714285714	-6.95227272727	-2.35350877193
1693	0.8465	-0.716666666667	-0.610714285714	-2.65	-3.76315789474
1694	0.847	-0.716666666667	15.3785714286	-1.21590909091	-2.35350877193
1695	0.8475	0.725	15.3785714286	-1.21590909091	-2.35350877193
1696	0.848	-3.6	5.20357142857	-1.21590909091	0.465789473684
1697	0.8485	-5.04166666667	-6.425	-1.21590909091	0.465789473684
1698	0.849	-2.15833333333	-9.33214285714	0.218181818182	1.87543859649
1699	0.8495	2.16666666667	-0.610714285714	0.218181818182	1.87543859649
1700	0.85	16.5833333333	-4.97142857143	0.218181818182	0.465789473684
1701	0.8505	15.1416666667	-4.97142857143	5.95454545455	4.69473684211
1702	0.851	-2.15833333333	-0.610714285714	1.65227272727	6.10438596491
1703	0.8515	15.1416666667	0.842857142857	4.52045454545	4.69473684211
1704	0.852	-3.6	-2.06428571429	3.08636363636	10.3333333333
1705	0.8525	2.16666666667	-4.97142857143	1.65227272727	17.3815789474
1706	0.853	3.60833333333	-4.97142857143	3.08636363636	7.51403508772
1707	0.8535	10.8166666667	-2.06428571429	7.38863636364	0.465789473684
1708	0.854	10.8166666667	-2.06428571429	4.52045454545	-6.58245614035
1709	0.8545	3.60833333333	-3.51785714286	-5.51818181818	-0.943859649123
1710	0.855	0.725	-6.425	-1.21590909091	1.87543859649
1711	0.8555	-3.6	-3.51785714286	1.65227272727	1.87543859649
1712	0.856	-2.15833333333	-3.51785714286	5.95454545455	1.87543859649
1713	0.8565	2.16666666667	-6.425	0.218181818182	0.465789473684
1714	0.857	0.725	-4.97142857143	-5.51818181818	1.87543859649
1715	0.8575	-0.716666666667	-2.06428571429	4.52045454545	0.465789473684
1716	0.858	-2.15833333333	6.65714285714	3.08636363636	0.465789473684
1717	0.8585	2.16666666667	15.3785714286	3.08636363636	-0.943859649123
1718	0.859	2.16666666667	18.2857142857	3.08636363636	1.87543859649
1719	0.8595	5.05	16.8321428571	1.65227272727	1.87543859649
1720	0.86	3.60833333333	6.65714285714	4.52045454545	-2.35350877193
1721	0.8605	-12.25	2.29642857143	3.08636363636	0.465789473684
1722	0.861	-7.925	0.842857142857	0.218181818182	0.465789473684
1723	0.8615	2.16666666667	-2.06428571429	1.65227272727	-0.943859649123
1724	0.862	-12.25	-0.610714285714	3.08636363636	-0.943859649123
1725	0.8625	-12.25	-0.610714285714	1.65227272727	0.465789473684
1726	0.863	-9.36666666667	-2.06428571429	3.08636363636	0.465789473684
1727	0.8635	-0.716666666667	-3.51785714286	3.08636363636	0.465789473684
1728	0.864	-7.925	-3.51785714286	1.65227272727	-0.943859649123
1729	0.8645	0.725	-2.06428571429	-1.21590909091	13.1526315789
1730	0.865	-2.15833333333	-2.06428571429	4.52045454545	4.69473684211
1731	0.8655	-0.716666666667	-3.51785714286	5.95454545455	-2.35350877193
1732	0.866	-2.15833333333	0.842857142857	5.95454545455	-6.58245614035
1733	0.8665	-0.716666666667	-2.06428571429	-1.21590909091	-2.35350877193
1734	0.867	-2.15833333333	-2.06428571429	1.65227272727	4.69473684211
1735	0.8675	-3.6	-3.51785714286	-4.08409090909	1.87543859649
1736	0.868	0.725	-6.425	-9.82045454545	0.465789473684
1737	0.8685	-2.15833333333	-4.97142857143	-8.38636363636	1.87543859649
1738	0.869	-2.15833333333	-0.610714285714	-4.08409090909	-2.35350877193
1739	0.8695	-0.716666666667	-3.51785714286	-5.51818181818	0.465789473684
1740	0.87	-2.15833333333	-18.0535714286	0.218181818182	0.465789473684
1741	0.8705	-0.716666666667	-10.7857142857	-1.21590909091	-0.943859649123
1742	0.871	0.725	-3.51785714286	0.218181818182	-2.35350877193
1743	0.8715	5.05	-6.425	-2.65	-5.17280701754
1744	0.872	5.05	-2.06428571429	-1.21590909091	0.465789473684
1745	0.8725	0.725	-4.97142857143	0.218181818182	-2.35350877193
1746	0.873	-10.8083333333	-0.610714285714	-1.21590909091	-0.943859649123
1747	0.8735	-12.25	0.842857142857	0.218181818182	-2.35350877193
1748	0.874	19.4666666667	-0.610714285714	0.218181818182	0.465789473684
1749	0.8745	13.7	-2.06428571429	0.218181818182	-0.943859649123
1750	0.875	-0.716666666667	3.75	1.65227272727	-2.35350877193
1751	0.8755	2.16666666667	-0.610714285714	-1.21590909091	-2.35350877193
1752	0.876	2.16666666667	-0.610714285714	-1.21590909091	-2.35350877193
1753	0.8765	0.725	-0.610714285714	-2.65	8.92368421053
1754	0.877	-0.716666666667	-0.610714285714	-11.2545454545	-0.943859649123
1755	0.8775	0.725	2.29642857143	-2.65	-0.943859649123
1756	0.878	-0.716666666667	0.842857142857	7.38863636364	0.465789473684
1757	0.8785	-0.716666666667	2.29642857143	15.9931818182	0.465789473684
1758	0.879	-2.15833333333	0.842857142857	18.8613636364	0.465789473684
1759	0.8795	-5.04166666667	2.29642857143	11.6909090909	-2.35350877193
1760	0.88	-2.15833333333	-7.87857142857	1.65227272727	0.465789473684
1761	0.8805	-0.716666666667	-10.7857142857	1.65227272727	-0.943859649123
1762	0.881	-3.6	0.842857142857	-5.51818181818	-0.943859649123
1763	0.8815	-2.15833333333	-9.33214285714	0.218181818182	-2.35350877193
1764	0.882	-5.04166666667	-7.87857142857	3.08636363636	-2.35350877193
1765	0.8825	-5.04166666667	-9.33214285714	1.65227272727	-2.35350877193
1766	0.883	-2.15833333333	-4.97142857143	1.65227272727	-2.35350877193
1767	0.8835	0.725	-2.06428571429	0.218181818182	-0.943859649123
1768	0.884	5.05	-2.06428571429	3.08636363636	0.465789473684
1769	0.8845	0.725	-3.51785714286	1.65227272727	1.87543859649
1770	0.885	13.7	-2.06428571429	-1.21590909091	4.69473684211
1771	0.8855	18.025	-2.06428571429	1.65227272727	6.10438596491
1772	0.886	16.5833333333	-2.06428571429	1.65227272727	0.465789473684
1773	0.8865	9.375	-0.610714285714	1.65227272727	-3.76315789474
1774	0.887	-2.15833333333	-2.06428571429	0.218181818182	-7.99210526316
1775	0.8875	-10.8083333333	-2.06428571429	0.218181818182	0.465789473684
1776	0.888	0.725	0.842857142857	-1.21590909091	0.465789473684
1777	0.8885	2.16666666667	0.842857142857	3.08636363636	7.51403508772
1778	0.889	0.725	-2.06428571429	4.52045454545	-0.943859649123
1779	0.8895	3.60833333333	-4.97142857143	0.218181818182	-5.17280701754
1780	0.89	2.16666666667	-6.425	8.82272727273	4.69473684211
1781	0.8905	-2.15833333333	-4.97142857143	0.218181818182	4.69473684211
1782	0.891	0.725	-7.87857142857	-8.38636363636	1.87543859649
1783	0.8915	-2.15833333333	-2.06428571429	-8.38636363636	3.2850877193
1784	0.892	-0.716666666667	-2.06428571429	-9.82045454545	1.87543859649
1785	0.8925	-0.716666666667	2.29642857143	-6.95227272727	3.2850877193
1786	0.893	-2.15833333333	13.925	-1.21590909091	6.10438596491
1787	0.8935	-2.15833333333	3.75	-4.08409090909	6.10438596491
1788	0.894	-3.6	16.8321428571	-4.08409090909	1.87543859649
1789	0.8945	-5.04166666667	-9.33214285714	-2.65	1.87543859649
1790	0.895	-5.04166666667	-6.425	-1.21590909091	4.69473684211
1791	0.8955	-5.04166666667	6.65714285714	-1.21590909091	3.2850877193
1792	0.896	-16.575	2.29642857143	0.218181818182	0.465789473684
1793	0.8965	-12.25	0.842857142857	0.218181818182	3.2850877193
1794	0.897	-6.48333333333	0.842857142857	0.218181818182	6.10438596491
1795	0.8975	10.8166666667	0.842857142857	0.218181818182	0.465789473684
1796	0.898	5.05	2.29642857143	1.65227272727	4.69473684211
1797	0.8985	-2.15833333333	-0.610714285714	1.65227272727	3.2850877193
1798	0.899	5.05	-0.610714285714	0.218181818182	23.0201754386
1799	0.8995	5.05	0.842857142857	0.218181818182	7.51403508772
1800	0.9	3.60833333333	-2.06428571429	0.218181818182	18.7912280702
1801	0.9005	3.60833333333	0.842857142857	0.218181818182	14.5622807018
1802	0.901	2.16666666667	-4.97142857143	1.65227272727	13.1526315789
1803	0.9015	2.16666666667	-0.610714285714	8.82272727273	-0.943859649123
1804	0.902	2.16666666667	5.20357142857	14.5590909091	0.465789473684
1805	0.9025	3.60833333333	-2.06428571429	3.08636363636	-6.58245614035
1806	0.903	2.16666666667	-4.97142857143	0.218181818182	-0.943859649123
1807	0.9035	0.725	0.842857142857	-1.21590909091	1.87543859649
1808	0.904	-0.716666666667	-9.33214285714	3.08636363636	0.465789473684
1809	0.9045	0.725	-2.06428571429	-4.08409090909	3.2850877193
1810	0.905	-0.716666666667	-7.87857142857	4.52045454545	1.87543859649
1811	0.9055	-0.716666666667	2.29642857143	1.65227272727	-2.35350877193
1812	0.906	-0.716666666667	-4.97142857143	4.52045454545	0.465789473684
1813	0.9065	-2.15833333333	-7.87857142857	3.08636363636	1.87543859649
1814	0.907	-0.716666666667	-10.7857142857	5.95454545455	0.465789473684
1815	0.9075	-0.716666666667	3.75	5.95454545455	0.465789473684
1816	0.908	13.7	5.20357142857	3.08636363636	0.465789473684
1817	0.9085	16.5833333333	2.29642857143	4.52045454545	0.465789473684
1818	0.909	15.1416666667	0.842857142857	3.08636363636	0.465789473684
1819	0.9095	15.1416666667	-2.06428571429	4.52045454545	-0.943859649123
1820	0.91	5.05	0.842857142857	1.65227272727	4.69473684211
1821	0.9105	-0.716666666667	5.20357142857	0.218181818182	17.3815789474
1822	0.911	-0.716666666667	2.29642857143	1.65227272727	17.3815789474
1823	0.9115	0.725	0.842857142857	4.52045454545	4.69473684211
1824	0.912	2.16666666667	-2.06428571429	3.08636363636	1.87543859649
1825	0.9125	2.16666666667	2.29642857143	5.95454545455	-5.17280701754
1826	0.913	2.16666666667	3.75	7.38863636364	-12.2210526316
1827	0.9135	3.60833333333	2.29642857143	18.8613636364	-0.943859649123
1828	0.914	5.05	0.842857142857	18.8613636364	0.465789473684
1829	0.9145	5.05	0.842857142857	13.125	-0.943859649123
1830	0.915	3.60833333333	3.75	4.52045454545	-2.35350877193
1831	0.9155	5.05	-0.610714285714	-2.65	-2.35350877193
1832	0.916	2.16666666667	-10.7857142857	3.08636363636	0.465789473684
1833	0.9165	3.60833333333	-4.97142857143	1.65227272727	0.465789473684
1834	0.917	2.16666666667	6.65714285714	1.65227272727	-0.943859649123
1835	0.9175	3.60833333333	11.0178571429	1.65227272727	-3.76315789474
1836	0.918	5.05	18.2857142857	1.65227272727	-3.76315789474
1837	0.9185	2.16666666667	18.2857142857	-1.21590909091	-5.17280701754
1838	0.919	-3.6	9.56428571429	1.65227272727	-5.17280701754
