	Time	Channel 1	Channel 2	Channel 3	Channel 4
0	0.0	-3.35	16.83875	11.5158536585	32.8651162791
1	0.0005	-1.93152173913	6.89	8.6743902439	32.8651162791
2	0.001	-4.76847826087	6.89	8.6743902439	32.8651162791
3	0.0015	-4.76847826087	9.7325	5.83292682927	34.2744186047
4	0.002	-4.76847826087	2.62625	10.0951219512	32.8651162791
5	0.0025	-0.513043478261	1.205	-1.27073170732	35.6837209302
6	0.003	-10.4423913043	5.46875	4.41219512195	34.2744186047
7	0.0035	-3.35	5.46875	1.57073170732	35.6837209302
8	0.004	-3.35	6.89	-2.69146341463	30.0465116279
9	0.0045	-1.93152173913	2.62625	4.41219512195	35.6837209302
10	0.005	-4.76847826087	8.31125	4.41219512195	34.2744186047
11	0.0055	9.41630434783	6.89	5.83292682927	35.6837209302
12	0.006	-1.93152173913	8.31125	21.4609756098	32.8651162791
13	0.0065	-4.76847826087	2.62625	4.41219512195	30.0465116279
14	0.007	-1.93152173913	9.7325	-4.11219512195	30.0465116279
15	0.0075	-4.76847826087	6.89	15.7780487805	31.4558139535
16	0.008	-4.76847826087	-3.05875	1.57073170732	31.4558139535
17	0.0085	-1.93152173913	5.46875	-1.27073170732	31.4558139535
18	0.009	-4.76847826087	8.31125	-2.69146341463	25.8186046512
19	0.0095	-3.35	21.1025	4.41219512195	31.4558139535
20	0.01	-3.35	5.46875	2.99146341463	31.4558139535
21	0.0105	-1.93152173913	18.26	4.41219512195	28.6372093023
22	0.011	-0.513043478261	-4.48	2.99146341463	28.6372093023
23	0.0115	-0.513043478261	-0.21625	1.57073170732	28.6372093023
24	0.012	-4.76847826087	-4.48	5.83292682927	30.0465116279
25	0.0125	-0.513043478261	1.205	2.99146341463	28.6372093023
26	0.013	-1.93152173913	4.0475	2.99146341463	24.4093023256
27	0.0135	-16.1163043478	5.46875	4.41219512195	28.6372093023
28	0.014	0.905434782609	4.0475	7.25365853659	27.2279069767
29	0.0145	12.2532608696	5.46875	5.83292682927	27.2279069767
30	0.015	-11.8608695652	5.46875	4.41219512195	27.2279069767
31	0.0155	7.99782608696	5.46875	5.83292682927	28.6372093023
32	0.016	-4.76847826087	2.62625	4.41219512195	30.0465116279
33	0.0165	15.0902173913	5.46875	5.83292682927	31.4558139535
34	0.017	5.16086956522	6.89	5.83292682927	27.2279069767
35	0.0175	-3.35	6.89	2.99146341463	41.3209302326
36	0.018	-4.76847826087	5.46875	5.83292682927	32.8651162791
37	0.0185	-1.93152173913	4.0475	4.41219512195	30.0465116279
38	0.019	-1.93152173913	5.46875	4.41219512195	41.3209302326
39	0.0195	-1.93152173913	4.0475	8.6743902439	31.4558139535
40	0.02	-4.76847826087	5.46875	-4.11219512195	23.0
41	0.0205	-3.35	4.0475	0.15	27.2279069767
42	0.021	-4.76847826087	2.62625	20.0402439024	27.2279069767
43	0.0215	-1.93152173913	4.0475	0.15	25.8186046512
44	0.022	-1.93152173913	2.62625	20.0402439024	25.8186046512
45	0.0225	-1.93152173913	6.89	22.8817073171	24.4093023256
46	0.023	-4.76847826087	5.46875	4.41219512195	24.4093023256
47	0.0235	-4.76847826087	6.89	8.6743902439	24.4093023256
48	0.024	-1.93152173913	6.89	5.83292682927	27.2279069767
49	0.0245	-3.35	4.0475	5.83292682927	24.4093023256
50	0.025	-3.35	5.46875	7.25365853659	21.5906976744
51	0.0255	-3.35	-3.05875	11.5158536585	23.0
52	0.026	-3.35	11.15375	12.9365853659	21.5906976744
53	0.0265	-3.35	-4.48	12.9365853659	21.5906976744
54	0.027	-0.513043478261	1.205	12.9365853659	25.8186046512
55	0.0275	-4.76847826087	-5.90125	8.6743902439	21.5906976744
56	0.028	-4.76847826087	-1.6375	12.9365853659	23.0
57	0.0285	-3.35	1.205	7.25365853659	23.0
58	0.029	-13.2793478261	4.0475	7.25365853659	24.4093023256
59	0.0295	9.41630434783	4.0475	4.41219512195	21.5906976744
60	0.03	-11.8608695652	5.46875	5.83292682927	24.4093023256
61	0.0305	-14.697826087	5.46875	2.99146341463	21.5906976744
62	0.031	-16.1163043478	5.46875	4.41219512195	23.0
63	0.0315	-13.2793478261	4.0475	5.83292682927	17.3627906977
64	0.032	-10.4423913043	4.0475	4.41219512195	24.4093023256
65	0.0325	-16.1163043478	2.62625	7.25365853659	21.5906976744
66	0.033	-6.18695652174	1.205	5.83292682927	41.3209302326
67	0.0335	-4.76847826087	4.0475	4.41219512195	37.0930232558
68	0.034	-4.76847826087	4.0475	5.83292682927	23.0
69	0.0345	-3.35	2.62625	8.6743902439	41.3209302326
70	0.035	-0.513043478261	1.205	4.41219512195	34.2744186047
71	0.0355	-0.513043478261	1.205	17.1987804878	23.0
72	0.036	0.905434782609	4.0475	-5.53292682927	23.0
73	0.0365	-0.513043478261	2.62625	4.41219512195	35.6837209302
74	0.037	0.905434782609	1.205	-2.69146341463	23.0
75	0.0375	-3.35	1.205	2.99146341463	27.2279069767
76	0.038	-0.513043478261	4.0475	12.9365853659	27.2279069767
77	0.0385	-0.513043478261	-3.05875	1.57073170732	28.6372093023
78	0.039	-1.93152173913	4.0475	4.41219512195	25.8186046512
79	0.0395	-0.513043478261	1.205	-2.69146341463	39.911627907
80	0.04	-0.513043478261	1.205	7.25365853659	25.8186046512
81	0.0405	-0.513043478261	-10.165	1.57073170732	27.2279069767
82	0.041	-0.513043478261	4.0475	-5.53292682927	24.4093023256
83	0.0415	0.905434782609	16.83875	0.15	23.0
84	0.042	0.905434782609	21.1025	2.99146341463	25.8186046512
85	0.0425	0.905434782609	6.89	2.99146341463	24.4093023256
86	0.043	-4.76847826087	-5.90125	2.99146341463	23.0
87	0.0435	-1.93152173913	-0.21625	1.57073170732	20.1813953488
88	0.044	-1.93152173913	-5.90125	2.99146341463	21.5906976744
89	0.0445	-7.60543478261	2.62625	1.57073170732	20.1813953488
90	0.045	-13.2793478261	1.205	2.99146341463	23.0
91	0.0455	-10.4423913043	4.0475	0.15	23.0
92	0.046	-11.8608695652	4.0475	1.57073170732	23.0
93	0.0465	12.2532608696	4.0475	0.15	23.0
94	0.047	-3.35	4.0475	1.57073170732	25.8186046512
95	0.0475	16.5086956522	1.205	1.57073170732	20.1813953488
96	0.048	3.74239130435	2.62625	1.57073170732	23.0
97	0.0485	-1.93152173913	2.62625	1.57073170732	14.5441860465
98	0.049	-1.93152173913	2.62625	0.15	24.4093023256
99	0.0495	-6.18695652174	2.62625	2.99146341463	24.4093023256
100	0.05	-3.35	1.205	4.41219512195	23.0
101	0.0505	-4.76847826087	-0.21625	1.57073170732	34.2744186047
102	0.051	-4.76847826087	1.205	4.41219512195	15.9534883721
103	0.0515	-4.76847826087	2.62625	-6.95365853659	21.5906976744
104	0.052	-4.76847826087	1.205	-2.69146341463	20.1813953488
105	0.0525	-3.35	-0.21625	1.57073170732	23.0
106	0.053	-1.93152173913	5.46875	-4.11219512195	20.1813953488
107	0.0535	-3.35	1.205	7.25365853659	20.1813953488
108	0.054	-3.35	-1.6375	-2.69146341463	21.5906976744
109	0.0545	-3.35	-0.21625	8.6743902439	17.3627906977
110	0.055	-1.93152173913	4.0475	4.41219512195	21.5906976744
111	0.0555	-1.93152173913	-5.90125	7.25365853659	23.0
112	0.056	-1.93152173913	5.46875	-1.27073170732	20.1813953488
113	0.0565	-3.35	-1.6375	7.25365853659	18.7720930233
114	0.057	-0.513043478261	16.83875	8.6743902439	17.3627906977
115	0.0575	-1.93152173913	1.205	8.6743902439	14.5441860465
116	0.058	-4.76847826087	-3.05875	11.5158536585	17.3627906977
117	0.0585	-3.35	-5.90125	8.6743902439	17.3627906977
118	0.059	-3.35	1.205	8.6743902439	20.1813953488
119	0.0595	-4.76847826087	-5.90125	7.25365853659	17.3627906977
120	0.06	-10.4423913043	4.0475	7.25365853659	14.5441860465
121	0.0605	-13.2793478261	2.62625	8.6743902439	18.7720930233
122	0.061	10.8347826087	1.205	7.25365853659	17.3627906977
123	0.0615	-11.8608695652	-0.21625	8.6743902439	17.3627906977
124	0.062	2.32391304348	1.205	11.5158536585	23.0
125	0.0625	-11.8608695652	1.205	11.5158536585	17.3627906977
126	0.063	3.74239130435	1.205	8.6743902439	17.3627906977
127	0.0635	-6.18695652174	2.62625	8.6743902439	15.9534883721
128	0.064	-1.93152173913	1.205	7.25365853659	28.6372093023
129	0.0645	-1.93152173913	2.62625	11.5158536585	13.1348837209
130	0.065	-3.35	1.205	4.41219512195	30.0465116279
131	0.0655	-1.93152173913	2.62625	11.5158536585	7.4976744186
132	0.066	-3.35	2.62625	0.15	17.3627906977
133	0.0665	-4.76847826087	1.205	4.41219512195	7.4976744186
134	0.067	-3.35	1.205	1.57073170732	17.3627906977
135	0.0675	-1.93152173913	-1.6375	12.9365853659	18.7720930233
136	0.068	-4.76847826087	1.205	18.6195121951	17.3627906977
137	0.0685	-6.18695652174	1.205	24.3024390244	17.3627906977
138	0.069	-1.93152173913	1.205	11.5158536585	17.3627906977
139	0.0695	-4.76847826087	4.0475	22.8817073171	20.1813953488
140	0.07	-4.76847826087	-0.21625	5.83292682927	18.7720930233
141	0.0705	-3.35	6.89	15.7780487805	14.5441860465
142	0.071	-4.76847826087	-0.21625	18.6195121951	20.1813953488
143	0.0715	-4.76847826087	-7.3225	4.41219512195	20.1813953488
144	0.072	-3.35	-5.90125	4.41219512195	18.7720930233
145	0.0725	-3.35	-8.74375	4.41219512195	20.1813953488
146	0.073	-0.513043478261	15.4175	4.41219512195	21.5906976744
147	0.0735	-1.93152173913	2.62625	4.41219512195	21.5906976744
148	0.074	-6.18695652174	-5.90125	1.57073170732	18.7720930233
149	0.0745	-1.93152173913	1.205	-4.11219512195	17.3627906977
150	0.075	-0.513043478261	-1.6375	1.57073170732	21.5906976744
151	0.0755	-6.18695652174	1.205	0.15	18.7720930233
152	0.076	-0.513043478261	-4.48	0.15	17.3627906977
153	0.0765	-1.93152173913	1.205	1.57073170732	21.5906976744
154	0.077	5.16086956522	-0.21625	1.57073170732	20.1813953488
155	0.0775	15.0902173913	-0.21625	4.41219512195	17.3627906977
156	0.078	3.74239130435	1.205	1.57073170732	20.1813953488
157	0.0785	15.0902173913	1.205	4.41219512195	18.7720930233
158	0.079	-10.4423913043	-1.6375	4.41219512195	17.3627906977
159	0.0795	-3.35	-0.21625	4.41219512195	8.90697674419
160	0.08	-11.8608695652	-0.21625	4.41219512195	14.5441860465
161	0.0805	-4.76847826087	1.205	7.25365853659	4.67906976744
162	0.081	-4.76847826087	2.62625	4.41219512195	15.9534883721
163	0.0815	-4.76847826087	-0.21625	5.83292682927	8.90697674419
164	0.082	-4.76847826087	-0.21625	-2.69146341463	13.1348837209
165	0.0825	-6.18695652174	1.205	5.83292682927	1.86046511628
166	0.083	-4.76847826087	2.62625	-1.27073170732	8.90697674419
167	0.0835	-7.60543478261	2.62625	18.6195121951	6.08837209302
168	0.084	-9.02391304348	1.205	4.41219512195	13.1348837209
169	0.0845	-7.60543478261	2.62625	-6.95365853659	10.3162790698
170	0.085	-4.76847826087	1.205	8.6743902439	13.1348837209
171	0.0855	-7.60543478261	-3.05875	-4.11219512195	14.5441860465
172	0.086	-9.02391304348	1.205	1.57073170732	14.5441860465
173	0.0865	-4.76847826087	-11.58625	1.57073170732	10.3162790698
174	0.087	-4.76847826087	-1.6375	-2.69146341463	14.5441860465
175	0.0875	-1.93152173913	-10.165	4.41219512195	13.1348837209
176	0.088	-4.76847826087	-1.6375	-2.69146341463	13.1348837209
177	0.0885	-0.513043478261	9.7325	2.99146341463	11.7255813953
178	0.089	-0.513043478261	13.99625	4.41219512195	14.5441860465
179	0.0895	0.905434782609	11.15375	4.41219512195	14.5441860465
180	0.09	-3.35	-8.74375	5.83292682927	13.1348837209
181	0.0905	-4.76847826087	-1.6375	4.41219512195	14.5441860465
182	0.091	-1.93152173913	-5.90125	4.41219512195	14.5441860465
183	0.0915	17.927173913	1.205	4.41219512195	14.5441860465
184	0.092	2.32391304348	-1.6375	4.41219512195	13.1348837209
185	0.0925	15.0902173913	-0.21625	7.25365853659	15.9534883721
186	0.093	-3.35	-1.6375	7.25365853659	15.9534883721
187	0.0935	-10.4423913043	-4.48	8.6743902439	17.3627906977
188	0.094	-10.4423913043	-0.21625	10.0951219512	7.4976744186
189	0.0945	-9.02391304348	1.205	14.3573170732	18.7720930233
190	0.095	-1.93152173913	-1.6375	11.5158536585	18.7720930233
191	0.0955	-4.76847826087	-1.6375	8.6743902439	30.0465116279
192	0.096	-4.76847826087	1.205	7.25365853659	27.2279069767
193	0.0965	-0.513043478261	-3.05875	12.9365853659	15.9534883721
194	0.097	-3.35	-1.6375	7.25365853659	31.4558139535
195	0.0975	-6.18695652174	1.205	14.3573170732	24.4093023256
196	0.098	-4.76847826087	-0.21625	12.9365853659	25.8186046512
197	0.0985	-4.76847826087	-1.6375	-1.27073170732	15.9534883721
198	0.099	-7.60543478261	-4.48	5.83292682927	8.90697674419
199	0.0995	-4.76847826087	-3.05875	0.15	13.1348837209
200	0.1	-4.76847826087	-0.21625	1.57073170732	17.3627906977
201	0.1005	-4.76847826087	-0.21625	17.1987804878	14.5441860465
202	0.101	-4.76847826087	-0.21625	12.9365853659	0.451162790698
203	0.1015	-4.76847826087	-4.48	-4.11219512195	10.3162790698
204	0.102	-6.18695652174	1.205	0.15	14.5441860465
205	0.1025	-6.18695652174	-5.90125	-12.6365853659	11.7255813953
206	0.103	-9.02391304348	2.62625	-5.53292682927	13.1348837209
207	0.1035	-1.93152173913	-15.85	-4.11219512195	10.3162790698
208	0.104	-7.60543478261	-0.21625	-2.69146341463	10.3162790698
209	0.1045	-1.93152173913	13.99625	0.15	8.90697674419
210	0.105	-7.60543478261	-10.165	1.57073170732	8.90697674419
211	0.1055	-6.18695652174	-7.3225	1.57073170732	8.90697674419
212	0.106	-9.02391304348	-11.58625	2.99146341463	10.3162790698
213	0.1065	-4.76847826087	-7.3225	-1.27073170732	14.5441860465
214	0.107	-4.76847826087	5.46875	4.41219512195	8.90697674419
215	0.1075	-3.35	-3.05875	4.41219512195	7.4976744186
216	0.108	-4.76847826087	-8.74375	2.99146341463	8.90697674419
217	0.1085	-11.8608695652	-7.3225	2.99146341463	10.3162790698
218	0.109	-14.697826087	-4.48	2.99146341463	8.90697674419
219	0.1095	-16.1163043478	-5.90125	4.41219512195	7.4976744186
220	0.11	-10.4423913043	-4.48	4.41219512195	8.90697674419
221	0.1105	-9.02391304348	-5.90125	4.41219512195	10.3162790698
222	0.111	-11.8608695652	-4.48	5.83292682927	11.7255813953
223	0.1115	5.16086956522	-7.3225	5.83292682927	7.4976744186
224	0.112	-6.18695652174	-3.05875	4.41219512195	10.3162790698
225	0.1125	-6.18695652174	-5.90125	4.41219512195	7.4976744186
226	0.113	-13.2793478261	-4.48	4.41219512195	13.1348837209
227	0.1135	-6.18695652174	-4.48	2.99146341463	1.86046511628
228	0.114	-6.18695652174	-4.48	-6.95365853659	4.67906976744
229	0.1145	-6.18695652174	-5.90125	0.15	0.451162790698
230	0.115	-6.18695652174	-4.48	-6.95365853659	6.08837209302
231	0.1155	-6.18695652174	-5.90125	4.41219512195	3.26976744186
232	0.116	-7.60543478261	-4.48	-1.27073170732	8.90697674419
233	0.1165	-9.02391304348	-3.05875	21.4609756098	6.08837209302
234	0.117	-6.18695652174	-4.48	-4.11219512195	6.08837209302
235	0.1175	-3.35	-4.48	15.7780487805	3.26976744186
236	0.118	-6.18695652174	-1.6375	5.83292682927	4.67906976744
237	0.1185	-9.02391304348	-7.3225	5.83292682927	4.67906976744
238	0.119	-4.76847826087	-3.05875	0.15	4.67906976744
239	0.1195	-4.76847826087	-7.3225	2.99146341463	3.26976744186
240	0.12	-3.35	5.46875	1.57073170732	4.67906976744
241	0.1205	-4.76847826087	-13.0075	2.99146341463	4.67906976744
242	0.121	-4.76847826087	-0.21625	0.15	1.86046511628
243	0.1215	-10.4423913043	-13.0075	0.15	0.451162790698
244	0.122	-9.02391304348	-10.165	1.57073170732	0.451162790698
245	0.1225	-9.02391304348	-13.0075	2.99146341463	1.86046511628
246	0.123	-4.76847826087	-11.58625	4.41219512195	3.26976744186
247	0.1235	-17.5347826087	-8.74375	7.25365853659	0.451162790698
248	0.124	-4.76847826087	-4.48	2.99146341463	0.451162790698
249	0.1245	-17.5347826087	-8.74375	4.41219512195	-0.958139534884
250	0.125	6.57934782609	-8.74375	7.25365853659	-0.958139534884
251	0.1255	-10.4423913043	-7.3225	4.41219512195	1.86046511628
252	0.126	9.41630434783	-8.74375	4.41219512195	0.451162790698
253	0.1265	-11.8608695652	-5.90125	5.83292682927	1.86046511628
254	0.127	-6.18695652174	-7.3225	4.41219512195	0.451162790698
255	0.1275	-9.02391304348	-5.90125	4.41219512195	15.9534883721
256	0.128	-4.76847826087	-7.3225	5.83292682927	-0.958139534884
257	0.1285	-6.18695652174	-5.90125	7.25365853659	-9.41395348837
258	0.129	-7.60543478261	-8.74375	-4.11219512195	-2.36744186047
259	0.1295	-6.18695652174	-7.3225	4.41219512195	-5.18604651163
260	0.13	-7.60543478261	-5.90125	-5.53292682927	-0.958139534884
261	0.1305	-6.18695652174	-5.90125	20.0402439024	-2.36744186047
262	0.131	-7.60543478261	-8.74375	2.99146341463	-0.958139534884
263	0.1315	-10.4423913043	-4.48	4.41219512195	-3.77674418605
264	0.132	-9.02391304348	-7.3225	4.41219512195	0.451162790698
265	0.1325	-10.4423913043	-7.3225	1.57073170732	-0.958139534884
266	0.133	-9.02391304348	-13.0075	2.99146341463	-0.958139534884
267	0.1335	-9.02391304348	-4.48	15.7780487805	0.451162790698
268	0.134	-7.60543478261	-10.165	25.7231707317	-2.36744186047
269	0.1345	-6.18695652174	-5.90125	8.6743902439	0.451162790698
270	0.135	-7.60543478261	-20.11375	7.25365853659	-0.958139534884
271	0.1355	-9.02391304348	-10.165	7.25365853659	-2.36744186047
272	0.136	-7.60543478261	-17.27125	7.25365853659	0.451162790698
273	0.1365	-10.4423913043	-11.58625	7.25365853659	-3.77674418605
274	0.137	-9.02391304348	-10.165	7.25365853659	-2.36744186047
275	0.1375	-10.4423913043	-14.42875	7.25365853659	-2.36744186047
276	0.138	-10.4423913043	-11.58625	7.25365853659	-0.958139534884
277	0.1385	-10.4423913043	-14.42875	8.6743902439	-2.36744186047
278	0.139	-7.60543478261	-7.3225	4.41219512195	0.451162790698
279	0.1395	-11.8608695652	-5.90125	5.83292682927	0.451162790698
280	0.14	-20.3717391304	-8.74375	5.83292682927	-0.958139534884
281	0.1405	-16.1163043478	-8.74375	2.99146341463	-0.958139534884
282	0.141	-17.5347826087	-7.3225	5.83292682927	-2.36744186047
283	0.1415	10.8347826087	-10.165	2.99146341463	-6.59534883721
284	0.142	-4.76847826087	-8.74375	0.15	-2.36744186047
285	0.1425	-16.1163043478	-7.3225	1.57073170732	-5.18604651163
286	0.143	2.32391304348	-7.3225	1.57073170732	-3.77674418605
287	0.1435	-6.18695652174	-8.74375	2.99146341463	-9.41395348837
288	0.144	-17.5347826087	-8.74375	1.57073170732	-9.41395348837
289	0.1445	-9.02391304348	-7.3225	7.25365853659	-13.6418604651
290	0.145	-9.02391304348	-7.3225	2.99146341463	-16.4604651163
291	0.1455	-9.02391304348	-8.74375	4.41219512195	-0.958139534884
292	0.146	-7.60543478261	-8.74375	8.6743902439	-10.823255814
293	0.1465	-7.60543478261	-8.74375	2.99146341463	-13.6418604651
294	0.147	-7.60543478261	-7.3225	5.83292682927	-8.00465116279
295	0.1475	-9.02391304348	-5.90125	20.0402439024	-8.00465116279
296	0.148	-7.60543478261	-8.74375	18.6195121951	-6.59534883721
297	0.1485	-9.02391304348	-5.90125	15.7780487805	-5.18604651163
298	0.149	-10.4423913043	-7.3225	22.8817073171	-8.00465116279
299	0.1495	-7.60543478261	-5.90125	0.15	-8.00465116279
300	0.15	-7.60543478261	-5.90125	4.41219512195	-9.41395348837
301	0.1505	-9.02391304348	-7.3225	15.7780487805	-6.59534883721
302	0.151	-9.02391304348	-21.535	4.41219512195	-8.00465116279
303	0.1515	-7.60543478261	-11.58625	5.83292682927	-10.823255814
304	0.152	-7.60543478261	-17.27125	1.57073170732	-10.823255814
305	0.1525	-9.02391304348	-20.11375	4.41219512195	-10.823255814
306	0.153	-6.18695652174	-5.90125	7.25365853659	-12.2325581395
307	0.1535	-6.18695652174	-14.42875	8.6743902439	-10.823255814
308	0.154	-1.93152173913	5.46875	5.83292682927	-12.2325581395
309	0.1545	-7.60543478261	-10.165	4.41219512195	-10.823255814
310	0.155	-3.35	-10.165	4.41219512195	-12.2325581395
311	0.1555	-3.35	-7.3225	8.6743902439	-10.823255814
312	0.156	-6.18695652174	-13.0075	7.25365853659	-10.823255814
313	0.1565	-4.76847826087	-13.0075	7.25365853659	-13.6418604651
314	0.157	7.99782608696	-10.165	8.6743902439	-15.0511627907
315	0.1575	-0.513043478261	-8.74375	8.6743902439	-8.00465116279
316	0.158	10.8347826087	-10.165	7.25365853659	-12.2325581395
317	0.1585	5.16086956522	-10.165	7.25365853659	-9.41395348837
318	0.159	3.74239130435	-10.165	8.6743902439	-13.6418604651
319	0.1595	-14.697826087	-8.74375	7.25365853659	-13.6418604651
320	0.16	-11.8608695652	-10.165	7.25365853659	-22.0976744186
321	0.1605	-16.1163043478	-10.165	2.99146341463	-16.4604651163
322	0.161	-7.60543478261	-8.74375	1.57073170732	-10.823255814
323	0.1615	-6.18695652174	-10.165	0.15	-15.0511627907
324	0.162	-9.02391304348	-5.90125	-1.27073170732	0.451162790698
325	0.1625	-6.18695652174	-7.3225	-6.95365853659	-17.8697674419
326	0.163	-6.18695652174	-8.74375	-8.3743902439	-15.0511627907
327	0.1635	-6.18695652174	-5.90125	-4.11219512195	-13.6418604651
328	0.164	-7.60543478261	-5.90125	11.5158536585	-15.0511627907
329	0.1645	-9.02391304348	-5.90125	-5.53292682927	-16.4604651163
330	0.165	-4.76847826087	-5.90125	1.57073170732	-13.6418604651
331	0.1655	-7.60543478261	-10.165	15.7780487805	-12.2325581395
332	0.166	-6.18695652174	-11.58625	-4.11219512195	-15.0511627907
333	0.1665	-7.60543478261	-8.74375	-2.69146341463	-13.6418604651
334	0.167	-7.60543478261	-8.74375	15.7780487805	-13.6418604651
335	0.1675	-9.02391304348	-15.85	2.99146341463	-15.0511627907
336	0.168	-10.4423913043	-5.90125	1.57073170732	-13.6418604651
337	0.1685	-7.60543478261	-18.6925	0.15	-10.823255814
338	0.169	-6.18695652174	-8.74375	0.15	-13.6418604651
339	0.1695	-6.18695652174	5.46875	2.99146341463	-13.6418604651
340	0.17	-10.4423913043	-13.0075	2.99146341463	-13.6418604651
341	0.1705	-3.35	-10.165	2.99146341463	-13.6418604651
342	0.171	-3.35	-7.3225	4.41219512195	-12.2325581395
343	0.1715	-6.18695652174	-8.74375	1.57073170732	-12.2325581395
344	0.172	-3.35	-10.165	0.15	-12.2325581395
345	0.1725	-14.697826087	-7.3225	1.57073170732	-10.823255814
346	0.173	2.32391304348	-7.3225	1.57073170732	-13.6418604651
347	0.1735	12.2532608696	-8.74375	-1.27073170732	-12.2325581395
348	0.174	-4.76847826087	-7.3225	0.15	-12.2325581395
349	0.1745	-10.4423913043	-8.74375	-1.27073170732	-12.2325581395
350	0.175	-13.2793478261	-8.74375	1.57073170732	-16.4604651163
351	0.1755	-4.76847826087	-8.74375	4.41219512195	-20.688372093
352	0.176	-14.697826087	-8.74375	4.41219512195	-9.41395348837
353	0.1765	-3.35	-8.74375	7.25365853659	-17.8697674419
354	0.177	-3.35	-7.3225	5.83292682927	0.451162790698
355	0.1775	-4.76847826087	-7.3225	8.6743902439	-10.823255814
356	0.178	-4.76847826087	-5.90125	11.5158536585	-20.688372093
357	0.1785	-4.76847826087	-5.90125	8.6743902439	-10.823255814
358	0.179	-4.76847826087	-5.90125	11.5158536585	-15.0511627907
359	0.1795	-4.76847826087	-3.05875	5.83292682927	-10.823255814
360	0.18	-3.35	-4.48	20.0402439024	-10.823255814
361	0.1805	-4.76847826087	-5.90125	-1.27073170732	-10.823255814
362	0.181	-4.76847826087	-5.90125	4.41219512195	-10.823255814
363	0.1815	-4.76847826087	-1.6375	7.25365853659	-9.41395348837
364	0.182	-4.76847826087	-4.48	4.41219512195	-10.823255814
365	0.1825	-4.76847826087	-17.27125	7.25365853659	-8.00465116279
366	0.183	-1.93152173913	4.0475	2.99146341463	-13.6418604651
367	0.1835	-1.93152173913	-13.0075	2.99146341463	-12.2325581395
368	0.184	-3.35	-4.48	0.15	-10.823255814
369	0.1845	-4.76847826087	-10.165	0.15	-9.41395348837
370	0.185	-3.35	-7.3225	-8.3743902439	-9.41395348837
371	0.1855	0.905434782609	-7.3225	-2.69146341463	-10.823255814
372	0.186	-6.18695652174	-5.90125	-4.11219512195	-6.59534883721
373	0.1865	2.32391304348	-5.90125	-2.69146341463	-8.00465116279
374	0.187	-1.93152173913	-3.05875	-2.69146341463	-10.823255814
375	0.1875	-16.1163043478	-3.05875	-1.27073170732	-6.59534883721
376	0.188	10.8347826087	-3.05875	-1.27073170732	-9.41395348837
377	0.1885	-7.60543478261	-3.05875	-1.27073170732	-6.59534883721
378	0.189	-10.4423913043	-1.6375	-1.27073170732	-16.4604651163
379	0.1895	-7.60543478261	-1.6375	-1.27073170732	-16.4604651163
380	0.19	-11.8608695652	-1.6375	0.15	-10.823255814
381	0.1905	-1.93152173913	-4.48	1.57073170732	-15.0511627907
382	0.191	-1.93152173913	-1.6375	-2.69146341463	-9.41395348837
383	0.1915	-0.513043478261	-0.21625	2.99146341463	-16.4604651163
384	0.192	-3.35	-0.21625	4.41219512195	-16.4604651163
385	0.1925	-0.513043478261	-0.21625	1.57073170732	-16.4604651163
386	0.193	-1.93152173913	-1.6375	20.0402439024	-10.823255814
387	0.1935	-1.93152173913	1.205	4.41219512195	-6.59534883721
388	0.194	0.905434782609	-3.05875	4.41219512195	-15.0511627907
389	0.1945	-1.93152173913	-1.6375	-2.69146341463	-6.59534883721
390	0.195	-1.93152173913	-3.05875	0.15	-6.59534883721
391	0.1955	-0.513043478261	-1.6375	-1.27073170732	-5.18604651163
392	0.196	-3.35	-3.05875	2.99146341463	-6.59534883721
393	0.1965	-1.93152173913	-0.21625	1.57073170732	-10.823255814
394	0.197	-1.93152173913	2.62625	7.25365853659	-5.18604651163
395	0.1975	0.905434782609	8.31125	5.83292682927	-5.18604651163
396	0.198	-3.35	16.83875	5.83292682927	-8.00465116279
397	0.1985	-1.93152173913	6.89	5.83292682927	-5.18604651163
398	0.199	2.32391304348	-13.0075	5.83292682927	-2.36744186047
399	0.1995	-4.76847826087	-0.21625	5.83292682927	0.451162790698
400	0.2	3.74239130435	2.62625	4.41219512195	-2.36744186047
401	0.2005	-0.513043478261	-0.21625	2.99146341463	-2.36744186047
402	0.201	-10.4423913043	1.205	0.15	-0.958139534884
403	0.2015	0.905434782609	-0.21625	-1.27073170732	-0.958139534884
404	0.202	7.99782608696	1.205	-1.27073170732	-0.958139534884
405	0.2025	-6.18695652174	1.205	-6.95365853659	0.451162790698
406	0.203	17.927173913	2.62625	-8.3743902439	-0.958139534884
407	0.2035	3.74239130435	4.0475	-6.95365853659	0.451162790698
408	0.204	16.5086956522	-0.21625	-4.11219512195	-0.958139534884
409	0.2045	0.905434782609	1.205	-4.11219512195	0.451162790698
410	0.205	-1.93152173913	1.205	-4.11219512195	10.3162790698
411	0.2055	-0.513043478261	1.205	-6.95365853659	0.451162790698
412	0.206	-1.93152173913	2.62625	-2.69146341463	-10.823255814
413	0.2065	-1.93152173913	1.205	-6.95365853659	-9.41395348837
414	0.207	-1.93152173913	2.62625	-11.2158536585	-5.18604651163
415	0.2075	-6.18695652174	4.0475	-5.53292682927	-10.823255814
416	0.208	-4.76847826087	2.62625	2.99146341463	-0.958139534884
417	0.2085	-3.35	4.0475	8.6743902439	0.451162790698
418	0.209	-1.93152173913	4.0475	-6.95365853659	0.451162790698
419	0.2095	-1.93152173913	2.62625	8.6743902439	0.451162790698
420	0.21	-1.93152173913	2.62625	-9.79512195122	0.451162790698
421	0.2105	-1.93152173913	4.0475	-2.69146341463	-0.958139534884
422	0.211	0.905434782609	5.46875	-5.53292682927	0.451162790698
423	0.2115	0.905434782609	2.62625	-4.11219512195	0.451162790698
424	0.212	0.905434782609	16.83875	-2.69146341463	0.451162790698
425	0.2125	7.99782608696	11.15375	-2.69146341463	1.86046511628
426	0.213	7.99782608696	19.68125	0.15	0.451162790698
427	0.2135	3.74239130435	9.7325	2.99146341463	3.26976744186
428	0.214	7.99782608696	21.1025	4.41219512195	1.86046511628
429	0.2145	5.16086956522	-0.21625	2.99146341463	0.451162790698
430	0.215	9.41630434783	5.46875	2.99146341463	0.451162790698
431	0.2155	3.74239130435	5.46875	4.41219512195	0.451162790698
432	0.216	22.1826086957	2.62625	2.99146341463	0.451162790698
433	0.2165	5.16086956522	-0.21625	0.15	1.86046511628
434	0.217	20.7641304348	5.46875	2.99146341463	-0.958139534884
435	0.2175	0.905434782609	4.0475	0.15	1.86046511628
436	0.218	-4.76847826087	4.0475	0.15	-9.41395348837
437	0.2185	-4.76847826087	5.46875	0.15	-8.00465116279
438	0.219	-0.513043478261	-0.21625	0.15	-9.41395348837
439	0.2195	-6.18695652174	2.62625	1.57073170732	4.67906976744
440	0.22	2.32391304348	5.46875	2.99146341463	-8.00465116279
441	0.2205	0.905434782609	4.0475	0.15	-0.958139534884
442	0.221	5.16086956522	5.46875	2.99146341463	-3.77674418605
443	0.2215	0.905434782609	5.46875	0.15	0.451162790698
444	0.222	2.32391304348	5.46875	0.15	20.1813953488
445	0.2225	0.905434782609	5.46875	-1.27073170732	-0.958139534884
446	0.223	3.74239130435	6.89	18.6195121951	1.86046511628
447	0.2235	5.16086956522	4.0475	5.83292682927	1.86046511628
448	0.224	5.16086956522	5.46875	15.7780487805	-6.59534883721
449	0.2245	7.99782608696	2.62625	4.41219512195	1.86046511628
450	0.225	2.32391304348	5.46875	18.6195121951	-3.77674418605
451	0.2255	5.16086956522	4.0475	7.25365853659	1.86046511628
452	0.226	2.32391304348	9.7325	0.15	1.86046511628
453	0.2265	5.16086956522	4.0475	11.5158536585	7.4976744186
454	0.227	5.16086956522	22.52375	0.15	4.67906976744
455	0.2275	5.16086956522	2.62625	-4.11219512195	6.08837209302
456	0.228	5.16086956522	22.52375	1.57073170732	4.67906976744
457	0.2285	3.74239130435	1.205	2.99146341463	6.08837209302
458	0.229	10.8347826087	4.0475	2.99146341463	8.90697674419
459	0.2295	2.32391304348	-0.21625	5.83292682927	6.08837209302
460	0.23	9.41630434783	4.0475	4.41219512195	7.4976744186
461	0.2305	2.32391304348	-1.6375	4.41219512195	8.90697674419
462	0.231	-7.60543478261	6.89	7.25365853659	6.08837209302
463	0.2315	0.905434782609	5.46875	7.25365853659	3.26976744186
464	0.232	20.7641304348	5.46875	5.83292682927	3.26976744186
465	0.2325	9.41630434783	5.46875	5.83292682927	10.3162790698
466	0.233	23.6010869565	2.62625	4.41219512195	7.4976744186
467	0.2335	12.2532608696	2.62625	4.41219512195	8.90697674419
468	0.234	2.32391304348	5.46875	4.41219512195	0.451162790698
469	0.2345	3.74239130435	8.31125	4.41219512195	20.1813953488
470	0.235	3.74239130435	5.46875	2.99146341463	18.7720930233
471	0.2355	5.16086956522	8.31125	8.6743902439	18.7720930233
472	0.236	0.905434782609	5.46875	0.15	18.7720930233
473	0.2365	3.74239130435	5.46875	-14.0573170732	7.4976744186
474	0.237	3.74239130435	6.89	-2.69146341463	6.08837209302
475	0.2375	2.32391304348	6.89	-1.27073170732	23.0
476	0.238	3.74239130435	6.89	-2.69146341463	7.4976744186
477	0.2385	7.99782608696	2.62625	-9.79512195122	4.67906976744
478	0.239	2.32391304348	5.46875	-8.3743902439	4.67906976744
479	0.2395	3.74239130435	4.0475	-2.69146341463	6.08837209302
480	0.24	3.74239130435	4.0475	-6.95365853659	3.26976744186
481	0.2405	5.16086956522	2.62625	11.5158536585	6.08837209302
482	0.241	3.74239130435	4.0475	-8.3743902439	4.67906976744
483	0.2415	2.32391304348	-5.90125	-4.11219512195	4.67906976744
484	0.242	2.32391304348	6.89	-1.27073170732	-0.958139534884
485	0.2425	7.99782608696	21.1025	-1.27073170732	6.08837209302
486	0.243	7.99782608696	13.99625	-4.11219512195	3.26976744186
487	0.2435	7.99782608696	22.52375	-4.11219512195	4.67906976744
488	0.244	6.57934782609	6.89	0.15	6.08837209302
489	0.2445	6.57934782609	4.0475	2.99146341463	4.67906976744
490	0.245	-4.76847826087	5.46875	1.57073170732	4.67906976744
491	0.2455	3.74239130435	5.46875	-1.27073170732	6.08837209302
492	0.246	-7.60543478261	5.46875	1.57073170732	6.08837209302
493	0.2465	15.0902173913	6.89	0.15	8.90697674419
494	0.247	-0.513043478261	6.89	1.57073170732	8.90697674419
495	0.2475	17.927173913	5.46875	-1.27073170732	7.4976744186
496	0.248	-3.35	6.89	0.15	6.08837209302
497	0.2485	12.2532608696	6.89	-1.27073170732	4.67906976744
498	0.249	2.32391304348	6.89	1.57073170732	3.26976744186
499	0.2495	3.74239130435	8.31125	-4.11219512195	21.5906976744
500	0.25	5.16086956522	6.89	0.15	13.1348837209
501	0.2505	2.32391304348	6.89	-2.69146341463	20.1813953488
502	0.251	3.74239130435	6.89	-11.2158536585	3.26976744186
503	0.2515	0.905434782609	6.89	1.57073170732	6.08837209302
504	0.252	5.16086956522	5.46875	-11.2158536585	21.5906976744
505	0.2525	3.74239130435	8.31125	14.3573170732	7.4976744186
506	0.253	5.16086956522	5.46875	-4.11219512195	17.3627906977
507	0.2535	5.16086956522	6.89	0.15	8.90697674419
508	0.254	3.74239130435	11.15375	-4.11219512195	10.3162790698
509	0.2545	3.74239130435	5.46875	-8.3743902439	8.90697674419
510	0.255	2.32391304348	9.7325	-1.27073170732	7.4976744186
511	0.2555	2.32391304348	6.89	-1.27073170732	10.3162790698
512	0.256	5.16086956522	22.52375	-2.69146341463	10.3162790698
513	0.2565	3.74239130435	6.89	0.15	10.3162790698
514	0.257	0.905434782609	-0.21625	-1.27073170732	14.5441860465
515	0.2575	5.16086956522	2.62625	-2.69146341463	8.90697674419
516	0.258	0.905434782609	-1.6375	-4.11219512195	8.90697674419
517	0.2585	7.99782608696	5.46875	0.15	10.3162790698
518	0.259	-3.35	5.46875	-1.27073170732	7.4976744186
519	0.2595	17.927173913	2.62625	-1.27073170732	8.90697674419
520	0.26	-4.76847826087	5.46875	-1.27073170732	7.4976744186
521	0.2605	19.3456521739	5.46875	-1.27073170732	6.08837209302
522	0.261	17.927173913	5.46875	-1.27073170732	7.4976744186
523	0.2615	0.905434782609	6.89	1.57073170732	-0.958139534884
524	0.262	5.16086956522	5.46875	0.15	14.5441860465
525	0.2625	0.905434782609	5.46875	-2.69146341463	10.3162790698
526	0.263	5.16086956522	6.89	-1.27073170732	17.3627906977
527	0.2635	5.16086956522	4.0475	-1.27073170732	0.451162790698
528	0.264	3.74239130435	5.46875	-8.3743902439	6.08837209302
529	0.2645	3.74239130435	4.0475	-1.27073170732	6.08837209302
530	0.265	7.99782608696	6.89	-9.79512195122	7.4976744186
531	0.2655	3.74239130435	8.31125	7.25365853659	8.90697674419
532	0.266	2.32391304348	6.89	21.4609756098	6.08837209302
533	0.2665	0.905434782609	6.89	-2.69146341463	3.26976744186
534	0.267	3.74239130435	13.99625	2.99146341463	8.90697674419
535	0.2675	3.74239130435	6.89	5.83292682927	13.1348837209
536	0.268	5.16086956522	11.15375	4.41219512195	7.4976744186
537	0.2685	3.74239130435	6.89	1.57073170732	8.90697674419
538	0.269	3.74239130435	-3.05875	2.99146341463	7.4976744186
539	0.2695	6.57934782609	22.52375	2.99146341463	6.08837209302
540	0.27	0.905434782609	5.46875	4.41219512195	8.90697674419
541	0.2705	3.74239130435	-1.6375	2.99146341463	8.90697674419
542	0.271	2.32391304348	8.31125	0.15	7.4976744186
543	0.2715	0.905434782609	-1.6375	4.41219512195	6.08837209302
544	0.272	0.905434782609	6.89	1.57073170732	7.4976744186
545	0.2725	-10.4423913043	5.46875	-1.27073170732	8.90697674419
546	0.273	-3.35	6.89	-1.27073170732	10.3162790698
547	0.2735	20.7641304348	4.0475	2.99146341463	7.4976744186
548	0.274	13.6717391304	2.62625	2.99146341463	10.3162790698
549	0.2745	20.7641304348	4.0475	4.41219512195	8.90697674419
550	0.275	-3.35	4.0475	2.99146341463	7.4976744186
551	0.2755	3.74239130435	6.89	-1.27073170732	0.451162790698
552	0.276	-3.35	5.46875	1.57073170732	7.4976744186
553	0.2765	0.905434782609	5.46875	0.15	-3.77674418605
554	0.277	0.905434782609	5.46875	-1.27073170732	3.26976744186
555	0.2775	3.74239130435	5.46875	1.57073170732	0.451162790698
556	0.278	5.16086956522	4.0475	1.57073170732	4.67906976744
557	0.2785	5.16086956522	6.89	7.25365853659	1.86046511628
558	0.279	3.74239130435	4.0475	4.41219512195	23.0
559	0.2795	3.74239130435	5.46875	1.57073170732	10.3162790698
560	0.28	3.74239130435	4.0475	-11.2158536585	7.4976744186
561	0.2805	2.32391304348	5.46875	-1.27073170732	7.4976744186
562	0.281	2.32391304348	5.46875	-8.3743902439	8.90697674419
563	0.2815	3.74239130435	5.46875	-6.95365853659	7.4976744186
564	0.282	0.905434782609	5.46875	1.57073170732	20.1813953488
565	0.2825	0.905434782609	6.89	-2.69146341463	7.4976744186
566	0.283	3.74239130435	-4.48	-4.11219512195	8.90697674419
567	0.2835	0.905434782609	-1.6375	-4.11219512195	8.90697674419
568	0.284	-0.513043478261	-4.48	-4.11219512195	7.4976744186
569	0.2845	5.16086956522	-4.48	-4.11219512195	7.4976744186
570	0.285	3.74239130435	9.7325	-2.69146341463	10.3162790698
571	0.2855	-1.93152173913	-4.48	-1.27073170732	8.90697674419
572	0.286	0.905434782609	1.205	-2.69146341463	8.90697674419
573	0.2865	-10.4423913043	4.0475	-1.27073170732	8.90697674419
574	0.287	-0.513043478261	5.46875	-2.69146341463	6.08837209302
575	0.2875	-9.02391304348	6.89	-1.27073170732	6.08837209302
576	0.288	2.32391304348	8.31125	0.15	6.08837209302
577	0.2885	20.7641304348	4.0475	2.99146341463	7.4976744186
578	0.289	-3.35	5.46875	4.41219512195	0.451162790698
579	0.2895	2.32391304348	5.46875	4.41219512195	-3.77674418605
580	0.29	3.74239130435	4.0475	4.41219512195	7.4976744186
581	0.2905	-1.93152173913	4.0475	7.25365853659	14.5441860465
582	0.291	2.32391304348	6.89	7.25365853659	-0.958139534884
583	0.2915	0.905434782609	4.0475	8.6743902439	18.7720930233
584	0.292	0.905434782609	2.62625	12.9365853659	0.451162790698
585	0.2925	0.905434782609	4.0475	2.99146341463	3.26976744186
586	0.293	2.32391304348	4.0475	-1.27073170732	8.90697674419
587	0.2935	5.16086956522	4.0475	8.6743902439	3.26976744186
588	0.294	5.16086956522	6.89	1.57073170732	6.08837209302
589	0.2945	3.74239130435	6.89	24.3024390244	8.90697674419
590	0.295	3.74239130435	5.46875	12.9365853659	7.4976744186
591	0.2955	2.32391304348	5.46875	-2.69146341463	10.3162790698
592	0.296	2.32391304348	6.89	0.15	20.1813953488
593	0.2965	3.74239130435	5.46875	-9.79512195122	8.90697674419
594	0.297	3.74239130435	-1.6375	-11.2158536585	6.08837209302
595	0.2975	2.32391304348	-3.05875	-9.79512195122	8.90697674419
596	0.298	5.16086956522	-1.6375	-11.2158536585	7.4976744186
597	0.2985	0.905434782609	9.7325	-8.3743902439	7.4976744186
598	0.299	-0.513043478261	1.205	-6.95365853659	7.4976744186
599	0.2995	0.905434782609	-0.21625	-5.53292682927	6.08837209302
600	0.3	0.905434782609	-3.05875	-5.53292682927	4.67906976744
601	0.3005	3.74239130435	-0.21625	-4.11219512195	3.26976744186
602	0.301	-0.513043478261	-3.05875	-2.69146341463	6.08837209302
603	0.3015	-1.93152173913	2.62625	-2.69146341463	7.4976744186
604	0.302	-7.60543478261	5.46875	-2.69146341463	8.90697674419
605	0.3025	2.32391304348	23.945	-2.69146341463	4.67906976744
606	0.303	3.74239130435	4.0475	-4.11219512195	7.4976744186
607	0.3035	20.7641304348	5.46875	-4.11219512195	6.08837209302
608	0.304	16.5086956522	5.46875	-2.69146341463	7.4976744186
609	0.3045	2.32391304348	4.0475	0.15	8.90697674419
610	0.305	0.905434782609	5.46875	-1.27073170732	1.86046511628
611	0.3055	2.32391304348	4.0475	-1.27073170732	17.3627906977
612	0.306	0.905434782609	1.205	0.15	21.5906976744
613	0.3065	0.905434782609	2.62625	4.41219512195	3.26976744186
614	0.307	0.905434782609	6.89	1.57073170732	24.4093023256
615	0.3075	0.905434782609	2.62625	4.41219512195	8.90697674419
616	0.308	3.74239130435	6.89	18.6195121951	7.4976744186
617	0.3085	0.905434782609	5.46875	5.83292682927	10.3162790698
618	0.309	0.905434782609	2.62625	4.41219512195	23.0
619	0.3095	2.32391304348	5.46875	12.9365853659	1.86046511628
620	0.31	0.905434782609	2.62625	0.15	7.4976744186
621	0.3105	0.905434782609	6.89	-6.95365853659	-2.36744186047
622	0.311	2.32391304348	6.89	2.99146341463	8.90697674419
623	0.3115	0.905434782609	4.0475	0.15	10.3162790698
624	0.312	2.32391304348	5.46875	4.41219512195	7.4976744186
625	0.3125	0.905434782609	6.89	-1.27073170732	10.3162790698
626	0.313	0.905434782609	22.52375	1.57073170732	8.90697674419
627	0.3135	3.74239130435	11.15375	0.15	11.7255813953
628	0.314	0.905434782609	22.52375	-2.69146341463	13.1348837209
629	0.3145	0.905434782609	15.4175	-2.69146341463	13.1348837209
630	0.315	3.74239130435	18.26	-2.69146341463	14.5441860465
631	0.3155	2.32391304348	-1.6375	-4.11219512195	13.1348837209
632	0.316	-1.93152173913	4.0475	-1.27073170732	13.1348837209
633	0.3165	0.905434782609	-1.6375	-4.11219512195	10.3162790698
634	0.317	17.927173913	4.0475	-2.69146341463	7.4976744186
635	0.3175	-1.93152173913	4.0475	-4.11219512195	14.5441860465
636	0.318	16.5086956522	4.0475	-2.69146341463	8.90697674419
637	0.3185	16.5086956522	4.0475	-4.11219512195	14.5441860465
638	0.319	10.8347826087	5.46875	-4.11219512195	8.90697674419
639	0.3195	-7.60543478261	2.62625	-2.69146341463	10.3162790698
640	0.32	-1.93152173913	6.89	-2.69146341463	1.86046511628
641	0.3205	-10.4423913043	6.89	-5.53292682927	6.08837209302
642	0.321	0.905434782609	2.62625	-2.69146341463	-0.958139534884
643	0.3215	0.905434782609	4.0475	-2.69146341463	24.4093023256
644	0.322	0.905434782609	2.62625	1.57073170732	8.90697674419
645	0.3225	0.905434782609	5.46875	-1.27073170732	4.67906976744
646	0.323	2.32391304348	5.46875	-1.27073170732	7.4976744186
647	0.3235	2.32391304348	5.46875	-4.11219512195	21.5906976744
648	0.324	2.32391304348	2.62625	7.25365853659	10.3162790698
649	0.3245	0.905434782609	5.46875	-8.3743902439	7.4976744186
650	0.325	2.32391304348	5.46875	11.5158536585	4.67906976744
651	0.3255	2.32391304348	2.62625	-5.53292682927	7.4976744186
652	0.326	-0.513043478261	4.0475	0.15	8.90697674419
653	0.3265	2.32391304348	-5.90125	0.15	4.67906976744
654	0.327	0.905434782609	-4.48	1.57073170732	7.4976744186
655	0.3275	-1.93152173913	-1.6375	2.99146341463	3.26976744186
656	0.328	2.32391304348	22.52375	1.57073170732	8.90697674419
657	0.3285	0.905434782609	8.31125	0.15	10.3162790698
658	0.329	2.32391304348	19.68125	4.41219512195	13.1348837209
659	0.3295	0.905434782609	18.26	2.99146341463	6.08837209302
660	0.33	7.99782608696	1.205	1.57073170732	7.4976744186
661	0.3305	-3.35	19.68125	1.57073170732	7.4976744186
662	0.331	2.32391304348	-0.21625	2.99146341463	6.08837209302
663	0.3315	-13.2793478261	2.62625	0.15	8.90697674419
664	0.332	-1.93152173913	4.0475	4.41219512195	7.4976744186
665	0.3325	15.0902173913	5.46875	4.41219512195	4.67906976744
666	0.333	-11.8608695652	5.46875	7.25365853659	6.08837209302
667	0.3335	-3.35	4.0475	8.6743902439	7.4976744186
668	0.334	0.905434782609	5.46875	14.3573170732	-5.18604651163
669	0.3345	-6.18695652174	4.0475	11.5158536585	8.90697674419
670	0.335	-6.18695652174	2.62625	14.3573170732	4.67906976744
671	0.3355	7.99782608696	4.0475	7.25365853659	4.67906976744
672	0.336	-0.513043478261	4.0475	8.6743902439	21.5906976744
673	0.3365	0.905434782609	4.0475	7.25365853659	7.4976744186
674	0.337	0.905434782609	5.46875	4.41219512195	23.0
675	0.3375	2.32391304348	2.62625	4.41219512195	-2.36744186047
676	0.338	2.32391304348	5.46875	-1.27073170732	4.67906976744
677	0.3385	0.905434782609	5.46875	-2.69146341463	6.08837209302
678	0.339	0.905434782609	8.31125	-1.27073170732	1.86046511628
679	0.3395	0.905434782609	2.62625	-5.53292682927	4.67906976744
680	0.34	2.32391304348	5.46875	-1.27073170732	4.67906976744
681	0.3405	0.905434782609	5.46875	2.99146341463	4.67906976744
682	0.341	0.905434782609	4.0475	-8.3743902439	6.08837209302
683	0.3415	-0.513043478261	4.0475	-9.79512195122	7.4976744186
684	0.342	-0.513043478261	2.62625	-5.53292682927	7.4976744186
685	0.3425	-0.513043478261	2.62625	-14.0573170732	7.4976744186
686	0.343	-0.513043478261	-3.05875	-5.53292682927	7.4976744186
687	0.3435	-1.93152173913	-4.48	-4.11219512195	7.4976744186
688	0.344	0.905434782609	6.89	-5.53292682927	7.4976744186
689	0.3445	0.905434782609	-5.90125	-1.27073170732	4.67906976744
690	0.345	2.32391304348	6.89	-2.69146341463	3.26976744186
691	0.3455	-3.35	-4.48	-1.27073170732	4.67906976744
692	0.346	2.32391304348	-1.6375	-1.27073170732	4.67906976744
693	0.3465	-1.93152173913	-1.6375	-1.27073170732	6.08837209302
694	0.347	0.905434782609	-4.48	-1.27073170732	3.26976744186
695	0.3475	-6.18695652174	2.62625	-1.27073170732	4.67906976744
696	0.348	-11.8608695652	1.205	-2.69146341463	4.67906976744
697	0.3485	-0.513043478261	4.0475	1.57073170732	3.26976744186
698	0.349	2.32391304348	12.575	1.57073170732	4.67906976744
699	0.3495	-11.8608695652	1.205	0.15	3.26976744186
700	0.35	-3.35	2.62625	-1.27073170732	4.67906976744
701	0.3505	16.5086956522	2.62625	-1.27073170732	0.451162790698
702	0.351	-7.60543478261	-3.05875	-2.69146341463	4.67906976744
703	0.3515	-1.93152173913	2.62625	-8.3743902439	4.67906976744
704	0.352	17.927173913	4.0475	-8.3743902439	1.86046511628
705	0.3525	-4.76847826087	1.205	-8.3743902439	-6.59534883721
706	0.353	-1.93152173913	1.205	-8.3743902439	1.86046511628
707	0.3535	-6.18695652174	2.62625	-8.3743902439	18.7720930233
708	0.354	-1.93152173913	-0.21625	-4.11219512195	-0.958139534884
709	0.3545	-3.35	1.205	-14.0573170732	4.67906976744
710	0.355	-0.513043478261	4.0475	-4.11219512195	3.26976744186
711	0.3555	-0.513043478261	1.205	-11.2158536585	1.86046511628
712	0.356	-0.513043478261	5.46875	12.9365853659	7.4976744186
713	0.3565	0.905434782609	5.46875	5.83292682927	7.4976744186
714	0.357	0.905434782609	6.89	-14.0573170732	3.26976744186
715	0.3575	-3.35	2.62625	-4.11219512195	0.451162790698
716	0.358	-0.513043478261	5.46875	-6.95365853659	7.4976744186
717	0.3585	-4.76847826087	6.89	-5.53292682927	7.4976744186
718	0.359	-3.35	4.0475	-8.3743902439	6.08837209302
719	0.3595	-3.35	6.89	-4.11219512195	6.08837209302
720	0.36	-3.35	-1.6375	-2.69146341463	6.08837209302
721	0.3605	-1.93152173913	15.4175	-2.69146341463	6.08837209302
722	0.361	0.905434782609	23.945	-1.27073170732	4.67906976744
723	0.3615	-0.513043478261	9.7325	0.15	4.67906976744
724	0.362	3.74239130435	19.68125	4.41219512195	4.67906976744
725	0.3625	0.905434782609	-0.21625	1.57073170732	6.08837209302
726	0.363	6.57934782609	4.0475	1.57073170732	3.26976744186
727	0.3635	3.74239130435	5.46875	5.83292682927	4.67906976744
728	0.364	-7.60543478261	2.62625	2.99146341463	6.08837209302
729	0.3645	9.41630434783	1.205	5.83292682927	3.26976744186
730	0.365	-10.4423913043	2.62625	7.25365853659	4.67906976744
731	0.3655	-4.76847826087	9.7325	5.83292682927	3.26976744186
732	0.366	20.7641304348	1.205	7.25365853659	4.67906976744
733	0.3665	3.74239130435	1.205	7.25365853659	7.4976744186
734	0.367	19.3456521739	1.205	4.41219512195	3.26976744186
735	0.3675	0.905434782609	1.205	4.41219512195	17.3627906977
736	0.368	-0.513043478261	2.62625	4.41219512195	15.9534883721
737	0.3685	0.905434782609	5.46875	5.83292682927	15.9534883721
738	0.369	-0.513043478261	2.62625	8.6743902439	7.4976744186
739	0.3695	3.74239130435	1.205	2.99146341463	-3.77674418605
740	0.37	2.32391304348	2.62625	-6.95365853659	1.86046511628
741	0.3705	2.32391304348	4.0475	2.99146341463	15.9534883721
742	0.371	-1.93152173913	1.205	-1.27073170732	1.86046511628
743	0.3715	0.905434782609	5.46875	-1.27073170732	0.451162790698
744	0.372	-0.513043478261	1.205	-2.69146341463	3.26976744186
745	0.3725	2.32391304348	1.205	-9.79512195122	1.86046511628
746	0.373	-0.513043478261	1.205	5.83292682927	3.26976744186
747	0.3735	-0.513043478261	-4.48	-2.69146341463	4.67906976744
748	0.374	0.905434782609	-7.3225	-2.69146341463	1.86046511628
749	0.3745	0.905434782609	-10.165	-2.69146341463	3.26976744186
750	0.375	3.74239130435	1.205	0.15	3.26976744186
751	0.3755	0.905434782609	5.46875	-1.27073170732	4.67906976744
752	0.376	-0.513043478261	-4.48	1.57073170732	4.67906976744
753	0.3765	-3.35	1.205	-2.69146341463	1.86046511628
754	0.377	-1.93152173913	-5.90125	2.99146341463	0.451162790698
755	0.3775	2.32391304348	1.205	2.99146341463	0.451162790698
756	0.378	-1.93152173913	-7.3225	2.99146341463	0.451162790698
757	0.3785	9.41630434783	2.62625	4.41219512195	1.86046511628
758	0.379	-10.4423913043	1.205	5.83292682927	0.451162790698
759	0.3795	7.99782608696	2.62625	2.99146341463	0.451162790698
760	0.38	19.3456521739	-0.21625	2.99146341463	-3.77674418605
761	0.3805	-4.76847826087	4.0475	2.99146341463	0.451162790698
762	0.381	-0.513043478261	1.205	1.57073170732	-5.18604651163
763	0.3815	-6.18695652174	2.62625	-1.27073170732	8.90697674419
764	0.382	0.905434782609	1.205	0.15	-2.36744186047
765	0.3825	0.905434782609	1.205	-1.27073170732	14.5441860465
766	0.383	-3.35	1.205	-2.69146341463	13.1348837209
767	0.3835	0.905434782609	1.205	-11.2158536585	-2.36744186047
768	0.384	0.905434782609	2.62625	-11.2158536585	1.86046511628
769	0.3845	0.905434782609	2.62625	11.5158536585	1.86046511628
770	0.385	-0.513043478261	2.62625	-6.95365853659	0.451162790698
771	0.3855	0.905434782609	5.46875	-5.53292682927	3.26976744186
772	0.386	-1.93152173913	1.205	14.3573170732	1.86046511628
773	0.3865	0.905434782609	1.205	-6.95365853659	3.26976744186
774	0.387	0.905434782609	2.62625	-2.69146341463	0.451162790698
775	0.3875	0.905434782609	2.62625	-1.27073170732	1.86046511628
776	0.388	3.74239130435	1.205	-1.27073170732	0.451162790698
777	0.3885	0.905434782609	21.1025	-1.27073170732	0.451162790698
778	0.389	-1.93152173913	13.99625	-1.27073170732	1.86046511628
779	0.3895	2.32391304348	19.68125	-4.11219512195	4.67906976744
780	0.39	0.905434782609	16.83875	0.15	1.86046511628
781	0.3905	2.32391304348	5.46875	-8.3743902439	-0.958139534884
782	0.391	-3.35	-4.48	0.15	0.451162790698
783	0.3915	-0.513043478261	2.62625	-1.27073170732	0.451162790698
784	0.392	-1.93152173913	22.52375	0.15	0.451162790698
785	0.3925	3.74239130435	2.62625	-1.27073170732	0.451162790698
786	0.393	-13.2793478261	2.62625	0.15	1.86046511628
787	0.3935	0.905434782609	2.62625	0.15	-2.36744186047
788	0.394	22.1826086957	1.205	0.15	-0.958139534884
789	0.3945	-6.18695652174	1.205	2.99146341463	-6.59534883721
790	0.395	-1.93152173913	1.205	2.99146341463	-10.823255814
791	0.3955	0.905434782609	1.205	4.41219512195	3.26976744186
792	0.396	-0.513043478261	2.62625	0.15	17.3627906977
793	0.3965	2.32391304348	2.62625	5.83292682927	0.451162790698
794	0.397	2.32391304348	4.0475	-1.27073170732	-10.823255814
795	0.3975	0.905434782609	2.62625	4.41219512195	-6.59534883721
796	0.398	0.905434782609	1.205	-5.53292682927	15.9534883721
797	0.3985	-1.93152173913	2.62625	12.9365853659	0.451162790698
798	0.399	0.905434782609	2.62625	4.41219512195	-5.18604651163
799	0.3995	0.905434782609	2.62625	5.83292682927	3.26976744186
800	0.4	0.905434782609	2.62625	-6.95365853659	18.7720930233
801	0.4005	-1.93152173913	4.0475	-1.27073170732	1.86046511628
802	0.401	-0.513043478261	1.205	-5.53292682927	1.86046511628
803	0.4015	-1.93152173913	4.0475	-4.11219512195	1.86046511628
804	0.402	0.905434782609	-5.90125	-1.27073170732	1.86046511628
805	0.4025	0.905434782609	9.7325	-4.11219512195	1.86046511628
806	0.403	-1.93152173913	-4.48	-2.69146341463	1.86046511628
807	0.4035	0.905434782609	13.99625	-5.53292682927	0.451162790698
808	0.404	-3.35	-3.05875	-2.69146341463	0.451162790698
809	0.4045	-3.35	1.205	-1.27073170732	1.86046511628
810	0.405	-1.93152173913	-4.48	0.15	0.451162790698
811	0.4055	0.905434782609	-1.6375	-1.27073170732	1.86046511628
812	0.406	-9.02391304348	5.46875	0.15	3.26976744186
813	0.4065	-10.4423913043	2.62625	-1.27073170732	0.451162790698
814	0.407	22.1826086957	-0.21625	1.57073170732	1.86046511628
815	0.4075	7.99782608696	2.62625	1.57073170732	3.26976744186
816	0.408	19.3456521739	2.62625	1.57073170732	1.86046511628
817	0.4085	-1.93152173913	2.62625	0.15	0.451162790698
818	0.409	-7.60543478261	4.0475	0.15	8.90697674419
819	0.4095	0.905434782609	2.62625	4.41219512195	-5.18604651163
820	0.41	0.905434782609	2.62625	2.99146341463	13.1348837209
821	0.4105	0.905434782609	2.62625	1.57073170732	-5.18604651163
822	0.411	0.905434782609	2.62625	-4.11219512195	0.451162790698
823	0.4115	-0.513043478261	2.62625	-1.27073170732	-5.18604651163
824	0.412	0.905434782609	2.62625	-4.11219512195	-2.36744186047
825	0.4125	-0.513043478261	2.62625	15.7780487805	-6.59534883721
826	0.413	-1.93152173913	-0.21625	0.15	0.451162790698
827	0.4135	-0.513043478261	4.0475	-1.27073170732	-0.958139534884
828	0.414	0.905434782609	1.205	-2.69146341463	0.451162790698
829	0.4145	-1.93152173913	-4.48	2.99146341463	-0.958139534884
830	0.415	-0.513043478261	-5.90125	1.57073170732	-0.958139534884
831	0.4155	-0.513043478261	-4.48	1.57073170732	0.451162790698
832	0.416	0.905434782609	-1.6375	2.99146341463	-0.958139534884
833	0.4165	-1.93152173913	-0.21625	0.15	-2.36744186047
834	0.417	-1.93152173913	-4.48	2.99146341463	0.451162790698
835	0.4175	-1.93152173913	-4.48	-2.69146341463	0.451162790698
836	0.418	0.905434782609	-4.48	-4.11219512195	0.451162790698
837	0.4185	-0.513043478261	-5.90125	-11.2158536585	-0.958139534884
838	0.419	0.905434782609	2.62625	-9.79512195122	-0.958139534884
839	0.4195	-6.18695652174	-0.21625	-6.95365853659	0.451162790698
840	0.42	-6.18695652174	1.205	-6.95365853659	1.86046511628
841	0.4205	-9.02391304348	1.205	-5.53292682927	-2.36744186047
842	0.421	-4.76847826087	2.62625	-6.95365853659	1.86046511628
843	0.4215	3.74239130435	2.62625	-1.27073170732	0.451162790698
844	0.422	-7.60543478261	2.62625	-2.69146341463	1.86046511628
845	0.4225	-4.76847826087	2.62625	-2.69146341463	-6.59534883721
846	0.423	-1.93152173913	2.62625	-5.53292682927	-0.958139534884
847	0.4235	2.32391304348	-0.21625	-1.27073170732	0.451162790698
848	0.424	-1.93152173913	6.89	-4.11219512195	15.9534883721
849	0.4245	-1.93152173913	5.46875	-1.27073170732	0.451162790698
850	0.425	0.905434782609	2.62625	-5.53292682927	17.3627906977
851	0.4255	-1.93152173913	4.0475	-5.53292682927	-6.59534883721
852	0.426	0.905434782609	5.46875	-12.6365853659	-0.958139534884
853	0.4265	0.905434782609	2.62625	-2.69146341463	3.26976744186
854	0.427	0.905434782609	5.46875	14.3573170732	-0.958139534884
855	0.4275	-0.513043478261	2.62625	-2.69146341463	0.451162790698
856	0.428	-0.513043478261	1.205	-8.3743902439	0.451162790698
857	0.4285	-0.513043478261	-0.21625	-5.53292682927	-0.958139534884
858	0.429	-1.93152173913	-1.6375	-1.27073170732	-2.36744186047
859	0.4295	-0.513043478261	-8.74375	-1.27073170732	0.451162790698
860	0.43	-0.513043478261	1.205	-1.27073170732	0.451162790698
861	0.4305	-0.513043478261	5.46875	-1.27073170732	1.86046511628
862	0.431	-0.513043478261	2.62625	-1.27073170732	0.451162790698
863	0.4315	-4.76847826087	-4.48	1.57073170732	-0.958139534884
864	0.432	0.905434782609	-5.90125	0.15	1.86046511628
865	0.4325	-3.35	-0.21625	0.15	1.86046511628
866	0.433	0.905434782609	-1.6375	0.15	1.86046511628
867	0.4335	2.32391304348	2.62625	1.57073170732	-0.958139534884
868	0.434	-11.8608695652	4.0475	0.15	-2.36744186047
869	0.4345	-1.93152173913	5.46875	2.99146341463	-2.36744186047
870	0.435	20.7641304348	2.62625	2.99146341463	-3.77674418605
871	0.4355	16.5086956522	1.205	4.41219512195	0.451162790698
872	0.436	10.8347826087	1.205	2.99146341463	0.451162790698
873	0.4365	-10.4423913043	4.0475	1.57073170732	0.451162790698
874	0.437	-6.18695652174	4.0475	4.41219512195	-10.823255814
875	0.4375	-10.4423913043	1.205	2.99146341463	-3.77674418605
876	0.438	-0.513043478261	2.62625	4.41219512195	-3.77674418605
877	0.4385	-0.513043478261	2.62625	-2.69146341463	13.1348837209
878	0.439	0.905434782609	4.0475	-2.69146341463	4.67906976744
879	0.4395	0.905434782609	-0.21625	-5.53292682927	-0.958139534884
880	0.44	-0.513043478261	2.62625	-8.3743902439	-5.18604651163
881	0.4405	0.905434782609	5.46875	-11.2158536585	1.86046511628
882	0.441	-0.513043478261	2.62625	5.83292682927	-0.958139534884
883	0.4415	-0.513043478261	2.62625	-12.6365853659	0.451162790698
884	0.442	-0.513043478261	-0.21625	-2.69146341463	0.451162790698
885	0.4425	2.32391304348	1.205	-8.3743902439	0.451162790698
886	0.443	-0.513043478261	2.62625	5.83292682927	0.451162790698
887	0.4435	-1.93152173913	-1.6375	-8.3743902439	0.451162790698
888	0.444	-0.513043478261	2.62625	-4.11219512195	3.26976744186
889	0.4445	-1.93152173913	-8.74375	1.57073170732	1.86046511628
890	0.445	-1.93152173913	5.46875	-1.27073170732	1.86046511628
891	0.4455	0.905434782609	-7.3225	0.15	3.26976744186
892	0.446	0.905434782609	9.7325	1.57073170732	1.86046511628
893	0.4465	-3.35	-4.48	-1.27073170732	1.86046511628
894	0.447	0.905434782609	-0.21625	2.99146341463	0.451162790698
895	0.4475	-1.93152173913	-5.90125	2.99146341463	3.26976744186
896	0.448	0.905434782609	-1.6375	1.57073170732	3.26976744186
897	0.4485	-1.93152173913	-5.90125	0.15	1.86046511628
898	0.449	-4.76847826087	1.205	0.15	3.26976744186
899	0.4495	-13.2793478261	4.0475	2.99146341463	4.67906976744
900	0.45	-3.35	2.62625	1.57073170732	3.26976744186
901	0.4505	16.5086956522	2.62625	0.15	4.67906976744
902	0.451	12.2532608696	1.205	-1.27073170732	3.26976744186
903	0.4515	-6.18695652174	-0.21625	1.57073170732	3.26976744186
904	0.452	12.2532608696	1.205	1.57073170732	1.86046511628
905	0.4525	-0.513043478261	2.62625	-1.27073170732	18.7720930233
906	0.453	0.905434782609	4.0475	0.15	3.26976744186
907	0.4535	-1.93152173913	4.0475	0.15	1.86046511628
908	0.454	0.905434782609	-0.21625	-6.95365853659	3.26976744186
909	0.4545	0.905434782609	-0.21625	4.41219512195	-9.41395348837
910	0.455	0.905434782609	2.62625	0.15	1.86046511628
911	0.4555	-0.513043478261	1.205	-6.95365853659	3.26976744186
912	0.456	0.905434782609	1.205	7.25365853659	1.86046511628
913	0.4565	0.905434782609	5.46875	17.1987804878	0.451162790698
914	0.457	2.32391304348	2.62625	14.3573170732	1.86046511628
915	0.4575	0.905434782609	4.0475	7.25365853659	0.451162790698
916	0.458	2.32391304348	-0.21625	-4.11219512195	0.451162790698
917	0.4585	3.74239130435	2.62625	1.57073170732	4.67906976744
918	0.459	-0.513043478261	6.89	4.41219512195	0.451162790698
919	0.4595	-0.513043478261	2.62625	7.25365853659	0.451162790698
920	0.46	2.32391304348	6.89	7.25365853659	1.86046511628
921	0.4605	0.905434782609	2.62625	7.25365853659	0.451162790698
922	0.461	3.74239130435	16.83875	7.25365853659	0.451162790698
923	0.4615	-1.93152173913	5.46875	2.99146341463	-0.958139534884
924	0.462	0.905434782609	11.15375	2.99146341463	1.86046511628
925	0.4625	-3.35	2.62625	2.99146341463	0.451162790698
926	0.463	0.905434782609	-4.48	1.57073170732	-0.958139534884
927	0.4635	5.16086956522	1.205	-1.27073170732	0.451162790698
928	0.464	0.905434782609	1.205	-2.69146341463	1.86046511628
929	0.4645	-10.4423913043	2.62625	-4.11219512195	3.26976744186
930	0.465	-7.60543478261	4.0475	-4.11219512195	0.451162790698
931	0.4655	-7.60543478261	1.205	-2.69146341463	-0.958139534884
932	0.466	-9.02391304348	4.0475	-4.11219512195	1.86046511628
933	0.4665	9.41630434783	2.62625	-5.53292682927	-0.958139534884
934	0.467	-7.60543478261	5.46875	-1.27073170732	-0.958139534884
935	0.4675	-3.35	1.205	-2.69146341463	-10.823255814
936	0.468	-7.60543478261	1.205	-1.27073170732	1.86046511628
937	0.4685	3.74239130435	2.62625	-1.27073170732	-9.41395348837
938	0.469	-1.93152173913	1.205	-2.69146341463	15.9534883721
939	0.4695	-1.93152173913	2.62625	0.15	-5.18604651163
940	0.47	0.905434782609	1.205	-1.27073170732	20.1813953488
941	0.4705	-1.93152173913	2.62625	0.15	-2.36744186047
942	0.471	-1.93152173913	2.62625	-9.79512195122	1.86046511628
943	0.4715	-0.513043478261	2.62625	-1.27073170732	-3.77674418605
944	0.472	-1.93152173913	1.205	-8.3743902439	-0.958139534884
945	0.4725	-3.35	5.46875	-5.53292682927	1.86046511628
946	0.473	0.905434782609	1.205	-6.95365853659	-2.36744186047
947	0.4735	-0.513043478261	1.205	-6.95365853659	0.451162790698
948	0.474	-1.93152173913	4.0475	7.25365853659	0.451162790698
949	0.4745	-0.513043478261	1.205	-5.53292682927	1.86046511628
950	0.475	2.32391304348	2.62625	-4.11219512195	-6.59534883721
951	0.4755	0.905434782609	4.0475	-1.27073170732	0.451162790698
952	0.476	3.74239130435	4.0475	0.15	0.451162790698
953	0.4765	0.905434782609	4.0475	0.15	-0.958139534884
954	0.477	0.905434782609	5.46875	-1.27073170732	0.451162790698
955	0.4775	0.905434782609	6.89	-2.69146341463	1.86046511628
956	0.478	0.905434782609	16.83875	0.15	0.451162790698
957	0.4785	0.905434782609	-3.05875	-2.69146341463	1.86046511628
958	0.479	0.905434782609	15.4175	-1.27073170732	1.86046511628
959	0.4795	0.905434782609	16.83875	-2.69146341463	0.451162790698
960	0.48	0.905434782609	-0.21625	-2.69146341463	0.451162790698
961	0.4805	2.32391304348	1.205	-2.69146341463	1.86046511628
962	0.481	2.32391304348	1.205	-1.27073170732	0.451162790698
963	0.4815	3.74239130435	1.205	-2.69146341463	3.26976744186
964	0.482	-9.02391304348	1.205	0.15	1.86046511628
965	0.4825	3.74239130435	1.205	0.15	-0.958139534884
966	0.483	-3.35	1.205	-1.27073170732	3.26976744186
967	0.4835	17.927173913	1.205	-2.69146341463	0.451162790698
968	0.484	15.0902173913	1.205	-1.27073170732	-2.36744186047
969	0.4845	-7.60543478261	1.205	0.15	-8.00465116279
970	0.485	-3.35	1.205	0.15	-8.00465116279
971	0.4855	-6.18695652174	1.205	-5.53292682927	1.86046511628
972	0.486	-0.513043478261	2.62625	0.15	7.4976744186
973	0.4865	-0.513043478261	2.62625	1.57073170732	-6.59534883721
974	0.487	2.32391304348	1.205	1.57073170732	4.67906976744
975	0.4875	0.905434782609	-1.6375	0.15	-8.00465116279
976	0.488	-1.93152173913	4.0475	-6.95365853659	-2.36744186047
977	0.4885	-1.93152173913	2.62625	0.15	-6.59534883721
978	0.489	-1.93152173913	2.62625	-8.3743902439	-0.958139534884
979	0.4895	-1.93152173913	4.0475	17.1987804878	0.451162790698
980	0.49	0.905434782609	2.62625	-4.11219512195	-0.958139534884
981	0.4905	-1.93152173913	5.46875	20.0402439024	0.451162790698
982	0.491	-0.513043478261	1.205	12.9365853659	0.451162790698
983	0.4915	-0.513043478261	4.0475	5.83292682927	-0.958139534884
984	0.492	-4.76847826087	2.62625	12.9365853659	1.86046511628
985	0.4925	-3.35	-5.90125	7.25365853659	0.451162790698
986	0.493	-1.93152173913	9.7325	4.41219512195	-0.958139534884
987	0.4935	-3.35	-4.48	7.25365853659	0.451162790698
988	0.494	-1.93152173913	-0.21625	14.3573170732	-2.36744186047
989	0.4945	0.905434782609	22.52375	8.6743902439	-0.958139534884
990	0.495	-3.35	6.89	11.5158536585	0.451162790698
991	0.4955	0.905434782609	2.62625	-1.27073170732	-0.958139534884
992	0.496	0.905434782609	-3.05875	8.6743902439	0.451162790698
993	0.4965	-0.513043478261	18.26	7.25365853659	0.451162790698
994	0.497	-6.18695652174	1.205	7.25365853659	0.451162790698
995	0.4975	-7.60543478261	2.62625	4.41219512195	-0.958139534884
996	0.498	-11.8608695652	2.62625	-1.27073170732	-0.958139534884
997	0.4985	-3.35	1.205	-4.11219512195	0.451162790698
998	0.499	16.5086956522	1.205	-4.11219512195	3.26976744186
999	0.4995	12.2532608696	2.62625	-2.69146341463	0.451162790698
1000	0.5	13.6717391304	1.205	-4.11219512195	0.451162790698
1001	0.5005	-7.60543478261	2.62625	-2.69146341463	0.451162790698
1002	0.501	-3.35	2.62625	1.57073170732	-10.823255814
1003	0.5015	-10.4423913043	1.205	-1.27073170732	3.26976744186
1004	0.502	0.905434782609	1.205	-1.27073170732	0.451162790698
1005	0.5025	0.905434782609	1.205	-4.11219512195	17.3627906977
1006	0.503	-0.513043478261	1.205	2.99146341463	1.86046511628
1007	0.5035	-0.513043478261	2.62625	4.41219512195	-10.823255814
1008	0.504	2.32391304348	1.205	1.57073170732	-6.59534883721
1009	0.5045	-1.93152173913	-0.21625	1.57073170732	-8.00465116279
1010	0.505	0.905434782609	1.205	-2.69146341463	1.86046511628
1011	0.5055	-0.513043478261	1.205	5.83292682927	-2.36744186047
1012	0.506	-1.93152173913	2.62625	-11.2158536585	0.451162790698
1013	0.5065	-1.93152173913	4.0475	2.99146341463	-0.958139534884
1014	0.507	-1.93152173913	-1.6375	-9.79512195122	1.86046511628
1015	0.5075	-0.513043478261	-0.21625	-9.79512195122	0.451162790698
1016	0.508	-3.35	5.46875	12.9365853659	0.451162790698
1017	0.5085	0.905434782609	-1.6375	-8.3743902439	-0.958139534884
1018	0.509	-1.93152173913	2.62625	8.6743902439	-2.36744186047
1019	0.5095	0.905434782609	-4.48	1.57073170732	-0.958139534884
1020	0.51	-1.93152173913	-3.05875	1.57073170732	0.451162790698
1021	0.5105	-0.513043478261	-8.74375	1.57073170732	1.86046511628
1022	0.511	-0.513043478261	2.62625	-6.95365853659	1.86046511628
1023	0.5115	-3.35	6.89	1.57073170732	3.26976744186
1024	0.512	0.905434782609	18.26	0.15	6.08837209302
1025	0.5125	-3.35	-0.21625	1.57073170732	3.26976744186
1026	0.513	-1.93152173913	1.205	-4.11219512195	0.451162790698
1027	0.5135	-4.76847826087	2.62625	-5.53292682927	3.26976744186
1028	0.514	-6.18695652174	-4.48	-5.53292682927	1.86046511628
1029	0.5145	-3.35	-1.6375	-5.53292682927	1.86046511628
1030	0.515	0.905434782609	4.0475	-4.11219512195	1.86046511628
1031	0.5155	-4.76847826087	-7.3225	-2.69146341463	0.451162790698
1032	0.516	-9.02391304348	8.31125	-4.11219512195	-0.958139534884
1033	0.5165	-13.2793478261	1.205	-4.11219512195	3.26976744186
1034	0.517	-6.18695652174	-0.21625	-4.11219512195	0.451162790698
1035	0.5175	15.0902173913	1.205	-5.53292682927	-0.958139534884
1036	0.518	-10.4423913043	-5.90125	-4.11219512195	1.86046511628
1037	0.5185	3.74239130435	-0.21625	-2.69146341463	6.08837209302
1038	0.519	-4.76847826087	1.205	-4.11219512195	1.86046511628
1039	0.5195	16.5086956522	1.205	-1.27073170732	0.451162790698
1040	0.52	0.905434782609	1.205	1.57073170732	-2.36744186047
1041	0.5205	2.32391304348	1.205	0.15	0.451162790698
1042	0.521	-4.76847826087	1.205	1.57073170732	-0.958139534884
1043	0.5215	0.905434782609	-0.21625	2.99146341463	-6.59534883721
1044	0.522	-0.513043478261	1.205	2.99146341463	0.451162790698
1045	0.5225	-0.513043478261	1.205	2.99146341463	-8.00465116279
1046	0.523	0.905434782609	1.205	1.57073170732	6.08837209302
1047	0.5235	-1.93152173913	2.62625	4.41219512195	-6.59534883721
1048	0.524	-1.93152173913	1.205	2.99146341463	0.451162790698
1049	0.5245	0.905434782609	4.0475	14.3573170732	-2.36744186047
1050	0.525	2.32391304348	2.62625	11.5158536585	1.86046511628
1051	0.5255	0.905434782609	1.205	12.9365853659	-2.36744186047
1052	0.526	0.905434782609	1.205	14.3573170732	3.26976744186
1053	0.5265	0.905434782609	4.0475	0.15	0.451162790698
1054	0.527	-0.513043478261	-3.05875	-8.3743902439	1.86046511628
1055	0.5275	0.905434782609	2.62625	-4.11219512195	1.86046511628
1056	0.528	2.32391304348	-10.165	0.15	0.451162790698
1057	0.5285	3.74239130435	-3.05875	-1.27073170732	0.451162790698
1058	0.529	-0.513043478261	1.205	8.6743902439	-0.958139534884
1059	0.5295	3.74239130435	19.68125	0.15	1.86046511628
1060	0.53	0.905434782609	13.99625	0.15	0.451162790698
1061	0.5305	0.905434782609	9.7325	-1.27073170732	3.26976744186
1062	0.531	-0.513043478261	21.1025	2.99146341463	3.26976744186
1063	0.5315	3.74239130435	-3.05875	0.15	0.451162790698
1064	0.532	-1.93152173913	-7.3225	0.15	0.451162790698
1065	0.5325	0.905434782609	16.83875	1.57073170732	-0.958139534884
1066	0.533	5.16086956522	-0.21625	2.99146341463	0.451162790698
1067	0.5335	5.16086956522	-0.21625	-1.27073170732	1.86046511628
1068	0.534	-3.35	18.26	2.99146341463	4.67906976744
1069	0.5345	5.16086956522	2.62625	4.41219512195	0.451162790698
1070	0.535	-11.8608695652	1.205	5.83292682927	1.86046511628
1071	0.5355	3.74239130435	-5.90125	4.41219512195	3.26976744186
1072	0.536	0.905434782609	2.62625	5.83292682927	3.26976744186
1073	0.5365	17.927173913	-1.6375	4.41219512195	1.86046511628
1074	0.537	16.5086956522	-0.21625	4.41219512195	1.86046511628
1075	0.5375	9.41630434783	-3.05875	5.83292682927	1.86046511628
1076	0.538	0.905434782609	2.62625	5.83292682927	-5.18604651163
1077	0.5385	-7.60543478261	1.205	8.6743902439	1.86046511628
1078	0.539	-1.93152173913	-1.6375	8.6743902439	-9.41395348837
1079	0.5395	2.32391304348	2.62625	8.6743902439	-5.18604651163
1080	0.54	-6.18695652174	2.62625	7.25365853659	1.86046511628
1081	0.5405	-0.513043478261	2.62625	11.5158536585	-0.958139534884
1082	0.541	0.905434782609	1.205	11.5158536585	-8.00465116279
1083	0.5415	2.32391304348	4.0475	2.99146341463	-8.00465116279
1084	0.542	-1.93152173913	1.205	5.83292682927	0.451162790698
1085	0.5425	-0.513043478261	-0.21625	5.83292682927	-6.59534883721
1086	0.543	2.32391304348	1.205	2.99146341463	-6.59534883721
1087	0.5435	-0.513043478261	1.205	7.25365853659	0.451162790698
1088	0.544	-1.93152173913	1.205	17.1987804878	0.451162790698
1089	0.5445	2.32391304348	2.62625	18.6195121951	0.451162790698
1090	0.545	-0.513043478261	4.0475	4.41219512195	-0.958139534884
1091	0.5455	-1.93152173913	6.89	14.3573170732	0.451162790698
1092	0.546	0.905434782609	1.205	-8.3743902439	-2.36744186047
1093	0.5465	-0.513043478261	4.0475	-2.69146341463	-2.36744186047
1094	0.547	-1.93152173913	-1.6375	1.57073170732	-0.958139534884
1095	0.5475	-1.93152173913	4.0475	-8.3743902439	-0.958139534884
1096	0.548	-0.513043478261	-10.165	0.15	0.451162790698
1097	0.5485	0.905434782609	-10.165	-1.27073170732	-2.36744186047
1098	0.549	-0.513043478261	5.46875	-4.11219512195	-6.59534883721
1099	0.5495	0.905434782609	18.26	-4.11219512195	-0.958139534884
1100	0.55	2.32391304348	15.4175	1.57073170732	-2.36744186047
1101	0.5505	-1.93152173913	5.46875	1.57073170732	-2.36744186047
1102	0.551	-0.513043478261	18.26	0.15	-0.958139534884
1103	0.5515	-0.513043478261	-5.90125	0.15	-2.36744186047
1104	0.552	2.32391304348	-0.21625	0.15	-2.36744186047
1105	0.5525	-1.93152173913	-10.165	-2.69146341463	-0.958139534884
1106	0.553	0.905434782609	-4.48	-5.53292682927	-0.958139534884
1107	0.5535	-0.513043478261	-1.6375	-8.3743902439	0.451162790698
1108	0.554	2.32391304348	-7.3225	-6.95365853659	-0.958139534884
1109	0.5545	-1.93152173913	1.205	-8.3743902439	1.86046511628
1110	0.555	-13.2793478261	-0.21625	-6.95365853659	0.451162790698
1111	0.5555	0.905434782609	-0.21625	-6.95365853659	-0.958139534884
1112	0.556	3.74239130435	1.205	-4.11219512195	0.451162790698
1113	0.5565	16.5086956522	1.205	-4.11219512195	-0.958139534884
1114	0.557	16.5086956522	1.205	-2.69146341463	-0.958139534884
1115	0.5575	7.99782608696	1.205	-1.27073170732	-0.958139534884
1116	0.558	-1.93152173913	-0.21625	0.15	-10.823255814
1117	0.5585	-6.18695652174	1.205	-1.27073170732	-3.77674418605
1118	0.559	-4.76847826087	1.205	0.15	-9.41395348837
1119	0.5595	-3.35	2.62625	0.15	-6.59534883721
1120	0.56	-7.60543478261	2.62625	-2.69146341463	-2.36744186047
1121	0.5605	-7.60543478261	2.62625	-4.11219512195	-6.59534883721
1122	0.561	-3.35	1.205	0.15	-5.18604651163
1123	0.5615	-0.513043478261	1.205	-6.95365853659	8.90697674419
1124	0.562	-1.93152173913	1.205	0.15	1.86046511628
1125	0.5625	0.905434782609	1.205	-1.27073170732	6.08837209302
1126	0.563	-1.93152173913	1.205	-5.53292682927	6.08837209302
1127	0.5635	-1.93152173913	4.0475	-9.79512195122	0.451162790698
1128	0.564	-0.513043478261	2.62625	1.57073170732	-2.36744186047
1129	0.5645	-3.35	2.62625	-2.69146341463	-0.958139534884
1130	0.565	-0.513043478261	2.62625	5.83292682927	-8.00465116279
1131	0.5655	-0.513043478261	1.205	1.57073170732	17.3627906977
1132	0.566	0.905434782609	1.205	2.99146341463	-2.36744186047
1133	0.5665	0.905434782609	-0.21625	-4.11219512195	3.26976744186
1134	0.567	-0.513043478261	2.62625	-1.27073170732	4.67906976744
1135	0.5675	0.905434782609	4.0475	-2.69146341463	1.86046511628
1136	0.568	0.905434782609	-0.21625	0.15	1.86046511628
1137	0.5685	0.905434782609	-0.21625	0.15	1.86046511628
1138	0.569	-0.513043478261	5.46875	0.15	1.86046511628
1139	0.5695	0.905434782609	1.205	-1.27073170732	0.451162790698
1140	0.57	2.32391304348	6.89	-1.27073170732	0.451162790698
1141	0.5705	2.32391304348	21.1025	-1.27073170732	0.451162790698
1142	0.571	0.905434782609	1.205	0.15	0.451162790698
1143	0.5715	-1.93152173913	1.205	-4.11219512195	0.451162790698
1144	0.572	-1.93152173913	16.83875	-1.27073170732	1.86046511628
1145	0.5725	-1.93152173913	-8.74375	-1.27073170732	3.26976744186
1146	0.573	0.905434782609	-4.48	0.15	0.451162790698
1147	0.5735	-3.35	-5.90125	-2.69146341463	1.86046511628
1148	0.574	-1.93152173913	-5.90125	-1.27073170732	3.26976744186
1149	0.5745	-10.4423913043	1.205	1.57073170732	1.86046511628
1150	0.575	-10.4423913043	1.205	-1.27073170732	3.26976744186
1151	0.5755	-3.35	11.15375	1.57073170732	1.86046511628
1152	0.576	7.99782608696	-0.21625	1.57073170732	4.67906976744
1153	0.5765	16.5086956522	-0.21625	2.99146341463	0.451162790698
1154	0.577	-6.18695652174	-0.21625	5.83292682927	3.26976744186
1155	0.5775	-3.35	1.205	4.41219512195	-9.41395348837
1156	0.578	-10.4423913043	-0.21625	2.99146341463	0.451162790698
1157	0.5785	10.8347826087	1.205	5.83292682927	-5.18604651163
1158	0.579	-6.18695652174	1.205	7.25365853659	3.26976744186
1159	0.5795	2.32391304348	1.205	7.25365853659	-0.958139534884
1160	0.58	0.905434782609	1.205	4.41219512195	0.451162790698
1161	0.5805	0.905434782609	1.205	4.41219512195	1.86046511628
1162	0.581	0.905434782609	2.62625	4.41219512195	20.1813953488
1163	0.5815	-0.513043478261	1.205	-2.69146341463	4.67906976744
1164	0.582	-0.513043478261	1.205	7.25365853659	1.86046511628
1165	0.5825	0.905434782609	-0.21625	-8.3743902439	0.451162790698
1166	0.583	2.32391304348	1.205	-1.27073170732	1.86046511628
1167	0.5835	2.32391304348	2.62625	14.3573170732	1.86046511628
1168	0.584	-0.513043478261	2.62625	-5.53292682927	1.86046511628
1169	0.5845	2.32391304348	2.62625	-6.95365853659	3.26976744186
1170	0.585	-0.513043478261	-0.21625	-2.69146341463	1.86046511628
1171	0.5855	-0.513043478261	2.62625	-6.95365853659	1.86046511628
1172	0.586	0.905434782609	1.205	15.7780487805	-0.958139534884
1173	0.5865	-0.513043478261	-0.21625	-2.69146341463	3.26976744186
1174	0.587	0.905434782609	-13.0075	-1.27073170732	4.67906976744
1175	0.5875	-0.513043478261	-5.90125	-1.27073170732	4.67906976744
1176	0.588	0.905434782609	8.31125	1.57073170732	1.86046511628
1177	0.5885	-0.513043478261	-10.165	0.15	1.86046511628
1178	0.589	0.905434782609	-4.48	-1.27073170732	0.451162790698
1179	0.5895	3.74239130435	-1.6375	1.57073170732	0.451162790698
1180	0.59	0.905434782609	-5.90125	1.57073170732	3.26976744186
1181	0.5905	2.32391304348	-1.6375	2.99146341463	0.451162790698
1182	0.591	-3.35	-8.74375	1.57073170732	0.451162790698
1183	0.5915	-11.8608695652	-0.21625	0.15	3.26976744186
1184	0.592	-11.8608695652	2.62625	1.57073170732	0.451162790698
1185	0.5925	-1.93152173913	1.205	-1.27073170732	0.451162790698
1186	0.593	0.905434782609	1.205	-1.27073170732	4.67906976744
1187	0.5935	-6.18695652174	1.205	1.57073170732	1.86046511628
1188	0.594	-10.4423913043	1.205	0.15	3.26976744186
1189	0.5945	7.99782608696	-1.6375	0.15	1.86046511628
1190	0.595	0.905434782609	1.205	2.99146341463	-0.958139534884
1191	0.5955	-0.513043478261	1.205	0.15	10.3162790698
1192	0.596	-3.35	2.62625	4.41219512195	-0.958139534884
1193	0.5965	-0.513043478261	1.205	0.15	-2.36744186047
1194	0.597	-0.513043478261	2.62625	4.41219512195	-3.77674418605
1195	0.5975	-0.513043478261	1.205	4.41219512195	-5.18604651163
1196	0.598	-0.513043478261	1.205	-4.11219512195	-5.18604651163
1197	0.5985	0.905434782609	1.205	4.41219512195	-2.36744186047
1198	0.599	-1.93152173913	1.205	1.57073170732	-6.59534883721
1199	0.5995	-0.513043478261	2.62625	4.41219512195	1.86046511628
1200	0.6	-0.513043478261	1.205	14.3573170732	1.86046511628
1201	0.6005	-1.93152173913	1.205	12.9365853659	3.26976744186
1202	0.601	-0.513043478261	-0.21625	-2.69146341463	3.26976744186
1203	0.6015	-1.93152173913	4.0475	15.7780487805	-3.77674418605
1204	0.602	-1.93152173913	5.46875	-2.69146341463	-3.77674418605
1205	0.6025	-0.513043478261	4.0475	-1.27073170732	4.67906976744
1206	0.603	-0.513043478261	-1.6375	12.9365853659	1.86046511628
1207	0.6035	-1.93152173913	-3.05875	-1.27073170732	3.26976744186
1208	0.604	-3.35	-11.58625	-1.27073170732	1.86046511628
1209	0.6045	0.905434782609	-7.3225	-1.27073170732	4.67906976744
1210	0.605	-1.93152173913	-3.05875	7.25365853659	3.26976744186
1211	0.6055	0.905434782609	16.83875	0.15	1.86046511628
1212	0.606	0.905434782609	-4.48	0.15	3.26976744186
1213	0.6065	3.74239130435	1.205	0.15	0.451162790698
1214	0.607	-1.93152173913	1.205	-1.27073170732	0.451162790698
1215	0.6075	3.74239130435	-0.21625	0.15	0.451162790698
1216	0.608	-0.513043478261	-0.21625	0.15	3.26976744186
1217	0.6085	2.32391304348	-1.6375	0.15	1.86046511628
1218	0.609	-4.76847826087	-1.6375	-1.27073170732	-0.958139534884
1219	0.6095	16.5086956522	1.205	4.41219512195	0.451162790698
1220	0.61	-3.35	2.62625	1.57073170732	3.26976744186
1221	0.6105	-7.60543478261	2.62625	4.41219512195	4.67906976744
1222	0.611	-4.76847826087	1.205	8.6743902439	-6.59534883721
1223	0.6115	-6.18695652174	2.62625	4.41219512195	0.451162790698
1224	0.612	-7.60543478261	1.205	4.41219512195	-5.18604651163
1225	0.6125	-0.513043478261	1.205	4.41219512195	17.3627906977
1226	0.613	-3.35	2.62625	2.99146341463	6.08837209302
1227	0.6135	-1.93152173913	2.62625	7.25365853659	-5.18604651163
1228	0.614	-1.93152173913	2.62625	5.83292682927	0.451162790698
1229	0.6145	-0.513043478261	1.205	8.6743902439	-5.18604651163
1230	0.615	-0.513043478261	4.0475	-1.27073170732	-0.958139534884
1231	0.6155	-0.513043478261	2.62625	18.6195121951	1.86046511628
1232	0.616	-1.93152173913	5.46875	14.3573170732	0.451162790698
1233	0.6165	-1.93152173913	5.46875	20.0402439024	3.26976744186
1234	0.617	-0.513043478261	-0.21625	5.83292682927	3.26976744186
1235	0.6175	0.905434782609	1.205	18.6195121951	6.08837209302
1236	0.618	-0.513043478261	-0.21625	1.57073170732	3.26976744186
1237	0.6185	-1.93152173913	2.62625	4.41219512195	4.67906976744
1238	0.619	-3.35	2.62625	1.57073170732	-2.36744186047
1239	0.6195	-0.513043478261	-4.48	-4.11219512195	4.67906976744
1240	0.62	-0.513043478261	1.205	-8.3743902439	4.67906976744
1241	0.6205	0.905434782609	9.7325	0.15	3.26976744186
1242	0.621	-0.513043478261	-5.90125	1.57073170732	3.26976744186
1243	0.6215	-0.513043478261	16.83875	0.15	3.26976744186
1244	0.622	-1.93152173913	-1.6375	1.57073170732	1.86046511628
1245	0.6225	0.905434782609	1.205	1.57073170732	4.67906976744
1246	0.623	-11.8608695652	-0.21625	0.15	4.67906976744
1247	0.6235	-3.35	2.62625	4.41219512195	0.451162790698
1248	0.624	-16.1163043478	2.62625	0.15	3.26976744186
1249	0.6245	-0.513043478261	2.62625	1.57073170732	0.451162790698
1250	0.625	17.927173913	1.205	1.57073170732	1.86046511628
1251	0.6255	-6.18695652174	4.0475	0.15	1.86046511628
1252	0.626	-4.76847826087	1.205	2.99146341463	4.67906976744
1253	0.6265	-7.60543478261	1.205	1.57073170732	-2.36744186047
1254	0.627	-4.76847826087	1.205	7.25365853659	0.451162790698
1255	0.6275	-3.35	-0.21625	2.99146341463	8.90697674419
1256	0.628	0.905434782609	2.62625	7.25365853659	21.5906976744
1257	0.6285	-4.76847826087	1.205	4.41219512195	8.90697674419
1258	0.629	-4.76847826087	1.205	5.83292682927	4.67906976744
1259	0.6295	-3.35	1.205	1.57073170732	-2.36744186047
1260	0.63	-3.35	2.62625	-8.3743902439	1.86046511628
1261	0.6305	-3.35	2.62625	-1.27073170732	-0.958139534884
1262	0.631	-3.35	5.46875	4.41219512195	-9.41395348837
1263	0.6315	-3.35	1.205	1.57073170732	-0.958139534884
1264	0.632	-1.93152173913	1.205	0.15	1.86046511628
1265	0.6325	-1.93152173913	2.62625	-4.11219512195	1.86046511628
1266	0.633	0.905434782609	1.205	17.1987804878	0.451162790698
1267	0.6335	-0.513043478261	2.62625	4.41219512195	-0.958139534884
1268	0.634	-4.76847826087	-8.74375	4.41219512195	0.451162790698
1269	0.6345	-0.513043478261	-0.21625	4.41219512195	0.451162790698
1270	0.635	-0.513043478261	-10.165	5.83292682927	0.451162790698
1271	0.6355	-0.513043478261	-0.21625	5.83292682927	-6.59534883721
1272	0.636	0.905434782609	15.4175	4.41219512195	0.451162790698
1273	0.6365	0.905434782609	16.83875	5.83292682927	-0.958139534884
1274	0.637	3.74239130435	11.15375	12.9365853659	-0.958139534884
1275	0.6375	0.905434782609	1.205	8.6743902439	-0.958139534884
1276	0.638	-0.513043478261	5.46875	11.5158536585	0.451162790698
1277	0.6385	0.905434782609	2.62625	12.9365853659	-0.958139534884
1278	0.639	-3.35	-0.21625	14.3573170732	0.451162790698
1279	0.6395	-13.2793478261	2.62625	12.9365853659	1.86046511628
1280	0.64	-6.18695652174	4.0475	10.0951219512	-2.36744186047
1281	0.6405	-11.8608695652	2.62625	7.25365853659	1.86046511628
1282	0.641	15.0902173913	-0.21625	5.83292682927	-6.59534883721
1283	0.6415	-3.35	1.205	1.57073170732	1.86046511628
1284	0.642	-9.02391304348	-0.21625	-1.27073170732	-2.36744186047
1285	0.6425	-4.76847826087	-0.21625	1.57073170732	-12.2325581395
1286	0.643	-7.60543478261	-0.21625	0.15	-0.958139534884
1287	0.6435	-1.93152173913	-1.6375	-1.27073170732	7.4976744186
1288	0.644	-0.513043478261	-1.6375	-1.27073170732	10.3162790698
1289	0.6445	-3.35	-0.21625	-1.27073170732	8.90697674419
1290	0.645	-1.93152173913	1.205	-2.69146341463	0.451162790698
1291	0.6455	-4.76847826087	-0.21625	-1.27073170732	-12.2325581395
1292	0.646	-0.513043478261	2.62625	-6.95365853659	-8.00465116279
1293	0.6465	-0.513043478261	-0.21625	-5.53292682927	-10.823255814
1294	0.647	-0.513043478261	1.205	-6.95365853659	8.90697674419
1295	0.6475	-0.513043478261	1.205	8.6743902439	-3.77674418605
1296	0.648	-1.93152173913	-1.6375	-5.53292682927	-2.36744186047
1297	0.6485	-4.76847826087	-0.21625	7.25365853659	-2.36744186047
1298	0.649	-3.35	-0.21625	-2.69146341463	-10.823255814
1299	0.6495	-1.93152173913	-1.6375	-6.95365853659	-3.77674418605
1300	0.65	-1.93152173913	-5.90125	12.9365853659	-2.36744186047
1301	0.6505	-3.35	-0.21625	-4.11219512195	-2.36744186047
1302	0.651	-0.513043478261	-10.165	-5.53292682927	-5.18604651163
1303	0.6515	0.905434782609	1.205	-9.79512195122	-5.18604651163
1304	0.652	-1.93152173913	-7.3225	-1.27073170732	-5.18604651163
1305	0.6525	-1.93152173913	-13.0075	-2.69146341463	-5.18604651163
1306	0.653	-3.35	2.62625	-1.27073170732	-8.00465116279
1307	0.6535	-6.18695652174	-10.165	-1.27073170732	-5.18604651163
1308	0.654	-3.35	6.89	-4.11219512195	-8.00465116279
1309	0.6545	-3.35	-8.74375	-1.27073170732	-6.59534883721
1310	0.655	-0.513043478261	-3.05875	-8.3743902439	-6.59534883721
1311	0.6555	0.905434782609	-3.05875	0.15	-9.41395348837
1312	0.656	-4.76847826087	-1.6375	-1.27073170732	-6.59534883721
1313	0.6565	-0.513043478261	-3.05875	0.15	-9.41395348837
1314	0.657	-10.4423913043	-4.48	-1.27073170732	-8.00465116279
1315	0.6575	5.16086956522	-1.6375	0.15	-10.823255814
1316	0.658	16.5086956522	-1.6375	-1.27073170732	-8.00465116279
1317	0.6585	-10.4423913043	1.205	2.99146341463	-6.59534883721
1318	0.659	0.905434782609	-1.6375	0.15	-8.00465116279
1319	0.6595	-6.18695652174	-1.6375	4.41219512195	-3.77674418605
1320	0.66	16.5086956522	-1.6375	4.41219512195	-6.59534883721
1321	0.6605	5.16086956522	-3.05875	0.15	-2.36744186047
1322	0.661	-6.18695652174	-1.6375	4.41219512195	-0.958139534884
1323	0.6615	-0.513043478261	-1.6375	0.15	-3.77674418605
1324	0.662	-1.93152173913	-3.05875	1.57073170732	8.90697674419
1325	0.6625	-1.93152173913	-0.21625	4.41219512195	-6.59534883721
1326	0.663	-3.35	-3.05875	1.57073170732	0.451162790698
1327	0.6635	-4.76847826087	-1.6375	7.25365853659	-10.823255814
1328	0.664	-0.513043478261	-5.90125	1.57073170732	-10.823255814
1329	0.6645	-3.35	-4.48	1.57073170732	-13.6418604651
1330	0.665	0.905434782609	-1.6375	1.57073170732	-9.41395348837
1331	0.6655	-3.35	-0.21625	4.41219512195	-0.958139534884
1332	0.666	-1.93152173913	-1.6375	17.1987804878	-2.36744186047
1333	0.6665	-1.93152173913	-1.6375	1.57073170732	14.5441860465
1334	0.667	-0.513043478261	-0.21625	5.83292682927	0.451162790698
1335	0.6675	-1.93152173913	-4.48	-8.3743902439	-0.958139534884
1336	0.668	-3.35	-1.6375	-8.3743902439	-0.958139534884
1337	0.6685	-6.18695652174	-1.6375	-6.95365853659	0.451162790698
1338	0.669	-4.76847826087	-1.6375	-11.2158536585	0.451162790698
1339	0.6695	-4.76847826087	-0.21625	4.41219512195	-5.18604651163
1340	0.67	-7.60543478261	4.0475	-1.27073170732	-2.36744186047
1341	0.6705	-7.60543478261	-1.6375	-1.27073170732	-0.958139534884
1342	0.671	-6.18695652174	-3.05875	-9.79512195122	-0.958139534884
1343	0.6715	-3.35	15.4175	-6.95365853659	0.451162790698
1344	0.672	-4.76847826087	2.62625	-4.11219512195	-2.36744186047
1345	0.6725	-3.35	15.4175	-4.11219512195	-2.36744186047
1346	0.673	-3.35	13.99625	-6.95365853659	-0.958139534884
1347	0.6735	-0.513043478261	-5.90125	-5.53292682927	-0.958139534884
1348	0.674	5.16086956522	-3.05875	-2.69146341463	-0.958139534884
1349	0.6745	0.905434782609	11.15375	-4.11219512195	-0.958139534884
1350	0.675	3.74239130435	-4.48	-1.27073170732	-2.36744186047
1351	0.6755	2.32391304348	-1.6375	2.99146341463	-0.958139534884
1352	0.676	-0.513043478261	-4.48	4.41219512195	0.451162790698
1353	0.6765	19.3456521739	-0.21625	4.41219512195	-0.958139534884
1354	0.677	-1.93152173913	-1.6375	4.41219512195	0.451162790698
1355	0.6775	15.0902173913	-3.05875	7.25365853659	-5.18604651163
1356	0.678	19.3456521739	-4.48	4.41219512195	-2.36744186047
1357	0.6785	-4.76847826087	-1.6375	4.41219512195	-0.958139534884
1358	0.679	-7.60543478261	-1.6375	4.41219512195	0.451162790698
1359	0.6795	-4.76847826087	-1.6375	4.41219512195	-10.823255814
1360	0.68	0.905434782609	-0.21625	1.57073170732	-6.59534883721
1361	0.6805	-1.93152173913	-1.6375	1.57073170732	-13.6418604651
1362	0.681	-1.93152173913	-3.05875	-2.69146341463	-9.41395348837
1363	0.6815	0.905434782609	-1.6375	-11.2158536585	-5.18604651163
1364	0.682	0.905434782609	-0.21625	-8.3743902439	-5.18604651163
1365	0.6825	0.905434782609	1.205	14.3573170732	-2.36744186047
1366	0.683	0.905434782609	1.205	11.5158536585	-0.958139534884
1367	0.6835	2.32391304348	-0.21625	-9.79512195122	-3.77674418605
1368	0.684	-1.93152173913	1.205	12.9365853659	-0.958139534884
1369	0.6845	-0.513043478261	-3.05875	-5.53292682927	0.451162790698
1370	0.685	0.905434782609	-1.6375	1.57073170732	0.451162790698
1371	0.6855	-0.513043478261	-11.58625	1.57073170732	0.451162790698
1372	0.686	0.905434782609	-4.48	0.15	-0.958139534884
1373	0.6865	0.905434782609	-5.90125	1.57073170732	-0.958139534884
1374	0.687	-0.513043478261	9.7325	0.15	1.86046511628
1375	0.6875	2.32391304348	-7.3225	-1.27073170732	0.451162790698
1376	0.688	0.905434782609	-5.90125	0.15	1.86046511628
1377	0.6885	0.905434782609	11.15375	-2.69146341463	-0.958139534884
1378	0.689	2.32391304348	-0.21625	0.15	-0.958139534884
1379	0.6895	2.32391304348	1.205	-1.27073170732	1.86046511628
1380	0.69	0.905434782609	-1.6375	-1.27073170732	0.451162790698
1381	0.6905	-10.4423913043	1.205	-1.27073170732	0.451162790698
1382	0.691	13.6717391304	2.62625	-1.27073170732	-0.958139534884
1383	0.6915	-4.76847826087	1.205	-2.69146341463	0.451162790698
1384	0.692	12.2532608696	1.205	-2.69146341463	-2.36744186047
1385	0.6925	-6.18695652174	1.205	-2.69146341463	-5.18604651163
1386	0.693	-0.513043478261	1.205	-2.69146341463	-9.41395348837
1387	0.6935	-7.60543478261	1.205	-2.69146341463	1.86046511628
1388	0.694	-0.513043478261	2.62625	-2.69146341463	-9.41395348837
1389	0.6945	0.905434782609	1.205	-1.27073170732	1.86046511628
1390	0.695	0.905434782609	2.62625	-4.11219512195	-5.18604651163
1391	0.6955	0.905434782609	2.62625	-11.2158536585	1.86046511628
1392	0.696	3.74239130435	1.205	-1.27073170732	-6.59534883721
1393	0.6965	-0.513043478261	-0.21625	-1.27073170732	-8.00465116279
1394	0.697	-0.513043478261	4.0475	-8.3743902439	15.9534883721
1395	0.6975	0.905434782609	-0.21625	7.25365853659	0.451162790698
1396	0.698	0.905434782609	1.205	15.7780487805	0.451162790698
1397	0.6985	5.16086956522	1.205	-4.11219512195	1.86046511628
1398	0.699	-0.513043478261	5.46875	-2.69146341463	0.451162790698
1399	0.6995	0.905434782609	1.205	-5.53292682927	-0.958139534884
1400	0.7	0.905434782609	2.62625	-1.27073170732	-3.77674418605
1401	0.7005	0.905434782609	2.62625	14.3573170732	-0.958139534884
1402	0.701	0.905434782609	15.4175	-1.27073170732	-0.958139534884
1403	0.7015	-0.513043478261	-4.48	-8.3743902439	-2.36744186047
1404	0.702	-0.513043478261	-4.48	-4.11219512195	-0.958139534884
1405	0.7025	0.905434782609	19.68125	0.15	0.451162790698
1406	0.703	0.905434782609	1.205	1.57073170732	-2.36744186047
1407	0.7035	5.16086956522	19.68125	-1.27073170732	-2.36744186047
1408	0.704	0.905434782609	2.62625	1.57073170732	-0.958139534884
1409	0.7045	3.74239130435	-0.21625	0.15	0.451162790698
1410	0.705	-0.513043478261	-0.21625	1.57073170732	0.451162790698
1411	0.7055	-10.4423913043	4.0475	1.57073170732	1.86046511628
1412	0.706	-3.35	-0.21625	2.99146341463	1.86046511628
1413	0.7065	17.927173913	1.205	1.57073170732	0.451162790698
1414	0.707	17.927173913	1.205	4.41219512195	0.451162790698
1415	0.7075	-0.513043478261	1.205	1.57073170732	3.26976744186
1416	0.708	22.1826086957	1.205	5.83292682927	-2.36744186047
1417	0.7085	7.99782608696	-0.21625	2.99146341463	4.67906976744
1418	0.709	-0.513043478261	2.62625	1.57073170732	17.3627906977
1419	0.7095	0.905434782609	1.205	1.57073170732	1.86046511628
1420	0.71	0.905434782609	1.205	1.57073170732	18.7720930233
1421	0.7105	0.905434782609	1.205	2.99146341463	0.451162790698
1422	0.711	2.32391304348	-0.21625	-4.11219512195	0.451162790698
1423	0.7115	-0.513043478261	1.205	-6.95365853659	-3.77674418605
1424	0.712	-1.93152173913	1.205	-4.11219512195	0.451162790698
1425	0.7125	0.905434782609	1.205	4.41219512195	13.1348837209
1426	0.713	-0.513043478261	1.205	18.6195121951	-9.41395348837
1427	0.7135	-0.513043478261	1.205	5.83292682927	0.451162790698
1428	0.714	-0.513043478261	1.205	-6.95365853659	-6.59534883721
1429	0.7145	0.905434782609	5.46875	-4.11219512195	3.26976744186
1430	0.715	2.32391304348	2.62625	-4.11219512195	0.451162790698
1431	0.7155	2.32391304348	1.205	-11.2158536585	0.451162790698
1432	0.716	0.905434782609	4.0475	-6.95365853659	-0.958139534884
1433	0.7165	0.905434782609	-3.05875	-5.53292682927	0.451162790698
1434	0.717	0.905434782609	18.26	-6.95365853659	0.451162790698
1435	0.7175	-0.513043478261	19.68125	-5.53292682927	0.451162790698
1436	0.718	2.32391304348	9.7325	-4.11219512195	0.451162790698
1437	0.7185	0.905434782609	19.68125	-2.69146341463	0.451162790698
1438	0.719	-3.35	-0.21625	-1.27073170732	0.451162790698
1439	0.7195	0.905434782609	-1.6375	-5.53292682927	4.67906976744
1440	0.72	-0.513043478261	-5.90125	-6.95365853659	0.451162790698
1441	0.7205	-1.93152173913	1.205	-2.69146341463	0.451162790698
1442	0.721	-4.76847826087	2.62625	-5.53292682927	-0.958139534884
1443	0.7215	-11.8608695652	-1.6375	-4.11219512195	0.451162790698
1444	0.722	-1.93152173913	1.205	-6.95365853659	-0.958139534884
1445	0.7225	-11.8608695652	-5.90125	-6.95365853659	-0.958139534884
1446	0.723	7.99782608696	-0.21625	-5.53292682927	-0.958139534884
1447	0.7235	-7.60543478261	2.62625	-4.11219512195	-0.958139534884
1448	0.724	0.905434782609	1.205	-6.95365853659	3.26976744186
1449	0.7245	-0.513043478261	1.205	-2.69146341463	3.26976744186
1450	0.725	0.905434782609	1.205	-4.11219512195	0.451162790698
1451	0.7255	0.905434782609	1.205	-1.27073170732	-0.958139534884
1452	0.726	0.905434782609	-0.21625	-4.11219512195	-6.59534883721
1453	0.7265	0.905434782609	2.62625	-4.11219512195	-10.823255814
1454	0.727	2.32391304348	-0.21625	-8.3743902439	-5.18604651163
1455	0.7275	0.905434782609	4.0475	12.9365853659	-0.958139534884
1456	0.728	-0.513043478261	1.205	-1.27073170732	-0.958139534884
1457	0.7285	0.905434782609	2.62625	11.5158536585	-2.36744186047
1458	0.729	0.905434782609	-0.21625	-8.3743902439	-0.958139534884
1459	0.7295	0.905434782609	1.205	-1.27073170732	-5.18604651163
1460	0.73	-0.513043478261	4.0475	-2.69146341463	1.86046511628
1461	0.7305	-0.513043478261	1.205	-8.3743902439	0.451162790698
1462	0.731	2.32391304348	-7.3225	0.15	0.451162790698
1463	0.7315	0.905434782609	-1.6375	0.15	-0.958139534884
1464	0.732	0.905434782609	-5.90125	0.15	1.86046511628
1465	0.7325	-0.513043478261	-4.48	0.15	0.451162790698
1466	0.733	0.905434782609	-3.05875	0.15	0.451162790698
1467	0.7335	-3.35	-7.3225	-1.27073170732	0.451162790698
1468	0.734	3.74239130435	-0.21625	1.57073170732	-2.36744186047
1469	0.7345	-0.513043478261	-4.48	2.99146341463	0.451162790698
1470	0.735	-13.2793478261	2.62625	4.41219512195	0.451162790698
1471	0.7355	9.41630434783	-0.21625	4.41219512195	-3.77674418605
1472	0.736	-10.4423913043	1.205	4.41219512195	1.86046511628
1473	0.7365	10.8347826087	1.205	2.99146341463	-0.958139534884
1474	0.737	-7.60543478261	2.62625	5.83292682927	-5.18604651163
1475	0.7375	-3.35	1.205	5.83292682927	-5.18604651163
1476	0.738	-6.18695652174	1.205	2.99146341463	-10.823255814
1477	0.7385	0.905434782609	-0.21625	5.83292682927	-6.59534883721
1478	0.739	-6.18695652174	1.205	4.41219512195	0.451162790698
1479	0.7395	-0.513043478261	1.205	2.99146341463	10.3162790698
1480	0.74	-3.35	2.62625	8.6743902439	-5.18604651163
1481	0.7405	-0.513043478261	1.205	4.41219512195	-2.36744186047
1482	0.741	-1.93152173913	1.205	-8.3743902439	-0.958139534884
1483	0.7415	3.74239130435	5.46875	2.99146341463	3.26976744186
1484	0.742	-0.513043478261	1.205	-11.2158536585	17.3627906977
1485	0.7425	-0.513043478261	1.205	-1.27073170732	6.08837209302
1486	0.743	0.905434782609	2.62625	-11.2158536585	1.86046511628
1487	0.7435	-0.513043478261	1.205	-4.11219512195	3.26976744186
1488	0.744	-0.513043478261	2.62625	-12.6365853659	-6.59534883721
1489	0.7445	-0.513043478261	5.46875	-4.11219512195	3.26976744186
1490	0.745	0.905434782609	1.205	0.15	1.86046511628
1491	0.7455	-0.513043478261	4.0475	0.15	1.86046511628
1492	0.746	-3.35	-1.6375	-1.27073170732	3.26976744186
1493	0.7465	-1.93152173913	4.0475	0.15	3.26976744186
1494	0.747	0.905434782609	13.99625	-1.27073170732	1.86046511628
1495	0.7475	2.32391304348	-3.05875	0.15	-0.958139534884
1496	0.748	-3.35	-4.48	1.57073170732	-0.958139534884
1497	0.7485	0.905434782609	-4.48	2.99146341463	1.86046511628
1498	0.749	-0.513043478261	-10.165	0.15	0.451162790698
1499	0.7495	3.74239130435	-0.21625	-4.11219512195	-0.958139534884
1500	0.75	-0.513043478261	-1.6375	2.99146341463	-0.958139534884
1501	0.7505	-13.2793478261	1.205	1.57073170732	0.451162790698
1502	0.751	12.2532608696	1.205	0.15	-0.958139534884
1503	0.7515	17.927173913	-0.21625	2.99146341463	3.26976744186
1504	0.752	12.2532608696	-0.21625	1.57073170732	0.451162790698
1505	0.7525	17.927173913	1.205	1.57073170732	1.86046511628
1506	0.753	13.6717391304	1.205	-1.27073170732	0.451162790698
1507	0.7535	-7.60543478261	1.205	-4.11219512195	3.26976744186
1508	0.754	-9.02391304348	-0.21625	1.57073170732	1.86046511628
1509	0.7545	-1.93152173913	2.62625	0.15	17.3627906977
1510	0.755	-0.513043478261	2.62625	-4.11219512195	7.4976744186
1511	0.7555	-0.513043478261	-0.21625	-1.27073170732	15.9534883721
1512	0.756	-1.93152173913	-0.21625	-4.11219512195	10.3162790698
1513	0.7565	-0.513043478261	1.205	-1.27073170732	4.67906976744
1514	0.757	-0.513043478261	1.205	-6.95365853659	-5.18604651163
1515	0.7575	-0.513043478261	1.205	-11.2158536585	-0.958139534884
1516	0.758	-1.93152173913	1.205	-8.3743902439	-0.958139534884
1517	0.7585	-1.93152173913	-0.21625	-8.3743902439	-0.958139534884
1518	0.759	2.32391304348	1.205	-2.69146341463	0.451162790698
1519	0.7595	-0.513043478261	1.205	-8.3743902439	1.86046511628
1520	0.76	-1.93152173913	-1.6375	-9.79512195122	15.9534883721
1521	0.7605	-1.93152173913	1.205	-2.69146341463	4.67906976744
1522	0.761	0.905434782609	4.0475	18.6195121951	-3.77674418605
1523	0.7615	0.905434782609	-1.6375	2.99146341463	3.26976744186
1524	0.762	0.905434782609	-8.74375	0.15	1.86046511628
1525	0.7625	2.32391304348	5.46875	2.99146341463	1.86046511628
1526	0.763	-0.513043478261	-8.74375	0.15	3.26976744186
1527	0.7635	-0.513043478261	13.99625	2.99146341463	3.26976744186
1528	0.764	-1.93152173913	-4.48	1.57073170732	4.67906976744
1529	0.7645	0.905434782609	-0.21625	0.15	1.86046511628
1530	0.765	-0.513043478261	-5.90125	-1.27073170732	3.26976744186
1531	0.7655	7.99782608696	-0.21625	1.57073170732	3.26976744186
1532	0.766	-0.513043478261	-5.90125	1.57073170732	4.67906976744
1533	0.7665	-13.2793478261	-1.6375	2.99146341463	4.67906976744
1534	0.767	-1.93152173913	1.205	2.99146341463	4.67906976744
1535	0.7675	-13.2793478261	1.205	0.15	6.08837209302
1536	0.768	7.99782608696	1.205	-1.27073170732	1.86046511628
1537	0.7685	-10.4423913043	1.205	2.99146341463	-2.36744186047
1538	0.769	-4.76847826087	-1.6375	5.83292682927	-3.77674418605
1539	0.7695	-10.4423913043	-1.6375	4.41219512195	-5.18604651163
1540	0.77	-1.93152173913	-0.21625	7.25365853659	-6.59534883721
1541	0.7705	-7.60543478261	-0.21625	4.41219512195	0.451162790698
1542	0.771	-1.93152173913	-1.6375	2.99146341463	20.1813953488
1543	0.7715	-3.35	-4.48	7.25365853659	10.3162790698
1544	0.772	-1.93152173913	-3.05875	4.41219512195	3.26976744186
1545	0.7725	-4.76847826087	-1.6375	1.57073170732	0.451162790698
1546	0.773	-4.76847826087	-4.48	-6.95365853659	3.26976744186
1547	0.7735	-6.18695652174	-3.05875	0.15	13.1348837209
1548	0.774	-6.18695652174	-4.48	-4.11219512195	1.86046511628
1549	0.7745	-6.18695652174	-5.90125	5.83292682927	3.26976744186
1550	0.775	-4.76847826087	-1.6375	-2.69146341463	1.86046511628
1551	0.7755	-7.60543478261	-7.3225	-1.27073170732	1.86046511628
1552	0.776	-7.60543478261	-5.90125	5.83292682927	1.86046511628
1553	0.7765	-7.60543478261	-17.27125	5.83292682927	-5.18604651163
1554	0.777	-7.60543478261	-10.165	7.25365853659	-9.41395348837
1555	0.7775	-10.4423913043	-20.11375	7.25365853659	-9.41395348837
1556	0.778	-10.4423913043	-11.58625	7.25365853659	-13.6418604651
1557	0.7785	-9.02391304348	2.62625	7.25365853659	-17.8697674419
1558	0.779	-11.8608695652	-8.74375	7.25365853659	-23.5069767442
1559	0.7795	-7.60543478261	2.62625	4.41219512195	-26.3255813953
1560	0.78	-10.4423913043	-18.6925	7.25365853659	-34.7813953488
1561	0.7805	-13.2793478261	-15.85	4.41219512195	-37.6
1562	0.781	-11.8608695652	-18.6925	4.41219512195	-41.8279069767
1563	0.7815	-10.4423913043	-15.85	4.41219512195	-44.6465116279
1564	0.782	-0.513043478261	-18.6925	7.25365853659	-53.1023255814
1565	0.7825	-0.513043478261	-15.85	7.25365853659	-55.9209302326
1566	0.783	-4.76847826087	-18.6925	11.5158536585	-64.376744186
1567	0.7835	-23.2086956522	-21.535	11.5158536585	-71.423255814
1568	0.784	-18.9532608696	-22.95625	15.7780487805	-91.1534883721
1569	0.7845	-17.5347826087	-22.95625	12.9365853659	-86.9255813953
1570	0.785	-16.1163043478	-22.95625	12.9365853659	-103.837209302
1571	0.7855	-17.5347826087	-27.22	11.5158536585	-105.246511628
1572	0.786	-18.9532608696	-27.22	12.9365853659	-123.56744186
1573	0.7865	-16.1163043478	-31.48375	7.25365853659	-137.660465116
1574	0.787	-16.1163043478	-32.905	8.6743902439	-144.706976744
1575	0.7875	-16.1163043478	-35.7475	-2.69146341463	-161.618604651
1576	0.788	-16.1163043478	-38.59	5.83292682927	-174.302325581
1577	0.7885	-14.697826087	-38.59	24.3024390244	-186.986046512
1578	0.789	-16.1163043478	-44.275	7.25365853659	-196.851162791
1579	0.7895	-17.5347826087	-44.275	17.1987804878	-208.125581395
1580	0.79	-14.697826087	-41.4325	1.57073170732	-219.4
1581	0.7905	-11.8608695652	-48.53875	0.15	-226.446511628
1582	0.791	-11.8608695652	-42.85375	14.3573170732	-239.130232558
1583	0.7915	-11.8608695652	-48.53875	0.15	-239.130232558
1584	0.792	-10.4423913043	-32.905	-1.27073170732	-246.176744186
1585	0.7925	-10.4423913043	-38.59	-4.11219512195	-247.586046512
1586	0.793	-9.02391304348	-55.645	-6.95365853659	-247.586046512
1587	0.7935	-10.4423913043	-52.8025	-11.2158536585	-247.586046512
1588	0.794	-10.4423913043	-40.01125	-14.0573170732	-246.176744186
1589	0.7945	-1.93152173913	-49.96	-11.2158536585	-243.358139535
1590	0.795	-16.1163043478	-47.1175	-12.6365853659	-240.539534884
1591	0.7955	-4.76847826087	-44.275	-12.6365853659	-234.902325581
1592	0.796	-11.8608695652	-41.4325	-9.79512195122	-229.265116279
1593	0.7965	-10.4423913043	-42.85375	-8.3743902439	-220.809302326
1594	0.797	3.74239130435	-40.01125	-11.2158536585	-216.581395349
1595	0.7975	-6.18695652174	-40.01125	-12.6365853659	-208.125581395
1596	0.798	2.32391304348	-40.01125	-12.6365853659	-205.306976744
1597	0.7985	-0.513043478261	-38.59	-14.0573170732	-185.576744186
1598	0.799	10.8347826087	-34.32625	-15.4780487805	-174.302325581
1599	0.7995	10.8347826087	-32.905	-14.0573170732	-161.618604651
1600	0.8	15.0902173913	-32.905	-16.8987804878	-136.251162791
1601	0.8005	12.2532608696	-30.0625	-15.4780487805	-146.11627907
1602	0.801	15.0902173913	-28.64125	-18.3195121951	-134.841860465
1603	0.8015	17.927173913	-27.22	-28.2646341463	-126.386046512
1604	0.802	16.5086956522	-22.95625	-25.4231707317	-119.339534884
1605	0.8025	20.7641304348	-22.95625	-9.79512195122	-106.655813953
1606	0.803	19.3456521739	-21.535	-26.843902439	-102.427906977
1607	0.8035	22.1826086957	-20.11375	-12.6365853659	-96.7906976744
1608	0.804	19.3456521739	-20.11375	-22.5817073171	-99.6093023256
1609	0.8045	20.7641304348	-20.11375	-14.0573170732	-93.9720930233
1610	0.805	23.6010869565	-17.27125	-26.843902439	-93.9720930233
1611	0.8055	23.6010869565	-14.42875	-25.4231707317	-84.1069767442
1612	0.806	26.4380434783	-17.27125	-24.0024390244	-78.4697674419
1613	0.8065	23.6010869565	-11.58625	-22.5817073171	-75.6511627907
1614	0.807	26.4380434783	-21.535	-18.3195121951	-70.0139534884
1615	0.8075	25.0195652174	-8.74375	-21.1609756098	-62.9674418605
1616	0.808	26.4380434783	-18.6925	-24.0024390244	-57.3302325581
1617	0.8085	23.6010869565	-13.0075	-22.5817073171	-48.8744186047
1618	0.809	23.6010869565	-18.6925	-22.5817073171	-46.0558139535
1619	0.8095	19.3456521739	-15.85	-24.0024390244	-41.8279069767
1620	0.81	20.7641304348	-8.74375	-26.843902439	-39.0093023256
1621	0.8105	26.4380434783	-10.165	-24.0024390244	-39.0093023256
1622	0.811	20.7641304348	-4.48	-24.0024390244	-34.7813953488
1623	0.8115	40.622826087	-5.90125	-22.5817073171	-37.6
1624	0.812	37.7858695652	-7.3225	-24.0024390244	-31.9627906977
1625	0.8125	27.8565217391	-5.90125	-25.4231707317	-27.7348837209
1626	0.813	39.2043478261	-4.48	-25.4231707317	-29.1441860465
1627	0.8135	27.8565217391	-7.3225	-25.4231707317	-27.7348837209
1628	0.814	19.3456521739	-7.3225	-25.4231707317	-33.3720930233
1629	0.8145	19.3456521739	-5.90125	-24.0024390244	-15.0511627907
1630	0.815	17.927173913	-4.48	-25.4231707317	-24.9162790698
1631	0.8155	16.5086956522	-5.90125	-28.2646341463	-13.6418604651
1632	0.816	16.5086956522	-4.48	-24.0024390244	-17.8697674419
1633	0.8165	16.5086956522	-4.48	-28.2646341463	-23.5069767442
1634	0.817	17.927173913	-0.21625	-22.5817073171	-2.36744186047
1635	0.8175	16.5086956522	-3.05875	-22.5817073171	-20.688372093
1636	0.818	19.3456521739	-3.05875	-28.2646341463	-15.0511627907
1637	0.8185	19.3456521739	-1.6375	-6.95365853659	-10.823255814
1638	0.819	19.3456521739	-3.05875	-18.3195121951	-8.00465116279
1639	0.8195	23.6010869565	-0.21625	0.15	-15.0511627907
1640	0.82	22.1826086957	-0.21625	-11.2158536585	-5.18604651163
1641	0.8205	19.3456521739	1.205	2.99146341463	-12.2325581395
1642	0.821	20.7641304348	2.62625	-9.79512195122	-3.77674418605
1643	0.8215	17.927173913	-1.6375	1.57073170732	0.451162790698
1644	0.822	17.927173913	-3.05875	-15.4780487805	1.86046511628
1645	0.8225	17.927173913	-8.74375	-16.8987804878	1.86046511628
1646	0.823	19.3456521739	1.205	-15.4780487805	0.451162790698
1647	0.8235	17.927173913	21.1025	-14.0573170732	8.90697674419
1648	0.824	17.927173913	5.46875	-12.6365853659	8.90697674419
1649	0.8245	16.5086956522	21.1025	-11.2158536585	13.1348837209
1650	0.825	12.2532608696	8.31125	-8.3743902439	17.3627906977
1651	0.8255	17.927173913	5.46875	-12.6365853659	18.7720930233
1652	0.826	5.16086956522	2.62625	-9.79512195122	20.1813953488
1653	0.8265	16.5086956522	5.46875	-8.3743902439	21.5906976744
1654	0.827	13.6717391304	1.205	-11.2158536585	21.5906976744
1655	0.8275	-3.35	8.31125	-8.3743902439	24.4093023256
1656	0.828	5.16086956522	9.7325	-8.3743902439	24.4093023256
1657	0.8285	-4.76847826087	6.89	-6.95365853659	28.6372093023
1658	0.829	20.7641304348	5.46875	-9.79512195122	31.4558139535
1659	0.8295	2.32391304348	6.89	-9.79512195122	30.0465116279
1660	0.83	22.1826086957	6.89	-8.3743902439	31.4558139535
1661	0.8305	3.74239130435	6.89	-8.3743902439	21.5906976744
1662	0.831	9.41630434783	6.89	-6.95365853659	37.0930232558
1663	0.8315	5.16086956522	5.46875	-6.95365853659	49.776744186
1664	0.832	5.16086956522	8.31125	-6.95365853659	44.1395348837
1665	0.8325	5.16086956522	8.31125	-5.53292682927	49.776744186
1666	0.833	3.74239130435	6.89	-12.6365853659	32.8651162791
1667	0.8335	3.74239130435	8.31125	-8.3743902439	38.5023255814
1668	0.834	2.32391304348	9.7325	11.5158536585	38.5023255814
1669	0.8345	5.16086956522	9.7325	-6.95365853659	41.3209302326
1670	0.835	3.74239130435	9.7325	10.0951219512	39.911627907
1671	0.8355	2.32391304348	11.15375	-2.69146341463	41.3209302326
1672	0.836	0.905434782609	5.46875	-2.69146341463	41.3209302326
1673	0.8365	0.905434782609	8.31125	-6.95365853659	41.3209302326
1674	0.837	0.905434782609	8.31125	8.6743902439	39.911627907
1675	0.8375	2.32391304348	9.7325	2.99146341463	42.7302325581
1676	0.838	-0.513043478261	6.89	4.41219512195	44.1395348837
1677	0.8385	-0.513043478261	9.7325	-4.11219512195	38.5023255814
1678	0.839	0.905434782609	13.99625	5.83292682927	44.1395348837
1679	0.8395	-0.513043478261	28.20875	7.25365853659	42.7302325581
1680	0.84	0.905434782609	22.52375	14.3573170732	42.7302325581
1681	0.8405	-0.513043478261	29.63	10.0951219512	44.1395348837
1682	0.841	-3.35	5.46875	11.5158536585	45.5488372093
1683	0.8415	0.905434782609	9.7325	8.6743902439	46.9581395349
1684	0.842	-4.76847826087	5.46875	11.5158536585	45.5488372093
1685	0.8425	3.74239130435	6.89	11.5158536585	44.1395348837
1686	0.843	-0.513043478261	2.62625	11.5158536585	46.9581395349
1687	0.8435	13.6717391304	9.7325	11.5158536585	42.7302325581
1688	0.844	-11.8608695652	11.15375	12.9365853659	44.1395348837
1689	0.8445	5.16086956522	15.4175	8.6743902439	45.5488372093
1690	0.845	-14.697826087	8.31125	8.6743902439	45.5488372093
1691	0.8455	3.74239130435	11.15375	11.5158536585	48.3674418605
1692	0.846	12.2532608696	9.7325	7.25365853659	46.9581395349
1693	0.8465	13.6717391304	11.15375	7.25365853659	48.3674418605
1694	0.847	-3.35	8.31125	7.25365853659	46.9581395349
1695	0.8475	0.905434782609	8.31125	8.6743902439	45.5488372093
1696	0.848	-4.76847826087	8.31125	5.83292682927	56.823255814
1697	0.8485	-4.76847826087	8.31125	7.25365853659	35.6837209302
1698	0.849	-4.76847826087	9.7325	5.83292682927	51.1860465116
1699	0.8495	-3.35	11.15375	4.41219512195	61.0511627907
1700	0.85	-4.76847826087	9.7325	4.41219512195	42.7302325581
1701	0.8505	-1.93152173913	9.7325	11.5158536585	56.823255814
1702	0.851	-4.76847826087	9.7325	14.3573170732	37.0930232558
1703	0.8515	-3.35	9.7325	4.41219512195	42.7302325581
1704	0.852	-3.35	8.31125	8.6743902439	35.6837209302
1705	0.8525	-3.35	12.575	4.41219512195	56.823255814
1706	0.853	-3.35	11.15375	24.3024390244	45.5488372093
1707	0.8535	-4.76847826087	11.15375	24.3024390244	45.5488372093
1708	0.854	-6.18695652174	9.7325	2.99146341463	45.5488372093
1709	0.8545	-4.76847826087	8.31125	0.15	46.9581395349
1710	0.855	-4.76847826087	9.7325	-1.27073170732	46.9581395349
1711	0.8555	-3.35	11.15375	-1.27073170732	46.9581395349
1712	0.856	-1.93152173913	9.7325	-8.3743902439	45.5488372093
1713	0.8565	-3.35	6.89	-4.11219512195	42.7302325581
1714	0.857	-4.76847826087	-1.6375	-1.27073170732	44.1395348837
1715	0.8575	-3.35	1.205	0.15	45.5488372093
1716	0.858	-3.35	1.205	-1.27073170732	42.7302325581
1717	0.8585	-1.93152173913	2.62625	-1.27073170732	42.7302325581
1718	0.859	-4.76847826087	9.7325	1.57073170732	42.7302325581
1719	0.8595	-4.76847826087	1.205	0.15	42.7302325581
1720	0.86	-3.35	18.26	2.99146341463	42.7302325581
1721	0.8605	0.905434782609	9.7325	2.99146341463	41.3209302326
1722	0.861	-4.76847826087	11.15375	4.41219512195	44.1395348837
1723	0.8615	-1.93152173913	5.46875	2.99146341463	45.5488372093
1724	0.862	-6.18695652174	8.31125	2.99146341463	45.5488372093
1725	0.8625	-16.1163043478	11.15375	4.41219512195	45.5488372093
1726	0.863	7.99782608696	9.7325	4.41219512195	45.5488372093
1727	0.8635	10.8347826087	9.7325	4.41219512195	45.5488372093
1728	0.864	-9.02391304348	8.31125	7.25365853659	42.7302325581
1729	0.8645	-4.76847826087	9.7325	4.41219512195	41.3209302326
1730	0.865	12.2532608696	6.89	2.99146341463	42.7302325581
1731	0.8655	-10.4423913043	8.31125	5.83292682927	42.7302325581
1732	0.866	-4.76847826087	11.15375	4.41219512195	37.0930232558
1733	0.8665	-10.4423913043	8.31125	2.99146341463	34.2744186047
1734	0.867	-3.35	8.31125	5.83292682927	34.2744186047
1735	0.8675	-3.35	9.7325	-4.11219512195	41.3209302326
1736	0.868	-4.76847826087	9.7325	4.41219512195	34.2744186047
1737	0.8685	-4.76847826087	8.31125	4.41219512195	34.2744186047
1738	0.869	-7.60543478261	9.7325	8.6743902439	34.2744186047
1739	0.8695	-4.76847826087	9.7325	4.41219512195	41.3209302326
1740	0.87	-1.93152173913	8.31125	8.6743902439	39.911627907
1741	0.8705	-3.35	11.15375	-2.69146341463	41.3209302326
1742	0.871	-3.35	9.7325	7.25365853659	42.7302325581
1743	0.8715	-6.18695652174	9.7325	22.8817073171	31.4558139535
1744	0.872	-4.76847826087	9.7325	18.6195121951	38.5023255814
1745	0.8725	-4.76847826087	9.7325	21.4609756098	38.5023255814
1746	0.873	-3.35	13.99625	22.8817073171	35.6837209302
1747	0.8735	-4.76847826087	11.15375	2.99146341463	35.6837209302
1748	0.874	-4.76847826087	15.4175	4.41219512195	38.5023255814
1749	0.8745	-1.93152173913	6.89	-1.27073170732	38.5023255814
1750	0.875	-3.35	11.15375	4.41219512195	37.0930232558
1751	0.8755	-4.76847826087	-1.6375	5.83292682927	37.0930232558
1752	0.876	-1.93152173913	13.99625	1.57073170732	38.5023255814
1753	0.8765	-1.93152173913	-1.6375	7.25365853659	37.0930232558
1754	0.877	-3.35	5.46875	0.15	38.5023255814
1755	0.8775	-3.35	23.945	7.25365853659	37.0930232558
1756	0.878	-3.35	5.46875	22.8817073171	37.0930232558
1757	0.8785	-4.76847826087	4.0475	7.25365853659	39.911627907
1758	0.879	-4.76847826087	-1.6375	10.0951219512	35.6837209302
1759	0.8795	-3.35	19.68125	8.6743902439	38.5023255814
1760	0.88	-4.76847826087	5.46875	8.6743902439	38.5023255814
1761	0.8805	-3.35	8.31125	8.6743902439	37.0930232558
1762	0.881	-9.02391304348	8.31125	11.5158536585	37.0930232558
1763	0.8815	0.905434782609	6.89	8.6743902439	34.2744186047
1764	0.882	-3.35	9.7325	11.5158536585	37.0930232558
1765	0.8825	3.74239130435	8.31125	11.5158536585	34.2744186047
1766	0.883	-16.1163043478	8.31125	8.6743902439	34.2744186047
1767	0.8835	-6.18695652174	6.89	14.3573170732	35.6837209302
1768	0.884	-14.697826087	8.31125	11.5158536585	34.2744186047
1769	0.8845	-14.697826087	8.31125	12.9365853659	35.6837209302
1770	0.885	-3.35	9.7325	11.5158536585	35.6837209302
1771	0.8855	15.0902173913	8.31125	7.25365853659	32.8651162791
1772	0.886	-9.02391304348	9.7325	8.6743902439	27.2279069767
1773	0.8865	-4.76847826087	8.31125	14.3573170732	25.8186046512
1774	0.887	-13.2793478261	6.89	11.5158536585	34.2744186047
1775	0.8875	-4.76847826087	9.7325	11.5158536585	27.2279069767
1776	0.888	-13.2793478261	8.31125	12.9365853659	28.6372093023
1777	0.8885	-4.76847826087	6.89	15.7780487805	25.8186046512
1778	0.889	-6.18695652174	6.89	8.6743902439	39.911627907
1779	0.8895	-6.18695652174	6.89	14.3573170732	28.6372093023
1780	0.89	-4.76847826087	8.31125	5.83292682927	42.7302325581
1781	0.8905	-4.76847826087	8.31125	12.9365853659	30.0465116279
1782	0.891	-4.76847826087	8.31125	0.15	34.2744186047
1783	0.8915	-6.18695652174	5.46875	8.6743902439	35.6837209302
1784	0.892	-7.60543478261	6.89	1.57073170732	30.0465116279
1785	0.8925	-4.76847826087	9.7325	-5.53292682927	25.8186046512
1786	0.893	-3.35	6.89	17.1987804878	34.2744186047
1787	0.8935	-4.76847826087	9.7325	21.4609756098	35.6837209302
1788	0.894	-4.76847826087	6.89	18.6195121951	35.6837209302
1789	0.8945	-6.18695652174	13.99625	8.6743902439	35.6837209302
1790	0.895	-3.35	6.89	12.9365853659	35.6837209302
1791	0.8955	-3.35	8.31125	7.25365853659	34.2744186047
1792	0.896	-3.35	6.89	14.3573170732	31.4558139535
1793	0.8965	-4.76847826087	9.7325	12.9365853659	32.8651162791
1794	0.897	-1.93152173913	23.945	12.9365853659	32.8651162791
1795	0.8975	-3.35	6.89	7.25365853659	34.2744186047
1796	0.898	-1.93152173913	19.68125	7.25365853659	31.4558139535
1797	0.8985	-4.76847826087	25.36625	7.25365853659	34.2744186047
1798	0.899	-3.35	6.89	7.25365853659	35.6837209302
1799	0.8995	-1.93152173913	5.46875	7.25365853659	32.8651162791
1800	0.9	-4.76847826087	-0.21625	7.25365853659	32.8651162791
1801	0.9005	-1.93152173913	5.46875	12.9365853659	32.8651162791
1802	0.901	-3.35	-0.21625	8.6743902439	31.4558139535
1803	0.9015	-18.9532608696	6.89	10.0951219512	31.4558139535
1804	0.902	-6.18695652174	2.62625	10.0951219512	32.8651162791
1805	0.9025	10.8347826087	4.0475	5.83292682927	32.8651162791
1806	0.903	-3.35	4.0475	8.6743902439	35.6837209302
1807	0.9035	13.6717391304	6.89	11.5158536585	32.8651162791
1808	0.904	-10.4423913043	6.89	12.9365853659	32.8651162791
1809	0.9045	3.74239130435	8.31125	8.6743902439	35.6837209302
1810	0.905	-3.35	5.46875	7.25365853659	31.4558139535
1811	0.9055	-6.18695652174	9.7325	11.5158536585	20.1813953488
1812	0.906	-1.93152173913	2.62625	12.9365853659	28.6372093023
1813	0.9065	-4.76847826087	5.46875	11.5158536585	21.5906976744
1814	0.907	-1.93152173913	5.46875	8.6743902439	23.0
1815	0.9075	-1.93152173913	4.0475	12.9365853659	31.4558139535
1816	0.908	-3.35	5.46875	8.6743902439	23.0
1817	0.9085	-3.35	6.89	11.5158536585	20.1813953488
1818	0.909	-6.18695652174	4.0475	18.6195121951	27.2279069767
1819	0.9095	-4.76847826087	6.89	25.7231707317	25.8186046512
1820	0.91	-0.513043478261	5.46875	15.7780487805	30.0465116279
1821	0.9105	-6.18695652174	6.89	24.3024390244	27.2279069767
1822	0.911	-4.76847826087	6.89	8.6743902439	28.6372093023
1823	0.9115	-4.76847826087	4.0475	7.25365853659	27.2279069767
1824	0.912	-4.76847826087	6.89	5.83292682927	25.8186046512
1825	0.9125	-3.35	4.0475	7.25365853659	27.2279069767
1826	0.913	-3.35	5.46875	20.0402439024	23.0
1827	0.9135	-1.93152173913	8.31125	2.99146341463	31.4558139535
1828	0.914	-1.93152173913	22.52375	0.15	30.0465116279
1829	0.9145	-3.35	11.15375	-2.69146341463	30.0465116279
1830	0.915	-4.76847826087	-0.21625	4.41219512195	27.2279069767
1831	0.9155	-1.93152173913	-1.6375	4.41219512195	25.8186046512
1832	0.916	-6.18695652174	-3.05875	4.41219512195	27.2279069767
1833	0.9165	-9.02391304348	5.46875	5.83292682927	30.0465116279
1834	0.917	-14.697826087	5.46875	8.6743902439	28.6372093023
1835	0.9175	-14.697826087	5.46875	8.6743902439	28.6372093023
1836	0.918	-4.76847826087	-1.6375	8.6743902439	28.6372093023
1837	0.9185	-9.02391304348	4.0475	2.99146341463	28.6372093023
1838	0.919	10.8347826087	2.62625	2.99146341463	30.0465116279
1839	0.9195	15.0902173913	4.0475	4.41219512195	31.4558139535
1840	0.92	3.74239130435	2.62625	-1.27073170732	31.4558139535
1841	0.9205	-3.35	4.0475	-1.27073170732	23.0
1842	0.921	-4.76847826087	5.46875	1.57073170732	38.5023255814
1843	0.9215	-4.76847826087	4.0475	0.15	21.5906976744
1844	0.922	-1.93152173913	5.46875	1.57073170732	32.8651162791
1845	0.9225	-4.76847826087	5.46875	2.99146341463	31.4558139535
1846	0.923	-4.76847826087	5.46875	-5.53292682927	24.4093023256
1847	0.9235	-4.76847826087	5.46875	-4.11219512195	20.1813953488
1848	0.924	-4.76847826087	5.46875	-1.27073170732	23.0
1849	0.9245	-4.76847826087	1.205	5.83292682927	20.1813953488
1850	0.925	-3.35	1.205	7.25365853659	20.1813953488
1851	0.9255	-4.76847826087	2.62625	4.41219512195	27.2279069767
1852	0.926	-4.76847826087	4.0475	4.41219512195	25.8186046512
1853	0.9265	-4.76847826087	1.205	-2.69146341463	28.6372093023
1854	0.927	-7.60543478261	4.0475	11.5158536585	27.2279069767
1855	0.9275	-6.18695652174	5.46875	8.6743902439	31.4558139535
1856	0.928	-6.18695652174	-0.21625	5.83292682927	28.6372093023
1857	0.9285	-4.76847826087	6.89	5.83292682927	28.6372093023
1858	0.929	-4.76847826087	-7.3225	5.83292682927	28.6372093023
1859	0.9295	-3.35	5.46875	22.8817073171	20.1813953488
1860	0.93	-4.76847826087	13.99625	8.6743902439	27.2279069767
1861	0.9305	-1.93152173913	19.68125	7.25365853659	25.8186046512
1862	0.931	-4.76847826087	4.0475	5.83292682927	27.2279069767
1863	0.9315	-9.02391304348	-1.6375	4.41219512195	24.4093023256
1864	0.932	-6.18695652174	-3.05875	7.25365853659	28.6372093023
1865	0.9325	-4.76847826087	1.205	5.83292682927	25.8186046512
1866	0.933	-3.35	6.89	7.25365853659	27.2279069767
1867	0.9335	-13.2793478261	5.46875	4.41219512195	27.2279069767
1868	0.934	-1.93152173913	5.46875	4.41219512195	27.2279069767
1869	0.9345	-10.4423913043	4.0475	5.83292682927	27.2279069767
1870	0.935	12.2532608696	4.0475	8.6743902439	24.4093023256
1871	0.9355	7.99782608696	4.0475	7.25365853659	27.2279069767
1872	0.936	9.41630434783	-0.21625	7.25365853659	25.8186046512
1873	0.9365	-14.697826087	4.0475	8.6743902439	20.1813953488
1874	0.937	-6.18695652174	4.0475	5.83292682927	17.3627906977
1875	0.9375	-11.8608695652	2.62625	7.25365853659	17.3627906977
1876	0.938	-6.18695652174	4.0475	7.25365853659	15.9534883721
1877	0.9385	-11.8608695652	2.62625	4.41219512195	23.0
1878	0.939	-9.02391304348	2.62625	5.83292682927	15.9534883721
1879	0.9395	-6.18695652174	1.205	5.83292682927	17.3627906977
1880	0.94	-4.76847826087	1.205	7.25365853659	18.7720930233
1881	0.9405	-1.93152173913	1.205	2.99146341463	20.1813953488
1882	0.941	-4.76847826087	2.62625	2.99146341463	20.1813953488
1883	0.9415	-4.76847826087	4.0475	1.57073170732	17.3627906977
1884	0.942	-7.60543478261	4.0475	20.0402439024	14.5441860465
1885	0.9425	-3.35	-0.21625	-5.53292682927	21.5906976744
1886	0.943	-4.76847826087	2.62625	18.6195121951	23.0
1887	0.9435	-3.35	1.205	1.57073170732	10.3162790698
1888	0.944	-6.18695652174	1.205	-2.69146341463	21.5906976744
1889	0.9445	-3.35	5.46875	4.41219512195	24.4093023256
1890	0.945	-7.60543478261	2.62625	0.15	23.0
1891	0.9455	-3.35	-5.90125	5.83292682927	24.4093023256
1892	0.946	-3.35	16.83875	2.99146341463	23.0
1893	0.9465	-6.18695652174	-1.6375	4.41219512195	23.0
1894	0.947	-6.18695652174	2.62625	7.25365853659	24.4093023256
1895	0.9475	-4.76847826087	-4.48	4.41219512195	21.5906976744
1896	0.948	-0.513043478261	2.62625	2.99146341463	23.0
1897	0.9485	-4.76847826087	-3.05875	4.41219512195	25.8186046512
1898	0.949	-16.1163043478	2.62625	4.41219512195	27.2279069767
1899	0.9495	-4.76847826087	2.62625	2.99146341463	21.5906976744
1900	0.95	-16.1163043478	-7.3225	2.99146341463	24.4093023256
1901	0.9505	-6.18695652174	1.205	1.57073170732	27.2279069767
1902	0.951	-10.4423913043	2.62625	2.99146341463	15.9534883721
1903	0.9515	-11.8608695652	-0.21625	1.57073170732	24.4093023256
1904	0.952	-11.8608695652	2.62625	8.6743902439	14.5441860465
1905	0.9525	-14.697826087	-0.21625	4.41219512195	25.8186046512
1906	0.953	-4.76847826087	1.205	2.99146341463	24.4093023256
1907	0.9535	-4.76847826087	2.62625	4.41219512195	25.8186046512
1908	0.954	-6.18695652174	-0.21625	4.41219512195	17.3627906977
1909	0.9545	-3.35	2.62625	-2.69146341463	21.5906976744
1910	0.955	-4.76847826087	1.205	2.99146341463	15.9534883721
1911	0.9555	-3.35	1.205	15.7780487805	21.5906976744
1912	0.956	-6.18695652174	4.0475	18.6195121951	24.4093023256
1913	0.9565	-6.18695652174	2.62625	18.6195121951	18.7720930233
1914	0.957	-6.18695652174	1.205	18.6195121951	23.0
1915	0.9575	-4.76847826087	5.46875	4.41219512195	23.0
1916	0.958	-7.60543478261	2.62625	7.25365853659	20.1813953488
1917	0.9585	-6.18695652174	5.46875	18.6195121951	21.5906976744
1918	0.959	-6.18695652174	1.205	7.25365853659	23.0
1919	0.9595	-1.93152173913	9.7325	5.83292682927	21.5906976744
1920	0.96	-3.35	18.26	5.83292682927	21.5906976744
1921	0.9605	-4.76847826087	9.7325	5.83292682927	23.0
1922	0.961	-4.76847826087	16.83875	4.41219512195	20.1813953488
1923	0.9615	-6.18695652174	18.26	4.41219512195	21.5906976744
1924	0.962	-4.76847826087	-4.48	4.41219512195	21.5906976744
1925	0.9625	-3.35	-0.21625	2.99146341463	18.7720930233
1926	0.963	-6.18695652174	-1.6375	2.99146341463	21.5906976744
1927	0.9635	-18.9532608696	1.205	5.83292682927	20.1813953488
1928	0.964	-4.76847826087	4.0475	4.41219512195	21.5906976744
1929	0.9645	5.16086956522	-0.21625	1.57073170732	18.7720930233
1930	0.965	-10.4423913043	1.205	2.99146341463	21.5906976744
1931	0.9655	-18.9532608696	-0.21625	4.41219512195	18.7720930233
1932	0.966	-14.697826087	-0.21625	7.25365853659	8.90697674419
1933	0.9665	-17.5347826087	-0.21625	4.41219512195	20.1813953488
1934	0.967	-9.02391304348	1.205	2.99146341463	31.4558139535
1935	0.9675	-6.18695652174	-0.21625	8.6743902439	28.6372093023
1936	0.968	-3.35	-4.48	11.5158536585	32.8651162791
1937	0.9685	-1.93152173913	1.205	7.25365853659	31.4558139535
1938	0.969	-3.35	-0.21625	7.25365853659	21.5906976744
1939	0.9695	-0.513043478261	1.205	7.25365853659	20.1813953488
1940	0.97	-3.35	1.205	8.6743902439	31.4558139535
1941	0.9705	-3.35	-0.21625	12.9365853659	20.1813953488
1942	0.971	-4.76847826087	2.62625	27.143902439	13.1348837209
1943	0.9715	-3.35	-1.6375	4.41219512195	18.7720930233
1944	0.972	-6.18695652174	1.205	17.1987804878	21.5906976744
1945	0.9725	-4.76847826087	-1.6375	0.15	18.7720930233
1946	0.973	-3.35	-1.6375	5.83292682927	20.1813953488
1947	0.9735	-4.76847826087	-10.165	7.25365853659	21.5906976744
1948	0.974	-3.35	-1.6375	4.41219512195	18.7720930233
1949	0.9745	-4.76847826087	-10.165	4.41219512195	20.1813953488
1950	0.975	-4.76847826087	16.83875	4.41219512195	17.3627906977
1951	0.9755	-4.76847826087	-1.6375	4.41219512195	18.7720930233
1952	0.976	-4.76847826087	13.99625	5.83292682927	18.7720930233
1953	0.9765	-7.60543478261	-5.90125	4.41219512195	20.1813953488
1954	0.977	-4.76847826087	11.15375	5.83292682927	17.3627906977
1955	0.9775	-4.76847826087	-1.6375	5.83292682927	18.7720930233
1956	0.978	-6.18695652174	-5.90125	5.83292682927	20.1813953488
1957	0.9785	-16.1163043478	-0.21625	5.83292682927	21.5906976744
1958	0.979	-6.18695652174	-3.05875	11.5158536585	20.1813953488
1959	0.9795	-16.1163043478	-1.6375	11.5158536585	17.3627906977
1960	0.98	-4.76847826087	-0.21625	14.3573170732	17.3627906977
1961	0.9805	16.5086956522	-1.6375	11.5158536585	18.7720930233
1962	0.981	-7.60543478261	1.205	17.1987804878	7.4976744186
1963	0.9815	-7.60543478261	-0.21625	12.9365853659	24.4093023256
1964	0.982	-7.60543478261	-0.21625	15.7780487805	17.3627906977
1965	0.9825	-4.76847826087	1.205	15.7780487805	27.2279069767
1966	0.983	-7.60543478261	-0.21625	18.6195121951	11.7255813953
1967	0.9835	-6.18695652174	-0.21625	15.7780487805	15.9534883721
1968	0.984	-6.18695652174	1.205	17.1987804878	21.5906976744
1969	0.9845	-7.60543478261	1.205	17.1987804878	4.67906976744
1970	0.985	-4.76847826087	2.62625	17.1987804878	15.9534883721
1971	0.9855	-7.60543478261	1.205	24.3024390244	14.5441860465
1972	0.986	-7.60543478261	-0.21625	21.4609756098	15.9534883721
1973	0.9865	-9.02391304348	1.205	15.7780487805	14.5441860465
1974	0.987	-7.60543478261	1.205	21.4609756098	17.3627906977
1975	0.9875	-10.4423913043	-1.6375	11.5158536585	15.9534883721
1976	0.988	-6.18695652174	-0.21625	2.99146341463	20.1813953488
1977	0.9885	-11.8608695652	-13.0075	4.41219512195	17.3627906977
1978	0.989	-7.60543478261	-5.90125	4.41219512195	18.7720930233
1979	0.9895	-9.02391304348	-15.85	1.57073170732	18.7720930233
1980	0.99	-6.18695652174	-10.165	-5.53292682927	18.7720930233
1981	0.9905	-3.35	11.15375	-4.11219512195	17.3627906977
1982	0.991	-7.60543478261	-4.48	-4.11219512195	13.1348837209
1983	0.9915	-6.18695652174	8.31125	-4.11219512195	17.3627906977
1984	0.992	-7.60543478261	-10.165	-1.27073170732	15.9534883721
1985	0.9925	-13.2793478261	-0.21625	0.15	17.3627906977
1986	0.993	-17.5347826087	-1.6375	1.57073170732	14.5441860465
1987	0.9935	-18.9532608696	-3.05875	1.57073170732	13.1348837209
1988	0.994	-4.76847826087	-1.6375	4.41219512195	13.1348837209
1989	0.9945	-16.1163043478	-0.21625	4.41219512195	14.5441860465
1990	0.995	-7.60543478261	-3.05875	2.99146341463	14.5441860465
1991	0.9955	9.41630434783	-7.3225	1.57073170732	13.1348837209
1992	0.996	12.2532608696	-1.6375	-1.27073170732	15.9534883721
1993	0.9965	-10.4423913043	-4.48	2.99146341463	0.451162790698
