	Time	Channel 1	Channel 2	Channel 3	Channel 4
0	0.0	16.402283105	-0.331404958678	18.5365853659	41.3536121673
1	0.0005	16.402283105	-4.55991735537	2.90853658537	49.808365019
2	0.001	14.9917808219	-8.78842975207	-1.35365853659	56.8539923954
3	0.0015	-0.523744292237	-5.9694214876	-4.19512195122	63.8996197719
4	0.002	-14.6287671233	-3.15041322314	-1.35365853659	61.0813688213
5	0.0025	-25.9127853881	-4.55991735537	1.48780487805	61.0813688213
6	0.003	-30.1442922374	-10.1979338843	2.90853658537	48.3992395437
7	0.0035	-14.6287671233	-3.15041322314	-1.35365853659	52.6266159696
8	0.004	-13.2182648402	-1.74090909091	-4.19512195122	48.3992395437
9	0.0045	0.886757990868	-0.331404958678	15.6951219512	39.944486692
10	0.005	-6.16575342466	-14.426446281	0.0670731707317	32.8988593156
11	0.0055	-0.523744292237	6.71611570248	-1.35365853659	23.0349809886
12	0.006	7.93926940639	-5.9694214876	0.0670731707317	15.9893536122
13	0.0065	10.7602739726	-4.55991735537	-12.7195121951	17.3984790875
14	0.007	10.7602739726	-3.15041322314	-7.03658536585	13.1711026616
15	0.0075	0.886757990868	-1.74090909091	14.2743902439	10.352851711
16	0.008	-10.397260274	-1.74090909091	21.3780487805	7.53460076046
17	0.0085	-4.75525114155	-1.74090909091	5.75	1.89809885932
18	0.009	2.29726027397	-1.74090909091	-11.2987804878	-2.32927756654
19	0.0095	16.402283105	-5.9694214876	0.0670731707317	-2.32927756654
20	0.01	14.9917808219	-10.1979338843	-1.35365853659	6.12547528517
21	0.0105	-8.98675799087	-7.37892561983	1.48780487805	14.5802281369
22	0.011	-21.6812785388	1.07809917355	4.32926829268	28.6714828897
23	0.0115	-14.6287671233	2.48760330579	4.32926829268	46.9901140684
24	0.012	-0.523744292237	-8.78842975207	2.90853658537	58.2631178707
25	0.0125	3.70776255708	-1.74090909091	-1.35365853659	63.8996197719
26	0.013	2.29726027397	-3.15041322314	-1.35365853659	63.8996197719
27	0.0135	-0.523744292237	-0.331404958678	-1.35365853659	62.4904942966
28	0.014	-8.98675799087	-1.74090909091	-1.35365853659	59.672243346
29	0.0145	13.5812785388	-1.74090909091	-2.7743902439	48.3992395437
30	0.015	-6.16575342466	-4.55991735537	-1.35365853659	42.7627376426
31	0.0155	-16.0392694064	-4.55991735537	-2.7743902439	32.8988593156
32	0.016	-18.8602739726	-4.55991735537	-1.35365853659	18.8076045627
33	0.0165	-14.6287671233	-1.74090909091	1.48780487805	8.94372623574
34	0.017	-1.93424657534	-1.74090909091	2.90853658537	3.3072243346
35	0.0175	7.93926940639	-5.9694214876	2.90853658537	18.8076045627
36	0.018	20.6337899543	-4.55991735537	0.0670731707317	8.94372623574
37	0.0185	19.2232876712	-5.9694214876	-1.35365853659	7.53460076046
38	0.019	7.93926940639	-4.55991735537	-1.35365853659	17.3984790875
39	0.0195	-0.523744292237	-3.15041322314	-5.61585365854	30.080608365
40	0.02	0.886757990868	-0.331404958678	-4.19512195122	42.7627376426
41	0.0205	-1.93424657534	-1.74090909091	-4.19512195122	48.3992395437
42	0.021	0.886757990868	-1.74090909091	2.90853658537	51.2174904943
43	0.0215	-3.34474885845	-3.15041322314	-2.7743902439	54.0357414449
44	0.022	-6.16575342466	-1.74090909091	7.17073170732	49.808365019
45	0.0225	-7.57625570776	-7.37892561983	7.17073170732	44.1718631179
46	0.023	-6.16575342466	-11.6074380165	5.75	37.1262357414
47	0.0235	2.29726027397	-8.78842975207	4.32926829268	39.944486692
48	0.024	5.11826484018	-8.78842975207	0.0670731707317	46.9901140684
49	0.0245	2.29726027397	-5.9694214876	-1.35365853659	51.2174904943
50	0.025	-0.523744292237	-10.1979338843	1.48780487805	51.2174904943
51	0.0255	0.886757990868	-10.1979338843	5.75	44.1718631179
52	0.026	7.93926940639	-1.74090909091	8.59146341463	38.5353612167
53	0.0265	19.2232876712	-1.74090909091	8.59146341463	35.7171102662
54	0.027	14.9917808219	-3.15041322314	7.17073170732	34.3079847909
55	0.0275	0.886757990868	-4.55991735537	8.59146341463	30.080608365
56	0.028	-11.8077625571	-3.15041322314	8.59146341463	30.080608365
57	0.0285	-11.8077625571	-5.9694214876	8.59146341463	23.0349809886
58	0.029	-0.523744292237	-4.55991735537	10.012195122	30.080608365
59	0.0295	-0.523744292237	-3.15041322314	7.17073170732	30.080608365
60	0.03	-3.34474885845	-3.15041322314	7.17073170732	17.3984790875
61	0.0305	-3.34474885845	-0.331404958678	11.4329268293	42.7627376426
62	0.031	-6.16575342466	-4.55991735537	14.2743902439	45.5809885932
63	0.0315	-7.57625570776	-1.74090909091	24.2195121951	27.2623574144
64	0.032	-7.57625570776	-3.15041322314	27.0609756098	23.0349809886
65	0.0325	-1.93424657534	-1.74090909091	22.7987804878	15.9893536122
66	0.033	2.29726027397	-1.74090909091	19.9573170732	17.3984790875
67	0.0335	0.886757990868	-4.55991735537	14.2743902439	17.3984790875
68	0.034	-4.75525114155	-4.55991735537	-2.7743902439	10.352851711
69	0.0345	-4.75525114155	-4.55991735537	-9.87804878049	4.71634980989
70	0.035	-1.93424657534	-3.15041322314	-14.1402439024	-3.73840304183
71	0.0355	-1.93424657534	-7.37892561983	-11.2987804878	-10.7840304183
72	0.036	-3.34474885845	-10.1979338843	-16.9817073171	-7.96577946768
73	0.0365	-4.75525114155	-5.9694214876	-16.9817073171	-2.32927756654
74	0.037	-1.93424657534	-11.6074380165	-12.7195121951	-0.920152091255
75	0.0375	2.29726027397	-10.1979338843	-12.7195121951	3.3072243346
76	0.038	-3.34474885845	-0.331404958678	-12.7195121951	7.53460076046
77	0.0385	3.70776255708	-4.55991735537	-8.45731707317	8.94372623574
78	0.039	7.93926940639	-0.331404958678	-4.19512195122	20.216730038
79	0.0395	-0.523744292237	13.7636363636	-1.35365853659	31.4897338403
80	0.04	5.11826484018	1.07809917355	1.48780487805	38.5353612167
81	0.0405	14.9917808219	-0.331404958678	4.32926829268	46.9901140684
82	0.041	13.5812785388	-1.74090909091	7.17073170732	58.2631178707
83	0.0415	5.11826484018	2.48760330579	12.8536585366	66.7178707224
84	0.042	-6.16575342466	1.07809917355	15.6951219512	72.3543726236
85	0.0425	-4.75525114155	-1.74090909091	15.6951219512	70.9452471483
86	0.043	-10.397260274	-3.15041322314	15.6951219512	62.4904942966
87	0.0435	-4.75525114155	-3.15041322314	14.2743902439	68.1269961977
88	0.044	-0.523744292237	-4.55991735537	12.8536585366	69.536121673
89	0.0445	0.886757990868	-3.15041322314	5.75	55.4448669202
90	0.045	-0.523744292237	-1.74090909091	18.5365853659	62.4904942966
91	0.0455	0.886757990868	-3.15041322314	5.75	42.7627376426
92	0.046	-0.523744292237	-3.15041322314	4.32926829268	41.3536121673
93	0.0465	-0.523744292237	-3.15041322314	7.17073170732	32.8988593156
94	0.047	-3.34474885845	-1.74090909091	4.32926829268	18.8076045627
95	0.0475	0.886757990868	-3.15041322314	19.9573170732	13.1711026616
96	0.048	0.886757990868	-4.55991735537	-4.19512195122	8.94372623574
97	0.0485	-0.523744292237	-3.15041322314	-1.35365853659	1.89809885932
98	0.049	-1.93424657534	-0.331404958678	-1.35365853659	-0.920152091255
99	0.0495	-0.523744292237	-0.331404958678	4.32926829268	-2.32927756654
100	0.05	-7.57625570776	-5.9694214876	5.75	-2.32927756654
101	0.0505	-10.397260274	-0.331404958678	8.59146341463	1.89809885932
102	0.051	-16.0392694064	-10.1979338843	12.8536585366	8.94372623574
103	0.0515	-10.397260274	-11.6074380165	11.4329268293	17.3984790875
104	0.052	-3.34474885845	-10.1979338843	5.75	25.8532319392
105	0.0525	-0.523744292237	-8.78842975207	8.59146341463	35.7171102662
106	0.053	5.11826484018	-4.55991735537	2.90853658537	41.3536121673
107	0.0535	-6.16575342466	-4.55991735537	2.90853658537	41.3536121673
108	0.054	2.29726027397	-1.74090909091	-1.35365853659	41.3536121673
109	0.0545	10.7602739726	-3.15041322314	-2.7743902439	39.944486692
110	0.055	16.402283105	-1.74090909091	-7.03658536585	35.7171102662
111	0.0555	14.9917808219	-0.331404958678	-5.61585365854	25.8532319392
112	0.056	-4.75525114155	-1.74090909091	-5.61585365854	21.6258555133
113	0.0565	-7.57625570776	1.07809917355	-9.87804878049	21.6258555133
114	0.057	-10.397260274	1.07809917355	-9.87804878049	15.9893536122
115	0.0575	-4.75525114155	-1.74090909091	-4.19512195122	8.94372623574
116	0.058	3.70776255708	-1.74090909091	1.48780487805	0.48897338403
117	0.0585	0.886757990868	-1.74090909091	2.90853658537	-0.920152091255
118	0.059	-1.93424657534	1.07809917355	21.3780487805	0.48897338403
119	0.0595	-4.75525114155	-3.15041322314	4.32926829268	7.53460076046
120	0.06	-3.34474885845	-0.331404958678	8.59146341463	3.3072243346
121	0.0605	-1.93424657534	-1.74090909091	7.17073170732	-9.37490494297
122	0.061	0.886757990868	-3.15041322314	4.32926829268	-7.96577946768
123	0.0615	-1.93424657534	-1.74090909091	4.32926829268	-5.14752851711
124	0.062	-3.34474885845	-3.15041322314	4.32926829268	-3.73840304183
125	0.0625	-1.93424657534	3.89710743802	8.59146341463	-5.14752851711
126	0.063	-4.75525114155	1.07809917355	7.17073170732	-2.32927756654
127	0.0635	-4.75525114155	-1.74090909091	5.75	10.352851711
128	0.064	-0.523744292237	9.53512396694	2.90853658537	27.2623574144
129	0.0645	2.29726027397	3.89710743802	2.90853658537	34.3079847909
130	0.065	-0.523744292237	-5.9694214876	1.48780487805	38.5353612167
131	0.0655	3.70776255708	-8.78842975207	-4.19512195122	39.944486692
132	0.066	3.70776255708	-4.55991735537	-11.2987804878	45.5809885932
133	0.0665	6.52876712329	-5.9694214876	-15.5609756098	51.2174904943
134	0.067	5.11826484018	-4.55991735537	-15.5609756098	55.4448669202
135	0.0675	13.5812785388	-4.55991735537	-11.2987804878	48.3992395437
136	0.068	3.70776255708	-4.55991735537	-4.19512195122	38.5353612167
137	0.0685	-0.523744292237	-4.55991735537	-2.7743902439	30.080608365
138	0.069	-8.98675799087	-1.74090909091	-2.7743902439	24.4441064639
139	0.0695	-13.2182648402	-1.74090909091	-2.7743902439	21.6258555133
140	0.07	-17.4497716895	-1.74090909091	-4.19512195122	20.216730038
141	0.0705	-4.75525114155	-4.55991735537	-2.7743902439	18.8076045627
142	0.071	-11.8077625571	-3.15041322314	1.48780487805	23.0349809886
143	0.0715	-6.16575342466	-1.74090909091	-1.35365853659	32.8988593156
144	0.072	-4.75525114155	-0.331404958678	-1.35365853659	45.5809885932
145	0.0725	-4.75525114155	-1.74090909091	-2.7743902439	35.7171102662
146	0.073	-1.93424657534	-0.331404958678	-7.03658536585	44.1718631179
147	0.0735	-3.34474885845	-0.331404958678	-7.03658536585	48.3992395437
148	0.074	-13.2182648402	-4.55991735537	-1.35365853659	46.9901140684
149	0.0745	-11.8077625571	-0.331404958678	0.0670731707317	39.944486692
150	0.075	-4.75525114155	-0.331404958678	11.4329268293	35.7171102662
151	0.0755	-1.93424657534	-0.331404958678	2.90853658537	27.2623574144
152	0.076	-1.93424657534	-0.331404958678	-1.35365853659	17.3984790875
153	0.0765	-3.34474885845	-8.78842975207	0.0670731707317	6.12547528517
154	0.077	-4.75525114155	1.07809917355	-5.61585365854	0.48897338403
155	0.0775	-4.75525114155	-4.55991735537	1.48780487805	-7.96577946768
156	0.078	-6.16575342466	-8.78842975207	4.32926829268	-10.7840304183
157	0.0785	-10.397260274	-11.6074380165	2.90853658537	-16.4205323194
158	0.079	-8.98675799087	-5.9694214876	4.32926829268	-22.0570342205
159	0.0795	-11.8077625571	5.30661157025	7.17073170732	-23.4661596958
160	0.08	-6.16575342466	-8.78842975207	10.012195122	-26.2844106464
161	0.0805	-3.34474885845	-4.55991735537	14.2743902439	-19.23878327
162	0.081	-11.8077625571	-1.74090909091	12.8536585366	-6.5566539924
163	0.0815	-7.57625570776	-1.74090909091	15.6951219512	3.3072243346
164	0.082	10.7602739726	1.07809917355	14.2743902439	17.3984790875
165	0.0825	7.93926940639	-5.9694214876	14.2743902439	25.8532319392
166	0.083	-0.523744292237	-3.15041322314	17.1158536585	37.1262357414
167	0.0835	-18.8602739726	-4.55991735537	14.2743902439	30.080608365
168	0.084	-27.3232876712	-3.15041322314	18.5365853659	28.6714828897
169	0.0845	-25.9127853881	-3.15041322314	15.6951219512	27.2623574144
170	0.085	-21.6812785388	-1.74090909091	11.4329268293	37.1262357414
171	0.0855	-28.7337899543	1.07809917355	14.2743902439	41.3536121673
172	0.086	-30.1442922374	-0.331404958678	19.9573170732	32.8988593156
173	0.0865	-28.7337899543	-1.74090909091	11.4329268293	34.3079847909
174	0.087	-20.2707762557	1.07809917355	5.75	31.4897338403
175	0.0875	-6.16575342466	1.07809917355	-1.35365853659	25.8532319392
176	0.088	3.70776255708	-0.331404958678	0.0670731707317	20.216730038
177	0.0885	17.8127853881	-0.331404958678	11.4329268293	14.5802281369
178	0.089	23.4547945205	-1.74090909091	1.48780487805	6.12547528517
179	0.0895	14.9917808219	1.07809917355	-8.45731707317	4.71634980989
180	0.09	0.886757990868	-1.74090909091	-12.7195121951	0.48897338403
181	0.0905	-7.57625570776	-0.331404958678	-9.87804878049	0.48897338403
182	0.091	-16.0392694064	-8.78842975207	-7.03658536585	-2.32927756654
183	0.0915	-11.8077625571	-8.78842975207	-2.7743902439	3.3072243346
184	0.092	14.9917808219	-4.55991735537	-4.19512195122	13.1711026616
185	0.0925	29.096803653	2.48760330579	-8.45731707317	17.3984790875
186	0.093	5.11826484018	-4.55991735537	-12.7195121951	28.6714828897
187	0.0935	-16.0392694064	-8.78842975207	-8.45731707317	35.7171102662
188	0.094	-16.0392694064	-4.55991735537	-4.19512195122	39.944486692
189	0.0945	-20.2707762557	15.1731404959	-7.03658536585	38.5353612167
190	0.095	-20.2707762557	-1.74090909091	-1.35365853659	37.1262357414
191	0.0955	-6.16575342466	2.48760330579	4.32926829268	28.6714828897
192	0.096	-7.57625570776	-0.331404958678	7.17073170732	21.6258555133
193	0.0965	-28.7337899543	1.07809917355	5.75	17.3984790875
194	0.097	-16.0392694064	2.48760330579	7.17073170732	6.12547528517
195	0.0975	-7.57625570776	-0.331404958678	12.8536585366	-0.920152091255
196	0.098	-4.75525114155	1.07809917355	15.6951219512	0.48897338403
197	0.0985	-3.34474885845	-1.74090909091	19.9573170732	6.12547528517
198	0.099	-1.93424657534	-3.15041322314	21.3780487805	14.5802281369
199	0.0995	-3.34474885845	-0.331404958678	18.5365853659	25.8532319392
200	0.1	-8.98675799087	1.07809917355	21.3780487805	8.94372623574
201	0.1005	-16.0392694064	1.07809917355	29.9024390244	15.9893536122
202	0.101	-21.6812785388	-0.331404958678	8.59146341463	32.8988593156
203	0.1015	-16.0392694064	-1.74090909091	19.9573170732	24.4441064639
204	0.102	-13.2182648402	-1.74090909091	29.9024390244	28.6714828897
205	0.1025	-14.6287671233	-3.15041322314	22.7987804878	34.3079847909
206	0.103	-20.2707762557	-1.74090909091	1.48780487805	32.8988593156
207	0.1035	-8.98675799087	5.30661157025	2.90853658537	31.4897338403
208	0.104	22.0442922374	-0.331404958678	1.48780487805	28.6714828897
209	0.1045	50.2543378995	-1.74090909091	5.75	31.4897338403
210	0.105	55.896347032	6.71611570248	2.90853658537	37.1262357414
211	0.1055	41.7913242009	15.1731404959	11.4329268293	45.5809885932
212	0.106	20.6337899543	20.8111570248	11.4329268293	46.9901140684
213	0.1065	2.29726027397	12.3541322314	11.4329268293	44.1718631179
214	0.107	-8.98675799087	1.07809917355	8.59146341463	38.5353612167
215	0.1075	-6.16575342466	-4.55991735537	11.4329268293	34.3079847909
216	0.108	-1.93424657534	-0.331404958678	12.8536585366	28.6714828897
217	0.1085	-4.75525114155	2.48760330579	12.8536585366	20.216730038
218	0.109	-6.16575342466	2.48760330579	8.59146341463	17.3984790875
219	0.1095	19.2232876712	1.07809917355	11.4329268293	3.3072243346
220	0.11	12.1707762557	1.07809917355	7.17073170732	-5.14752851711
221	0.1105	3.70776255708	1.07809917355	7.17073170732	-15.0114068441
222	0.111	-4.75525114155	1.07809917355	7.17073170732	-15.0114068441
223	0.1115	-14.6287671233	-0.331404958678	4.32926829268	-15.0114068441
224	0.112	-4.75525114155	-0.331404958678	-2.7743902439	-27.6935361217
225	0.1125	9.3497716895	5.30661157025	-8.45731707317	-20.6479087452
226	0.113	22.0442922374	2.48760330579	-8.45731707317	-6.5566539924
227	0.1135	20.6337899543	1.07809917355	-14.1402439024	-17.8296577947
228	0.114	26.2757990868	1.07809917355	1.48780487805	-15.0114068441
229	0.1145	14.9917808219	1.07809917355	5.75	-5.14752851711
230	0.115	7.93926940639	1.07809917355	0.0670731707317	0.48897338403
231	0.1155	-7.57625570776	-0.331404958678	0.0670731707317	18.8076045627
232	0.116	-4.75525114155	-0.331404958678	12.8536585366	21.6258555133
233	0.1165	9.3497716895	-1.74090909091	-9.87804878049	30.080608365
234	0.117	10.7602739726	-0.331404958678	-4.19512195122	37.1262357414
235	0.1175	7.93926940639	2.48760330579	-1.35365853659	38.5353612167
236	0.118	12.1707762557	-3.15041322314	0.0670731707317	37.1262357414
237	0.1185	12.1707762557	10.9446280992	2.90853658537	37.1262357414
238	0.119	2.29726027397	15.1731404959	2.90853658537	41.3536121673
239	0.1195	-6.16575342466	3.89710743802	0.0670731707317	46.9901140684
240	0.12	-8.98675799087	-3.15041322314	0.0670731707317	45.5809885932
241	0.1205	-4.75525114155	-1.74090909091	2.90853658537	34.3079847909
242	0.121	-14.6287671233	1.07809917355	4.32926829268	21.6258555133
243	0.1215	-27.3232876712	1.07809917355	2.90853658537	10.352851711
244	0.122	-31.5547945205	1.07809917355	0.0670731707317	6.12547528517
245	0.1225	-16.0392694064	1.07809917355	-1.35365853659	0.48897338403
246	0.123	-1.93424657534	3.89710743802	0.0670731707317	-9.37490494297
247	0.1235	-10.397260274	2.48760330579	-2.7743902439	-6.5566539924
248	0.124	-3.34474885845	1.07809917355	-4.19512195122	-12.1931558935
249	0.1245	9.3497716895	-0.331404958678	-1.35365853659	-23.4661596958
250	0.125	12.1707762557	1.07809917355	-4.19512195122	-20.6479087452
251	0.1255	12.1707762557	3.89710743802	-15.5609756098	-16.4205323194
252	0.126	2.29726027397	2.48760330579	-16.9817073171	-7.96577946768
253	0.1265	0.886757990868	2.48760330579	-11.2987804878	13.1711026616
254	0.127	-1.93424657534	2.48760330579	-12.7195121951	3.3072243346
255	0.1275	-0.523744292237	1.07809917355	-15.5609756098	15.9893536122
256	0.128	-4.75525114155	-1.74090909091	-8.45731707317	27.2623574144
257	0.1285	-0.523744292237	1.07809917355	2.90853658537	35.7171102662
258	0.129	-0.523744292237	-4.55991735537	-2.7743902439	45.5809885932
259	0.1295	7.93926940639	1.07809917355	-8.45731707317	52.6266159696
260	0.13	2.29726027397	15.1731404959	-4.19512195122	56.8539923954
261	0.1305	-4.75525114155	19.4016528926	0.0670731707317	55.4448669202
262	0.131	0.886757990868	1.07809917355	0.0670731707317	52.6266159696
263	0.1315	-0.523744292237	16.5826446281	0.0670731707317	45.5809885932
264	0.132	-8.98675799087	15.1731404959	-1.35365853659	37.1262357414
265	0.1325	-14.6287671233	6.71611570248	1.48780487805	34.3079847909
266	0.133	-11.8077625571	-5.9694214876	0.0670731707317	25.8532319392
267	0.1335	-10.397260274	-1.74090909091	0.0670731707317	17.3984790875
268	0.134	-8.98675799087	-3.15041322314	1.48780487805	6.12547528517
269	0.1345	12.1707762557	-4.55991735537	0.0670731707317	-0.920152091255
270	0.135	0.886757990868	-3.15041322314	4.32926829268	4.71634980989
271	0.1355	-18.8602739726	-1.74090909091	0.0670731707317	3.3072243346
272	0.136	-21.6812785388	-0.331404958678	4.32926829268	-5.14752851711
273	0.1365	-16.0392694064	1.07809917355	8.59146341463	-13.6022813688
274	0.137	-13.2182648402	1.07809917355	4.32926829268	-10.7840304183
275	0.1375	-4.75525114155	-0.331404958678	1.48780487805	6.12547528517
276	0.138	3.70776255708	-0.331404958678	2.90853658537	-3.73840304183
277	0.1385	12.1707762557	1.07809917355	11.4329268293	-16.4205323194
278	0.139	7.93926940639	2.48760330579	7.17073170732	-19.23878327
279	0.1395	2.29726027397	-1.74090909091	-1.35365853659	-16.4205323194
280	0.14	3.70776255708	-0.331404958678	-1.35365853659	-9.37490494297
281	0.1405	5.11826484018	1.07809917355	-4.19512195122	-6.5566539924
282	0.141	0.886757990868	1.07809917355	24.2195121951	-2.32927756654
283	0.1415	0.886757990868	1.07809917355	15.6951219512	8.94372623574
284	0.142	2.29726027397	1.07809917355	2.90853658537	20.216730038
285	0.1425	-1.93424657534	1.07809917355	2.90853658537	20.216730038
286	0.143	-8.98675799087	-4.55991735537	15.6951219512	20.216730038
287	0.1435	-10.397260274	1.07809917355	21.3780487805	27.2623574144
288	0.144	-7.57625570776	16.5826446281	15.6951219512	27.2623574144
289	0.1445	-4.75525114155	19.4016528926	17.1158536585	24.4441064639
290	0.145	-4.75525114155	8.12561983471	14.2743902439	17.3984790875
291	0.1455	-4.75525114155	1.07809917355	11.4329268293	8.94372623574
292	0.146	-4.75525114155	-7.37892561983	11.4329268293	7.53460076046
293	0.1465	-1.93424657534	-1.74090909091	12.8536585366	4.71634980989
294	0.147	-1.93424657534	1.07809917355	8.59146341463	8.94372623574
295	0.1475	7.93926940639	-0.331404958678	8.59146341463	13.1711026616
296	0.148	-0.523744292237	-1.74090909091	8.59146341463	17.3984790875
297	0.1485	-10.397260274	-1.74090909091	12.8536585366	23.0349809886
298	0.149	7.93926940639	-1.74090909091	11.4329268293	24.4441064639
299	0.1495	-11.8077625571	-1.74090909091	11.4329268293	24.4441064639
300	0.15	-16.0392694064	-3.15041322314	7.17073170732	21.6258555133
301	0.1505	-7.57625570776	-1.74090909091	1.48780487805	17.3984790875
302	0.151	-1.93424657534	-1.74090909091	-1.35365853659	15.9893536122
303	0.1515	-4.75525114155	-4.55991735537	-9.87804878049	46.9901140684
304	0.152	-1.93424657534	-4.55991735537	-9.87804878049	49.808365019
305	0.1525	-1.93424657534	-5.9694214876	-8.45731707317	42.7627376426
306	0.153	-0.523744292237	-3.15041322314	-7.03658536585	34.3079847909
307	0.1535	-6.16575342466	-3.15041322314	-2.7743902439	25.8532319392
308	0.154	-6.16575342466	-1.74090909091	-4.19512195122	27.2623574144
309	0.1545	-4.75525114155	-1.74090909091	2.90853658537	31.4897338403
310	0.155	-3.34474885845	1.07809917355	7.17073170732	21.6258555133
311	0.1555	-4.75525114155	2.48760330579	12.8536585366	15.9893536122
312	0.156	-6.16575342466	2.48760330579	11.4329268293	7.53460076046
313	0.1565	-0.523744292237	-0.331404958678	-4.19512195122	-3.73840304183
314	0.157	-0.523744292237	-0.331404958678	0.0670731707317	-3.73840304183
315	0.1575	-0.523744292237	3.89710743802	2.90853658537	-10.7840304183
316	0.158	-1.93424657534	-1.74090909091	2.90853658537	-13.6022813688
317	0.1585	-3.34474885845	2.48760330579	14.2743902439	-16.4205323194
318	0.159	-0.523744292237	9.53512396694	-1.35365853659	-17.8296577947
319	0.1595	3.70776255708	15.1731404959	0.0670731707317	-17.8296577947
320	0.16	5.11826484018	15.1731404959	2.90853658537	-13.6022813688
321	0.1605	2.29726027397	6.71611570248	5.75	-10.7840304183
322	0.161	-0.523744292237	-5.9694214876	11.4329268293	-6.5566539924
323	0.1615	-1.93424657534	-1.74090909091	18.5365853659	-9.37490494297
324	0.162	-1.93424657534	1.07809917355	22.7987804878	-12.1931558935
325	0.1625	-3.34474885845	1.07809917355	21.3780487805	-9.37490494297
326	0.163	-13.2182648402	1.07809917355	18.5365853659	-6.5566539924
327	0.1635	-4.75525114155	1.07809917355	15.6951219512	-0.920152091255
328	0.164	12.1707762557	2.48760330579	19.9573170732	-6.5566539924
329	0.1645	7.93926940639	1.07809917355	21.3780487805	-7.96577946768
330	0.165	0.886757990868	-1.74090909091	21.3780487805	-10.7840304183
331	0.1655	-11.8077625571	-4.55991735537	18.5365853659	-22.0570342205
332	0.166	-14.6287671233	-1.74090909091	24.2195121951	-27.6935361217
333	0.1665	-10.397260274	1.07809917355	29.9024390244	-30.5117870722
334	0.167	-0.523744292237	-1.74090909091	28.4817073171	-24.8752851711
335	0.1675	-7.57625570776	-3.15041322314	25.6402439024	-20.6479087452
336	0.168	-11.8077625571	-1.74090909091	18.5365853659	0.48897338403
337	0.1685	-16.0392694064	-0.331404958678	15.6951219512	1.89809885932
338	0.169	-13.2182648402	-0.331404958678	11.4329268293	3.3072243346
339	0.1695	-10.397260274	1.07809917355	-12.7195121951	21.6258555133
340	0.17	-11.8077625571	-0.331404958678	-14.1402439024	42.7627376426
341	0.1705	-8.98675799087	1.07809917355	-4.19512195122	63.8996197719
342	0.171	-11.8077625571	3.89710743802	4.32926829268	72.3543726236
343	0.1715	-16.0392694064	-0.331404958678	-7.03658536585	62.4904942966
344	0.172	-25.9127853881	2.48760330579	-12.7195121951	65.3087452471
345	0.1725	-25.9127853881	6.71611570248	-7.03658536585	61.0813688213
346	0.173	-7.57625570776	1.07809917355	-2.7743902439	46.9901140684
347	0.1735	30.5073059361	2.48760330579	1.48780487805	35.7171102662
348	0.174	34.7388127854	1.07809917355	-4.19512195122	25.8532319392
349	0.1745	17.8127853881	-0.331404958678	-1.35365853659	14.5802281369
350	0.175	16.402283105	-4.55991735537	-1.35365853659	3.3072243346
351	0.1755	16.402283105	2.48760330579	-2.7743902439	-3.73840304183
352	0.176	17.8127853881	9.53512396694	-5.61585365854	-12.1931558935
353	0.1765	0.886757990868	-5.9694214876	-7.03658536585	-22.0570342205
354	0.177	-7.57625570776	-8.78842975207	-8.45731707317	-27.6935361217
355	0.1775	-16.0392694064	-5.9694214876	-8.45731707317	-29.102661597
356	0.178	-14.6287671233	1.07809917355	-9.87804878049	-27.6935361217
357	0.1785	-11.8077625571	-0.331404958678	-8.45731707317	-27.6935361217
358	0.179	-13.2182648402	-0.331404958678	-8.45731707317	-29.102661597
359	0.1795	0.886757990868	1.07809917355	-7.03658536585	-26.2844106464
360	0.18	16.402283105	-0.331404958678	-7.03658536585	-26.2844106464
361	0.1805	23.4547945205	-0.331404958678	-8.45731707317	-23.4661596958
362	0.181	17.8127853881	1.07809917355	-12.7195121951	-10.7840304183
363	0.1815	-16.0392694064	1.07809917355	-7.03658536585	-2.32927756654
364	0.182	-18.8602739726	1.07809917355	-4.19512195122	-2.32927756654
365	0.1825	-14.6287671233	1.07809917355	-1.35365853659	-10.7840304183
366	0.183	-10.397260274	-3.15041322314	2.90853658537	-6.5566539924
367	0.1835	-4.75525114155	1.07809917355	0.0670731707317	0.48897338403
368	0.184	-6.16575342466	1.07809917355	-2.7743902439	-0.920152091255
369	0.1845	-11.8077625571	1.07809917355	1.48780487805	3.3072243346
370	0.185	-4.75525114155	-3.15041322314	-7.03658536585	-13.6022813688
371	0.1855	5.11826484018	-0.331404958678	-4.19512195122	-23.4661596958
372	0.186	7.93926940639	-4.55991735537	5.75	-37.5574144487
373	0.1865	-3.34474885845	1.07809917355	4.32926829268	-40.3756653992
374	0.187	-13.2182648402	-1.74090909091	14.2743902439	-38.966539924
375	0.1875	-7.57625570776	-1.74090909091	21.3780487805	-44.6030418251
376	0.188	-7.57625570776	2.48760330579	4.32926829268	-40.3756653992
377	0.1885	-17.4497716895	3.89710743802	4.32926829268	-36.1482889734
378	0.189	-24.502283105	1.07809917355	25.6402439024	-34.7391634981
379	0.1895	-28.7337899543	-0.331404958678	4.32926829268	-29.102661597
380	0.19	-27.3232876712	-0.331404958678	4.32926829268	-24.8752851711
381	0.1905	-21.6812785388	-11.6074380165	7.17073170732	-20.6479087452
382	0.191	-16.0392694064	-13.0169421488	10.012195122	-19.23878327
383	0.1915	-4.75525114155	-3.15041322314	14.2743902439	-13.6022813688
384	0.192	-4.75525114155	1.07809917355	8.59146341463	-3.73840304183
385	0.1925	-4.75525114155	-3.15041322314	2.90853658537	4.71634980989
386	0.193	5.11826484018	-1.74090909091	2.90853658537	10.352851711
387	0.1935	2.29726027397	-10.1979338843	-1.35365853659	20.216730038
388	0.194	7.93926940639	-11.6074380165	0.0670731707317	28.6714828897
389	0.1945	14.9917808219	-5.9694214876	2.90853658537	25.8532319392
390	0.195	-17.4497716895	-1.74090909091	4.32926829268	24.4441064639
391	0.1955	-34.3757990868	2.48760330579	0.0670731707317	13.1711026616
392	0.196	-37.196803653	-0.331404958678	-1.35365853659	3.3072243346
393	0.1965	-18.8602739726	1.07809917355	-2.7743902439	-7.96577946768
394	0.197	-23.0917808219	-0.331404958678	-7.03658536585	-7.96577946768
395	0.1975	-25.9127853881	-0.331404958678	-8.45731707317	-10.7840304183
396	0.198	-10.397260274	1.07809917355	-4.19512195122	-7.96577946768
397	0.1985	23.4547945205	1.07809917355	-2.7743902439	-6.5566539924
398	0.199	33.3283105023	-0.331404958678	-4.19512195122	-7.96577946768
399	0.1995	27.6863013699	-1.74090909091	-4.19512195122	6.12547528517
400	0.2	29.096803653	1.07809917355	-1.35365853659	10.352851711
401	0.2005	20.6337899543	-3.15041322314	0.0670731707317	-0.920152091255
402	0.201	0.886757990868	-1.74090909091	5.75	-9.37490494297
403	0.2015	-7.57625570776	-4.55991735537	22.7987804878	-15.0114068441
404	0.202	-7.57625570776	1.07809917355	11.4329268293	-30.5117870722
405	0.2025	-11.8077625571	-0.331404958678	5.75	-20.6479087452
406	0.203	-3.34474885845	1.07809917355	2.90853658537	-17.8296577947
407	0.2035	-3.34474885845	1.07809917355	1.48780487805	-12.1931558935
408	0.204	9.3497716895	-0.331404958678	0.0670731707317	-13.6022813688
409	0.2045	29.096803653	-5.9694214876	4.32926829268	-16.4205323194
410	0.205	30.5073059361	-7.37892561983	8.59146341463	-17.8296577947
411	0.2055	19.2232876712	-11.6074380165	5.75	-15.0114068441
412	0.206	9.3497716895	-11.6074380165	8.59146341463	-15.0114068441
413	0.2065	7.93926940639	-11.6074380165	7.17073170732	-16.4205323194
414	0.207	5.11826484018	-7.37892561983	11.4329268293	-12.1931558935
415	0.2075	9.3497716895	-4.55991735537	14.2743902439	-7.96577946768
416	0.208	14.9917808219	-4.55991735537	12.8536585366	-5.14752851711
417	0.2085	12.1707762557	-4.55991735537	11.4329268293	-0.920152091255
418	0.209	10.7602739726	1.07809917355	4.32926829268	0.48897338403
419	0.2095	-28.7337899543	-0.331404958678	0.0670731707317	0.48897338403
420	0.21	-31.5547945205	-4.55991735537	-2.7743902439	-5.14752851711
421	0.2105	-18.8602739726	1.07809917355	0.0670731707317	-10.7840304183
422	0.211	-40.0178082192	-1.74090909091	1.48780487805	-12.1931558935
423	0.2115	-47.0703196347	-0.331404958678	5.75	-10.7840304183
424	0.212	-32.9652968037	5.30661157025	1.48780487805	-12.1931558935
425	0.2125	-32.9652968037	-0.331404958678	-4.19512195122	-6.5566539924
426	0.213	-11.8077625571	-1.74090909091	-2.7743902439	-9.37490494297
427	0.2135	23.4547945205	1.07809917355	-4.19512195122	-16.4205323194
428	0.214	33.3283105023	1.07809917355	-7.03658536585	-30.5117870722
429	0.2145	9.3497716895	-0.331404958678	1.48780487805	-44.6030418251
430	0.215	-4.75525114155	1.07809917355	4.32926829268	-46.0121673004
431	0.2155	5.11826484018	-1.74090909091	-8.45731707317	-41.7847908745
432	0.216	3.70776255708	-3.15041322314	2.90853658537	-47.4212927757
433	0.2165	7.93926940639	-1.74090909091	11.4329268293	-50.2395437262
434	0.217	13.5812785388	-0.331404958678	14.2743902439	-46.0121673004
435	0.2175	5.11826484018	-5.9694214876	11.4329268293	-38.966539924
436	0.218	-8.98675799087	-0.331404958678	-9.87804878049	-26.2844106464
437	0.2185	-11.8077625571	-1.74090909091	-4.19512195122	-13.6022813688
438	0.219	-6.16575342466	-0.331404958678	-2.7743902439	-5.14752851711
439	0.2195	-14.6287671233	1.07809917355	-5.61585365854	14.5802281369
440	0.22	-16.0392694064	-7.37892561983	-7.03658536585	24.4441064639
441	0.2205	-16.0392694064	13.7636363636	-1.35365853659	28.6714828897
442	0.221	-25.9127853881	2.48760330579	2.90853658537	27.2623574144
443	0.2215	-41.4283105023	-10.1979338843	2.90853658537	25.8532319392
444	0.222	-41.4283105023	-5.9694214876	-1.35365853659	31.4897338403
445	0.2225	-24.502283105	-4.55991735537	0.0670731707317	28.6714828897
446	0.223	-7.57625570776	-1.74090909091	2.90853658537	23.0349809886
447	0.2235	0.886757990868	-1.74090909091	4.32926829268	15.9893536122
448	0.224	24.8652968037	-3.15041322314	7.17073170732	10.352851711
449	0.2245	29.096803653	-0.331404958678	4.32926829268	7.53460076046
450	0.225	44.6123287671	-1.74090909091	11.4329268293	4.71634980989
451	0.2255	74.2328767123	-1.74090909091	18.5365853659	10.352851711
452	0.226	86.9273972603	-0.331404958678	15.6951219512	11.7619771863
453	0.2265	64.3593607306	-0.331404958678	18.5365853659	8.94372623574
454	0.227	48.8438356164	-3.15041322314	21.3780487805	-2.32927756654
455	0.2275	34.7388127854	-0.331404958678	17.1158536585	-3.73840304183
456	0.228	14.9917808219	-0.331404958678	4.32926829268	-3.73840304183
457	0.2285	-4.75525114155	-3.15041322314	11.4329268293	-12.1931558935
458	0.229	-4.75525114155	-7.37892561983	4.32926829268	-13.6022813688
459	0.2295	-7.57625570776	-8.78842975207	-4.19512195122	-13.6022813688
460	0.23	-16.0392694064	-7.37892561983	8.59146341463	-20.6479087452
461	0.2305	-16.0392694064	-4.55991735537	22.7987804878	-26.2844106464
462	0.231	-13.2182648402	-3.15041322314	17.1158536585	-31.9209125475
463	0.2315	-11.8077625571	-11.6074380165	2.90853658537	-36.1482889734
464	0.232	-8.98675799087	-4.55991735537	-1.35365853659	-38.966539924
465	0.2325	-4.75525114155	-7.37892561983	-1.35365853659	-36.1482889734
466	0.233	0.886757990868	-17.2454545455	-7.03658536585	-37.5574144487
467	0.2335	9.3497716895	-28.5214876033	-11.2987804878	-33.3300380228
468	0.234	16.402283105	-7.37892561983	-15.5609756098	-24.8752851711
469	0.2345	16.402283105	-24.2929752066	-15.5609756098	-17.8296577947
470	0.235	17.8127853881	-32.75	-12.7195121951	-7.96577946768
471	0.2355	12.1707762557	-22.8834710744	-7.03658536585	-0.920152091255
472	0.236	10.7602739726	-15.8359504132	-7.03658536585	10.352851711
473	0.2365	-8.98675799087	5.30661157025	-8.45731707317	34.3079847909
474	0.237	-16.0392694064	-10.1979338843	-11.2987804878	49.808365019
475	0.2375	0.886757990868	-10.1979338843	-7.03658536585	61.0813688213
476	0.238	12.1707762557	-7.37892561983	-7.03658536585	58.2631178707
477	0.2385	-3.34474885845	-5.9694214876	-8.45731707317	51.2174904943
478	0.239	0.886757990868	-8.78842975207	-5.61585365854	37.1262357414
479	0.2395	6.52876712329	-8.78842975207	0.0670731707317	44.1718631179
480	0.24	-1.93424657534	-4.55991735537	-4.19512195122	38.5353612167
481	0.2405	-4.75525114155	-4.55991735537	-2.7743902439	28.6714828897
482	0.241	-3.34474885845	-10.1979338843	-2.7743902439	41.3536121673
483	0.2415	-0.523744292237	-11.6074380165	-8.45731707317	44.1718631179
484	0.242	0.886757990868	-11.6074380165	-9.87804878049	10.352851711
485	0.2425	5.11826484018	-14.426446281	-16.9817073171	7.53460076046
486	0.243	0.886757990868	-15.8359504132	-16.9817073171	1.89809885932
487	0.2435	-6.16575342466	-8.78842975207	-7.03658536585	-7.96577946768
488	0.244	-10.397260274	-5.9694214876	-9.87804878049	-13.6022813688
489	0.2445	-11.8077625571	-8.78842975207	-9.87804878049	-22.0570342205
490	0.245	-13.2182648402	-10.1979338843	-5.61585365854	-24.8752851711
491	0.2455	-6.16575342466	-11.6074380165	14.2743902439	-29.102661597
492	0.246	12.1707762557	-10.1979338843	-4.19512195122	-29.102661597
493	0.2465	17.8127853881	-7.37892561983	-5.61585365854	-29.102661597
494	0.247	12.1707762557	-21.4739669421	-4.19512195122	-27.6935361217
495	0.2475	0.886757990868	-21.4739669421	-7.03658536585	-23.4661596958
496	0.248	-8.98675799087	-1.74090909091	-5.61585365854	-17.8296577947
497	0.2485	-24.502283105	-17.2454545455	2.90853658537	-16.4205323194
498	0.249	-21.6812785388	-20.0644628099	1.48780487805	-10.7840304183
499	0.2495	-10.397260274	-15.8359504132	2.90853658537	-6.5566539924
500	0.25	-3.34474885845	-10.1979338843	2.90853658537	-5.14752851711
501	0.2505	-10.397260274	-0.331404958678	1.48780487805	0.48897338403
502	0.251	-18.8602739726	-4.55991735537	-1.35365853659	7.53460076046
503	0.2515	-8.98675799087	-8.78842975207	2.90853658537	8.94372623574
504	0.252	3.70776255708	-13.0169421488	7.17073170732	6.12547528517
505	0.2525	7.93926940639	-13.0169421488	4.32926829268	8.94372623574
506	0.253	-0.523744292237	-11.6074380165	5.75	8.94372623574
507	0.2535	-4.75525114155	-17.2454545455	4.32926829268	6.12547528517
508	0.254	23.4547945205	-20.0644628099	1.48780487805	-3.73840304183
509	0.2545	26.2757990868	-13.0169421488	4.32926829268	-15.0114068441
510	0.255	9.3497716895	-7.37892561983	0.0670731707317	-9.37490494297
511	0.2555	-4.75525114155	-7.37892561983	-5.61585365854	0.48897338403
512	0.256	-6.16575342466	-4.55991735537	-7.03658536585	-5.14752851711
513	0.2565	0.886757990868	1.07809917355	2.90853658537	10.352851711
514	0.257	10.7602739726	2.48760330579	-8.45731707317	4.71634980989
515	0.2575	2.29726027397	-0.331404958678	-5.61585365854	13.1711026616
516	0.258	-1.93424657534	-0.331404958678	5.75	10.352851711
517	0.2585	-3.34474885845	5.30661157025	1.48780487805	8.94372623574
518	0.259	-1.93424657534	1.07809917355	2.90853658537	7.53460076046
519	0.2595	-4.75525114155	-3.15041322314	-2.7743902439	15.9893536122
520	0.26	-10.397260274	-11.6074380165	15.6951219512	20.216730038
521	0.2605	-7.57625570776	-4.55991735537	0.0670731707317	23.0349809886
522	0.261	-3.34474885845	10.9446280992	-2.7743902439	21.6258555133
523	0.2615	-7.57625570776	1.07809917355	-2.7743902439	18.8076045627
524	0.262	-8.98675799087	1.07809917355	-4.19512195122	14.5802281369
525	0.2625	-11.8077625571	9.53512396694	-7.03658536585	14.5802281369
526	0.263	-11.8077625571	-13.0169421488	-8.45731707317	14.5802281369
527	0.2635	-8.98675799087	-5.9694214876	-9.87804878049	17.3984790875
528	0.264	-16.0392694064	-3.15041322314	-7.03658536585	20.216730038
529	0.2645	-7.57625570776	-7.37892561983	-1.35365853659	20.216730038
530	0.265	9.3497716895	-3.15041322314	-1.35365853659	13.1711026616
531	0.2655	-1.93424657534	-5.9694214876	-2.7743902439	14.5802281369
532	0.266	-14.6287671233	-5.9694214876	-4.19512195122	15.9893536122
533	0.2665	-16.0392694064	-1.74090909091	-4.19512195122	15.9893536122
534	0.267	2.29726027397	-3.15041322314	-5.61585365854	20.216730038
535	0.2675	3.70776255708	-3.15041322314	-7.03658536585	31.4897338403
536	0.268	0.886757990868	-1.74090909091	-4.19512195122	15.9893536122
537	0.2685	-6.16575342466	1.07809917355	-7.03658536585	3.3072243346
538	0.269	-7.57625570776	1.07809917355	-7.03658536585	7.53460076046
539	0.2695	-4.75525114155	-4.55991735537	-7.03658536585	6.12547528517
540	0.27	-0.523744292237	-4.55991735537	-18.4024390244	8.94372623574
541	0.2705	-10.397260274	2.48760330579	-5.61585365854	3.3072243346
542	0.271	-18.8602739726	-0.331404958678	11.4329268293	-9.37490494297
543	0.2715	-25.9127853881	-3.15041322314	12.8536585366	-10.7840304183
544	0.272	-23.0917808219	-3.15041322314	-9.87804878049	-12.1931558935
545	0.2725	-16.0392694064	-0.331404958678	-2.7743902439	-15.0114068441
546	0.273	-11.8077625571	-4.55991735537	-1.35365853659	-16.4205323194
547	0.2735	0.886757990868	-13.0169421488	-1.35365853659	-13.6022813688
548	0.274	-3.34474885845	19.4016528926	-1.35365853659	-10.7840304183
549	0.2745	-18.8602739726	3.89710743802	0.0670731707317	-19.23878327
550	0.275	-31.5547945205	-7.37892561983	2.90853658537	-27.6935361217
551	0.2755	-23.0917808219	1.07809917355	4.32926829268	-33.3300380228
552	0.276	-13.2182648402	19.4016528926	-1.35365853659	-27.6935361217
553	0.2765	-4.75525114155	5.30661157025	-5.61585365854	-20.6479087452
554	0.277	38.9703196347	1.07809917355	-5.61585365854	-20.6479087452
555	0.2775	31.9178082192	1.07809917355	-2.7743902439	-16.4205323194
556	0.278	47.4333333333	-4.55991735537	-1.35365853659	-3.73840304183
557	0.2785	60.1278538813	1.07809917355	1.48780487805	4.71634980989
558	0.279	16.402283105	-0.331404958678	0.0670731707317	21.6258555133
559	0.2795	-10.397260274	2.48760330579	2.90853658537	15.9893536122
560	0.28	-30.1442922374	2.48760330579	7.17073170732	31.4897338403
561	0.2805	-32.9652968037	2.48760330579	0.0670731707317	46.9901140684
562	0.281	-27.3232876712	2.48760330579	2.90853658537	34.3079847909
563	0.2815	-17.4497716895	1.07809917355	-11.2987804878	32.8988593156
564	0.282	-1.93424657534	-1.74090909091	-7.03658536585	28.6714828897
565	0.2825	2.29726027397	1.07809917355	-2.7743902439	17.3984790875
566	0.283	-4.75525114155	3.89710743802	-14.1402439024	18.8076045627
567	0.2835	-6.16575342466	1.07809917355	-8.45731707317	20.216730038
568	0.284	19.2232876712	-0.331404958678	4.32926829268	10.352851711
569	0.2845	24.8652968037	-3.15041322314	11.4329268293	1.89809885932
570	0.285	31.9178082192	-4.55991735537	12.8536585366	-0.920152091255
571	0.2855	27.6863013699	-10.1979338843	17.1158536585	6.12547528517
572	0.286	3.70776255708	22.220661157	15.6951219512	14.5802281369
573	0.2865	-11.8077625571	19.4016528926	14.2743902439	20.216730038
574	0.287	-14.6287671233	22.220661157	14.2743902439	23.0349809886
575	0.2875	5.11826484018	3.89710743802	11.4329268293	28.6714828897
576	0.288	29.096803653	5.30661157025	8.59146341463	30.080608365
577	0.2885	27.6863013699	1.07809917355	7.17073170732	21.6258555133
578	0.289	-4.75525114155	6.71611570248	4.32926829268	15.9893536122
579	0.2895	-3.34474885845	9.53512396694	5.75	7.53460076046
580	0.29	9.3497716895	10.9446280992	11.4329268293	6.12547528517
581	0.2905	-25.9127853881	9.53512396694	12.8536585366	8.94372623574
582	0.291	-20.2707762557	10.9446280992	8.59146341463	3.3072243346
583	0.2915	-11.8077625571	10.9446280992	5.75	0.48897338403
584	0.292	-4.75525114155	6.71611570248	2.90853658537	8.94372623574
585	0.2925	-13.2182648402	2.48760330579	-5.61585365854	30.080608365
586	0.293	-11.8077625571	3.89710743802	-8.45731707317	27.2623574144
587	0.2935	-8.98675799087	8.12561983471	-8.45731707317	23.0349809886
588	0.294	-3.34474885845	9.53512396694	-7.03658536585	-2.32927756654
589	0.2945	-11.8077625571	6.71611570248	2.90853658537	-3.73840304183
590	0.295	-31.5547945205	6.71611570248	-9.87804878049	0.48897338403
591	0.2955	-40.0178082192	6.71611570248	-8.45731707317	4.71634980989
592	0.296	-27.3232876712	5.30661157025	-1.35365853659	3.3072243346
593	0.2965	-21.6812785388	9.53512396694	-1.35365853659	1.89809885932
594	0.297	-35.7863013699	8.12561983471	-19.8231707317	6.12547528517
595	0.2975	-38.6073059361	6.71611570248	-11.2987804878	11.7619771863
596	0.298	-32.9652968037	1.07809917355	-14.1402439024	15.9893536122
597	0.2985	-24.502283105	-10.1979338843	-11.2987804878	17.3984790875
598	0.299	-20.2707762557	-5.9694214876	-11.2987804878	17.3984790875
599	0.2995	-27.3232876712	-0.331404958678	-11.2987804878	17.3984790875
600	0.3	-27.3232876712	2.48760330579	-9.87804878049	18.8076045627
601	0.3005	-13.2182648402	1.07809917355	-4.19512195122	18.8076045627
602	0.301	6.52876712329	1.07809917355	-4.19512195122	15.9893536122
603	0.3015	-0.523744292237	3.89710743802	-5.61585365854	8.94372623574
604	0.302	-7.57625570776	3.89710743802	-5.61585365854	1.89809885932
605	0.3025	-0.523744292237	3.89710743802	-4.19512195122	-0.920152091255
606	0.303	30.5073059361	3.89710743802	-2.7743902439	-0.920152091255
607	0.3035	74.2328767123	1.07809917355	4.32926829268	-2.32927756654
608	0.304	74.2328767123	-0.331404958678	4.32926829268	-6.5566539924
609	0.3045	58.7173515982	-0.331404958678	2.90853658537	0.48897338403
610	0.305	55.896347032	-0.331404958678	11.4329268293	-3.73840304183
611	0.3055	41.7913242009	-1.74090909091	17.1158536585	-12.1931558935
612	0.306	14.9917808219	3.89710743802	1.48780487805	-6.5566539924
613	0.3065	-13.2182648402	5.30661157025	1.48780487805	17.3984790875
614	0.307	-20.2707762557	5.30661157025	2.90853658537	0.48897338403
615	0.3075	-17.4497716895	5.30661157025	-4.19512195122	13.1711026616
616	0.308	-3.34474885845	2.48760330579	-7.03658536585	20.216730038
617	0.3085	17.8127853881	2.48760330579	-1.35365853659	27.2623574144
618	0.309	14.9917808219	1.07809917355	7.17073170732	32.8988593156
619	0.3095	3.70776255708	2.48760330579	-5.61585365854	34.3079847909
620	0.31	5.11826484018	2.48760330579	-5.61585365854	32.8988593156
621	0.3105	5.11826484018	8.12561983471	5.75	27.2623574144
622	0.311	5.11826484018	-3.15041322314	2.90853658537	21.6258555133
623	0.3115	14.9917808219	1.07809917355	2.90853658537	15.9893536122
624	0.312	19.2232876712	8.12561983471	8.59146341463	0.48897338403
625	0.3125	12.1707762557	17.9921487603	8.59146341463	-6.5566539924
626	0.313	10.7602739726	15.1731404959	7.17073170732	-16.4205323194
627	0.3135	-1.93424657534	8.12561983471	11.4329268293	-19.23878327
628	0.314	-6.16575342466	9.53512396694	12.8536585366	-17.8296577947
629	0.3145	-10.397260274	8.12561983471	12.8536585366	-17.8296577947
630	0.315	-18.8602739726	19.4016528926	15.6951219512	-15.0114068441
631	0.3155	-4.75525114155	8.12561983471	19.9573170732	-13.6022813688
632	0.316	10.7602739726	15.1731404959	21.3780487805	-2.32927756654
633	0.3165	-21.6812785388	16.5826446281	22.7987804878	13.1711026616
634	0.317	-4.75525114155	15.1731404959	21.3780487805	24.4441064639
635	0.3175	9.3497716895	10.9446280992	18.5365853659	39.944486692
636	0.318	-10.397260274	9.53512396694	18.5365853659	62.4904942966
637	0.3185	-8.98675799087	9.53512396694	12.8536585366	73.7634980989
638	0.319	-3.34474885845	9.53512396694	12.8536585366	56.8539923954
639	0.3195	10.7602739726	8.12561983471	7.17073170732	69.536121673
640	0.32	3.70776255708	10.9446280992	1.48780487805	68.1269961977
641	0.3205	-11.8077625571	16.5826446281	0.0670731707317	42.7627376426
642	0.321	-21.6812785388	15.1731404959	-12.7195121951	28.6714828897
643	0.3215	-20.2707762557	13.7636363636	-25.506097561	13.1711026616
644	0.322	-10.397260274	16.5826446281	-26.9268292683	4.71634980989
645	0.3225	-4.75525114155	20.8111570248	-15.5609756098	-6.5566539924
646	0.323	-0.523744292237	20.8111570248	-7.03658536585	-19.23878327
647	0.3235	30.5073059361	23.6301652893	-31.1890243902	-23.4661596958
648	0.324	47.4333333333	26.4491735537	-26.9268292683	-23.4661596958
649	0.3245	57.3068493151	32.0871900826	-24.0853658537	-22.0570342205
650	0.325	34.7388127854	27.858677686	-18.4024390244	-20.6479087452
651	0.3255	6.52876712329	6.71611570248	-22.6646341463	-15.0114068441
652	0.326	-6.16575342466	15.1731404959	-24.0853658537	-6.5566539924
653	0.3265	-4.75525114155	22.220661157	-18.4024390244	1.89809885932
654	0.327	-4.75525114155	22.220661157	-19.8231707317	6.12547528517
655	0.3275	-18.8602739726	2.48760330579	-18.4024390244	13.1711026616
656	0.328	-17.4497716895	-1.74090909091	-16.9817073171	15.9893536122
657	0.3285	-23.0917808219	13.7636363636	-15.5609756098	20.216730038
658	0.329	-16.0392694064	26.4491735537	-15.5609756098	20.216730038
659	0.3295	-1.93424657534	29.2681818182	-11.2987804878	25.8532319392
660	0.33	-3.34474885845	17.9921487603	-11.2987804878	25.8532319392
661	0.3305	17.8127853881	13.7636363636	-11.2987804878	23.0349809886
662	0.331	0.886757990868	8.12561983471	-8.45731707317	20.216730038
663	0.3315	-4.75525114155	-5.9694214876	-5.61585365854	21.6258555133
664	0.332	0.886757990868	-10.1979338843	-4.19512195122	10.352851711
665	0.3325	3.70776255708	-3.15041322314	-4.19512195122	4.71634980989
666	0.333	0.886757990868	10.9446280992	-5.61585365854	3.3072243346
667	0.3335	-8.98675799087	22.220661157	1.48780487805	-0.920152091255
668	0.334	-11.8077625571	22.220661157	5.75	-3.73840304183
669	0.3345	-14.6287671233	13.7636363636	2.90853658537	25.8532319392
670	0.335	-14.6287671233	2.48760330579	1.48780487805	27.2623574144
671	0.3355	-10.397260274	-11.6074380165	0.0670731707317	15.9893536122
672	0.336	-4.75525114155	-8.78842975207	5.75	21.6258555133
673	0.3365	0.886757990868	2.48760330579	12.8536585366	24.4441064639
674	0.337	5.11826484018	17.9921487603	15.6951219512	28.6714828897
675	0.3375	7.93926940639	8.12561983471	-4.19512195122	38.5353612167
676	0.338	7.93926940639	5.30661157025	5.75	31.4897338403
677	0.3385	-0.523744292237	1.07809917355	-4.19512195122	30.080608365
678	0.339	-3.34474885845	5.30661157025	-15.5609756098	28.6714828897
679	0.3395	-3.34474885845	20.8111570248	-2.7743902439	18.8076045627
680	0.34	-11.8077625571	17.9921487603	-2.7743902439	6.12547528517
681	0.3405	-17.4497716895	2.48760330579	0.0670731707317	0.48897338403
682	0.341	-8.98675799087	1.07809917355	-1.35365853659	-3.73840304183
683	0.3415	-3.34474885845	3.89710743802	-1.35365853659	-9.37490494297
684	0.342	5.11826484018	13.7636363636	-1.35365853659	-16.4205323194
685	0.3425	10.7602739726	15.1731404959	0.0670731707317	-20.6479087452
686	0.343	9.3497716895	16.5826446281	0.0670731707317	-17.8296577947
687	0.3435	7.93926940639	20.8111570248	-1.35365853659	-15.0114068441
688	0.344	2.29726027397	25.0396694215	-1.35365853659	-7.96577946768
689	0.3445	-6.16575342466	20.8111570248	4.32926829268	0.48897338403
690	0.345	-10.397260274	19.4016528926	5.75	0.48897338403
691	0.3455	-3.34474885845	15.1731404959	5.75	3.3072243346
692	0.346	-11.8077625571	19.4016528926	5.75	6.12547528517
693	0.3465	-20.2707762557	25.0396694215	5.75	7.53460076046
694	0.347	-20.2707762557	23.6301652893	4.32926829268	3.3072243346
695	0.3475	-20.2707762557	19.4016528926	4.32926829268	0.48897338403
696	0.348	-25.9127853881	20.8111570248	-1.35365853659	6.12547528517
697	0.3485	-27.3232876712	25.0396694215	-1.35365853659	31.4897338403
698	0.349	-27.3232876712	29.2681818182	-4.19512195122	25.8532319392
699	0.3495	-27.3232876712	25.0396694215	-7.03658536585	8.94372623574
700	0.35	-28.7337899543	22.220661157	-12.7195121951	4.71634980989
701	0.3505	-23.0917808219	15.1731404959	-7.03658536585	14.5802281369
702	0.351	-17.4497716895	10.9446280992	4.32926829268	14.5802281369
703	0.3515	-13.2182648402	16.5826446281	-2.7743902439	13.1711026616
704	0.352	-14.6287671233	23.6301652893	-14.1402439024	7.53460076046
705	0.3525	2.29726027397	33.4966942149	-16.9817073171	15.9893536122
706	0.353	23.4547945205	29.2681818182	0.0670731707317	3.3072243346
707	0.3535	34.7388127854	17.9921487603	-1.35365853659	-7.96577946768
708	0.354	37.5598173516	20.8111570248	-7.03658536585	-17.8296577947
709	0.3545	24.8652968037	6.71611570248	0.0670731707317	-23.4661596958
710	0.355	19.2232876712	-5.9694214876	1.48780487805	-15.0114068441
711	0.3555	24.8652968037	1.07809917355	2.90853658537	-10.7840304183
712	0.356	20.6337899543	26.4491735537	4.32926829268	-3.73840304183
713	0.3565	5.11826484018	16.5826446281	2.90853658537	3.3072243346
714	0.357	-4.75525114155	5.30661157025	2.90853658537	13.1711026616
715	0.3575	-7.57625570776	-14.426446281	1.48780487805	20.216730038
716	0.358	-14.6287671233	-21.4739669421	-1.35365853659	28.6714828897
717	0.3585	-28.7337899543	-5.9694214876	-9.87804878049	31.4897338403
718	0.359	-35.7863013699	1.07809917355	-11.2987804878	34.3079847909
719	0.3595	-11.8077625571	5.30661157025	-8.45731707317	30.080608365
720	0.36	-4.75525114155	6.71611570248	-9.87804878049	10.352851711
721	0.3605	-4.75525114155	3.89710743802	-11.2987804878	7.53460076046
722	0.361	13.5812785388	8.12561983471	-7.03658536585	-9.37490494297
723	0.3615	5.11826484018	10.9446280992	-4.19512195122	-9.37490494297
724	0.362	-6.16575342466	5.30661157025	0.0670731707317	-7.96577946768
725	0.3625	-3.34474885845	1.07809917355	-1.35365853659	-16.4205323194
726	0.363	0.886757990868	1.07809917355	-5.61585365854	-5.14752851711
727	0.3635	0.886757990868	6.71611570248	-11.2987804878	11.7619771863
728	0.364	-11.8077625571	9.53512396694	-5.61585365854	34.3079847909
729	0.3645	-18.8602739726	15.1731404959	12.8536585366	18.8076045627
730	0.365	-25.9127853881	16.5826446281	1.48780487805	17.3984790875
731	0.3655	-31.5547945205	17.9921487603	-4.19512195122	8.94372623574
732	0.366	-32.9652968037	15.1731404959	-8.45731707317	-0.920152091255
733	0.3665	-27.3232876712	15.1731404959	-1.35365853659	-3.73840304183
734	0.367	-11.8077625571	13.7636363636	14.2743902439	-5.14752851711
735	0.3675	23.4547945205	3.89710743802	1.48780487805	-6.5566539924
736	0.368	29.096803653	8.12561983471	5.75	-7.96577946768
737	0.3685	17.8127853881	27.858677686	5.75	-10.7840304183
738	0.369	0.886757990868	34.9061983471	0.0670731707317	-6.5566539924
739	0.3695	-8.98675799087	25.0396694215	-4.19512195122	-0.920152091255
740	0.37	-16.0392694064	8.12561983471	-7.03658536585	7.53460076046
741	0.3705	-18.8602739726	10.9446280992	-2.7743902439	17.3984790875
742	0.371	-21.6812785388	10.9446280992	-1.35365853659	25.8532319392
743	0.3715	-24.502283105	23.6301652893	0.0670731707317	27.2623574144
744	0.372	-21.6812785388	22.220661157	-4.19512195122	25.8532319392
745	0.3725	7.93926940639	17.9921487603	0.0670731707317	15.9893536122
746	0.373	-10.397260274	20.8111570248	0.0670731707317	8.94372623574
747	0.3735	-21.6812785388	15.1731404959	1.48780487805	-0.920152091255
748	0.374	-35.7863013699	12.3541322314	1.48780487805	-17.8296577947
749	0.3745	-38.6073059361	13.7636363636	0.0670731707317	-30.5117870722
750	0.375	-31.5547945205	20.8111570248	-1.35365853659	-36.1482889734
751	0.3755	-6.16575342466	22.220661157	-1.35365853659	-40.3756653992
752	0.376	54.4858447489	15.1731404959	1.48780487805	-33.3300380228
753	0.3765	82.695890411	19.4016528926	2.90853658537	-43.1939163498
754	0.377	30.5073059361	16.5826446281	5.75	-40.3756653992
755	0.3775	-11.8077625571	10.9446280992	7.17073170732	-29.102661597
756	0.378	-14.6287671233	8.12561983471	0.0670731707317	-22.0570342205
757	0.3785	-1.93424657534	12.3541322314	7.17073170732	-13.6022813688
758	0.379	3.70776255708	2.48760330579	1.48780487805	-0.920152091255
759	0.3795	-20.2707762557	3.89710743802	1.48780487805	14.5802281369
760	0.38	-25.9127853881	2.48760330579	7.17073170732	31.4897338403
761	0.3805	-18.8602739726	6.71611570248	0.0670731707317	41.3536121673
762	0.381	-18.8602739726	20.8111570248	7.17073170732	44.1718631179
763	0.3815	-30.1442922374	9.53512396694	7.17073170732	45.5809885932
764	0.382	-51.301826484	5.30661157025	12.8536585366	45.5809885932
765	0.3825	-54.1228310502	2.48760330579	14.2743902439	45.5809885932
766	0.383	-34.3757990868	8.12561983471	14.2743902439	38.5353612167
767	0.3835	-7.57625570776	9.53512396694	7.17073170732	34.3079847909
768	0.384	10.7602739726	16.5826446281	12.8536585366	28.6714828897
769	0.3845	33.3283105023	9.53512396694	8.59146341463	21.6258555133
770	0.385	43.201826484	15.1731404959	10.012195122	23.0349809886
771	0.3855	27.6863013699	19.4016528926	11.4329268293	23.0349809886
772	0.386	14.9917808219	26.4491735537	7.17073170732	24.4441064639
773	0.3865	7.93926940639	26.4491735537	1.48780487805	18.8076045627
774	0.387	-17.4497716895	19.4016528926	-2.7743902439	25.8532319392
775	0.3875	-23.0917808219	16.5826446281	-1.35365853659	25.8532319392
776	0.388	-32.9652968037	17.9921487603	8.59146341463	14.5802281369
777	0.3885	-47.0703196347	12.3541322314	19.9573170732	6.12547528517
778	0.389	-41.4283105023	9.53512396694	-4.19512195122	7.53460076046
779	0.3895	-23.0917808219	13.7636363636	7.17073170732	-10.7840304183
780	0.39	-21.6812785388	12.3541322314	12.8536585366	-19.23878327
781	0.3905	-20.2707762557	16.5826446281	5.75	-26.2844106464
782	0.391	-17.4497716895	22.220661157	-4.19512195122	-34.7391634981
783	0.3915	0.886757990868	20.8111570248	4.32926829268	-40.3756653992
784	0.392	12.1707762557	9.53512396694	2.90853658537	-46.0121673004
785	0.3925	3.70776255708	1.07809917355	8.59146341463	-44.6030418251
786	0.393	-21.6812785388	2.48760330579	4.32926829268	-37.5574144487
787	0.3935	-28.7337899543	6.71611570248	5.75	-29.102661597
788	0.394	-6.16575342466	13.7636363636	7.17073170732	-16.4205323194
789	0.3945	19.2232876712	10.9446280992	5.75	-5.14752851711
790	0.395	14.9917808219	16.5826446281	5.75	6.12547528517
791	0.3955	12.1707762557	8.12561983471	1.48780487805	20.216730038
792	0.396	23.4547945205	3.89710743802	-1.35365853659	27.2623574144
793	0.3965	38.9703196347	1.07809917355	-1.35365853659	28.6714828897
794	0.397	46.0228310502	3.89710743802	-1.35365853659	35.7171102662
795	0.3975	38.9703196347	5.30661157025	0.0670731707317	28.6714828897
796	0.398	43.201826484	-0.331404958678	-2.7743902439	35.7171102662
797	0.3985	43.201826484	-1.74090909091	-11.2987804878	25.8532319392
798	0.399	30.5073059361	2.48760330579	-12.7195121951	23.0349809886
799	0.3995	26.2757990868	6.71611570248	-14.1402439024	23.0349809886
800	0.4	2.29726027397	6.71611570248	-8.45731707317	4.71634980989
801	0.4005	-10.397260274	15.1731404959	-18.4024390244	3.3072243346
802	0.401	-7.57625570776	17.9921487603	-9.87804878049	4.71634980989
803	0.4015	-13.2182648402	20.8111570248	7.17073170732	-17.8296577947
804	0.402	-14.6287671233	16.5826446281	0.0670731707317	-13.6022813688
805	0.4025	-24.502283105	6.71611570248	-9.87804878049	-5.14752851711
806	0.403	-17.4497716895	2.48760330579	-8.45731707317	3.3072243346
807	0.4035	-8.98675799087	-4.55991735537	-1.35365853659	20.216730038
808	0.404	-1.93424657534	-0.331404958678	-2.7743902439	27.2623574144
809	0.4045	-1.93424657534	2.48760330579	-1.35365853659	30.080608365
810	0.405	-14.6287671233	20.8111570248	-1.35365853659	31.4897338403
811	0.4055	-17.4497716895	26.4491735537	0.0670731707317	34.3079847909
812	0.406	-21.6812785388	15.1731404959	-2.7743902439	30.080608365
813	0.4065	-16.0392694064	15.1731404959	-1.35365853659	24.4441064639
814	0.407	7.93926940639	12.3541322314	4.32926829268	15.9893536122
815	0.4075	27.6863013699	8.12561983471	7.17073170732	13.1711026616
816	0.408	48.8438356164	6.71611570248	4.32926829268	14.5802281369
817	0.4085	91.1589041096	5.30661157025	0.0670731707317	15.9893536122
818	0.409	55.896347032	6.71611570248	7.17073170732	8.94372623574
819	0.4095	50.2543378995	9.53512396694	15.6951219512	-0.920152091255
820	0.41	26.2757990868	13.7636363636	15.6951219512	-15.0114068441
821	0.4105	12.1707762557	16.5826446281	14.2743902439	-16.4205323194
822	0.411	-6.16575342466	13.7636363636	5.75	-6.5566539924
823	0.4115	3.70776255708	9.53512396694	-1.35365853659	-2.32927756654
824	0.412	20.6337899543	6.71611570248	1.48780487805	8.94372623574
825	0.4125	26.2757990868	2.48760330579	1.48780487805	-0.920152091255
826	0.413	26.2757990868	2.48760330579	14.2743902439	-3.73840304183
827	0.4135	22.0442922374	9.53512396694	12.8536585366	-15.0114068441
828	0.414	12.1707762557	13.7636363636	-5.61585365854	-12.1931558935
829	0.4145	5.11826484018	17.9921487603	-1.35365853659	-13.6022813688
830	0.415	7.93926940639	17.9921487603	-2.7743902439	-9.37490494297
831	0.4155	9.3497716895	12.3541322314	15.6951219512	-10.7840304183
832	0.416	7.93926940639	3.89710743802	-11.2987804878	-13.6022813688
833	0.4165	7.93926940639	-1.74090909091	-8.45731707317	-13.6022813688
834	0.417	13.5812785388	-0.331404958678	-8.45731707317	-10.7840304183
835	0.4175	14.9917808219	-4.55991735537	-12.7195121951	-9.37490494297
836	0.418	0.886757990868	1.07809917355	-12.7195121951	-3.73840304183
837	0.4185	0.886757990868	22.220661157	-12.7195121951	-2.32927756654
838	0.419	-3.34474885845	23.6301652893	-12.7195121951	-5.14752851711
839	0.4195	-3.34474885845	5.30661157025	-11.2987804878	0.48897338403
840	0.42	2.29726027397	15.1731404959	-12.7195121951	1.89809885932
841	0.4205	5.11826484018	10.9446280992	-8.45731707317	4.71634980989
842	0.421	5.11826484018	9.53512396694	-5.61585365854	6.12547528517
843	0.4215	-1.93424657534	13.7636363636	-2.7743902439	6.12547528517
844	0.422	14.9917808219	16.5826446281	-1.35365853659	7.53460076046
845	0.4225	12.1707762557	13.7636363636	0.0670731707317	6.12547528517
846	0.423	12.1707762557	9.53512396694	5.75	3.3072243346
847	0.4235	-10.397260274	9.53512396694	7.17073170732	6.12547528517
848	0.424	-16.0392694064	10.9446280992	7.17073170732	-6.5566539924
849	0.4245	-18.8602739726	10.9446280992	5.75	7.53460076046
850	0.425	-11.8077625571	9.53512396694	8.59146341463	24.4441064639
851	0.4255	-18.8602739726	6.71611570248	-2.7743902439	17.3984790875
852	0.426	-20.2707762557	5.30661157025	8.59146341463	6.12547528517
853	0.4265	-14.6287671233	2.48760330579	1.48780487805	15.9893536122
854	0.427	-14.6287671233	5.30661157025	1.48780487805	15.9893536122
855	0.4275	-16.0392694064	10.9446280992	4.32926829268	7.53460076046
856	0.428	-11.8077625571	15.1731404959	18.5365853659	-5.14752851711
857	0.4285	0.886757990868	20.8111570248	12.8536585366	-16.4205323194
858	0.429	23.4547945205	25.0396694215	14.2743902439	-17.8296577947
859	0.4295	26.2757990868	26.4491735537	24.2195121951	-20.6479087452
860	0.43	27.6863013699	17.9921487603	19.9573170732	-23.4661596958
861	0.4305	16.402283105	12.3541322314	15.6951219512	-19.23878327
862	0.431	10.7602739726	33.4966942149	8.59146341463	-23.4661596958
863	0.4315	0.886757990868	46.182231405	2.90853658537	-24.8752851711
864	0.432	-10.397260274	27.858677686	-4.19512195122	-22.0570342205
865	0.4325	-16.0392694064	30.6776859504	-9.87804878049	-15.0114068441
866	0.433	-14.6287671233	-5.9694214876	-12.7195121951	-3.73840304183
867	0.4335	-10.397260274	-46.8450413223	-15.5609756098	10.352851711
868	0.434	-17.4497716895	-42.6165289256	-14.1402439024	24.4441064639
869	0.4345	-21.6812785388	-18.6549586777	-11.2987804878	38.5353612167
870	0.435	-24.502283105	16.5826446281	-9.87804878049	46.9901140684
871	0.4355	-8.98675799087	32.0871900826	-8.45731707317	54.0357414449
872	0.436	-7.57625570776	36.3157024793	-4.19512195122	55.4448669202
873	0.4365	-34.3757990868	16.5826446281	-2.7743902439	38.5353612167
874	0.437	-25.9127853881	6.71611570248	-2.7743902439	39.944486692
875	0.4375	-21.6812785388	1.07809917355	-7.03658536585	41.3536121673
876	0.438	-11.8077625571	-14.426446281	-4.19512195122	18.8076045627
877	0.4385	12.1707762557	-3.15041322314	-9.87804878049	3.3072243346
878	0.439	33.3283105023	27.858677686	-16.9817073171	-5.14752851711
879	0.4395	30.5073059361	43.3632231405	-5.61585365854	-15.0114068441
880	0.44	17.8127853881	37.7252066116	-1.35365853659	-17.8296577947
881	0.4405	16.402283105	29.2681818182	8.59146341463	-19.23878327
882	0.441	10.7602739726	20.8111570248	-9.87804878049	-17.8296577947
883	0.4415	0.886757990868	2.48760330579	-7.03658536585	-12.1931558935
884	0.442	-8.98675799087	-14.426446281	-2.7743902439	-7.96577946768
885	0.4425	-14.6287671233	-20.0644628099	-4.19512195122	-2.32927756654
886	0.443	-11.8077625571	-17.2454545455	-8.45731707317	-2.32927756654
887	0.4435	-3.34474885845	-7.37892561983	-8.45731707317	0.48897338403
888	0.444	9.3497716895	-4.55991735537	-9.87804878049	0.48897338403
889	0.4445	19.2232876712	1.07809917355	-12.7195121951	7.53460076046
890	0.445	27.6863013699	-8.78842975207	-18.4024390244	10.352851711
891	0.4455	17.8127853881	-14.426446281	-19.8231707317	17.3984790875
892	0.446	5.11826484018	-36.9785123967	-16.9817073171	21.6258555133
893	0.4465	14.9917808219	-44.0260330579	-18.4024390244	15.9893536122
894	0.447	12.1707762557	-25.7024793388	-14.1402439024	15.9893536122
895	0.4475	-13.2182648402	3.89710743802	-14.1402439024	8.94372623574
896	0.448	-16.0392694064	29.2681818182	-14.1402439024	1.89809885932
897	0.4485	-16.0392694064	32.0871900826	-14.1402439024	-6.5566539924
898	0.449	-30.1442922374	27.858677686	-14.1402439024	-6.5566539924
899	0.4495	-30.1442922374	15.1731404959	-15.5609756098	-9.37490494297
900	0.45	-24.502283105	13.7636363636	-9.87804878049	-23.4661596958
901	0.4505	-21.6812785388	15.1731404959	-5.61585365854	-43.1939163498
902	0.451	-25.9127853881	6.71611570248	1.48780487805	-44.6030418251
903	0.4515	-32.9652968037	2.48760330579	-8.45731707317	-38.966539924
904	0.452	-24.502283105	3.89710743802	1.48780487805	-36.1482889734
905	0.4525	-1.93424657534	6.71611570248	12.8536585366	-31.9209125475
906	0.453	5.11826484018	9.53512396694	12.8536585366	-22.0570342205
907	0.4535	-3.34474885845	13.7636363636	-2.7743902439	-16.4205323194
908	0.454	-1.93424657534	8.12561983471	-11.2987804878	-12.1931558935
909	0.4545	10.7602739726	6.71611570248	-4.19512195122	-5.14752851711
910	0.455	10.7602739726	-0.331404958678	0.0670731707317	1.89809885932
911	0.4555	12.1707762557	1.07809917355	7.17073170732	3.3072243346
912	0.456	14.9917808219	9.53512396694	5.75	10.352851711
913	0.4565	2.29726027397	2.48760330579	12.8536585366	18.8076045627
914	0.457	-4.75525114155	-20.0644628099	8.59146341463	32.8988593156
915	0.4575	-8.98675799087	-18.6549586777	11.4329268293	38.5353612167
916	0.458	5.11826484018	2.48760330579	11.4329268293	44.1718631179
917	0.4585	27.6863013699	6.71611570248	7.17073170732	54.0357414449
918	0.459	20.6337899543	5.30661157025	8.59146341463	55.4448669202
919	0.4595	13.5812785388	-0.331404958678	14.2743902439	48.3992395437
920	0.46	30.5073059361	-10.1979338843	8.59146341463	39.944486692
921	0.4605	36.1493150685	-4.55991735537	11.4329268293	28.6714828897
922	0.461	13.5812785388	1.07809917355	10.012195122	30.080608365
923	0.4615	-6.16575342466	-0.331404958678	12.8536585366	23.0349809886
924	0.462	-4.75525114155	-1.74090909091	11.4329268293	15.9893536122
925	0.4625	10.7602739726	-7.37892561983	8.59146341463	17.3984790875
926	0.463	30.5073059361	-0.331404958678	7.17073170732	7.53460076046
927	0.4635	29.096803653	6.71611570248	11.4329268293	-15.0114068441
928	0.464	10.7602739726	10.9446280992	14.2743902439	-16.4205323194
929	0.4645	-1.93424657534	3.89710743802	-8.45731707317	-27.6935361217
930	0.465	-11.8077625571	1.07809917355	4.32926829268	-24.8752851711
931	0.4655	-24.502283105	-0.331404958678	11.4329268293	-23.4661596958
932	0.466	-28.7337899543	-10.1979338843	-9.87804878049	-22.0570342205
933	0.4665	-20.2707762557	-11.6074380165	-14.1402439024	-17.8296577947
934	0.467	-17.4497716895	-3.15041322314	-2.7743902439	-15.0114068441
935	0.4675	-16.0392694064	1.07809917355	-1.35365853659	-9.37490494297
936	0.468	-4.75525114155	2.48760330579	-7.03658536585	-7.96577946768
937	0.4685	7.93926940639	9.53512396694	-8.45731707317	-2.32927756654
938	0.469	22.0442922374	15.1731404959	-4.19512195122	0.48897338403
939	0.4695	17.8127853881	27.858677686	-1.35365853659	4.71634980989
940	0.47	14.9917808219	-5.9694214876	-1.35365853659	4.71634980989
941	0.4705	-10.397260274	-3.15041322314	0.0670731707317	6.12547528517
942	0.471	-17.4497716895	1.07809917355	-2.7743902439	-2.32927756654
943	0.4715	-13.2182648402	1.07809917355	-2.7743902439	-13.6022813688
944	0.472	-11.8077625571	1.07809917355	4.32926829268	-22.0570342205
945	0.4725	-52.7123287671	3.89710743802	7.17073170732	-17.8296577947
946	0.473	-58.3543378995	8.12561983471	14.2743902439	-24.8752851711
947	0.4735	-38.6073059361	6.71611570248	12.8536585366	-20.6479087452
948	0.474	-37.196803653	6.71611570248	5.75	-20.6479087452
949	0.4745	-14.6287671233	12.3541322314	12.8536585366	-24.8752851711
950	0.475	23.4547945205	16.5826446281	15.6951219512	-33.3300380228
951	0.4755	37.5598173516	17.9921487603	18.5365853659	-26.2844106464
952	0.476	44.6123287671	20.8111570248	5.75	-20.6479087452
953	0.4765	44.6123287671	22.220661157	7.17073170732	-3.73840304183
954	0.477	43.201826484	26.4491735537	24.2195121951	-9.37490494297
955	0.4775	29.096803653	16.5826446281	12.8536585366	1.89809885932
956	0.478	0.886757990868	9.53512396694	-2.7743902439	13.1711026616
957	0.4785	-21.6812785388	-1.74090909091	-4.19512195122	17.3984790875
958	0.479	-16.0392694064	-4.55991735537	-4.19512195122	14.5802281369
959	0.4795	-23.0917808219	5.30661157025	-4.19512195122	8.94372623574
960	0.48	-35.7863013699	2.48760330579	-11.2987804878	3.3072243346
961	0.4805	-37.196803653	20.8111570248	-7.03658536585	-2.32927756654
962	0.481	-25.9127853881	33.4966942149	-8.45731707317	-7.96577946768
963	0.4815	-16.0392694064	29.2681818182	-8.45731707317	-9.37490494297
964	0.482	-13.2182648402	13.7636363636	-11.2987804878	-10.7840304183
965	0.4825	-25.9127853881	-5.9694214876	-8.45731707317	-7.96577946768
966	0.483	-35.7863013699	-4.55991735537	-7.03658536585	-3.73840304183
967	0.4835	-58.3543378995	1.07809917355	-1.35365853659	6.12547528517
968	0.484	-103.490410959	-1.74090909091	1.48780487805	18.8076045627
969	0.4845	-116.184931507	-7.37892561983	0.0670731707317	20.216730038
970	0.485	-95.0273972603	-8.78842975207	1.48780487805	17.3984790875
971	0.4855	-62.5858447489	-4.55991735537	4.32926829268	13.1711026616
972	0.486	-1.93424657534	-1.74090909091	1.48780487805	28.6714828897
973	0.4865	29.096803653	-4.55991735537	0.0670731707317	14.5802281369
974	0.487	31.9178082192	-7.37892561983	0.0670731707317	14.5802281369
975	0.4875	20.6337899543	-8.78842975207	-7.03658536585	14.5802281369
976	0.488	37.5598173516	-15.8359504132	-16.9817073171	18.8076045627
977	0.4885	51.6648401826	-17.2454545455	-4.19512195122	35.7171102662
978	0.489	51.6648401826	-15.8359504132	-2.7743902439	25.8532319392
979	0.4895	29.096803653	-4.55991735537	-7.03658536585	18.8076045627
980	0.49	10.7602739726	5.30661157025	29.9024390244	14.5802281369
981	0.4905	-6.16575342466	15.1731404959	19.9573170732	8.94372623574
982	0.491	0.886757990868	12.3541322314	10.012195122	7.53460076046
983	0.4915	13.5812785388	9.53512396694	11.4329268293	8.94372623574
984	0.492	33.3283105023	-0.331404958678	21.3780487805	13.1711026616
985	0.4925	23.4547945205	-1.74090909091	19.9573170732	20.216730038
986	0.493	14.9917808219	8.12561983471	12.8536585366	14.5802281369
987	0.4935	2.29726027397	3.89710743802	11.4329268293	8.94372623574
988	0.494	-23.0917808219	-3.15041322314	11.4329268293	10.352851711
989	0.4945	-27.3232876712	9.53512396694	14.2743902439	10.352851711
990	0.495	-21.6812785388	26.4491735537	14.2743902439	13.1711026616
991	0.4955	-21.6812785388	29.2681818182	11.4329268293	13.1711026616
992	0.496	-8.98675799087	22.220661157	12.8536585366	4.71634980989
993	0.4965	16.402283105	12.3541322314	7.17073170732	-6.5566539924
994	0.497	12.1707762557	15.1731404959	5.75	-2.32927756654
995	0.4975	-4.75525114155	23.6301652893	1.48780487805	13.1711026616
996	0.498	-13.2182648402	9.53512396694	-4.19512195122	28.6714828897
997	0.4985	-18.8602739726	9.53512396694	-12.7195121951	6.12547528517
998	0.499	5.11826484018	10.9446280992	-24.0853658537	13.1711026616
999	0.4995	43.201826484	3.89710743802	-25.506097561	17.3984790875
1000	0.5	30.5073059361	1.07809917355	-12.7195121951	18.8076045627
1001	0.5005	22.0442922374	8.12561983471	2.90853658537	24.4441064639
1002	0.501	23.4547945205	10.9446280992	4.32926829268	24.4441064639
1003	0.5015	7.93926940639	-17.2454545455	1.48780487805	21.6258555133
1004	0.502	-8.98675799087	-18.6549586777	-4.19512195122	18.8076045627
1005	0.5025	-18.8602739726	-10.1979338843	-1.35365853659	14.5802281369
1006	0.503	-25.9127853881	3.89710743802	-4.19512195122	15.9893536122
1007	0.5035	-10.397260274	9.53512396694	-4.19512195122	14.5802281369
1008	0.504	7.93926940639	49.0012396694	-4.19512195122	10.352851711
1009	0.5045	14.9917808219	32.0871900826	-2.7743902439	10.352851711
1010	0.505	7.93926940639	13.7636363636	-5.61585365854	4.71634980989
1011	0.5055	-4.75525114155	10.9446280992	0.0670731707317	0.48897338403
1012	0.506	9.3497716895	15.1731404959	1.48780487805	-10.7840304183
1013	0.5065	17.8127853881	6.71611570248	-1.35365853659	-17.8296577947
1014	0.507	16.402283105	-0.331404958678	-1.35365853659	-17.8296577947
1015	0.5075	26.2757990868	-4.55991735537	-1.35365853659	-20.6479087452
1016	0.508	0.886757990868	6.71611570248	-2.7743902439	-15.0114068441
1017	0.5085	-16.0392694064	23.6301652893	-5.61585365854	-10.7840304183
1018	0.509	-20.2707762557	36.3157024793	-5.61585365854	-27.6935361217
1019	0.5095	-17.4497716895	46.182231405	-5.61585365854	-5.14752851711
1020	0.51	-10.397260274	46.182231405	2.90853658537	-13.6022813688
1021	0.5105	-4.75525114155	25.0396694215	2.90853658537	-15.0114068441
1022	0.511	-7.57625570776	-17.2454545455	14.2743902439	-2.32927756654
1023	0.5115	-10.397260274	-38.3880165289	25.6402439024	1.89809885932
1024	0.512	-8.98675799087	-24.2929752066	19.9573170732	8.94372623574
1025	0.5125	-4.75525114155	-28.5214876033	7.17073170732	18.8076045627
1026	0.513	-13.2182648402	-41.2070247934	7.17073170732	23.0349809886
1027	0.5135	-10.397260274	-39.7975206612	8.59146341463	18.8076045627
1028	0.514	-8.98675799087	-39.7975206612	14.2743902439	6.12547528517
1029	0.5145	-6.16575342466	-20.0644628099	7.17073170732	-2.32927756654
1030	0.515	-8.98675799087	-11.6074380165	11.4329268293	-9.37490494297
1031	0.5155	2.29726027397	2.48760330579	11.4329268293	-9.37490494297
1032	0.516	29.096803653	6.71611570248	7.17073170732	-6.5566539924
1033	0.5165	38.9703196347	-1.74090909091	0.0670731707317	6.12547528517
1034	0.517	40.3808219178	-8.78842975207	-14.1402439024	18.8076045627
1035	0.5175	34.7388127854	-13.0169421488	-19.8231707317	25.8532319392
1036	0.518	68.5908675799	-17.2454545455	-14.1402439024	20.216730038
1037	0.5185	78.4643835616	-32.75	-12.7195121951	10.352851711
1038	0.519	36.1493150685	-38.3880165289	-8.45731707317	8.94372623574
1039	0.5195	-13.2182648402	-15.8359504132	-2.7743902439	8.94372623574
1040	0.52	-11.8077625571	-4.55991735537	-2.7743902439	6.12547528517
1041	0.5205	-8.98675799087	5.30661157025	-1.35365853659	7.53460076046
1042	0.521	-16.0392694064	16.5826446281	-8.45731707317	13.1711026616
1043	0.5215	-21.6812785388	17.9921487603	-5.61585365854	13.1711026616
1044	0.522	-28.7337899543	13.7636363636	12.8536585366	-5.14752851711
1045	0.5225	-38.6073059361	20.8111570248	12.8536585366	-7.96577946768
1046	0.523	-44.2493150685	34.9061983471	17.1158536585	-10.7840304183
1047	0.5235	-42.8388127854	46.182231405	17.1158536585	-12.1931558935
1048	0.524	-32.9652968037	43.3632231405	2.90853658537	-10.7840304183
1049	0.5245	-25.9127853881	22.220661157	-7.03658536585	-10.7840304183
1050	0.525	-6.16575342466	10.9446280992	-1.35365853659	-9.37490494297
1051	0.5255	20.6337899543	-10.1979338843	-4.19512195122	0.48897338403
1052	0.526	34.7388127854	-4.55991735537	5.75	14.5802281369
1053	0.5265	23.4547945205	-10.1979338843	15.6951219512	21.6258555133
1054	0.527	19.2232876712	-13.0169421488	21.3780487805	35.7171102662
1055	0.5275	23.4547945205	-24.2929752066	19.9573170732	46.9901140684
1056	0.528	38.9703196347	-13.0169421488	19.9573170732	45.5809885932
1057	0.5285	48.8438356164	-7.37892561983	24.2195121951	41.3536121673
1058	0.529	33.3283105023	-21.4739669421	21.3780487805	39.944486692
1059	0.5295	3.70776255708	-42.6165289256	14.2743902439	30.080608365
1060	0.53	0.886757990868	-58.1210743802	11.4329268293	23.0349809886
1061	0.5305	3.70776255708	-53.8925619835	11.4329268293	11.7619771863
1062	0.531	12.1707762557	-45.4355371901	12.8536585366	-0.920152091255
1063	0.5315	37.5598173516	-35.5690082645	8.59146341463	-7.96577946768
1064	0.532	9.3497716895	-20.0644628099	11.4329268293	-19.23878327
1065	0.5325	-13.2182648402	-15.8359504132	11.4329268293	-0.920152091255
1066	0.533	-20.2707762557	-5.9694214876	14.2743902439	-7.96577946768
1067	0.5335	-23.0917808219	-10.1979338843	14.2743902439	-19.23878327
1068	0.534	-17.4497716895	-4.55991735537	19.9573170732	-24.8752851711
1069	0.5345	-6.16575342466	-5.9694214876	14.2743902439	-20.6479087452
1070	0.535	5.11826484018	-28.5214876033	4.32926829268	-13.6022813688
1071	0.5355	14.9917808219	-42.6165289256	-7.03658536585	-5.14752851711
1072	0.536	9.3497716895	-41.2070247934	19.9573170732	0.48897338403
1073	0.5365	10.7602739726	-28.5214876033	5.75	4.71634980989
1074	0.537	13.5812785388	-3.15041322314	-4.19512195122	4.71634980989
1075	0.5375	17.8127853881	9.53512396694	-11.2987804878	-0.920152091255
1076	0.538	0.886757990868	16.5826446281	-7.03658536585	-3.73840304183
1077	0.5385	3.70776255708	22.220661157	-8.45731707317	-5.14752851711
1078	0.539	0.886757990868	5.30661157025	-9.87804878049	-5.14752851711
1079	0.5395	-6.16575342466	12.3541322314	-12.7195121951	-5.14752851711
1080	0.54	-28.7337899543	29.2681818182	-14.1402439024	-10.7840304183
1081	0.5405	-44.2493150685	23.6301652893	-15.5609756098	-22.0570342205
1082	0.541	-48.4808219178	2.48760330579	-11.2987804878	-29.102661597
1083	0.5415	-42.8388127854	13.7636363636	-4.19512195122	-31.9209125475
1084	0.542	-40.0178082192	9.53512396694	-2.7743902439	-29.102661597
1085	0.5425	-10.397260274	-3.15041322314	4.32926829268	-24.8752851711
1086	0.543	12.1707762557	-4.55991735537	4.32926829268	-20.6479087452
1087	0.5435	12.1707762557	8.12561983471	7.17073170732	-10.7840304183
1088	0.544	13.5812785388	16.5826446281	10.012195122	0.48897338403
1089	0.5445	26.2757990868	15.1731404959	8.59146341463	15.9893536122
1090	0.545	29.096803653	17.9921487603	5.75	8.94372623574
1091	0.5455	33.3283105023	8.12561983471	2.90853658537	3.3072243346
1092	0.546	40.3808219178	-4.55991735537	-1.35365853659	8.94372623574
1093	0.5465	37.5598173516	-14.426446281	8.59146341463	17.3984790875
1094	0.547	12.1707762557	-5.9694214876	-8.45731707317	34.3079847909
1095	0.5475	-4.75525114155	8.12561983471	-4.19512195122	30.080608365
1096	0.548	-16.0392694064	22.220661157	-12.7195121951	31.4897338403
1097	0.5485	-14.6287671233	22.220661157	-12.7195121951	28.6714828897
1098	0.549	-16.0392694064	3.89710743802	-16.9817073171	27.2623574144
1099	0.5495	-40.0178082192	-18.6549586777	-14.1402439024	25.8532319392
1100	0.55	-59.7648401826	-38.3880165289	-19.8231707317	28.6714828897
1101	0.5505	-73.8698630137	-34.1595041322	-21.243902439	31.4897338403
1102	0.551	-85.1538812785	5.30661157025	-12.7195121951	28.6714828897
1103	0.5515	-80.9223744292	23.6301652893	-15.5609756098	24.4441064639
1104	0.552	-72.4593607306	6.71611570248	-16.9817073171	18.8076045627
1105	0.5525	-63.996347032	-15.8359504132	-14.1402439024	7.53460076046
1106	0.553	-95.0273972603	-4.55991735537	-15.5609756098	4.71634980989
1107	0.5535	-106.311415525	-13.0169421488	-9.87804878049	0.48897338403
1108	0.554	-71.0488584475	-15.8359504132	-7.03658536585	-9.37490494297
1109	0.5545	3.70776255708	-11.6074380165	-1.35365853659	-16.4205323194
1110	0.555	19.2232876712	-17.2454545455	0.0670731707317	-10.7840304183
1111	0.5555	-3.34474885845	-7.37892561983	-1.35365853659	-2.32927756654
1112	0.556	-4.75525114155	9.53512396694	0.0670731707317	-5.14752851711
1113	0.5565	34.7388127854	13.7636363636	1.48780487805	-3.73840304183
1114	0.557	68.5908675799	3.89710743802	0.0670731707317	-7.96577946768
1115	0.5575	113.726940639	-3.15041322314	-2.7743902439	32.8988593156
1116	0.558	113.726940639	-5.9694214876	2.90853658537	25.8532319392
1117	0.5585	74.2328767123	-8.78842975207	7.17073170732	20.216730038
1118	0.559	19.2232876712	-0.331404958678	17.1158536585	25.8532319392
1119	0.5595	-18.8602739726	1.07809917355	8.59146341463	25.8532319392
1120	0.56	-41.4283105023	-8.78842975207	4.32926829268	27.2623574144
1121	0.5605	-56.9438356164	-13.0169421488	-1.35365853659	24.4441064639
1122	0.561	-65.4068493151	-7.37892561983	1.48780487805	17.3984790875
1123	0.5615	-55.5333333333	1.07809917355	5.75	7.53460076046
1124	0.562	-28.7337899543	25.0396694215	15.6951219512	0.48897338403
1125	0.5625	5.11826484018	9.53512396694	14.2743902439	-5.14752851711
1126	0.563	20.6337899543	9.53512396694	18.5365853659	-9.37490494297
1127	0.5635	23.4547945205	-4.55991735537	14.2743902439	-10.7840304183
1128	0.564	27.6863013699	-7.37892561983	17.1158536585	-10.7840304183
1129	0.5645	24.8652968037	-24.2929752066	17.1158536585	-10.7840304183
1130	0.565	34.7388127854	-11.6074380165	18.5365853659	-17.8296577947
1131	0.5655	41.7913242009	-15.8359504132	22.7987804878	-23.4661596958
1132	0.566	65.7698630137	-20.0644628099	22.7987804878	-29.102661597
1133	0.5665	67.1803652968	-21.4739669421	19.9573170732	-24.8752851711
1134	0.567	43.201826484	-11.6074380165	19.9573170732	-26.2844106464
1135	0.5675	24.8652968037	-11.6074380165	18.5365853659	-22.0570342205
1136	0.568	-7.57625570776	-8.78842975207	19.9573170732	-13.6022813688
1137	0.5685	-63.996347032	1.07809917355	18.5365853659	-24.8752851711
1138	0.569	-59.7648401826	6.71611570248	11.4329268293	-13.6022813688
1139	0.5695	-38.6073059361	-0.331404958678	-1.35365853659	-3.73840304183
1140	0.57	-14.6287671233	-5.9694214876	-2.7743902439	-2.32927756654
1141	0.5705	-8.98675799087	-7.37892561983	-1.35365853659	-6.5566539924
1142	0.571	-24.502283105	-4.55991735537	0.0670731707317	-12.1931558935
1143	0.5715	-38.6073059361	-5.9694214876	8.59146341463	-3.73840304183
1144	0.572	-30.1442922374	-10.1979338843	2.90853658537	1.89809885932
1145	0.5725	-6.16575342466	-15.8359504132	-4.19512195122	1.89809885932
1146	0.573	3.70776255708	-5.9694214876	-8.45731707317	0.48897338403
1147	0.5735	-14.6287671233	-0.331404958678	-8.45731707317	6.12547528517
1148	0.574	-16.0392694064	-11.6074380165	-9.87804878049	20.216730038
1149	0.5745	-7.57625570776	1.07809917355	-8.45731707317	31.4897338403
1150	0.575	-17.4497716895	17.9921487603	-8.45731707317	35.7171102662
1151	0.5755	-1.93424657534	19.4016528926	-4.19512195122	28.6714828897
1152	0.576	55.896347032	1.07809917355	-5.61585365854	20.216730038
1153	0.5765	85.5168949772	-0.331404958678	-7.03658536585	15.9893536122
1154	0.577	53.0753424658	8.12561983471	-4.19512195122	10.352851711
1155	0.5775	14.9917808219	6.71611570248	0.0670731707317	4.71634980989
1156	0.578	9.3497716895	3.89710743802	0.0670731707317	0.48897338403
1157	0.5785	24.8652968037	2.48760330579	-1.35365853659	-6.5566539924
1158	0.579	46.0228310502	-4.55991735537	1.48780487805	-10.7840304183
1159	0.5795	14.9917808219	-3.15041322314	-2.7743902439	-16.4205323194
1160	0.58	7.93926940639	1.07809917355	-8.45731707317	-6.5566539924
1161	0.5805	-10.397260274	13.7636363636	-12.7195121951	-2.32927756654
1162	0.581	-14.6287671233	15.1731404959	-8.45731707317	-3.73840304183
1163	0.5815	-27.3232876712	8.12561983471	-9.87804878049	8.94372623574
1164	0.582	-45.6598173516	-1.74090909091	-19.8231707317	13.1711026616
1165	0.5825	-58.3543378995	-7.37892561983	-18.4024390244	21.6258555133
1166	0.583	-56.9438356164	-7.37892561983	-12.7195121951	18.8076045627
1167	0.5835	-62.5858447489	-1.74090909091	-22.6646341463	17.3984790875
1168	0.584	-42.8388127854	1.07809917355	0.0670731707317	20.216730038
1169	0.5845	-14.6287671233	3.89710743802	-4.19512195122	15.9893536122
1170	0.585	0.886757990868	8.12561983471	-7.03658536585	14.5802281369
1171	0.5855	20.6337899543	6.71611570248	-8.45731707317	14.5802281369
1172	0.586	23.4547945205	-0.331404958678	4.32926829268	14.5802281369
1173	0.5865	38.9703196347	-17.2454545455	12.8536585366	15.9893536122
1174	0.587	53.0753424658	-20.0644628099	8.59146341463	18.8076045627
1175	0.5875	71.4118721461	-5.9694214876	14.2743902439	15.9893536122
1176	0.588	55.896347032	-4.55991735537	15.6951219512	7.53460076046
1177	0.5885	37.5598173516	-5.9694214876	15.6951219512	4.71634980989
1178	0.589	24.8652968037	-25.7024793388	14.2743902439	7.53460076046
1179	0.5895	-8.98675799087	-3.15041322314	18.5365853659	6.12547528517
1180	0.59	-28.7337899543	27.858677686	19.9573170732	7.53460076046
1181	0.5905	-21.6812785388	39.1347107438	15.6951219512	14.5802281369
1182	0.591	-21.6812785388	36.3157024793	11.4329268293	13.1711026616
1183	0.5915	-21.6812785388	16.5826446281	1.48780487805	10.352851711
1184	0.592	3.70776255708	-11.6074380165	-2.7743902439	17.3984790875
1185	0.5925	16.402283105	-22.8834710744	-1.35365853659	6.12547528517
1186	0.593	19.2232876712	-5.9694214876	-1.35365853659	8.94372623574
1187	0.5935	10.7602739726	16.5826446281	7.17073170732	10.352851711
1188	0.594	-14.6287671233	39.1347107438	12.8536585366	13.1711026616
1189	0.5945	-20.2707762557	56.0487603306	5.75	14.5802281369
1190	0.595	-11.8077625571	74.3723140496	0.0670731707317	7.53460076046
1191	0.5955	-6.16575342466	65.9152892562	4.32926829268	0.48897338403
1192	0.596	-18.8602739726	43.3632231405	4.32926829268	-7.96577946768
1193	0.5965	-8.98675799087	26.4491735537	5.75	-16.4205323194
1194	0.597	-16.0392694064	40.544214876	17.1158536585	-22.0570342205
1195	0.5975	-32.9652968037	41.9537190083	21.3780487805	-24.8752851711
1196	0.598	-32.9652968037	51.8202479339	22.7987804878	-29.102661597
1197	0.5985	-27.3232876712	33.4966942149	22.7987804878	-33.3300380228
1198	0.599	-23.0917808219	2.48760330579	19.9573170732	-31.9209125475
1199	0.5995	-8.98675799087	-17.2454545455	19.9573170732	-22.0570342205
1200	0.6	0.886757990868	-7.37892561983	18.5365853659	-16.4205323194
1201	0.6005	30.5073059361	-8.78842975207	12.8536585366	-13.6022813688
1202	0.601	7.93926940639	-15.8359504132	7.17073170732	-12.1931558935
1203	0.6015	-8.98675799087	-28.5214876033	1.48780487805	-10.7840304183
1204	0.602	6.52876712329	-21.4739669421	-11.2987804878	-2.32927756654
1205	0.6025	-1.93424657534	-39.7975206612	-16.9817073171	-3.73840304183
1206	0.603	-6.16575342466	-65.1685950413	-18.4024390244	15.9893536122
1207	0.6035	-25.9127853881	-86.3111570248	-18.4024390244	32.8988593156
1208	0.604	-25.9127853881	-67.9876033058	-14.1402439024	45.5809885932
1209	0.6045	-23.0917808219	-22.8834710744	-11.2987804878	51.2174904943
1210	0.605	-7.57625570776	6.71611570248	-4.19512195122	42.7627376426
1211	0.6055	-14.6287671233	13.7636363636	5.75	41.3536121673
1212	0.606	-32.9652968037	20.8111570248	-12.7195121951	52.6266159696
1213	0.6065	-21.6812785388	22.220661157	1.48780487805	34.3079847909
1214	0.607	-21.6812785388	30.6776859504	-12.7195121951	28.6714828897
1215	0.6075	-1.93424657534	46.182231405	-12.7195121951	21.6258555133
1216	0.608	31.9178082192	30.6776859504	-5.61585365854	20.216730038
1217	0.6085	55.896347032	-8.78842975207	-8.45731707317	15.9893536122
1218	0.609	86.9273972603	-24.2929752066	-9.87804878049	8.94372623574
1219	0.6095	86.9273972603	5.30661157025	-4.19512195122	1.89809885932
1220	0.61	50.2543378995	15.1731404959	0.0670731707317	-2.32927756654
1221	0.6105	17.8127853881	-29.9309917355	-2.7743902439	0.48897338403
1222	0.611	20.6337899543	-38.3880165289	-2.7743902439	0.48897338403
1223	0.6115	19.2232876712	-32.75	0.0670731707317	6.12547528517
1224	0.612	0.886757990868	-28.5214876033	1.48780487805	-0.920152091255
1225	0.6125	-4.75525114155	-35.5690082645	2.90853658537	-2.32927756654
1226	0.613	-7.57625570776	-32.75	7.17073170732	-7.96577946768
1227	0.6135	-16.0392694064	-44.0260330579	14.2743902439	-12.1931558935
1228	0.614	-13.2182648402	-45.4355371901	19.9573170732	-6.5566539924
1229	0.6145	-21.6812785388	-22.8834710744	22.7987804878	4.71634980989
1230	0.615	-25.9127853881	-22.8834710744	19.9573170732	20.216730038
1231	0.6155	-31.5547945205	-48.2545454545	21.3780487805	-5.14752851711
1232	0.616	-49.8913242009	-49.6640495868	24.2195121951	0.48897338403
1233	0.6165	-55.5333333333	-35.5690082645	37.006097561	0.48897338403
1234	0.617	-45.6598173516	-13.0169421488	55.4756097561	-2.32927756654
1235	0.6175	-23.0917808219	-0.331404958678	64.0	1.89809885932
1236	0.618	16.402283105	6.71611570248	61.1585365854	3.3072243346
1237	0.6185	65.7698630137	-4.55991735537	49.7926829268	0.48897338403
1238	0.619	70.001369863	1.07809917355	41.2682926829	0.48897338403
1239	0.6195	53.0753424658	17.9921487603	32.743902439	4.71634980989
1240	0.62	44.6123287671	1.07809917355	24.2195121951	6.12547528517
1241	0.6205	26.2757990868	-8.78842975207	18.5365853659	14.5802281369
1242	0.621	16.402283105	-20.0644628099	0.0670731707317	23.0349809886
1243	0.6215	-1.93424657534	-58.1210743802	-15.5609756098	23.0349809886
1244	0.622	-28.7337899543	-55.3020661157	-32.6097560976	21.6258555133
1245	0.6225	-49.8913242009	-28.5214876033	-43.9756097561	17.3984790875
1246	0.623	-30.1442922374	-13.0169421488	-48.237804878	3.3072243346
1247	0.6235	9.3497716895	-10.1979338843	-39.7134146341	0.48897338403
1248	0.624	37.5598173516	-13.0169421488	-36.8719512195	-6.5566539924
1249	0.6245	14.9917808219	-13.0169421488	-35.4512195122	-15.0114068441
1250	0.625	22.0442922374	-20.0644628099	-31.1890243902	-19.23878327
1251	0.6255	-4.75525114155	-18.6549586777	-25.506097561	-20.6479087452
1252	0.626	-11.8077625571	-14.426446281	-19.8231707317	-20.6479087452
1253	0.6265	-11.8077625571	-15.8359504132	-26.9268292683	-22.0570342205
1254	0.627	-11.8077625571	-10.1979338843	-25.506097561	-23.4661596958
1255	0.6275	-13.2182648402	2.48760330579	-19.8231707317	-23.4661596958
1256	0.628	-1.93424657534	16.5826446281	-7.03658536585	-19.23878327
1257	0.6285	16.402283105	23.6301652893	-1.35365853659	-7.96577946768
1258	0.629	16.402283105	32.0871900826	-11.2987804878	0.48897338403
1259	0.6295	14.9917808219	22.220661157	-4.19512195122	7.53460076046
1260	0.63	-14.6287671233	3.89710743802	1.48780487805	14.5802281369
1261	0.6305	-42.8388127854	1.07809917355	4.32926829268	13.1711026616
1262	0.631	-41.4283105023	10.9446280992	5.75	7.53460076046
1263	0.6315	-4.75525114155	6.71611570248	8.59146341463	7.53460076046
1264	0.632	37.5598173516	13.7636363636	14.2743902439	13.1711026616
1265	0.6325	40.3808219178	-8.78842975207	14.2743902439	23.0349809886
1266	0.633	10.7602739726	-4.55991735537	17.1158536585	24.4441064639
1267	0.6335	2.29726027397	-7.37892561983	18.5365853659	17.3984790875
1268	0.634	-6.16575342466	-10.1979338843	18.5365853659	10.352851711
1269	0.6345	-7.57625570776	-10.1979338843	17.1158536585	7.53460076046
1270	0.635	3.70776255708	-7.37892561983	14.2743902439	6.12547528517
1271	0.6355	-8.98675799087	-3.15041322314	7.17073170732	0.48897338403
1272	0.636	-14.6287671233	2.48760330579	2.90853658537	3.3072243346
1273	0.6365	-17.4497716895	3.89710743802	4.32926829268	-3.73840304183
1274	0.637	-16.0392694064	1.07809917355	8.59146341463	-5.14752851711
1275	0.6375	-13.2182648402	-4.55991735537	5.75	-2.32927756654
1276	0.638	-11.8077625571	-7.37892561983	0.0670731707317	0.48897338403
1277	0.6385	-6.16575342466	-10.1979338843	0.0670731707317	8.94372623574
1278	0.639	22.0442922374	-10.1979338843	2.90853658537	18.8076045627
1279	0.6395	26.2757990868	-5.9694214876	2.90853658537	17.3984790875
1280	0.64	9.3497716895	-1.74090909091	2.90853658537	15.9893536122
1281	0.6405	-11.8077625571	-1.74090909091	2.90853658537	13.1711026616
1282	0.641	-28.7337899543	-0.331404958678	-2.7743902439	10.352851711
1283	0.6415	-32.9652968037	-8.78842975207	-1.35365853659	13.1711026616
1284	0.642	-31.5547945205	-10.1979338843	-4.19512195122	10.352851711
1285	0.6425	-37.196803653	-4.55991735537	-8.45731707317	4.71634980989
1286	0.643	-38.6073059361	3.89710743802	-18.4024390244	-0.920152091255
1287	0.6435	-38.6073059361	1.07809917355	-16.9817073171	-7.96577946768
1288	0.644	-42.8388127854	-0.331404958678	-12.7195121951	-19.23878327
1289	0.6445	-40.0178082192	2.48760330579	-9.87804878049	-17.8296577947
1290	0.645	-44.2493150685	19.4016528926	-11.2987804878	-17.8296577947
1291	0.6455	-30.1442922374	25.0396694215	-11.2987804878	-15.0114068441
1292	0.646	-8.98675799087	26.4491735537	-9.87804878049	-16.4205323194
1293	0.6465	17.8127853881	20.8111570248	-14.1402439024	-17.8296577947
1294	0.647	16.402283105	13.7636363636	-11.2987804878	-16.4205323194
1295	0.6475	34.7388127854	-3.15041322314	-7.03658536585	-19.23878327
1296	0.648	24.8652968037	-11.6074380165	-2.7743902439	-20.6479087452
1297	0.6485	23.4547945205	-18.6549586777	-4.19512195122	-15.0114068441
1298	0.649	33.3283105023	-15.8359504132	-8.45731707317	-10.7840304183
1299	0.6495	33.3283105023	-4.55991735537	-5.61585365854	-17.8296577947
1300	0.65	33.3283105023	-1.74090909091	-7.03658536585	-20.6479087452
1301	0.6505	19.2232876712	-1.74090909091	-9.87804878049	-9.37490494297
1302	0.651	-1.93424657534	1.07809917355	-12.7195121951	4.71634980989
1303	0.6515	-40.0178082192	5.30661157025	-2.7743902439	6.12547528517
1304	0.652	-89.3853881279	16.5826446281	-2.7743902439	6.12547528517
1305	0.6525	-114.774429224	25.0396694215	2.90853658537	1.89809885932
1306	0.653	-102.079908676	10.9446280992	11.4329268293	-7.96577946768
1307	0.6535	-58.3543378995	-1.74090909091	7.17073170732	-7.96577946768
1308	0.654	-20.2707762557	-5.9694214876	5.75	-0.920152091255
1309	0.6545	13.5812785388	2.48760330579	7.17073170732	1.89809885932
1310	0.655	23.4547945205	-1.74090909091	7.17073170732	4.71634980989
1311	0.6555	30.5073059361	3.89710743802	12.8536585366	7.53460076046
1312	0.656	74.2328767123	6.71611570248	14.2743902439	1.89809885932
1313	0.6565	115.137442922	8.12561983471	14.2743902439	1.89809885932
1314	0.657	79.8748858447	6.71611570248	11.4329268293	6.12547528517
1315	0.6575	46.0228310502	6.71611570248	15.6951219512	6.12547528517
1316	0.658	-10.397260274	13.7636363636	17.1158536585	4.71634980989
1317	0.6585	-34.3757990868	9.53512396694	17.1158536585	8.94372623574
1318	0.659	-17.4497716895	2.48760330579	7.17073170732	25.8532319392
1319	0.6595	14.9917808219	2.48760330579	4.32926829268	20.216730038
1320	0.66	3.70776255708	1.07809917355	-2.7743902439	39.944486692
1321	0.6605	-11.8077625571	-3.15041322314	-8.45731707317	42.7627376426
1322	0.661	-8.98675799087	-4.55991735537	-8.45731707317	34.3079847909
1323	0.6615	-24.502283105	-1.74090909091	-1.35365853659	31.4897338403
1324	0.662	-30.1442922374	-8.78842975207	-22.6646341463	41.3536121673
1325	0.6625	-44.2493150685	-11.6074380165	-18.4024390244	25.8532319392
1326	0.663	-59.7648401826	-3.15041322314	-21.243902439	23.0349809886
1327	0.6635	-58.3543378995	3.89710743802	-26.9268292683	11.7619771863
1328	0.664	-38.6073059361	2.48760330579	-11.2987804878	4.71634980989
1329	0.6645	-13.2182648402	-8.78842975207	-18.4024390244	-0.920152091255
1330	0.665	37.5598173516	17.9921487603	-18.4024390244	0.48897338403
1331	0.6655	47.4333333333	34.9061983471	-18.4024390244	4.71634980989
1332	0.666	29.096803653	39.1347107438	-14.1402439024	1.89809885932
1333	0.6665	12.1707762557	29.2681818182	-2.7743902439	0.48897338403
1334	0.667	5.11826484018	23.6301652893	-1.35365853659	-7.96577946768
1335	0.6675	-30.1442922374	25.0396694215	1.48780487805	-10.7840304183
1336	0.668	-63.996347032	20.8111570248	4.32926829268	-12.1931558935
1337	0.6685	-72.4593607306	29.2681818182	12.8536585366	-10.7840304183
1338	0.669	-69.6383561644	43.3632231405	14.2743902439	-9.37490494297
1339	0.6695	-66.8173515982	50.4107438017	14.2743902439	-10.7840304183
1340	0.67	-59.7648401826	49.0012396694	18.5365853659	-10.7840304183
1341	0.6705	-38.6073059361	20.8111570248	21.3780487805	-16.4205323194
1342	0.671	-21.6812785388	-4.55991735537	25.6402439024	-19.23878327
1343	0.6715	13.5812785388	-10.1979338843	24.2195121951	-12.1931558935
1344	0.672	34.7388127854	-15.8359504132	22.7987804878	4.71634980989
1345	0.6725	29.096803653	-42.6165289256	15.6951219512	1.89809885932
1346	0.673	34.7388127854	-27.1119834711	19.9573170732	13.1711026616
1347	0.6735	54.4858447489	9.53512396694	24.2195121951	17.3984790875
1348	0.674	89.7484018265	22.220661157	19.9573170732	25.8532319392
1349	0.6745	88.3378995434	-5.9694214876	-14.1402439024	25.8532319392
1350	0.675	48.8438356164	-28.5214876033	-18.4024390244	21.6258555133
1351	0.6755	27.6863013699	-14.426446281	-15.5609756098	18.8076045627
1352	0.676	31.9178082192	15.1731404959	-11.2987804878	20.216730038
1353	0.6765	14.9917808219	34.9061983471	-7.03658536585	13.1711026616
1354	0.677	10.7602739726	34.9061983471	-5.61585365854	7.53460076046
1355	0.6775	34.7388127854	17.9921487603	-9.87804878049	-0.920152091255
1356	0.678	14.9917808219	23.6301652893	-16.9817073171	-7.96577946768
1357	0.6785	-6.16575342466	40.544214876	-22.6646341463	-13.6022813688
1358	0.679	-21.6812785388	34.9061983471	-18.4024390244	-19.23878327
1359	0.6795	-23.0917808219	44.7727272727	-12.7195121951	-23.4661596958
1360	0.68	-6.16575342466	51.8202479339	-11.2987804878	-23.4661596958
1361	0.6805	29.096803653	67.3247933884	-12.7195121951	-20.6479087452
1362	0.681	26.2757990868	80.0103305785	-9.87804878049	-19.23878327
1363	0.6815	3.70776255708	26.4491735537	-8.45731707317	-22.0570342205
1364	0.682	5.11826484018	-36.9785123967	-4.19512195122	-26.2844106464
1365	0.6825	10.7602739726	-76.4446280992	-1.35365853659	-10.7840304183
1366	0.683	40.3808219178	-107.453719008	1.48780487805	13.1711026616
1367	0.6835	46.0228310502	-94.7681818182	2.90853658537	23.0349809886
1368	0.684	20.6337899543	-72.2161157025	5.75	27.2623574144
1369	0.6845	-3.34474885845	-51.073553719	5.75	17.3984790875
1370	0.685	-10.397260274	-34.1595041322	2.90853658537	15.9893536122
1371	0.6855	-8.98675799087	2.48760330579	-1.35365853659	10.352851711
1372	0.686	6.52876712329	41.9537190083	-2.7743902439	24.4441064639
1373	0.6865	7.93926940639	46.182231405	-1.35365853659	1.89809885932
1374	0.687	-1.93424657534	29.2681818182	-5.61585365854	3.3072243346
1375	0.6875	-14.6287671233	9.53512396694	-8.45731707317	6.12547528517
1376	0.688	-28.7337899543	-15.8359504132	-4.19512195122	15.9893536122
1377	0.6885	-40.0178082192	-56.7115702479	-2.7743902439	24.4441064639
1378	0.689	-44.2493150685	-66.5780991736	2.90853658537	28.6714828897
1379	0.6895	-34.3757990868	-49.6640495868	4.32926829268	28.6714828897
1380	0.69	-27.3232876712	-0.331404958678	7.17073170732	23.0349809886
1381	0.6905	-44.2493150685	29.2681818182	11.4329268293	23.0349809886
1382	0.691	-59.7648401826	29.2681818182	14.2743902439	20.216730038
1383	0.6915	-68.2278538813	36.3157024793	15.6951219512	17.3984790875
1384	0.692	-65.4068493151	39.1347107438	14.2743902439	15.9893536122
1385	0.6925	-58.3543378995	36.3157024793	5.75	7.53460076046
1386	0.693	-10.397260274	19.4016528926	1.48780487805	1.89809885932
1387	0.6935	38.9703196347	1.07809917355	-1.35365853659	-3.73840304183
1388	0.694	34.7388127854	2.48760330579	0.0670731707317	-9.37490494297
1389	0.6945	17.8127853881	26.4491735537	4.32926829268	-10.7840304183
1390	0.695	30.5073059361	40.544214876	14.2743902439	-2.32927756654
1391	0.6955	40.3808219178	63.0962809917	15.6951219512	1.89809885932
1392	0.696	33.3283105023	63.0962809917	19.9573170732	3.3072243346
1393	0.6965	26.2757990868	44.7727272727	17.1158536585	15.9893536122
1394	0.697	19.2232876712	23.6301652893	5.75	4.71634980989
1395	0.6975	7.93926940639	-4.55991735537	4.32926829268	8.94372623574
1396	0.698	2.29726027397	17.9921487603	0.0670731707317	18.8076045627
1397	0.6985	-13.2182648402	29.2681818182	4.32926829268	24.4441064639
1398	0.699	-18.8602739726	9.53512396694	4.32926829268	17.3984790875
1399	0.6995	-3.34474885845	-3.15041322314	1.48780487805	23.0349809886
1400	0.7	16.402283105	8.12561983471	-15.5609756098	27.2623574144
1401	0.7005	23.4547945205	1.07809917355	-11.2987804878	27.2623574144
1402	0.701	17.8127853881	-11.6074380165	-7.03658536585	21.6258555133
1403	0.7015	26.2757990868	-21.4739669421	-2.7743902439	14.5802281369
1404	0.702	37.5598173516	-34.1595041322	-4.19512195122	11.7619771863
1405	0.7025	60.1278538813	-39.7975206612	-8.45731707317	7.53460076046
1406	0.703	93.9799086758	-53.8925619835	-14.1402439024	0.48897338403
1407	0.7035	79.8748858447	-32.75	-19.8231707317	0.48897338403
1408	0.704	43.201826484	-4.55991735537	-15.5609756098	7.53460076046
1409	0.7045	12.1707762557	-3.15041322314	-12.7195121951	10.352851711
1410	0.705	2.29726027397	-29.9309917355	-14.1402439024	14.5802281369
1411	0.7055	3.70776255708	-46.8450413223	-9.87804878049	17.3984790875
1412	0.706	9.3497716895	-55.3020661157	-11.2987804878	21.6258555133
1413	0.7065	12.1707762557	-51.073553719	-9.87804878049	27.2623574144
1414	0.707	-1.93424657534	-62.3495867769	-5.61585365854	28.6714828897
1415	0.7075	14.9917808219	-41.2070247934	-2.7743902439	39.944486692
1416	0.708	27.6863013699	-1.74090909091	0.0670731707317	27.2623574144
1417	0.7085	27.6863013699	6.71611570248	2.90853658537	10.352851711
1418	0.709	22.0442922374	-3.15041322314	0.0670731707317	6.12547528517
1419	0.7095	3.70776255708	1.07809917355	4.32926829268	0.48897338403
1420	0.71	-4.75525114155	1.07809917355	5.75	-7.96577946768
1421	0.7105	-3.34474885845	-15.8359504132	5.75	-13.6022813688
1422	0.711	-6.16575342466	-39.7975206612	12.8536585366	-13.6022813688
1423	0.7115	-7.57625570776	-44.0260330579	11.4329268293	-13.6022813688
1424	0.712	-1.93424657534	-28.5214876033	12.8536585366	-13.6022813688
1425	0.7125	2.29726027397	-21.4739669421	7.17073170732	-9.37490494297
1426	0.713	2.29726027397	-20.0644628099	12.8536585366	-9.37490494297
1427	0.7135	-10.397260274	-28.5214876033	19.9573170732	-13.6022813688
1428	0.714	-16.0392694064	-21.4739669421	18.5365853659	-19.23878327
1429	0.7145	-18.8602739726	-15.8359504132	15.6951219512	-17.8296577947
1430	0.715	-20.2707762557	1.07809917355	14.2743902439	-15.0114068441
1431	0.7155	-17.4497716895	19.4016528926	14.2743902439	-7.96577946768
1432	0.716	-24.502283105	32.0871900826	11.4329268293	4.71634980989
1433	0.7165	-38.6073059361	16.5826446281	2.90853658537	10.352851711
1434	0.717	-41.4283105023	-5.9694214876	-4.19512195122	20.216730038
1435	0.7175	-14.6287671233	-21.4739669421	-5.61585365854	23.0349809886
1436	0.718	30.5073059361	-11.6074380165	-9.87804878049	27.2623574144
1437	0.7185	7.93926940639	16.5826446281	-1.35365853659	25.8532319392
1438	0.719	-8.98675799087	26.4491735537	2.90853658537	23.0349809886
1439	0.7195	-28.7337899543	29.2681818182	1.48780487805	17.3984790875
1440	0.72	-47.0703196347	25.0396694215	2.90853658537	10.352851711
1441	0.7205	-58.3543378995	36.3157024793	2.90853658537	4.71634980989
1442	0.721	-66.8173515982	37.7252066116	7.17073170732	-0.920152091255
1443	0.7215	-71.0488584475	27.858677686	5.75	0.48897338403
1444	0.722	-62.5858447489	20.8111570248	5.75	-7.96577946768
1445	0.7225	-58.3543378995	15.1731404959	0.0670731707317	-19.23878327
1446	0.723	-54.1228310502	-7.37892561983	-4.19512195122	-26.2844106464
1447	0.7235	-56.9438356164	-11.6074380165	-12.7195121951	-6.5566539924
1448	0.724	-44.2493150685	-0.331404958678	-11.2987804878	-7.96577946768
1449	0.7245	-4.75525114155	15.1731404959	-1.35365853659	-6.5566539924
1450	0.725	22.0442922374	23.6301652893	4.32926829268	0.48897338403
1451	0.7255	-0.523744292237	15.1731404959	12.8536585366	0.48897338403
1452	0.726	-27.3232876712	-1.74090909091	14.2743902439	-0.920152091255
1453	0.7265	-31.5547945205	-5.9694214876	2.90853658537	1.89809885932
1454	0.727	-20.2707762557	-17.2454545455	-8.45731707317	4.71634980989
1455	0.7275	23.4547945205	-24.2929752066	-16.9817073171	6.12547528517
1456	0.728	46.0228310502	-20.0644628099	-24.0853658537	13.1711026616
1457	0.7285	46.0228310502	-11.6074380165	-25.506097561	21.6258555133
1458	0.729	12.1707762557	-8.78842975207	-19.8231707317	15.9893536122
1459	0.7295	-35.7863013699	-8.78842975207	-18.4024390244	6.12547528517
1460	0.73	-66.8173515982	16.5826446281	-18.4024390244	3.3072243346
1461	0.7305	-63.996347032	6.71611570248	-12.7195121951	-0.920152091255
1462	0.731	-18.8602739726	-1.74090909091	-11.2987804878	-0.920152091255
1463	0.7315	10.7602739726	-8.78842975207	-7.03658536585	3.3072243346
1464	0.732	17.8127853881	-5.9694214876	-8.45731707317	-2.32927756654
1465	0.7325	40.3808219178	-5.9694214876	-7.03658536585	1.89809885932
1466	0.733	74.2328767123	-4.55991735537	-8.45731707317	10.352851711
1467	0.7335	96.800913242	-8.78842975207	-5.61585365854	8.94372623574
1468	0.734	57.3068493151	-8.78842975207	0.0670731707317	6.12547528517
1469	0.7345	0.886757990868	-8.78842975207	0.0670731707317	-10.7840304183
1470	0.735	-4.75525114155	-0.331404958678	-1.35365853659	-7.96577946768
1471	0.7355	44.6123287671	2.48760330579	-5.61585365854	-2.32927756654
1472	0.736	78.4643835616	-1.74090909091	-1.35365853659	13.1711026616
1473	0.7365	51.6648401826	-7.37892561983	1.48780487805	23.0349809886
1474	0.737	9.3497716895	3.89710743802	-1.35365853659	28.6714828897
1475	0.7375	-16.0392694064	16.5826446281	-9.87804878049	17.3984790875
1476	0.738	-32.9652968037	22.220661157	-7.03658536585	20.216730038
1477	0.7385	-40.0178082192	32.0871900826	0.0670731707317	23.0349809886
1478	0.739	-56.9438356164	33.4966942149	21.3780487805	23.0349809886
1479	0.7395	-78.101369863	25.0396694215	38.4268292683	21.6258555133
1480	0.74	-97.8484018265	6.71611570248	46.9512195122	25.8532319392
1481	0.7405	-82.3328767123	3.89710743802	29.9024390244	20.216730038
1482	0.741	-55.5333333333	2.48760330579	34.1646341463	10.352851711
1483	0.7415	-32.9652968037	1.07809917355	34.1646341463	7.53460076046
1484	0.742	17.8127853881	-0.331404958678	35.5853658537	3.3072243346
1485	0.7425	65.7698630137	1.07809917355	37.006097561	-0.920152091255
1486	0.743	68.5908675799	1.07809917355	35.5853658537	-7.96577946768
1487	0.7435	46.0228310502	5.30661157025	35.5853658537	-15.0114068441
1488	0.744	27.6863013699	9.53512396694	39.8475609756	-20.6479087452
1489	0.7445	16.402283105	16.5826446281	37.006097561	-26.2844106464
1490	0.745	-11.8077625571	19.4016528926	35.5853658537	-36.1482889734
1491	0.7455	-40.0178082192	15.1731404959	31.3231707317	-43.1939163498
1492	0.746	-66.8173515982	8.12561983471	19.9573170732	-44.6030418251
1493	0.7465	-72.4593607306	-0.331404958678	7.17073170732	-44.6030418251
1494	0.747	-87.9748858447	-1.74090909091	-5.61585365854	-46.0121673004
1495	0.7475	-87.9748858447	-4.55991735537	-12.7195121951	-47.4212927757
1496	0.748	-66.8173515982	-7.37892561983	-11.2987804878	-48.830418251
1497	0.7485	-23.0917808219	-8.78842975207	-14.1402439024	-57.2851711027
1498	0.749	13.5812785388	-10.1979338843	-12.7195121951	-62.9216730038
1499	0.7495	65.7698630137	-22.8834710744	-14.1402439024	-60.1034220532
1500	0.75	89.7484018265	-31.3404958678	-15.5609756098	-62.9216730038
1501	0.7505	93.9799086758	-32.75	-18.4024390244	-68.5581749049
1502	0.751	84.1063926941	-24.2929752066	-15.5609756098	-77.0129277567
1503	0.7515	75.6433789954	-24.2929752066	-15.5609756098	-88.2859315589
1504	0.752	71.4118721461	-15.8359504132	-7.03658536585	-102.377186312
1505	0.7525	64.3593607306	-1.74090909091	-8.45731707317	-115.059315589
1506	0.753	61.5383561644	1.07809917355	-11.2987804878	-129.150570342
1507	0.7535	34.7388127854	3.89710743802	-12.7195121951	-146.060076046
1508	0.754	7.93926940639	10.9446280992	-12.7195121951	-158.742205323
1509	0.7545	-4.75525114155	8.12561983471	-8.45731707317	-168.60608365
1510	0.755	-10.397260274	-0.331404958678	-5.61585365854	-174.242585551
1511	0.7555	-16.0392694064	-0.331404958678	-5.61585365854	-179.879087452
1512	0.756	-10.397260274	3.89710743802	-1.35365853659	-185.515589354
1513	0.7565	-3.34474885845	10.9446280992	-1.35365853659	-188.333840304
1514	0.757	5.11826484018	17.9921487603	1.48780487805	-191.152091255
1515	0.7575	9.3497716895	26.4491735537	2.90853658537	-186.924714829
1516	0.758	0.886757990868	29.2681818182	0.0670731707317	-186.924714829
1517	0.7585	41.7913242009	29.2681818182	-1.35365853659	-186.924714829
1518	0.759	53.0753424658	26.4491735537	0.0670731707317	-186.924714829
1519	0.7595	36.1493150685	22.220661157	5.75	-178.469961977
1520	0.76	14.9917808219	10.9446280992	11.4329268293	-177.060836502
1521	0.7605	-1.93424657534	6.71611570248	14.2743902439	-164.378707224
1522	0.761	-4.75525114155	-0.331404958678	14.2743902439	-164.378707224
1523	0.7615	0.886757990868	-5.9694214876	12.8536585366	-165.7878327
1524	0.762	20.6337899543	-14.426446281	14.2743902439	-161.560456274
1525	0.7625	26.2757990868	-13.0169421488	15.6951219512	-157.333079848
1526	0.763	23.4547945205	2.48760330579	11.4329268293	-148.878326996
1527	0.7635	30.5073059361	27.858677686	5.75	-139.014448669
1528	0.764	22.0442922374	37.7252066116	-11.2987804878	-131.968821293
1529	0.7645	19.2232876712	29.2681818182	11.4329268293	-117.87756654
1530	0.765	31.9178082192	6.71611570248	-8.45731707317	-106.604562738
1531	0.7655	31.9178082192	32.0871900826	-11.2987804878	-95.3315589354
1532	0.766	19.2232876712	61.6867768595	-14.1402439024	-78.4220532319
1533	0.7665	10.7602739726	64.505785124	-15.5609756098	-67.1490494297
1534	0.767	9.3497716895	23.6301652893	-15.5609756098	-54.4669201521
1535	0.7675	5.11826484018	-35.5690082645	-16.9817073171	-41.7847908745
1536	0.768	-4.75525114155	-44.0260330579	-18.4024390244	-36.1482889734
1537	0.7685	-7.57625570776	-13.0169421488	-22.6646341463	-31.9209125475
1538	0.769	-3.34474885845	-7.37892561983	-24.0853658537	-31.9209125475
1539	0.7695	3.70776255708	-7.37892561983	-21.243902439	-38.966539924
1540	0.77	-6.16575342466	-42.6165289256	-22.6646341463	-41.7847908745
1541	0.7705	-16.0392694064	-49.6640495868	-21.243902439	-41.7847908745
1542	0.771	9.3497716895	-27.1119834711	-22.6646341463	-44.6030418251
1543	0.7715	-4.75525114155	10.9446280992	-28.3475609756	-51.6486692015
1544	0.772	-17.4497716895	29.2681818182	-26.9268292683	-54.4669201521
1545	0.7725	-28.7337899543	26.4491735537	-31.1890243902	-44.6030418251
1546	0.773	-21.6812785388	27.858677686	-25.506097561	-44.6030418251
1547	0.7735	-0.523744292237	26.4491735537	-18.4024390244	-34.7391634981
1548	0.774	-14.6287671233	23.6301652893	-16.9817073171	-43.1939163498
1549	0.7745	-30.1442922374	9.53512396694	-18.4024390244	-53.0577946768
1550	0.775	-28.7337899543	-11.6074380165	-18.4024390244	-47.4212927757
1551	0.7755	-17.4497716895	-27.1119834711	-19.8231707317	-44.6030418251
1552	0.776	-10.397260274	-21.4739669421	-12.7195121951	-40.3756653992
1553	0.7765	0.886757990868	-22.8834710744	-14.1402439024	-46.0121673004
1554	0.777	0.886757990868	-14.426446281	-15.5609756098	-48.830418251
1555	0.7775	-1.93424657534	-0.331404958678	-15.5609756098	-48.830418251
1556	0.778	2.29726027397	16.5826446281	-14.1402439024	-46.0121673004
1557	0.7785	12.1707762557	33.4966942149	5.75	-50.2395437262
1558	0.779	20.6337899543	30.6776859504	-7.03658536585	-51.6486692015
1559	0.7795	12.1707762557	20.8111570248	-8.45731707317	-47.4212927757
1560	0.78	-4.75525114155	20.8111570248	-8.45731707317	-44.6030418251
1561	0.7805	-10.397260274	30.6776859504	-12.7195121951	-36.1482889734
1562	0.781	-16.0392694064	30.6776859504	-9.87804878049	-27.6935361217
1563	0.7815	-34.3757990868	-8.78842975207	-15.5609756098	-16.4205323194
1564	0.782	-37.196803653	-41.2070247934	-18.4024390244	-6.5566539924
1565	0.7825	-40.0178082192	-42.6165289256	-22.6646341463	4.71634980989
1566	0.783	-52.7123287671	-22.8834710744	-18.4024390244	13.1711026616
1567	0.7835	-42.8388127854	2.48760330579	-22.6646341463	20.216730038
1568	0.784	-11.8077625571	-10.1979338843	-29.7682926829	21.6258555133
1569	0.7845	6.52876712329	-49.6640495868	-35.4512195122	21.6258555133
1570	0.785	14.9917808219	-70.8066115702	-42.5548780488	15.9893536122
1571	0.7855	3.70776255708	-73.6256198347	-38.2926829268	21.6258555133
1572	0.786	-20.2707762557	-62.3495867769	-29.7682926829	13.1711026616
1573	0.7865	-23.0917808219	-24.2929752066	-22.6646341463	-2.32927756654
1574	0.787	-6.16575342466	-10.1979338843	-18.4024390244	-0.920152091255
1575	0.7875	3.70776255708	-10.1979338843	-18.4024390244	15.9893536122
1576	0.788	17.8127853881	-5.9694214876	-5.61585365854	10.352851711
1577	0.7885	41.7913242009	15.1731404959	-5.61585365854	11.7619771863
1578	0.789	44.6123287671	22.220661157	-12.7195121951	11.7619771863
1579	0.7895	36.1493150685	33.4966942149	-18.4024390244	10.352851711
1580	0.79	29.096803653	39.1347107438	-21.243902439	10.352851711
1581	0.7905	30.5073059361	29.2681818182	-24.0853658537	10.352851711
1582	0.791	31.9178082192	23.6301652893	-18.4024390244	8.94372623574
1583	0.7915	17.8127853881	8.12561983471	-12.7195121951	8.94372623574
1584	0.792	0.886757990868	6.71611570248	-8.45731707317	8.94372623574
1585	0.7925	-6.16575342466	2.48760330579	-2.7743902439	6.12547528517
1586	0.793	-7.57625570776	-24.2929752066	2.90853658537	1.89809885932
1587	0.7935	0.886757990868	-15.8359504132	8.59146341463	1.89809885932
1588	0.794	10.7602739726	8.12561983471	15.6951219512	0.48897338403
1589	0.7945	12.1707762557	10.9446280992	19.9573170732	-0.920152091255
1590	0.795	2.29726027397	2.48760330579	22.7987804878	0.48897338403
1591	0.7955	-0.523744292237	-4.55991735537	27.0609756098	1.89809885932
1592	0.796	5.11826484018	-5.9694214876	29.9024390244	-5.14752851711
1593	0.7965	-3.34474885845	2.48760330579	31.3231707317	1.89809885932
1594	0.797	-6.16575342466	2.48760330579	29.9024390244	7.53460076046
1595	0.7975	-16.0392694064	1.07809917355	28.4817073171	18.8076045627
1596	0.798	-17.4497716895	-3.15041322314	27.0609756098	27.2623574144
1597	0.7985	-24.502283105	-1.74090909091	25.6402439024	31.4897338403
1598	0.799	-44.2493150685	-0.331404958678	12.8536585366	34.3079847909
1599	0.7995	-59.7648401826	6.71611570248	-8.45731707317	45.5809885932
1600	0.8	-89.3853881279	12.3541322314	-24.0853658537	51.2174904943
1601	0.8005	-119.005936073	13.7636363636	-24.0853658537	51.2174904943
1602	0.801	-130.289954338	3.89710743802	-12.7195121951	49.808365019
1603	0.8015	-135.93196347	3.89710743802	-15.5609756098	44.1718631179
1604	0.802	-102.079908676	9.53512396694	-11.2987804878	45.5809885932
1605	0.8025	-41.4283105023	1.07809917355	-12.7195121951	44.1718631179
1606	0.803	19.2232876712	-4.55991735537	-2.7743902439	45.5809885932
1607	0.8035	64.3593607306	2.48760330579	-19.8231707317	48.3992395437
1608	0.804	91.1589041096	20.8111570248	-18.4024390244	48.3992395437
1609	0.8045	96.800913242	34.9061983471	-18.4024390244	49.808365019
1610	0.805	55.896347032	43.3632231405	-14.1402439024	44.1718631179
1611	0.8055	3.70776255708	36.3157024793	-12.7195121951	45.5809885932
1612	0.806	-41.4283105023	17.9921487603	-9.87804878049	45.5809885932
1613	0.8065	-52.7123287671	-0.331404958678	-4.19512195122	42.7627376426
1614	0.807	-55.5333333333	-4.55991735537	1.48780487805	42.7627376426
1615	0.8075	-48.4808219178	-15.8359504132	-1.35365853659	44.1718631179
1616	0.808	-23.0917808219	-32.75	1.48780487805	38.5353612167
1617	0.8085	17.8127853881	-34.1595041322	5.75	35.7171102662
1618	0.809	16.402283105	-24.2929752066	14.2743902439	28.6714828897
1619	0.8095	36.1493150685	-15.8359504132	18.5365853659	27.2623574144
1620	0.81	57.3068493151	-18.6549586777	18.5365853659	15.9893536122
1621	0.8105	61.5383561644	-25.7024793388	17.1158536585	6.12547528517
1622	0.811	44.6123287671	-7.37892561983	14.2743902439	15.9893536122
1623	0.8115	33.3283105023	8.12561983471	2.90853658537	20.216730038
1624	0.812	20.6337899543	15.1731404959	8.59146341463	35.7171102662
1625	0.8125	-0.523744292237	17.9921487603	7.17073170732	8.94372623574
1626	0.813	-38.6073059361	3.89710743802	1.48780487805	8.94372623574
1627	0.8135	-62.5858447489	3.89710743802	0.0670731707317	18.8076045627
1628	0.814	-48.4808219178	9.53512396694	-5.61585365854	28.6714828897
1629	0.8145	-42.8388127854	13.7636363636	-4.19512195122	35.7171102662
1630	0.815	-28.7337899543	20.8111570248	-8.45731707317	41.3536121673
1631	0.8155	-27.3232876712	29.2681818182	-9.87804878049	45.5809885932
1632	0.816	-10.397260274	39.1347107438	-9.87804878049	42.7627376426
1633	0.8165	34.7388127854	36.3157024793	-12.7195121951	39.944486692
1634	0.817	46.0228310502	13.7636363636	-12.7195121951	41.3536121673
1635	0.8175	40.3808219178	-0.331404958678	-7.03658536585	48.3992395437
1636	0.818	-1.93424657534	5.30661157025	-1.35365853659	52.6266159696
1637	0.8185	-35.7863013699	22.220661157	1.48780487805	59.672243346
1638	0.819	-30.1442922374	10.9446280992	1.48780487805	58.2631178707
1639	0.8195	-30.1442922374	-1.74090909091	-1.35365853659	58.2631178707
1640	0.82	-11.8077625571	-13.0169421488	-4.19512195122	51.2174904943
1641	0.8205	-3.34474885845	-42.6165289256	-1.35365853659	49.808365019
1642	0.821	10.7602739726	-69.397107438	-4.19512195122	58.2631178707
1643	0.8215	-3.34474885845	-60.9400826446	-4.19512195122	62.4904942966
1644	0.822	-16.0392694064	-24.2929752066	-1.35365853659	61.0813688213
1645	0.8225	-13.2182648402	-0.331404958678	4.32926829268	52.6266159696
1646	0.823	-6.16575342466	2.48760330579	4.32926829268	46.9901140684
1647	0.8235	20.6337899543	-8.78842975207	5.75	42.7627376426
1648	0.824	57.3068493151	-15.8359504132	7.17073170732	39.944486692
1649	0.8245	54.4858447489	-8.78842975207	8.59146341463	35.7171102662
1650	0.825	53.0753424658	-5.9694214876	2.90853658537	34.3079847909
1651	0.8255	68.5908675799	-3.15041322314	4.32926829268	28.6714828897
1652	0.826	51.6648401826	5.30661157025	4.32926829268	28.6714828897
1653	0.8265	44.6123287671	3.89710743802	5.75	30.080608365
1654	0.827	24.8652968037	8.12561983471	10.012195122	27.2623574144
1655	0.8275	-20.2707762557	20.8111570248	18.5365853659	25.8532319392
1656	0.828	-44.2493150685	27.858677686	19.9573170732	23.0349809886
1657	0.8285	-37.196803653	27.858677686	25.6402439024	18.8076045627
1658	0.829	-27.3232876712	22.220661157	34.1646341463	20.216730038
1659	0.8295	-18.8602739726	15.1731404959	35.5853658537	21.6258555133
1660	0.83	-20.2707762557	10.9446280992	35.5853658537	24.4441064639
1661	0.8305	-7.57625570776	33.4966942149	34.1646341463	30.080608365
1662	0.831	-17.4497716895	36.3157024793	31.3231707317	34.3079847909
1663	0.8315	-35.7863013699	29.2681818182	35.5853658537	31.4897338403
1664	0.832	-51.301826484	19.4016528926	32.743902439	32.8988593156
1665	0.8325	-69.6383561644	8.12561983471	31.3231707317	34.3079847909
1666	0.833	-78.101369863	-0.331404958678	24.2195121951	37.1262357414
1667	0.8335	-56.9438356164	-5.9694214876	21.3780487805	38.5353612167
1668	0.834	-49.8913242009	-4.55991735537	18.5365853659	37.1262357414
1669	0.8345	-41.4283105023	9.53512396694	14.2743902439	39.944486692
1670	0.835	-20.2707762557	15.1731404959	11.4329268293	31.4897338403
1671	0.8355	-7.57625570776	13.7636363636	8.59146341463	28.6714828897
1672	0.836	-25.9127853881	9.53512396694	-4.19512195122	28.6714828897
1673	0.8365	0.886757990868	6.71611570248	-15.5609756098	45.5809885932
1674	0.837	43.201826484	-4.55991735537	-26.9268292683	52.6266159696
1675	0.8375	51.6648401826	-4.55991735537	-28.3475609756	48.3992395437
1676	0.838	30.5073059361	10.9446280992	-26.9268292683	35.7171102662
1677	0.8385	30.5073059361	39.1347107438	-35.4512195122	35.7171102662
1678	0.839	23.4547945205	49.0012396694	-31.1890243902	34.3079847909
1679	0.8395	16.402283105	34.9061983471	-29.7682926829	38.5353612167
1680	0.84	36.1493150685	-5.9694214876	-26.9268292683	37.1262357414
1681	0.8405	33.3283105023	-31.3404958678	-19.8231707317	35.7171102662
1682	0.841	33.3283105023	-42.6165289256	-16.9817073171	39.944486692
1683	0.8415	55.896347032	-27.1119834711	-15.5609756098	38.5353612167
1684	0.842	64.3593607306	-11.6074380165	-11.2987804878	41.3536121673
1685	0.8425	65.7698630137	3.89710743802	-9.87804878049	42.7627376426
1686	0.843	44.6123287671	32.0871900826	-7.03658536585	44.1718631179
1687	0.8435	9.3497716895	44.7727272727	-2.7743902439	49.808365019
1688	0.844	-18.8602739726	27.858677686	-1.35365853659	46.9901140684
1689	0.8445	-18.8602739726	2.48760330579	0.0670731707317	46.9901140684
1690	0.845	16.402283105	-27.1119834711	1.48780487805	45.5809885932
1691	0.8455	48.8438356164	-41.2070247934	5.75	45.5809885932
1692	0.846	57.3068493151	-41.2070247934	8.59146341463	52.6266159696
1693	0.8465	64.3593607306	-10.1979338843	14.2743902439	56.8539923954
1694	0.847	88.3378995434	9.53512396694	15.6951219512	61.0813688213
1695	0.8475	88.3378995434	6.71611570248	18.5365853659	56.8539923954
1696	0.848	84.1063926941	-3.15041322314	15.6951219512	51.2174904943
1697	0.8485	65.7698630137	-28.5214876033	19.9573170732	44.1718631179
1698	0.849	33.3283105023	-13.0169421488	21.3780487805	38.5353612167
1699	0.8495	-6.16575342466	10.9446280992	27.0609756098	35.7171102662
1700	0.85	-28.7337899543	8.12561983471	22.7987804878	45.5809885932
1701	0.8505	-30.1442922374	6.71611570248	31.3231707317	39.944486692
1702	0.851	-21.6812785388	10.9446280992	34.1646341463	28.6714828897
1703	0.8515	-16.0392694064	3.89710743802	34.1646341463	18.8076045627
1704	0.852	2.29726027397	-11.6074380165	32.743902439	17.3984790875
1705	0.8525	16.402283105	-10.1979338843	25.6402439024	24.4441064639
1706	0.853	16.402283105	2.48760330579	27.0609756098	30.080608365
1707	0.8535	2.29726027397	15.1731404959	27.0609756098	35.7171102662
1708	0.854	7.93926940639	17.9921487603	19.9573170732	38.5353612167
1709	0.8545	12.1707762557	16.5826446281	19.9573170732	39.944486692
1710	0.855	-3.34474885845	19.4016528926	18.5365853659	39.944486692
1711	0.8555	-16.0392694064	20.8111570248	15.6951219512	45.5809885932
1712	0.856	-17.4497716895	8.12561983471	8.59146341463	45.5809885932
1713	0.8565	-16.0392694064	5.30661157025	18.5365853659	48.3992395437
1714	0.857	-10.397260274	-11.6074380165	14.2743902439	48.3992395437
1715	0.8575	-8.98675799087	-10.1979338843	7.17073170732	52.6266159696
1716	0.858	0.886757990868	-10.1979338843	12.8536585366	49.808365019
1717	0.8585	5.11826484018	-10.1979338843	14.2743902439	51.2174904943
1718	0.859	0.886757990868	-8.78842975207	8.59146341463	52.6266159696
1719	0.8595	-7.57625570776	-0.331404958678	5.75	44.1718631179
1720	0.86	-14.6287671233	5.30661157025	4.32926829268	38.5353612167
1721	0.8605	-8.98675799087	-1.74090909091	12.8536585366	27.2623574144
1722	0.861	-6.16575342466	16.5826446281	15.6951219512	20.216730038
1723	0.8615	-7.57625570776	34.9061983471	19.9573170732	14.5802281369
1724	0.862	-6.16575342466	46.182231405	22.7987804878	14.5802281369
1725	0.8625	-0.523744292237	32.0871900826	22.7987804878	18.8076045627
1726	0.863	-7.57625570776	17.9921487603	19.9573170732	24.4441064639
1727	0.8635	-16.0392694064	29.2681818182	12.8536585366	34.3079847909
1728	0.864	-11.8077625571	26.4491735537	14.2743902439	20.216730038
1729	0.8645	7.93926940639	-3.15041322314	4.32926829268	24.4441064639
1730	0.865	27.6863013699	-44.0260330579	5.75	41.3536121673
1731	0.8655	22.0442922374	-49.6640495868	1.48780487805	28.6714828897
1732	0.866	0.886757990868	-63.7590909091	-1.35365853659	28.6714828897
1733	0.8665	-7.57625570776	-55.3020661157	-5.61585365854	21.6258555133
1734	0.867	-1.93424657534	-13.0169421488	-18.4024390244	25.8532319392
1735	0.8675	2.29726027397	27.858677686	-18.4024390244	27.2623574144
1736	0.868	-6.16575342466	34.9061983471	-12.7195121951	28.6714828897
1737	0.8685	3.70776255708	44.7727272727	-4.19512195122	27.2623574144
1738	0.869	19.2232876712	39.1347107438	1.48780487805	30.080608365
1739	0.8695	12.1707762557	19.4016528926	4.32926829268	28.6714828897
1740	0.87	10.7602739726	16.5826446281	2.90853658537	28.6714828897
1741	0.8705	5.11826484018	37.7252066116	-2.7743902439	31.4897338403
1742	0.871	9.3497716895	36.3157024793	-4.19512195122	31.4897338403
1743	0.8715	12.1707762557	47.5917355372	-4.19512195122	31.4897338403
1744	0.872	14.9917808219	54.6392561983	-2.7743902439	30.080608365
1745	0.8725	-4.75525114155	44.7727272727	-5.61585365854	28.6714828897
1746	0.873	-14.6287671233	9.53512396694	-11.2987804878	34.3079847909
1747	0.8735	-32.9652968037	-14.426446281	-12.7195121951	37.1262357414
1748	0.874	-32.9652968037	-41.2070247934	-7.03658536585	23.0349809886
1749	0.8745	-45.6598173516	-59.5305785124	-4.19512195122	18.8076045627
1750	0.875	-42.8388127854	-56.7115702479	-5.61585365854	28.6714828897
1751	0.8755	-38.6073059361	-44.0260330579	-5.61585365854	34.3079847909
1752	0.876	-30.1442922374	-14.426446281	-2.7743902439	20.216730038
1753	0.8765	-31.5547945205	-5.9694214876	-8.45731707317	20.216730038
1754	0.877	-21.6812785388	-36.9785123967	-16.9817073171	25.8532319392
1755	0.8775	-14.6287671233	-32.75	-16.9817073171	31.4897338403
1756	0.878	-10.397260274	-13.0169421488	-14.1402439024	31.4897338403
1757	0.8785	12.1707762557	-11.6074380165	-5.61585365854	30.080608365
1758	0.879	31.9178082192	-8.78842975207	5.75	28.6714828897
